Time(ms),I,II,III,aVR,aVL,aVF,V1,V2,V3,V4,V5,V6
-200.0,1.251684977213712,-2.0694571866818983,-3.321142163895678,0.3687449155206415,2.338572489763055,-2.735043610323538,0.9257523725004176,1.0807902207860443,0.8299963044286786,1.903694292208288,2.4474017588049803,-0.8577872681008175
-199.0,5.062408296252706,8.104573397594711,3.0421651013419315,-6.54841072149884,0.9869499449788173,5.533246738497137,-0.9191432652756559,-3.0098342935926676,0.46254264720872246,1.252543983529623,3.8752447343669334,1.1721228917163171
-198.0,3.705380005321941,-1.3011371311623257,-5.0065171364843195,-1.1689976709854522,4.332492020409229,-3.198171644025643,-0.7581999955385578,1.2886847005863784,-0.955606991082636,-0.8283382983347023,-0.1087457918443897,-0.7680212402044684
-197.0,1.3547682961081622,-0.10655412282566079,-1.4613224189338307,-0.5902397538399684,1.4586758341068573,-0.7561721386484476,-5.177367562251254,-1.6145546498708458,0.16503266168158026,-1.337159239207673,-0.4011242887883026,1.3388978486730647
-196.0,-6.067230586377358,-4.9259395257282605,1.1412910606491469,5.454947985060259,-3.6409624486058307,-1.8706330957916162,2.0003026265060875,-1.006839671970577,1.1067253138972095,-0.2814715763088117,1.8345973870592123,0.07111680347500174
-195.0,-5.218650260643999,-4.696076971133911,0.5225732895101691,4.920137045007618,-2.9179958098073904,-2.06732218248857,1.1370218974145325,1.115933895410337,-2.0597364875002935,-0.34390518744538046,-5.336728520900166,-5.50343693106438
-194.0,5.233568064272454,10.782858614430962,5.5492905501585685,-7.962919913788345,-0.13637924243673805,8.189123677264318,0.3608375579286254,2.198380561433295,1.6363787931735665,0.20656714590067657,-3.6984521559414394,1.9944004918370541
-193.0,3.0866304207882953,2.4568220867660213,-0.6298083340222722,-2.8035781109960247,1.8737366566878924,0.8672737599492537,1.6244820261576323,-0.3989824434067579,-1.1235689073876367,1.9858006769614693,0.3802006491268588,-0.6820268734555158
-192.0,-4.912767680876142,-2.855774611939316,2.056993068936774,3.9298935384363887,-3.4692697598267817,-0.35374331406195964,-0.14613786720065758,-1.6870788005020279,0.880130383156077,-1.1959436933372873,5.693094367637829,3.3283644127403074
-191.0,-4.383410254835567,-2.1817012774563267,2.2017089773791967,3.245590649674554,-3.2706633668967258,-0.00990740841858917,0.4120598633571089,-1.029954249236034,-2.2969912686380796,1.755348339865661,1.1463073025007282,5.730589631093394
-190.0,-0.2173496377282862,-3.8459935092563233,-3.628643871528065,1.989571808021386,1.7378724902155214,-3.7477953157342254,-1.026624442926488,-1.859431474674623,-1.9751516483290201,-2.8226155630233105,-1.7366226925778554,-5.830403863077853
-189.0,3.8594008298873215,0.49662154365285893,-3.362779286234459,-2.1460125676649406,3.575232779918804,-1.4406568665835457,1.7553942263264979,2.286003586904916,3.393110178292068,1.333210412905212,2.4721732217085317,-0.14556646435416942
-188.0,9.970845456463383,2.4923277458339226,-7.4785177106294505,-6.202185977393251,8.69606879106422,-2.5051524788454502,-4.166130574194585,1.8592715674261822,3.2533611438686187,1.2255454498133156,-1.6794970859276086,-1.7234454100095542
-187.0,2.5096025669392663,-0.2960318815703027,-2.8056344485095606,-1.0773173139112244,2.630617976280047,-1.5734091107755634,-0.5532526670160709,2.7509645102091675,2.458486912790981,-0.6453601289447093,-1.1586926078755369,0.17405299403303398
-186.0,-8.507148053105952,-2.304214488257215,6.202933564848746,5.35842480514874,-7.385796924449855,1.9920103249726782,2.3186047696862913,-0.6406538991642124,-5.179737001091798,-3.2800067836182234,-5.091375528794871,-4.51427343407799
-185.0,-6.775232104020883,0.13952490699340347,6.914757011014283,3.3515836086838044,-6.803629527017076,3.556985318970619,1.065632248358816,-1.0812387249609439,-2.7973420837970853,-1.2087219330447727,1.5744749444581134,1.6506893792772261
-184.0,-0.1718705041371944,7.779008560855959,7.950879064993126,-3.8481285523518856,-4.026064464536806,7.807233037784013,0.07570422748602579,-4.211051830524245,-0.4703568681794348,3.9662123020995566,4.179610759030639,7.436353895565046
-183.0,3.5189308311946648,0.7806135160057455,-2.7383173151889597,-2.1181960088765917,3.1612294100189864,-0.9606335862263107,-1.9504340562866256,-0.2426533029119935,2.8051022080106294,2.405939946407672,2.711260088276729,3.4040178900993214
-182.0,4.377031017154128,-0.5307457497797502,-4.907776766933918,-1.9759799956987552,4.597871230955795,-2.69761508503295,-0.5624412621325499,-0.14064864433254287,2.1164729839355365,0.7158882097279857,-0.36370148606209907,-1.5643388989673794
-181.0,1.1668235881957356,-6.670193950347316,-7.837017538543064,2.770309204635402,4.5410743883652955,-7.223671081275375,1.3209087656536447,0.24636217447189812,-0.6216021586682985,-5.459235254228639,-2.127485491712381,-6.005039272145406
-180.0,-6.2237012594466705,-5.702957847528445,0.5207434119182262,5.97533338134854,-3.4057433962031602,-2.629288126045147,0.9431299096940036,2.9114618898060836,-1.399707615564649,2.949008379706045,-1.815347173358999,-4.5465762644329715
-179.0,-2.8477921431535282,3.185260706729131,6.033052849882648,-0.16044229061108206,-4.46892067095651,4.581165841831363,1.8532341097681577,3.0048626850826126,1.4913391531023557,-0.9527657209314659,-1.3616021866566963,1.3235486153286797
-178.0,4.673166671163326,3.853646440633569,-0.8195202305297986,-4.254652205738516,2.7206105388576463,1.496597126069417,-0.22499213095190673,0.5775795706775937,-0.22870661310787488,0.7611377029577864,0.7841601021718326,0.5626101710180307
-177.0,3.0138930213459343,0.23937744096127034,-2.774515580384719,-1.6134613629689056,2.947848737837893,-1.2056105915684734,-1.0820323848242612,-2.8726358992778707,-3.390074025071609,-2.0580494321149394,-1.0834994965064337,0.6207148711361985
-176.0,0.0916270118588991,0.4132327272914511,0.32160571543250527,-0.232446587109173,-0.14054992597168203,0.35025516482285846,-2.4036340484958187,-3.8519247979735236,-0.6292984470598634,-1.1818222297440042,1.8712509869191185,3.294528830870225
-175.0,-4.270057908845109,-1.7047771160495289,2.565280792795547,2.935644375110719,-3.3648258726658895,0.4091000340438605,-1.4459514762264636,0.3863474866871377,1.6020779836104841,1.9108893604514794,1.2430856689237655,5.972630067064937
-174.0,2.6319058932285837,3.321807454962364,0.689901561733764,-3.023359129668858,0.9454651802670473,2.0565475416845174,-0.6175963130630516,0.5535662194825396,1.535640348607283,0.682376861561836,1.0445853152622147,-1.4127240594839425
-173.0,3.6204277676027714,3.7345798220194197,0.11415205441664322,-3.642643684991098,1.7284179141687819,1.8872819477143308,2.5491215789611963,2.563327868135476,2.9445470853168056,1.0999048457189613,0.9576116350893826,-3.533124440725909
-172.0,-4.785737611507992,-7.525790823254747,-2.7400532117467518,6.190712635741003,-0.9684853981410464,-5.101464608826882,1.432227358291319,-0.39942360240401387,-0.4925427447730484,0.17203452103127814,-3.3348940784541887,-3.4024183446310783
-171.0,-3.6108382943072996,-0.8931876029463686,2.7176506913609466,2.2853566492991115,-3.1898742382850664,0.8547811210774916,0.9982874851360544,-0.5312172566385914,-1.542355576476805,1.0792435409287169,0.5584053418201227,-0.09981051308014033
-170.0,-0.8207574722139332,1.576637324448464,2.3973947966624145,-0.4255594389717625,-1.638107857870515,1.9997768455157001,1.5121862430143516,2.351507874425388,-2.8037992477936466,-0.6218446076744135,0.731201969009849,-1.8436389113696112
-169.0,5.364233980490536,0.2952019509823059,-5.069032029508219,-2.879067917609804,5.1822930203611,-2.3794130986578277,-2.2491070079253443,-1.5436288516275742,0.08398827642029527,-3.202271170957628,-1.2821833067865773,1.6052674673244736
-168.0,3.8794374814445303,1.7643020143198989,-2.115135467124631,-2.7927551130390627,3.0355376338558653,-0.16867602189641484,-1.7224184375308962,-0.134676978455317,1.8166108119994022,-0.0946661934891515,1.8453136558202379,2.47967909257743
-167.0,-5.798338666402384,-2.414107429523014,3.3842312368793603,4.137087335078206,-4.558721636354113,0.4957185577064007,0.1622407094518432,-1.6326476288661185,0.6763745153169903,0.4533195903972076,-0.9870369077964232,1.1601568686018888
-166.0,0.6292431443401199,-3.15649363297039,-3.785736777310526,1.298161993346594,2.2357561532059864,-3.4530227069850126,-1.988395032171526,-1.4427122499377243,-1.8034392210495271,-2.922177324372109,-3.7182202717595527,-5.004580275629383
-165.0,2.339967511885101,6.034969462832803,3.69500195094768,-4.227031392954067,-0.7307280021401261,4.891805950781264,-2.3287559318786997,-0.7635130073204994,-1.2004505088975521,0.5565893322692543,-1.601330109777411,3.0733050927387113
-164.0,-4.384459957566069,1.9366526102112607,6.321112567777303,1.1884745075692111,-5.3287560588232,4.084513593318277,7.041570199672871,4.3871070272017265,2.020305729400885,8.174698705142237,6.6654726048660855,7.8987445075856915
-163.0,2.678825781696515,1.374604755468946,-1.3042210262275868,-1.9812401696554982,1.9361757762803462,-0.004392335002918246,2.31093756484856,2.4804020287604187,0.7155344867521135,1.5929818758273249,5.464222765242431,-0.15960595166167568
-162.0,-0.7398958130551646,-5.656351458747803,-4.916455645692657,3.164152274038367,2.1120619199804196,-5.324001032021532,-0.7222903651924424,-1.1046644600959783,2.444040240719918,-4.32607351143608,-3.135657125937755,-10.01193573647074
-161.0,2.0311803441780367,-3.1381381026804056,-5.1693184468584565,0.5947407783759686,3.6260359715569574,-4.111939340776671,-3.15223501158302,-1.8463474155834794,-2.3510357464794946,-3.63589788866636,-5.80501842604418,-5.48177706279651
-160.0,3.9125652785727887,0.32789540492278113,-3.5846698736500224,-2.163096856379112,3.699989310324773,-1.5853914124378388,-3.821606346019183,-2.142434195781054,-2.0321593410569556,-2.165242073508758,-2.9208932209883622,-0.22536410099776472
-159.0,-3.1823102811979638,1.4503530816131107,4.632663362811064,0.8962999969577081,-3.8704957189184883,3.0873805411339355,-0.9795800570359194,-0.20032539904616664,-0.08977426959877866,0.6922431960797595,0.9412553964040433,5.027605783891168
-158.0,-6.0675618799402,2.024743474044318,8.092305353984512,1.9692123943218176,-7.034279321891375,5.0297054615035925,1.8996200364675344,0.7156718217168376,2.7114901565437903,2.38715378301279,2.825721351049366,6.551641448123855
-157.0,-1.5918982732740072,4.907742024497945,6.499640297771955,-1.6316718601593267,-4.070097983236337,5.678281518194014,4.08378899732329,0.46107226776893884,1.2820536844507582,2.5165554325796333,4.954946390044632,9.137465532454838
-156.0,2.3676834472831443,-0.6788722205498043,-3.0465556678329393,-0.8142922634293529,2.6895640201469933,-1.8874924629713,1.0273343729536415,0.848844571981612,-4.011178013451191,2.5967626870345204,2.3867116480887542,-2.400682402694762
-155.0,1.2545170057491901,-5.890519000130833,-7.145036005880009,2.355440647991638,4.18539212177899,-6.545963159134836,-0.4216158796418812,-0.7286496161248845,-0.8905621682990092,-3.2650913001853317,-6.112513246428011,-9.933343914594394
-154.0,3.7301556170466776,-0.4476573202941405,-4.1778129373408,-1.673766314320235,3.9388430620186785,-2.269378731383825,-2.5035449984030747,0.44409817132450935,0.152005548725605,-2.686810725515399,-2.8718479776167367,-5.317291598447922
-153.0,5.396254131096665,2.4076518449340885,-2.9886022861625574,-3.9267559020220695,4.173786858376103,-0.256519278728494,-0.4355401834186945,0.2990371545455532,2.9635430681977586,-1.3624978956903346,2.160658321552262,-3.044883997886659
-152.0,0.5997962889663571,-0.18582072383877057,-0.785617012805112,-0.22720320845678188,0.7487684195337643,-0.5397677127049841,-1.8788627084781622,1.2555750340528753,-0.4924298832777878,1.199157086564934,0.2938917908211719,2.1763274701135846
-151.0,-6.2489375916206145,-3.7247545760429235,2.524183015577697,4.967325462630215,-4.411623380060356,-0.5823791503168163,1.2936747617063176,-0.664650606907494,1.618669246771999,0.7670928773239123,-4.591358695390636,-0.21650223213158082
-150.0,-8.493191064365433,1.220560729038712,9.713751793404132,3.6929673166964356,-9.049226299987877,5.48242162775119,3.3924871764397233,-0.18627370768411022,0.510995537016485,2.648998658623326,1.9712496550318293,5.352109811016675
-149.0,0.4301891023850599,5.123157437548398,4.692968335163302,-2.8031692907988703,-2.15258594468913,4.925562385429109,-1.0884078847995693,-0.5067311828535128,-1.6821955855611772,1.4699173325789487,4.8988509004335565,8.711016216547632
-148.0,1.5190701739298573,-0.9025689369226577,-2.4216391108525657,-0.26075295127356946,1.9538033129537196,-1.716575256021092,-2.6829967602617897,-3.7882603099182917,-3.489844974535245,-3.5648433864099687,2.922129293656635,2.856399459193584
-147.0,3.0151398350106544,0.8452750941744286,-2.1698647408362772,-1.9657033750562927,2.580026911346634,-0.6279236558214861,1.3066306657131694,1.3070169931496578,1.1675677339357604,0.5070758766732932,1.3116941496486398,-0.7342785880067244
-146.0,10.765497456621349,-0.2874049425356867,-11.052902399157075,-5.199363204750743,10.898676130495993,-5.702984279992089,-0.275404376381832,4.632653326775202,3.1762453498448946,1.2659748401490414,-5.373728332949979,-9.14985253062458
-145.0,-0.4224633103181601,-3.7076262590514784,-3.2851629487333387,2.0228489801523617,1.4199785152482036,-3.439644107686455,1.582849408375609,-0.2857233743818255,-1.2892482607299829,-0.2627805753648399,-6.058785404906554,-10.174541916252664
-144.0,-7.719640600473056,-9.632851827511567,-1.9132112270385027,8.631212320512974,-2.8392238078640433,-5.787047119896819,1.4136561358295845,-1.3251073952846726,-0.7015360762251374,-5.459603423586877,-3.5849558856307597,-4.592532410098168
-143.0,-5.515669721318161,6.2928042901851375,11.808474011503337,-0.35721738554491456,-8.681859585081709,9.040144021433672,-3.2405372128546097,-2.5854286217148217,-0.4889729205063336,0.013870111030331866,4.695512274350435,8.528939345320182
-142.0,1.8236812371377424,15.178769566175648,13.355088329037969,-8.471410630365233,-5.790997198373121,14.25491788229431,-2.684896720072179,1.7582752435097189,1.0418122002157366,5.2293380005517065,10.80010953940418,13.254533430459665
-141.0,0.8272788743946506,3.8808010101074535,3.0535221357128695,-2.3248054832868563,-1.1432835320453258,3.449418048958183,3.184901778527504,-1.0557818496218923,1.5049661312635476,5.4331262433461465,6.447508005434267,5.359527350730765
-140.0,-1.661484323695206,-11.34912465837463,-9.687640334679376,6.455759775345129,4.05822663577179,-10.543981715955471,0.2826108363243284,-0.5053022545656115,-1.956536623136506,-2.4000936873447376,-9.203716895169677,-8.613725238909181
-139.0,5.8077125142967185,-10.654932498763527,-16.462645013060218,2.452505473253613,11.17852662765295,-13.512942816290707,0.7622945011491953,1.7409954679851933,0.865738840117334,-5.060286846006687,-9.429623776912722,-10.246290638110073
-138.0,4.520056598786269,-4.274638795085234,-8.79469539387149,-0.1739905270820139,6.62134477611162,-6.4933546098360635,-0.32865497603686616,4.077819483855045,-2.6710428325071844,-2.1889816986840347,-4.384584311864502,-2.8464534800197123
-137.0,-4.220982335611226,1.1452598792294062,5.366242214840643,1.562394630911781,-4.830015557249014,3.2174372860950595,2.6703518931625307,-4.173514881619655,1.3797808575792787,-3.4212025222849096,-0.9344022042874884,3.2596712436559017
-136.0,-3.3150422506810875,7.0198850353845925,10.334927286065675,-1.8320438023587748,-6.783625701966725,8.719911681958038,-3.5390619165098993,-0.8351595937450009,-0.33606864330093916,4.005300544840445,7.712542360738287,4.853148780129744
-135.0,1.4820491720670685,16.93016174411348,15.448112572046385,-9.190167992775404,-7.022388501622699,16.156081103942647,-1.384736355394028,0.514481511090306,2.6869928803409375,5.200335728766651,12.57184394550848,10.116325194053598
-134.0,-3.2335381828137777,-3.375572894964554,-0.14203471215082875,3.2384122587129953,-1.5089594424936017,-1.789552381776419,1.5595528314223177,0.5196826485939545,1.4950074835565135,4.278585071867114,4.080202209434667,-0.4935443846201615
-133.0,-3.0481127882707457,-3.355517789977747,-0.30740500170706786,3.213745767357138,-1.414631802175284,-1.862077853986075,-0.31233612793433263,-1.5213402822446422,-1.1096169607161568,-1.3467790477196586,-7.30224274271117,-8.028172789922774
-132.0,3.9013516154229193,-6.865882236072181,-10.767233851495176,1.4974157628545197,7.367850261255232,-8.770686007157003,-1.831984403529129,-0.7355520516004648,-3.5742127058900373,-5.282058831969811,-9.00531842034132,-4.168042639919118
-131.0,8.252106913455314,-6.458543394878216,-14.710650308333587,-0.8741340537826507,11.516338718201162,-10.542760006444833,3.4564183793745604,2.108903311417546,-0.010065951222672176,-2.060914468499456,-5.891418938808187,-3.9620270572151317
-130.0,-0.10469342343517285,0.9915287518943421,1.0962221753295074,-0.4098748760356984,-0.6401287701404144,1.0020653026775364,1.6805265971195036,2.1375658175603895,-0.46967579098767787,-3.0489763911915757,0.5963694580565742,0.8401061517030597
-129.0,-6.3476130173733845,1.9411503796120804,8.288763396985505,2.1702585778299195,-7.351211266706438,5.146917704788414,-2.1591814259925104,-0.6769629654794314,0.06342788950883571,1.1026130295374807,4.732575434266985,5.745798804410842
-128.0,-3.400271826847478,2.6144957201002956,6.014767546947837,0.37089687892103534,-4.653295412640237,4.263335630861572,-2.91737760117506,-2.2943595706957316,1.4477254731683051,1.6459222808620213,4.841108925686033,0.6614079307688123
-127.0,2.666256632579525,2.163082214287606,-0.5031744182918692,-2.4291421519750926,1.5694953903288185,0.8538330896237789,2.9994490024140577,1.651182430888681,3.9731318457366243,3.3981820211121985,3.5278135229233056,0.9595053150561585
-126.0,0.10283977901837549,0.7954859479946044,0.6926461689762462,-0.4606984180855105,-0.30129615378809693,0.7657947436752992,1.4477317788823885,-0.9549530610452008,-0.35155026798151834,2.85083177289458,-2.2479849477140053,-0.5765957659811032
-125.0,3.604875818794145,5.335866660198892,1.7309908414047392,-4.404634959227858,0.9375125812570336,3.476184569474508,-2.73124348107945,-0.877267252001364,-2.5907809936298767,0.5350668686724369,1.34644169441201,5.615595837564658
-124.0,-8.756513705352722,-3.3372373785975546,5.4192763267551385,6.029137574941764,-7.0835047264455575,1.064564848042568,-0.3532414488412884,-0.9225142432623391,-2.0237042911019367,-1.7717503163186061,-0.030786050391078623,3.529399600872525
-123.0,2.172523775855805,-4.122081822834671,-6.2946055986905005,0.9507645457458778,4.237698022329269,-5.180582339312356,-0.4333789602694688,0.24283012847805893,0.5420222659789671,-3.5854866511439645,-6.9197286985570035,-7.768204829304814
-122.0,9.581843960116684,-0.974498489081491,-10.556342449198185,-4.333761510138974,10.068530661209834,-5.731931221382472,0.6313189670727225,2.3542854535880458,-0.18172639563560344,-2.0857229396647856,-1.7416737301441043,-5.409822748470864
-121.0,0.011457628081315896,-0.02170148063330446,-0.03315910871461991,0.04930627417503608,0.012999188515355087,-0.06656911681561395,-2.2832122260527985,0.6411031848861142,0.3577007673163095,-0.5112523119779966,1.5465185630613252,-4.005412574535798
-120.0,-4.748203817014147,-0.01628357771932995,4.731920239294829,2.424214453638215,-4.7609715497426945,2.3240556588155434,2.0791430841577174,-2.4102698528678363,-1.77106530282429,0.8212727882172929,1.047083695800561,1.9522857461781398
-119.0,-5.2144542364462065,-2.9333926719374137,2.2810615645087946,4.036951459445635,-3.70250160390968,-0.35598995320920634,5.061447406947591,4.199574083753333,5.2008789634906725,3.7882985214200615,3.453116531293924,4.399522962751609
-118.0,2.526237055302558,2.0821420404005053,-0.4440950149020657,-2.340316478821862,1.440298515772692,0.870346870582158,1.0844946225953018,-2.3412750271925162,1.4395117202901784,-0.29448587345372257,-0.2724571214357798,-2.5718079797967826
-117.0,2.8135276896680104,1.7714509893102925,-1.0420767003577427,-2.249251705595503,1.9535570158062072,0.4170773766520548,-3.2914946319049077,-1.404824508242363,-3.7075210527629103,-0.2631792145771952,-5.818789026340633,0.9663681285785692
-116.0,-0.6508036229317369,1.0297181364510988,1.6805217593828088,-0.22565267275339806,-1.143394171645063,1.328630120927724,-2.4391997204297,-0.34486454642817377,-2.2322073981535264,-0.9512337958589224,3.204900059208736,6.865259308606333
-115.0,0.06218935574450024,2.236643582115738,2.174454226371214,-1.1094065048931308,-1.1110593757989455,2.177683938011023,-2.3599689454859445,-0.10028702606930667,-0.9608690228440884,-0.21983590705555622,4.778299209449786,3.5832861444771233
-114.0,-3.5637469433117137,-0.48887644798884045,3.0748704953228665,1.9831822959511682,-3.2896364998155434,1.26252153587361,-0.8857956343942075,-1.0014700315891458,0.8417742627385727,2.1008324121209636,1.631774181016726,-0.7939349090093868
-113.0,-0.16012546263923289,-1.5344367233750713,-1.3743112607358308,0.8771871694201658,0.6451048648489,-1.409591261757052,1.927241488864715,2.40849514880957,2.179322753106037,1.4639042578231989,-0.36950082344827034,-3.0327447892909607
-112.0,6.502637341770368,5.216653712888546,-1.2859836288818056,-5.835911604572582,3.8618854570292527,1.9277080054978017,1.1763011658718419,3.3793665579036545,5.197536834411499,-0.3987580452925152,-2.0802645475413075,-4.992893878499721
-111.0,2.9804538807853027,-1.2188307454622718,-4.199284626247567,-0.941420751761122,3.563088788287034,-2.6709796987649836,1.129974883011741,-1.9618270518368601,1.0326112966450391,-3.045680509679682,-5.291067736351833,-3.160798708379656
-110.0,-8.341583909366296,-10.364037342927915,-2.022453433561627,9.36694521552361,-3.1066695775205044,-6.157102319340712,2.7992350950223694,-4.0791969624657,-7.593991038706245,-2.6281372590876533,-4.002373852526828,-4.629472460940837
-109.0,-1.0334138387142153,0.24477297121789965,1.278186809932101,0.4067638192090275,-1.1862805449908516,0.7181066331344947,-1.023806244381877,-3.043792117421778,-5.1848648306698095,-0.4890243750850293,0.5381796644926078,3.947328268523897
-108.0,1.230187516657246,2.285624738642633,1.0554372219853758,-1.7446690686736241,0.04741842059797241,1.6273259835368543,-0.561188076600228,3.8615280230351656,0.49890329923365595,1.8428794032576212,6.6821023176185905,6.237953353232065
-107.0,-0.6734217175598298,1.1287857204570657,1.80220743801689,-0.21169700439568584,-1.2112365812685957,1.5018876159685797,-3.0013193219107404,1.272606812104573,1.1990255280993682,-0.1478308548730558,1.3129148022769428,1.7690865412854544
-106.0,1.642050990825356,2.3812224073124106,0.7391714164870491,-1.9919813076786426,0.46600222319883544,1.5979816306271135,-2.1742783894472333,3.547984424506294,7.206112870820916,4.93122990674508,2.9438726961125345,0.7734440577794714
-105.0,4.510800448984375,1.7103028726722207,-2.800497576312159,-3.166024007164861,3.6612892338646694,-0.5841748327057328,2.2889658436087554,2.307376372879855,5.76553639071601,0.30005479564219284,-2.996058919924752,-1.9438241106668013
-104.0,5.153988174787288,1.6589900892882785,-3.494998085499014,-3.458660975027965,4.326330595259382,-0.954828179886414,0.5546650773748034,-1.5093450532201682,0.07032975521226081,-2.042366747571444,-2.295610414229154,0.08478597129222121
-103.0,-4.825991566921047,-1.1978611847535687,3.6281303821674786,3.0421492852861327,-4.223205159395855,1.2593187453681027,4.537178649753228,-4.872794811503937,-8.449235144188947,-1.9338439013292148,-2.156769986335732,-3.258426268882223
-102.0,-5.571567618626805,-1.4282561564475533,4.143311462179261,3.535303304371822,-4.8463411087233474,1.403275022714605,-0.9392568465416706,-2.6347098468562193,-4.4978081495522595,-1.371057216042978,0.8450717257989622,-0.8999007397876029
-101.0,-6.47401950184046,-5.923897328882383,0.5501221729581032,6.241857058309952,-3.568754208677598,-2.7200069030901286,-2.206855810720388,-3.9560132580079226,-3.465252787725462,0.2895869913536615,3.325487979954992,0.31245325775074817
-100.0,-0.18011091283136516,1.3033694919510972,1.4834804047824928,-0.5879163590339149,-0.7969214918381086,1.3575718746803878,-4.115913386026771,3.4148110508534293,2.811511844869844,1.6534837008192258,-0.6337455510089991,1.0145358141779137
-99.0,1.6191654235778323,3.8766611628225798,2.257495739244766,-2.764041278748288,-0.35028351020336546,3.10425318328754,0.23559013190613642,4.309474595358382,8.949256557817565,3.244483286638609,1.482877714163571,3.9712373410774084
-98.0,4.853585041408503,3.2932774855934817,-1.5603075558150292,-4.080855896007703,3.265559280733997,0.8167869099452079,3.333427686667463,4.11288664608931,2.789519006061576,-0.5149395235032237,0.33913783824742844,-0.271666761684779
-97.0,8.456690979871212,-1.5537790716572342,-10.010470051528483,-3.4533938732810974,9.221155114020213,-5.762065715605843,-2.3449770321462573,0.3960276785456798,-1.3330119742434285,-3.485218563587277,-5.286701291425097,-3.3097516113120324
-96.0,4.476587042260913,-2.2120748801324006,-6.688661922393367,-1.1326990967065316,5.573547009338234,-4.438176624448365,2.4953424053142705,-2.649010197032999,-6.553957883354991,-2.754569679858184,-2.5009249699353977,-2.499871924559694
-95.0,1.9322771938419372,-1.2221580114408164,-3.1544352052827973,-0.35754776666016674,2.532888150712337,-2.1811152769830544,1.989187267734219,-5.640421479552412,-5.861044923813505,-2.751679485217928,-1.035036636985531,-1.916601706620388
-94.0,-14.886885244810212,-0.21129323472025696,14.675592010089941,7.542447040723524,-14.797193984123941,7.23799428757609,2.114686136685651,-1.9091909635737978,0.3198465830700892,4.6838334846688054,6.969213515989642,3.97763738777377
-93.0,-4.498034681070237,3.1723132084246446,7.670347889494902,0.6517616101894133,-6.1080722622488235,5.429159077366966,-2.4650382776117197,6.239352518826853,9.791595164553424,6.807385535119464,6.364669368382127,5.6867890405740535
-92.0,-0.7231396875879623,2.5409752104803927,3.2641148980683976,-0.844570604893971,-1.9468853881216672,2.914403385764089,-1.9577577896612317,4.297399315187667,5.789460194193909,3.13327855738361,1.6325897533961542,1.7805066392927382
-91.0,2.955593220070422,-4.625497900753154,-7.5810911208235385,0.8189617392681333,5.308838766156889,-6.165667000665181,-2.784999981752541,-0.838705799463872,-1.9093279370714744,-6.505354895271541,-7.454990714135986,-5.816233204755568
-90.0,2.752169895479185,-7.086246006605014,-9.838415902084188,2.150734391965733,6.253941548473428,-8.442079114716904,0.08892553434573891,-5.373403030996712,-7.444415223087237,-5.444393457535428,-8.33830279201196,-7.491390432405158
-89.0,-2.173235299954645,1.8076003285894187,3.980835628544069,0.16638244902001254,-3.1181790676851655,2.917407598126963,1.4381995181570106,-3.5147514674107065,-4.462500674958946,-0.34349021930535706,-0.07144393077875044,3.5896466999729935
-88.0,3.616794745857636,6.644868744514621,3.028073998657007,-5.148386194598866,0.33464844474359556,4.783403895196555,1.133052668983191,-1.6539525012982308,-2.2232799296967953,2.072067042285745,6.740525454920723,4.903157500953541
-87.0,6.155308493204584,6.017902179125771,-0.13740631407878978,-6.028288395026625,3.1903429476540146,2.9687753210374335,0.06690782155472697,2.943819744251163,3.9961094132198554,2.5681949028850672,2.472838480032601,2.3437517417846507
-86.0,-1.101215593717456,0.45445059872484705,1.5556661924423114,0.2981537748117882,-1.3600789369949164,1.0372463335111133,-0.4599576404936605,2.2488113131950467,4.082813493854523,-1.0870335255130459,-0.08191767863764499,-4.317974666608127
-85.0,-5.002670151198063,-6.925377960430147,-1.9227078092321028,5.932529012540833,-1.5701975856385346,-4.387692351541056,2.0926047460339943,6.70184930048944,5.162963389751531,1.0242255588688693,-0.33171070669070235,-1.4674988991026319
-84.0,-1.559806461952602,-3.500437423329646,-1.9406309613770871,2.570534489690688,0.1597200877026672,-2.759307658755379,-0.20825633589885972,1.2985157728658918,-1.1633816760673041,-0.6467264344488782,-3.0168359976886987,-0.40712140132506835
-83.0,-0.008111119196847927,-0.8541794208354889,-0.8460683016386967,0.3864464706663675,0.46549418489037175,-0.8869991938491391,-0.4094217591481632,-3.6756323461537828,-3.7431475490796937,1.0317206792107114,0.52877518512579,1.372185520644771
-82.0,1.6177531185771268,0.27067366213827215,-1.347079456438891,-0.9152078172978495,1.4489423309669238,-0.5755321316635864,-1.97828974561925,-6.821023566989585,-3.933484199730385,-1.0342825783570015,-0.3604677552602815,1.7370207349286861
-81.0,1.6282645962720181,3.1621567112870235,1.5338921150150238,-2.369669038771256,0.09259266847667086,2.386917494916242,1.5935857090444427,0.3399690151256869,-1.4755287394741625,-1.5458807946429802,1.668728312120973,0.9806186429270726
-80.0,-1.9773735501237582,0.8395123493985368,2.8168858995223793,0.5921996550791753,-2.350160337041768,1.8633844702279043,-0.3751485083926268,-0.4911861169951741,2.277817736218204,1.309400391326019,-0.2780855560020779,-0.3662221971113201
-79.0,-4.923563910407779,-0.46170549334878586,4.461858417059102,2.6353453923047656,-4.722538462336268,2.031250135037948,-1.9836296780113924,1.2662136596802929,5.176829158805214,1.9713864353180655,0.09165464711525645,0.41651879829152116
-78.0,-0.9971497427892846,3.347070910284486,4.344220653073842,-1.155285506468049,-2.6996868145346813,3.794167581748171,1.6562944959637287,3.9259899722874745,0.8175870006683368,0.18377355378817123,1.3590994404983765,-1.9076280803020258
-77.0,2.070057428831741,-0.11694579668841398,-2.1870032255201552,-1.0370059280927328,2.098238520067424,-1.1284866035975627,1.6875285119083125,3.541174399984174,0.6312696365411328,1.8870867640824356,0.44722206811348586,-2.176836582987101
-76.0,12.237453866064813,-0.2282499872451501,-12.46570385331003,-5.986022355743061,12.318143795731345,-6.405889667140134,-0.22471015940204908,-1.1007042092265427,-2.5646001352599335,-2.3921839916086096,-1.7931125921590028,-0.3878738184482756
-75.0,6.016546634363748,-1.614726782695537,-7.631273417059377,-2.1789425105601232,6.8656563081130475,-4.606311835771231,-1.9656144937860138,-6.73538479832303,-6.423540574991703,-4.988850006588193,-4.153662923780499,-1.8942581062600459
-74.0,-10.153596088459594,-6.346505356622183,3.8070907318373415,8.279140480442313,-6.94087961470555,-1.2549900805603142,0.13116496640037623,-2.279499350011857,-3.114511594217432,-3.4253980320817097,-1.291013969315804,2.956503598841854
-73.0,-8.008675309827243,0.028799881240602065,8.037475191067855,4.028870847836513,-7.983715501664752,4.047625282734141,-2.125478288239165,0.45886404943658343,1.8675705646894072,2.981195255569734,3.9135510687838524,4.345589879994039
-72.0,-9.496205951754629,2.3322423750183963,11.828448326773122,3.5520516623282243,-10.700158780379542,7.096325292517771,1.0869824424996195,5.144855486985245,6.211135247530672,6.013699598274252,4.4771694240046465,2.6424719374809595
-71.0,2.315383861411509,4.312836146945717,1.9974522855343357,-3.3375492052009443,0.12273198325312329,3.1735981889282887,3.030832865562547,3.7185466766556607,5.523865123067463,1.2567682404222138,-1.3635703094509712,-4.370704690754833
-70.0,11.76517947361081,1.568354901042552,-10.196824572568158,-6.6898972399899,11.023393500882662,-4.372176289413531,-0.46128815622779284,-0.537881809506783,2.1666045353105083,-0.5605957748911653,-1.559266423197224,-2.673150088246013
-69.0,9.857333398983382,1.7577589497268784,-8.099574449256464,-5.837481613607561,8.939392817655348,-3.148663754586294,-1.749901574855561,-2.300890397042278,-3.2297709013800224,0.4168844732852591,2.205903573147675,2.2295310869328477
-68.0,0.15360924060966585,-2.663275265861546,-2.8168845064712436,1.2910393972051888,1.441512871034524,-2.7960326830755076,1.5940366239107,-3.1147035738545963,-5.756068231944286,-0.904187533948188,-2.410847800774668,1.0399910260022152
-67.0,-9.970140342899441,-4.933333267777518,5.036807075121854,7.472548590839055,-7.473248827855178,0.07509226765190591,1.31958026732336,-1.533331568892094,-4.802985631765197,-2.107028478176282,-0.3489599313574059,-3.80873361287771
-66.0,-8.123971128663488,-5.810691313038927,2.313279815624491,6.973576250958928,-5.191131267579783,-1.7236329813428373,0.3119610293324205,-1.098274881701395,-2.628977889852919,-5.060704409247379,-4.662241005871494,-4.7633095714543
-65.0,1.680561843093595,6.441004428598074,4.760442585504453,-4.065176336837112,-1.5117818937949958,5.6292456331810765,-2.7435980363918695,3.5086064053385293,6.367523907340104,2.4556742429674783,1.7784463741963157,4.624315676158525
-64.0,4.63851831956408,6.221765193827529,1.5832468742634571,-5.439371861969535,1.5595746412832177,3.935648870173738,-3.0388924791045016,4.986084533613612,4.336255516969372,1.7118321552256606,3.7179930940290586,4.031800567252074
-63.0,2.855257729794508,0.1239885246341812,-2.7312692051602694,-1.4974798639412708,2.751567571402379,-1.3449791470876211,-0.16002136544040058,-1.0438690692281076,3.9748828039251043,1.690339059092205,3.2168119075059423,2.5892662279682046
-62.0,3.9296201201712684,-2.085759459814453,-6.015379579985651,-0.9231566513718343,4.934913915230959,-4.089630477203749,2.189504058675507,-1.0664050053209984,-2.312164407694138,-0.2504153552037902,-1.5024248491687513,-3.908236170564054
-61.0,-8.081869339037151,-2.540880387945327,5.54098895109185,5.3200010948453915,-6.8476058882628,1.4605177403407068,2.861675414388926,-3.4526898650118754,-5.893552641892034,1.526351160149217,-0.9237110270417401,-0.09030367456171606
-60.0,2.1546085994200865,-0.5257531128030306,-2.6803617122231502,-0.7954310749594535,2.4584607618688037,-1.5664992590204478,-0.1591363140398403,-2.305403624890621,-2.4856780078074445,-1.9507059435127858,-2.838649957530805,0.7166158096566255
-59.0,1.7643452895258003,-1.360908290095311,-3.125253579621158,-0.1746145590363768,2.482177604803801,-2.2098129472779595,0.24413841997550584,-0.09117169191251628,0.6646519702598606,-0.7117567497455968,-1.404455484017722,-0.7057456523635619
-58.0,0.6130853767685451,-0.7812515850448466,-1.3943369618134311,0.03619835060127138,0.9583531308624825,-1.05683484818876,-3.3193415286190655,4.622132898845186,5.425892770325641,1.1111263299060843,-0.10977589993491643,-3.5256340926853382
-57.0,-4.869393701521716,0.052131997330287366,4.9215256988519736,2.3595345433808053,-4.865069117410498,2.4385866525970097,2.8902623319601735,0.39517601941080605,-0.24477609912842668,-2.393862340733947,1.5763189636549473,1.5646217733738281
-56.0,0.13951099807560263,5.3161391000847145,5.176628102009103,-2.7031746085728656,-2.489593732651797,5.278160743125287,0.5876851134128951,1.4256772746829904,0.8245384780316123,2.055310735638299,2.922746864342672,1.5061492280765523
-55.0,0.46584460828691265,0.006677177072539564,-0.45916743121434234,-0.21777621182437712,0.41260288247341603,-0.27108265277242216,-1.3841704381500033,-1.944881885622944,1.1721597114318905,-0.7762087805453466,0.5913470683606459,1.8101940000523138
-54.0,0.46595830486916745,-1.292861313880374,-1.7588196187495018,0.42769522063948473,1.1416330921768096,-1.4899442223852657,-0.9920298559601675,-1.3229785878056453,-3.982868332518118,1.9072353513541607,0.25241971341216146,-1.3477176177442063
-53.0,4.706208759648013,2.139464110782674,-2.5667446488652894,-3.4085068097487268,3.5870835349471046,-0.25535862663303033,-2.0148565038796202,-0.14669277498434974,-3.114762977538504,0.6984896696868501,-1.0301835284337508,0.74440644389033
-52.0,1.8208246460019686,-3.22179305882861,-5.042617704830578,0.7201927463245935,3.4605177907076077,-4.0950516754857755,1.0785326528153365,-1.3671700177826644,-0.1624822579489693,-2.6035314333940613,-4.333152328226865,-2.01624454362987
-51.0,-6.518751808241102,-0.46845015342062224,6.050301654820444,3.4446699072768543,-6.256799595915135,2.7487101672020375,1.1830064223797496,1.058180900854949,1.6650183289145386,-2.0604453449204687,1.5945326580305696,0.3421947328460122
-50.0,0.7545570765414351,-4.8666355772905225,-5.621192653832011,2.0202958980130017,3.135862078832515,-5.208334209452538,-0.5891107420950636,0.08566124593412211,3.2643253423195233,0.5984239521873731,0.3613013613165546,-2.649712425764981
-49.0,-1.794767063341602,0.09435054501407847,1.8891176083556345,0.9073179561208955,-1.815366292466065,1.026244118243291,1.3696278119998717,2.9494886653610557,2.135232661623839,2.0967341994137882,-0.267928103345787,-0.08244973859651017
-48.0,3.130487601125412,5.461667936185895,2.3311803350604836,-4.304945235329398,0.4275291044030005,3.8509089442841424,2.1286052599157532,0.11246083313315469,-0.2649969404072249,2.9270821348312737,1.3328982281970732,2.747262555768841
-47.0,3.496434448786959,5.544211570586843,2.0477771217999035,-4.5198422177496616,0.6765182032837176,3.8275336853847,0.21792230307101823,-0.5382235732591376,0.4125715982803273,-3.5449888194409267,0.2764787667122798,4.0917131705857805
-46.0,0.8406283739461424,1.6401338651758692,0.7995054912297537,-1.2357048291431045,0.05620885903876169,1.1705441631688014,-3.596970622249364,-0.40965097989736265,-4.078612367107603,2.629534687873724,1.6673926495050533,1.312649468403741
-45.0,-2.109876956843401,-3.272685604402567,-1.1628086475591415,2.6939594363103727,-0.5108149152770219,-2.1900773269000986,-3.887661742323851,-4.152585441199415,-4.539401144394597,-0.9621140040331346,0.770148036926724,-1.3354108028431857
-44.0,-13.062942425669288,-9.292745231221787,3.770197194447527,11.172358460660671,-8.36901318655788,-2.812738054098798,4.141987303791003,-1.9884000341515102,1.0069451119337867,-2.183300993907872,-1.9721463914825077,-3.5792953299088115
-43.0,0.1798562804665247,-4.3565128968867075,-4.5363691773532056,2.069874800180993,2.3322476509721453,-4.416931082241959,1.0627030813506384,1.439633479083148,1.4525891524092691,-3.300211406951652,-5.7460818227621155,-7.063376749739096
-42.0,7.631280696377829,4.7430970154506795,-2.8881836809271357,-6.2207984065726585,5.237434550941505,0.96223443808878,4.028352787072215,6.828875776953224,7.618288498925526,3.4142989417988208,4.072552593713116,3.6642686176326857
-41.0,6.768845499779243,5.451694893842884,-1.3171506059363542,-6.079163103359565,4.100524939117523,2.1094307205804337,-2.657116676691901,0.916629065279984,-1.5717109056517562,-0.45294670972557327,0.9528390332956057,3.1938258412888683
-40.0,3.384649443176721,2.8643849188858663,-0.5202645242908772,-3.103284178457639,1.9296075013150698,1.142680506472936,-3.0729817879127133,0.0826165447389452,-1.9723431948766685,2.9837918459517248,-1.8857206906807833,1.0714388774655377
-39.0,-1.2502890979756232,-2.3376397405161997,-1.0873506425406063,1.8112380894722513,-0.10813283256874928,-1.737654412505211,-0.1881055899372801,-2.3482280092554015,-1.052521514497168,1.8536724507610893,1.9935305306943558,0.7166485141034136
-38.0,-1.0947663688539757,6.245345108467227,7.340111477321179,-2.556138826154977,-4.248844590789969,6.766693654014395,-2.93847268800808,-6.05740173106638,-3.3272184623767007,-0.5810969346364698,2.740091938173964,-0.8345872545672927
-37.0,-4.846107774236247,-0.8658975503742956,3.980210223861965,2.8024105853260988,-4.369758508841448,1.5247770258204425,-0.308765165773313,-2.2102508789544975,-0.05110384972614912,-2.073039254133342,-1.0674655441450605,1.0553316153916832
-36.0,-4.69198856776061,-5.685515031093909,-0.9935264633332874,5.22158456171858,-1.8073620475233243,-3.3034154114337797,5.139973113785104,2.93669381243266,3.8729664760971048,-2.6917479341038253,1.0809511598606094,0.6996640991779923
-35.0,-2.187903599865321,-5.647310082377233,-3.459406482511929,3.8789021965815813,0.6006312080192424,-4.528686735958509,1.9988157182559143,5.120287612442288,0.5848078690855503,0.6301360724195912,-6.422683035286843,-3.993897975720279
-34.0,-3.161459592034338,-8.095219905304443,-4.933760313270135,5.595372529051448,0.8558916868660167,-6.499647330070784,3.304370678142729,3.043228220128357,1.4436615220069384,-2.5664872505199545,-0.5220294570848818,-4.704039696209287
-33.0,10.787289477221629,5.883732484451385,-4.903556992770293,-8.28523351774622,7.9006946050078195,0.4985209156566941,-0.85279245872122,0.16842419833594957,-1.8858725491781412,1.3198125820260982,1.1151742822584398,3.757850215398651
-32.0,1.8171566662077625,5.433904986449451,3.61674832024165,-3.649809730819051,-0.9163493372596951,4.531309806994626,-6.030193605289819,-5.373171477499974,-2.3003317713235396,2.7367510125523067,1.6016450923965755,1.6562401431578615
-31.0,1.7036980631255103,6.433216998778056,4.729518935652539,-4.009308758578294,-1.524203682145757,5.509739723040555,-2.391810426961124,-4.034079577225615,-2.1347690925977703,2.074801111179447,3.6137333224908037,5.052120031358758
-30.0,-0.3229701243021521,8.85055591366289,9.173526037965052,-4.278294367213635,-4.757239491376694,9.023256480167348,-2.138898563484742,0.47563798105400723,0.5115838391298737,0.9148905341233072,1.7504694627159443,0.4138211398606153
-29.0,-5.306056426600086,-6.28921831213294,-0.9831618855327924,5.787618430637042,-2.171508140167685,-3.618376277050589,1.1427605749155065,1.8936778343154663,1.77964279816722,-1.4395387318778434,-0.451864169626495,-0.34530788524614203
-28.0,-3.513433465944759,-9.759580220586354,-6.246146754641516,6.628811593778497,1.3523278093088689,-7.9762157982523885,4.979284121949176,2.363325277474773,3.4584723790798937,-2.5231853909775777,-2.8615238781125756,-2.231931894758556
-27.0,7.439022133095277,-2.3805282083742876,-9.819550341469501,-2.5380342162420346,8.688133772724832,-6.141478125868023,3.686564289839077,2.4326435933726276,0.6495000531891759,0.11760059502229003,-4.501175245664131,-6.359553523808758
-26.0,-0.9102955136195743,-2.905259646656145,-1.994964133036575,1.8941766386532282,0.5156449194112915,-2.4011684658849437,-0.397356291320313,3.5541699437666328,2.121759572566914,0.7089956128027685,1.787810466440778,-5.594191880641126
-25.0,-1.9466891256258614,2.3434464267209845,4.2901355523468085,-0.21965771535184847,-3.0734071433293275,3.298192081837654,-1.0074451422523645,-5.06646482270639,-3.569091632561178,-1.587698928332481,-2.250693502369554,2.31988008541782
-24.0,-5.605009709530469,6.00027369582369,11.605283405354132,-0.14900232626976273,-8.645882971287875,8.793251786353784,-3.1199685989569512,-1.261870896848424,-0.9427971070053387,0.9802389972069847,4.729690703755058,8.566109216924193
-23.0,3.8304837656388915,5.762230066376864,1.9317463007379665,-4.755827832245447,0.9020568474583195,3.8427756254006757,-0.42582713126426075,-2.6402400681903115,-2.9995607986486013,0.01220533381066602,4.052097414712967,6.68511014740041
-22.0,3.5561213227942137,-2.1035008158804045,-5.659622138674577,-0.7703772480750977,4.6338233580001,-3.8853388710630172,-2.2851682540302374,0.00702366291583556,-0.7182860777391807,1.29931362070919,-4.326989386545775,-0.6921990427307807
-21.0,0.028707103698069503,-2.5468292399279218,-2.575536343625928,1.2122434266109474,1.3246321710181383,-2.56976587107338,-2.3351499969963085,1.6141399340851295,-2.472267790625437,0.34301760009196114,0.48948116153592114,-1.8638596461889911
-20.0,-0.5851561206134462,-4.752204696698414,-4.167048576084909,2.701109074614009,1.8129116630609012,-4.399043896929863,4.448689598580028,-0.24907509148093676,3.270876755414157,-0.39104375547177195,-1.1075970815575473,-4.410888860420508
-19.0,-3.6571197690619366,-5.446716477538205,-1.789596708476259,4.587589371637459,-0.9879212725229389,-3.6494426599483925,4.77985426570401,-1.9360780149835601,2.7836187961445225,-4.301266250631749,-2.947879417733677,-7.573725056455871
-18.0,-1.8771596623943432,1.268040180409879,3.145199842804162,0.26633235366279795,-2.4813628873740106,2.1606348334228347,-0.6196662659574836,1.1849141138788701,0.7374909762288819,0.6922063932651703,-1.4887949775907834,-3.2144346551509133
-17.0,5.037727669901345,9.597257046040358,4.559529376138908,-7.272156151802377,0.27539193123215644,7.097381049588446,-3.077863985677554,4.471757358260077,0.9493633923557226,2.684167253967818,4.55543376132939,4.463123996211901
-16.0,0.728376284888443,2.0578620399851806,1.3294857550966275,-1.4235442501315467,-0.33707416771458176,1.7024500082549063,-1.8855104258242465,2.4197709132426537,2.5564257371337664,2.8726707175140143,2.5990121529629677,5.490256851189228
-15.0,2.1528303329312566,4.398482459165738,2.245652126234414,-3.306299622860774,-0.07921450498992316,3.32630379068734,-1.112240120865974,-0.9083952876247151,-1.5942706758436416,-1.01550458663374,-0.5025045671003394,8.615782894648182
-14.0,-0.47759725078347354,-2.1460605337749667,-1.6684632829914603,1.3560321886192934,0.6418346957988678,-1.901045095094141,2.553150409144945,-0.5326240220320528,0.5105589761370299,3.4299234555277653,1.5613038176051193,-1.361070519536963
-13.0,-3.9949698007484775,-6.673654154157702,-2.678684353409103,5.2928283603961015,-0.6933639585542143,-4.662287517215136,2.96415644054398,-3.3687067341485424,-2.62752644648014,-3.823220736499516,-1.3829517944392005,-4.466315782171128
-12.0,0.36600821995594424,-6.038938454443471,-6.40494667439925,2.8654147529707235,3.423708605418818,-6.197103502494328,0.7487177563432628,-1.6666029742672108,-4.464237712129783,-4.366089874482395,-1.292560927230938,-1.6795761401522058
-11.0,-0.4258925405748243,-4.09611534721113,-3.670222806636137,2.2825030824864276,1.5755217721955723,-3.926076394354371,-2.808933882684256,-4.505241102691663,-4.026713106995031,-3.1046902635475226,-3.9689322851768503,-4.0366879140058165
-10.0,-4.574548378840816,0.9834451094049301,5.557993488245872,1.7340089164753953,-5.039262529924656,3.235804813021442,-0.5378730310569869,1.2684763246829363,-0.7251982826281258,0.15042904673686053,-2.101792399701833,-1.935611254056941
-9.0,3.419818085117087,15.170589523855131,11.75077143873806,-9.277363407380166,-4.1409214380344705,13.507591582435078,-7.884001314122613,-2.676666573609594,3.8963262057227794,8.765881520829431,5.765216607100433,3.5148124647735703
-8.0,0.8359340233795356,5.832595329689633,4.996661306309978,-3.310152603378781,-2.133410903306271,5.380689007068916,-1.2377391085369496,5.39379989398934,8.273867987982255,4.813800214493993,4.371875485542494,2.6808719675467354
-7.0,4.396152247225822,-7.719465701119172,-12.115617948345207,1.6969842962438189,8.286368408231857,-9.878715329617297,11.361354598504724,12.214277771449899,10.179201250098204,-0.0568231529306229,-2.706616739017743,-2.4311374681409927
-6.0,6.372030940316159,-3.57675442685681,-9.94878536717317,-1.4269823097250611,8.198395450866448,-6.810277834973708,3.6085393285071428,4.227223247524508,3.611350321107673,-2.155537223580372,-2.4045308969043253,-1.0779391237195861
-5.0,-5.2857414900637085,-9.340313994636197,-4.054572504572673,7.297679324171327,-0.6477205320119799,-6.6728996562120635,1.4232186714125512,-2.036988055251279,-8.003197972354815,-6.994226457187595,-1.5225900184256533,-1.4317464604109191
-4.0,-12.425354656157163,-7.179612043791122,5.245742612365991,9.798107495689624,-8.859748650651124,-0.9463005727592053,1.309938987314136,-13.169607089983934,-20.393390308283323,-9.957116284911358,-5.10212450509156,-0.10093930967121251
-3.0,-3.0691474897473094,3.1461845004255014,6.215331990173007,-0.037029172218580264,-4.660685268979269,4.701038209464867,-4.330329971477753,-11.589043013354964,-13.717667755643351,-4.7307426637073355,-2.598410760119386,3.517129837046372
-2.0,4.8552344990300025,16.761420170238765,11.906185671209226,-10.806808950986666,-3.462413535831847,14.278034292697164,-10.029639467150261,-4.07744006054218,4.410168954177571,7.695559688271614,7.76381559867257,8.119289614244884
-1.0,9.585359846005765,20.00649734248239,10.421137496477131,-14.799561394932141,-0.4338925188511985,15.241125756436062,-9.974369944487027,-0.15656868636411253,11.149323128687337,14.27203769260378,11.50438828040372,6.993588892325623
0.0,5.098758838926191,3.150943439392769,-1.9478153995330851,-4.137137003263062,3.5044282878112494,0.6331076026378808,0.9752796989822943,10.736002487179961,9.810222865571687,8.022814996729895,0.3155651121191063,-8.348804902534443
1.0,-5.644901652134562,-11.667599577771092,-6.02269792563639,8.712689084826003,0.1656035921484844,-8.889518529658725,10.697067004186191,11.842514207566643,13.05653290623341,5.06375055697845,0.40721439829723616,-8.498358499354215
2.0,-2.2827277046394236,-28.555996305534926,-26.27326860089563,15.38765995772229,12.045871364553129,-27.457958091024953,14.806135936256858,15.522896259281598,12.126743210797157,-7.570429112559312,-8.372532847028673,-10.46561549648257
3.0,3.1504908318829457,-23.98558193122578,-27.13607276310893,10.378557022472787,15.110944523091042,-25.525544270231027,6.634052415971098,4.279453595560065,-1.0756143001268585,-14.618520612379088,-11.411655071827976,-3.4861476811367145
4.0,1.5940184194570095,4.923903779665526,3.329885360208065,-3.223680349740639,-0.8243020155640264,4.1620396398999535,-7.74221688133705,-17.36551168329738,-18.150797253129912,-12.561237884315181,-4.010062792176461,7.475447835909487
5.0,-3.1677258909665795,20.99226738989676,24.15999328086287,-8.878813198253235,-13.700093377843304,22.53341505097806,-11.740071835743052,-15.928277164810854,-19.941754188100706,-3.5397026594381984,3.0401024230773066,9.737907587144306
6.0,-2.8331985859180793,24.42444486059884,27.257643446516376,-10.841010104214815,-15.08130305389611,25.879189815450474,-4.390888834998709,-7.821724691529244,-10.484411225480793,7.614893521684976,5.927720780437836,3.906712375851832
7.0,-7.583836822256463,20.885017038217903,28.46885386047436,-6.617019254387228,-17.982219554524384,24.717570936882787,-3.9711439681625054,-6.273342224411356,-1.9459238086815955,18.3441533346689,15.81381151256962,10.73226214805306
8.0,0.2698500473479502,-7.735755852705813,-8.005605900053101,3.6868362373456662,4.183198995214871,-7.907399510209894,2.0053429177287114,15.917676791285125,22.21833747584361,10.70636583687601,6.42448112449367,-2.617511717070566
9.0,2.4212786763548575,-15.618260788984118,-18.03953946533805,6.628085865639982,10.197665216462358,-16.866566176518784,7.467703154412497,16.35602847442668,21.507993541920392,5.765198310356094,-0.28349847254240323,-6.907071198919612
10.0,3.012275795052264,-0.9295097370466561,-3.94178553209818,-1.0170204182295084,3.4433655007345525,-2.4767898466027347,10.459793097262784,4.677362192190701,8.108948157263654,-1.9583123459956133,-3.9641307829202743,-0.20182571083570888
11.0,-1.5169607932463718,-23.100578460335505,-21.58361766708922,12.247854240783864,9.997236267661801,-22.30933767349961,-1.1650054832669747,-7.704634670254312,-18.762054543783535,-27.532013468362766,-30.477705110082937,-16.525790035707402
12.0,7.688013708118475,-34.14268409119405,-41.8306977993131,13.23907360728249,24.798683829532916,-37.95816781347112,-0.7259053222000384,-10.520747889568117,-22.6069255501139,-32.41770782728675,-32.696333355342645,-25.284098411909284
13.0,15.806993167524633,1.8540400180770131,-13.952953149448494,-8.822361985294592,14.915953122848288,-6.02275980002927,-7.717485539637764,-5.136494487050017,-9.404040880562288,-3.0216813650266445,6.3188248291526,4.4781783969900575
14.0,-7.991232217430922,46.75917220100853,54.7504044184389,-19.37518470458534,-31.337573551418984,50.782857915301214,-9.595244697164594,-7.212201408139125,9.294536049514821,40.35045759405592,55.06226006482275,38.37091599245983
15.0,-20.41136298685484,34.832665625621736,55.24402861247648,-7.196443938645088,-37.87519599794039,44.991863926613206,-1.4945576989955125,-4.968610791818157,2.7183133959775345,25.93104065856317,30.45155846060888,25.77940221201824
16.0,-3.3345766225283473,-9.372000723603502,-6.037424101074819,6.3767479641797475,1.302513042058024,-7.745196188675834,6.259474961486908,18.937768488016907,14.546351191127053,-0.13579045207676188,-12.146204417888729,-12.071250789166399
17.0,9.308414574145209,-28.943154998564523,-38.2515695727092,9.772832714997403,23.809002558365215,-33.63103411153264,11.135530502148018,30.818122164756193,27.242320923781385,-13.384412398351676,-26.476531016778374,-29.572323860761134
18.0,5.784703273767434,4.527590004598874,-1.257113269168066,-5.112624889985382,3.550048588493974,1.6872595688600178,-0.600694116753556,-1.4224749378191603,1.2751329965856115,-4.381120987971283,-3.8190007739138885,3.7657363054436885
19.0,7.992122420967726,10.632275539918727,2.6401531189511065,-9.342066574517071,2.628051511650497,6.6946636491724405,-3.8233643042301715,-14.442783093087174,-10.783045377120686,-1.3624989602056825,1.0225436265317445,13.182520935411372
20.0,2.2344999446366436,-2.549203190528229,-4.783703135165165,0.12777424836459284,3.543530245924737,-3.681872066284554,-4.652274133868508,-20.37236510737649,-20.8632767685573,-11.074598592048137,-5.735926225078102,1.707539784855926
21.0,-17.975343096321026,-11.204323035151004,6.77102006116967,14.55614042810531,-12.333375001544061,-2.23016388962649,2.198387759543363,-11.928402608172771,-15.024611991899873,-1.684943561862184,0.7770860620420157,-2.8661411700972566
22.0,-5.50892978686206,-8.590519201117504,-3.081589414255746,7.0883298426723025,-1.246272828005623,-5.8518802460624135,2.753073192671029,5.137526077241382,3.11618395838477,7.887735685463234,3.4924867730675473,-9.750431964009039
23.0,3.759840732668186,-11.329708348785797,-15.089549081454054,3.817171258526287,9.398221121546886,-13.23222277629568,-2.135584422504895,1.2881292967564768,-3.981616800367047,-5.777305962384706,-9.750310080089449,-15.468318856119389
24.0,-3.2345043507763886,-5.30719955940564,-2.072695208629191,4.298396379654513,-0.6025766496114255,-3.7225068994117168,2.185761811817819,7.567453962481898,3.6232751376080063,-3.5482426701701897,-4.767936156680569,-6.641643257990352
25.0,8.480120838029144,10.742941610103355,2.262820772074351,-9.586865353541597,3.168460053164985,6.538396878807336,-4.89434867698741,8.393699773645798,8.517282052735991,0.11445203745587929,0.6033174870127436,8.157173238150008
26.0,7.9675143443959895,23.32059643974698,15.353082095351187,-15.700194988754873,-3.711390191728256,19.363740058944742,-2.1735906828990204,6.324476899040545,10.083044172967535,9.033676633422793,14.947507844152447,19.23012108060011
27.0,4.408529987128323,21.842013180175798,17.43348319304764,-13.183737460455324,-6.533194335776552,19.65999595992819,4.414321787030523,-3.0049733598328396,5.15859423677794,11.178233596159444,16.76784306387392,20.63110485220553
28.0,-2.8607331096816955,-1.907428278047517,0.9533048316342203,2.4015938559960395,-1.853406698874723,-0.4551833415974009,3.395326213489624,-4.052725743647343,-0.5467645633267812,0.286837818516009,2.730845739032153,1.8767892662672043
29.0,-6.934905516528961,-20.37291843658807,-13.438012920059174,13.669280235663756,3.220047500827517,-16.95959023184056,-0.6291041466677276,-3.332757284822401,-7.487027485849616,-9.63144210391878,-13.82759307511828,-16.39962198675718
30.0,-4.72981362556129,-25.5838221230863,-20.854008497525093,15.172429729708806,8.022990283302736,-23.269082289134538,1.9362881720206266,-2.182187442030598,-3.1862659450985786,-9.0656626217169,-13.536797130593826,-19.62268112081526
31.0,-6.011304790425957,-0.6083361705938017,5.402968619832091,3.3294972052078418,-5.675180995150783,2.4292991073202543,-0.9205615547774767,4.225499639809677,0.8757942754104286,3.780587724423347,2.3772617157414153,2.2146113642689826
32.0,3.259933430614426,11.64452707525169,8.384593644637354,-7.424407555233785,-2.536698214024296,10.048270491718029,-5.125108112380883,-0.8435313974192122,-2.0397654954983158,5.42359745522314,2.4031914110658947,4.540955213206577
33.0,6.830548396447598,2.130056776143598,-4.700491620303918,-4.520133676365351,5.708848579585119,-1.251836769942095,-4.993122280902602,-1.9086434648029098,-1.3630125785772336,-4.245060533291716,-3.9229293135884813,-2.9501986938001186
34.0,3.1664299843601724,-2.194900608012148,-5.361330592372269,-0.5136448025900711,4.286097656541584,-3.82561821842771,3.6784764723641175,0.03237064998002215,0.5591083215877743,-3.6098334565844277,-3.781137453850831,-1.0829690863834465
35.0,3.551157250410385,9.820848980694898,6.269691730284473,-6.7034177882536286,-1.3331564544402847,7.994660214439752,3.3680791732594075,-0.32943057037867274,2.3939899167023166,5.23257678460271,6.993323177763687,4.501542385659463
36.0,-2.441796555072709,9.173930552653463,11.615727107726029,-3.2977412067770375,-6.995933802708439,10.420160439185238,1.7271545466431188,-0.6933388391238136,1.9498889931926806,7.647374698239627,10.704094057298423,8.867664491418198
37.0,-5.5602470746675285,1.9858238735586207,7.546070948225987,1.778972622716831,-6.591216193806031,4.790076225944437,-1.2550969502697717,-1.8241596221875112,0.6064961436051848,0.6820208256195206,4.67972146293257,4.0162798596087494
38.0,-0.12301527787825473,-6.738142632341711,-6.615127354463518,3.419201004441086,3.215192624557464,-6.6513863807523785,-1.958821720858708,4.41265277182569,1.3378149843528766,-3.647737129378934,-1.2339014146887777,-1.2750682316492452
39.0,-1.4558517292956834,1.5752397061327805,3.0310914354285625,-0.079094906677736,-2.269117177872862,2.3315491182481827,-0.5263834912177544,5.602557763379064,0.18054346692674444,0.6623292202861335,-2.457931195060937,3.4437316978536123
40.0,-0.429812376632741,-8.798275720089629,-8.36846334345673,4.583211343859906,4.025185837979754,-8.629789249498181,0.7777409484167462,-1.3859864814292062,-2.739008257745462,-6.070994329445707,-10.507064068894845,-7.086953045168498
41.0,-1.2953321089656202,-10.52138275881692,-9.226050649851157,5.943742521164609,3.9428962513140147,-9.916795893645347,1.4649583673274538,-6.786018308565759,-8.280164779493706,-5.9940498121251204,-10.317253515038244,-14.621129354606394
42.0,4.788893704859287,-4.9340648019494795,-9.722958506808638,0.09693828087216427,7.310589412292989,-7.290934389277076,3.9508285731364845,-0.950488972728134,0.7803211416647029,0.5226253495846896,0.5520018361027583,-4.6919519240498975
43.0,1.9154490780520188,-1.256187075960312,-3.171636154012278,-0.31258574180962473,2.515871391841129,-2.2544350286858545,-0.8254077721447588,-1.074957846914482,1.959661708117558,0.4187333194937999,3.3251494881609482,7.00756627924553
44.0,-1.9248002267517959,11.888761319773476,13.81356154652526,-5.04589470592987,-7.902458884952387,12.889768463822373,0.3400321938349966,4.0832785009053,5.562659269087277,6.1504826623225615,9.839305791738326,7.7092365053522505
45.0,2.3725712996208888,9.448248447101859,7.075677147480846,-5.89231470087737,-2.313594057539576,8.301868218542152,-6.45812115148504,2.6459379791532953,5.554669641336092,2.8990443618934654,3.4670512420966597,2.454131254650391
46.0,-2.7109101451947577,6.1862773035547445,8.89718744874936,-1.7114287575405993,-5.853641634046043,7.505861880773411,-1.3858659074393493,-1.2368230471538237,-2.0672371978586512,0.5523637312830569,-0.5234812419223616,2.6542047383141245
47.0,-2.519038963614495,-0.9460731690711413,1.57296579454328,1.6917315872151633,-2.0257550217500113,0.2822316574643704,1.194405608935024,-1.120517703828111,-4.207469259465526,0.007598164905845528,-0.699026007107763,-0.13958510025943927
48.0,1.0323567340418642,-6.8275657884489895,-7.859922522490851,2.9486541108478086,4.4588425395236335,-7.2905788298459955,-1.9603630397811027,-0.6868853737459558,-2.5476100846299703,-1.731933191739908,-2.000321340893148,-3.3631382751468424
49.0,2.6038498542748596,-2.4930380675909953,-5.096887921865818,-0.07097934041048415,3.8581996017182476,-3.815109502965206,1.7333937442538907,-1.0838828042974629,0.17268962850920744,0.49716170175374996,0.6003849097017318,-3.6090971865713533
50.0,0.9004349574272525,-2.2267360799099487,-3.1271710373371766,0.6563226816659715,2.0201751986304193,-2.6931587144706475,4.697193990916244,0.09248666895135749,1.5901410249867243,-0.25216639979839117,-3.174236880709196,2.001865346952025
51.0,-2.8390219241436347,-1.953742589494989,0.8852793346486507,2.3931796451688854,-1.8537844517263204,-0.5491393997099348,4.817195212473023,4.620204617957257,5.053870931203875,-1.5231321704706207,-0.2089575715261902,3.947624670429458
52.0,0.5832994572433541,2.7297659483791232,2.1464664911357647,-1.6618125103428776,-0.8470484024391114,2.4998494788957863,-0.7881015398544751,2.865032760026611,-2.317160051283937,-1.615760309775969,0.7115370738864659,-1.8046480240942266
53.0,3.190565198757934,2.1511494982512174,-1.0394157005067342,-2.683127782640021,2.1352539613808013,0.5331173092573276,-6.5797124125058115,-4.391039162125795,-2.6119291122470103,-0.6791291980208258,-1.8127261518177302,-3.025431653233933
54.0,-7.841506429287932,-1.825150826119589,6.016355603168301,4.811086108033862,-6.90071628987664,2.0639668898107253,0.2959538805801185,-8.070151638881697,-4.5625310631754665,-0.007818204831059689,1.2612026642935237,-2.8729726200333716
55.0,1.3165091079545408,-1.7925076044314434,-3.109016712386038,0.28399090658745557,2.248588571926016,-2.4144102190933907,-3.7724955190308145,-1.1714180628523199,-0.5667310763109703,1.0883016689366745,0.1289434613085595,3.0211654593237443
56.0,5.570386606315795,1.2486393471453991,-4.321747259170442,-3.372436238264667,4.908945088522353,-1.5895524825992984,-0.500368240337534,3.813163761431728,1.8536235057253396,1.7354928175281648,4.546512363929458,-0.4102808163793541
57.0,0.1926928659121514,0.7329739763979544,0.540281110485791,-0.5105552136888314,-0.20823513767494228,0.6543867008682506,2.379044472657083,4.942183405911403,6.485560835220654,1.2853677296242798,2.078091270650347,1.662378704652466
58.0,-3.996721948240746,-2.5889077562786227,1.4078141919621605,3.320944558731913,-2.6591066199389166,-0.5759891064826097,5.017527302525291,3.675796746506971,3.2078758578762727,0.6579643206741824,-5.8273770182055316,-0.545193972449683
59.0,-1.0189766814582533,-0.38174363984747567,0.6372330416108589,0.6496340135534754,-0.868447459945102,0.14503478574895912,0.8333280704451829,2.070387881987247,-2.0034454592922524,-2.567384124139398,-5.713612339640169,-1.606298169583336
60.0,2.822709448894745,4.197231115353402,1.3745216664587256,-3.4797849009528816,0.7553015452105476,2.8114028375325297,-0.40150668624827046,-3.486131757663813,-2.4495723723135647,-1.3822150451026736,-1.7626795460666527,-0.25216153480584036
61.0,2.165535716751918,3.9537152848821187,1.788179568130221,-3.1041831002821447,0.21206555131401145,2.829459707968103,-1.0360643806930767,-2.559785257585283,-3.7751550914312713,-1.2200348854851772,3.4523898241363984,1.7830068088410325
62.0,3.3282272946346874,1.2144359199054344,-2.113791374729292,-2.2316673323806735,2.659273968431006,-0.47895213888045274,-4.723496408716612,-4.604753408788567,-0.9508413463830978,2.2535744149066055,8.300890325158907,6.030312938361758
63.0,-6.638687496807322,-1.158278504433253,5.480408992374048,3.9444863389068705,-6.045616830075904,2.2200576742772866,-1.1808973040225772,-2.553219910134798,0.733105653759887,2.8014535059940244,4.518906792352234,3.0209555971110773
64.0,-1.4121557897599701,-6.6046080289074,-5.192452239147404,3.981874522303948,1.9054246121046738,-5.913939279580509,3.6447129272292766,2.0286511079082064,1.2632657638450882,-1.29279567597276,-2.204185575542582,-7.856127395333075
65.0,1.0635741067930515,-3.8218465259294265,-4.885420632722425,1.357612869161469,2.9955734062420905,-4.370988351930842,1.441936884664755,5.4488586411516575,1.7212135964571986,-1.7224761266279744,-5.17430355359778,-6.316549629340702
66.0,-1.543997267730738,-0.4763899242873415,1.0676073434434443,0.9914991539821861,-1.2756902661061618,0.27057072851833164,-1.0253292850058202,-0.3526222396067462,0.3758721811392869,0.16805492000634048,-6.064978700848055,-2.499911520611563
67.0,0.8436462770995159,0.7143766534831589,-0.12926962361631825,-0.7973040053730062,0.44797413553149007,0.3350062189781017,0.3886182381862059,1.7776011551314503,-2.5512000445126155,-1.5528156386052023,-3.0414301551532565,3.713585545201993
68.0,2.57555750031898,7.158736471334662,4.583178971015667,-4.808353158516085,-1.0332673966162318,5.823032245223486,-0.5453836597407505,0.7134490751591587,1.4964891693160038,3.247556638319769,6.1855944115026045,6.689511482623579
69.0,0.2739409254683076,-0.392939093075626,-0.666880018543996,0.036466326837732765,0.447310306622829,-0.5077811499131952,0.021097105463369417,-1.5177822698391417,3.085750999978009,0.6156370467807056,2.252966564407609,2.881555975729344
70.0,2.536910948487183,2.991560393088361,0.45464944460109336,-2.7124409351555916,1.100053465286438,1.741792378432061,-1.012221519567375,-3.8159150126013475,-1.3923352670733433,-1.3268269533308361,1.4826696767560272,-3.034490975490944
71.0,1.1338430128045882,-0.5737966543808874,-1.7076396671854934,-0.3113554822751523,1.4016605856092863,-1.1196800713489141,-0.1698144914177384,-0.6877701164337995,-1.7692353803206107,-0.8696431561581902,0.7668224648025872,-3.430586353327029
72.0,-3.2269640980068384,-1.4617248239314944,1.7652392740753886,2.308635284497339,-2.5160020345390417,0.17950735832951126,0.6017919113530252,3.201129218147784,0.018330375152457057,-1.7517430054554182,-2.348999240390457,-2.0419525441004414
73.0,-4.548248291754042,-3.14184287924867,1.40640541250546,3.8057532968627266,-2.9201146871952557,-0.9104313888204367,1.937963936252695,-0.4743642409776596,0.2639792226369988,0.6944992290241127,0.4205527114082692,2.4684134892132206
74.0,-2.7866682594974055,-0.8851183579510404,1.9015499015464694,1.873616412296373,-2.3679361425906538,0.4724005053042215,-0.36161109726595375,0.5495322301720169,-2.8274850840429884,0.6075352099284981,-1.7665650239751696,3.6456755959202525
75.0,1.8232732559713465,-7.008789471773804,-8.832062727745072,2.631368798669091,5.30048818831515,-7.9527092497150065,-0.8318550311674673,-1.8568033071106305,0.46786255517208075,2.1728512262158497,-1.6456526139618046,-2.7948740838671817
76.0,5.368263042275434,5.651478421779602,0.2832153795042087,-5.467912911685691,2.5890294520104913,3.0135573462327767,-0.5267471613191409,0.43983508031784135,3.1457995789537834,-0.5871798491518054,1.1490825809845433,-0.025318184213452555
77.0,4.369829869950588,7.221027976596427,2.8511981066458283,-5.827714402231534,0.719922391965172,5.0791620372922015,-0.6668789827484777,0.45010833180263016,-0.9735384639805269,0.42356069316567485,2.2903573492559697,-1.083240046658062
78.0,-0.06325840093922741,-2.4518728715276574,-2.3886144705884913,1.2290451940841045,1.193173065865653,-2.460562209768698,1.5057551162648353,1.6967550547775678,-0.4794503094704835,-2.211543635417719,-2.2209963047325445,-0.46894400397042446
79.0,-5.549102178346731,-1.6529747198110711,3.8961274585356036,3.5740246733824104,-4.780098396873687,1.155236972823551,0.00851960237228433,-0.2345942680821228,2.8621752699722376,2.6537785641374034,6.142257409566677,3.5240423272422703
80.0,-4.264916656525529,2.118975454949601,6.383892111475091,1.0448541381582612,-5.310589784348784,4.20221969913733,1.721044273456255,-0.8386565642951533,0.08582069008370419,0.06636304765899492,-1.7882333960397947,-0.6259787851738903
81.0,-0.030919584786555987,-3.712247612672497,-3.681328027885983,1.9193784256610593,1.8356507471541619,-3.670445165092273,-3.8423944253132953,-1.1515475833881175,-2.731236666405954,-3.8754875599745637,-5.330014691601897,-2.547098598703003
82.0,2.9012581777675672,2.189747259018305,-0.7115109187492581,-2.5008507267500466,1.819078189758757,0.7631313967191291,-1.3864925450432848,0.6370716615326109,-2.052046867061934,-0.2629185126972038,-1.6211554090475802,-2.437111654676491
83.0,5.166942045595505,1.3036210036813975,-3.8633210419140425,-3.2717392135653456,4.535594554142553,-1.3362828281890684,-0.27731139543188715,1.6599350904721144,0.804826035293464,0.872521660453655,2.1050576745405536,4.640596390588703
84.0,-0.6841606503800222,-2.774521722190778,-2.0903610718106442,1.770247731158373,0.7348369504018724,-2.4114330407913567,3.810603427268932,-2.1401878536786274,0.6233830008982623,1.6822664003177565,1.0550372630840976,-1.0885505191757892
85.0,-3.9074325508610337,-5.870927670641996,-1.9634951197808734,4.850293822858991,-1.0076394423114752,-3.897317153341915,1.8755106149492684,-0.2531631080536853,1.6563097584130728,0.9809918702013506,-1.735127428356401,-2.3107349681771274
86.0,3.052113697539856,6.829978912447205,3.77786521490735,-4.9815459331403416,-0.39080521084881137,5.322763332011235,1.6205174598839278,1.3624032860345474,1.5280702986208463,0.3175055608408349,3.8403147083300295,2.0471062554261064
87.0,0.05978878528613171,1.8148290299785244,1.7550402446923095,-0.9018386970478725,-0.8739675665011457,1.7239639415952457,-1.6644978007714135,-0.05807163187124509,-0.9037610935453588,0.3218708255236949,4.006126889314875,2.7343686226102957
88.0,-8.044284787840633,-2.5168485167961414,5.527436271044376,5.31213719785389,-6.738547798214383,1.5220239697450726,-4.2287470778982845,-0.8154379076765454,-1.5945839269061832,-3.374394604573015,-2.8184227607864356,-2.3651339718386177
89.0,-2.146400732766894,-3.639892400093232,-1.4934916673264205,2.841622381982063,-0.36808557637459316,-2.5508955308795525,-0.5305516219701003,-1.8169910104154803,-2.776643622137104,-0.8805989812646529,-2.6109727974869674,-1.5887585769113426
90.0,11.394343421266582,10.131421561184727,-1.2629218600818484,-10.73937154989904,6.353483317634849,4.449325582991409,-1.918285680816655,2.0870430873042682,3.445578162840915,3.4914796224246603,-1.657080591013919,3.96906825305949
91.0,4.276004814142166,2.3713374339120965,-1.904667380229975,-3.302067709230569,3.104216790941795,0.24792253354179644,2.731743776296967,2.062788443151522,-0.3446576414495597,1.6598625705511396,0.21495085519444634,2.3097816047900657
92.0,-7.975967316488447,-10.384868053019385,-2.4089007365308284,9.12413599132016,-2.776668070545659,-6.461304141146758,4.101985896500689,-0.6234807537313409,0.11166232005499999,-0.710934632603615,1.9995573727923566,-4.603542974575049
93.0,-0.8035254964268406,-5.9156715492118686,-5.112146052784951,3.3861429599038844,2.159381142449828,-5.499486823758046,1.488966725642716,1.0108860153887134,-0.630639722418034,-3.5451104381142753,-3.2146969945126647,-4.660026021599096
94.0,2.4507223092660126,2.028833042448187,-0.4218892668178169,-2.206298822255291,1.4445799466227012,0.8186198921767658,-2.589090889085027,-1.5318047428325248,-0.18654595047769196,-1.3022628323425545,-0.6044946445368917,-1.5253409221442795
95.0,0.5706487043762156,7.9538649775058525,7.383216273129595,-4.298987573438222,-3.4698784112712198,7.685363517703792,-2.9961058586093423,-3.009731263466449,1.564448003076577,0.6360186595869761,2.4775359868564255,3.12170676278346
96.0,-7.996416234423654,-0.15673800351054945,7.839678230913006,4.1267850129192,-7.894149861504408,3.861060213115617,1.1548396348057108,0.1863914951319685,-0.04051207149526109,0.40102029156956104,4.091556230315302,6.317041581243319
97.0,1.3143765733035329,-0.9874402762475942,-2.301816849551229,-0.1862816159924689,1.8407731108180974,-1.7000169783377794,-2.58183619484846,-0.18915558557822965,-1.671729836820195,3.3322701425495826,-1.198613383485276,-0.7453799408746775
98.0,4.617106215444956,0.0049555310853934935,-4.612150684359614,-2.332056386829638,4.575793817106631,-2.2756560163902773,1.7600867312927821,2.97527188094893,1.7263352569660895,4.111676086309326,1.1329488043883054,1.056996430190671
99.0,7.121269327977765,1.7648919263344265,-5.356377401643321,-4.466448413469809,6.283215964005611,-1.8413194705891882,2.2929045062013036,1.063582627257822,-0.034919134170950855,-3.164504612418771,-3.0174973238518183,-2.8031154952233126
100.0,-2.141413106902175,-1.757045823163955,0.384367283738277,1.920644768186809,-1.296273434722429,-0.6474094438800491,-0.7759558573148988,2.2954242470344823,-0.3807338253932,-3.1880169083503,-1.1333269422017274,-2.620571187931221
101.0,-6.052558436905754,-5.61722284234391,0.4353355945619155,5.879104764151347,-3.2011627937928333,-2.545983522536521,0.8798761837248081,-4.019693499419953,-5.25093625986481,-3.7561388925469776,-2.1553890972431153,-2.006078230345619
102.0,-1.2288172013589898,2.401489107647665,3.6303063090067096,-0.5468490682156553,-2.470817294744095,2.9879442627710437,0.8694655513242124,0.7584427344049638,5.317566788738036,2.73044610794339,2.4812688177420545,1.692710782171499
103.0,-0.6244544494172459,3.531376894674431,4.155831344091708,-1.4166826621793869,-2.437608864600329,3.8207626364891594,-1.0839285102284317,-4.651883556784609,0.7591489476802395,3.520712476052131,0.8767302628584294,5.243362623405542
104.0,-0.6022881427552779,-0.3483004645296659,0.25398767822557167,0.4319870702936994,-0.4016274098494763,-0.06587862291325552,-1.916525469832048,0.1342682714712342,-2.589111505621446,-2.570907095397424,-0.5028247218217523,-1.3307579644583862
105.0,0.09885817285550055,-1.0838839810020953,-1.1827421538576717,0.44776190014578254,0.6660808002049291,-1.148719472549251,-1.9475803164833687,1.8208966567316753,0.18410958626037088,0.1084671482901005,-1.8078753113655575,-4.599991257125394
106.0,7.190067251762074,1.0838321146076626,-6.106235137154494,-4.105732341226794,6.676615668284831,-2.444869231758098,-0.777276094444823,2.934042835028075,2.5377523202097736,1.9275020546624848,4.747179391197134,-2.152465579090917
107.0,3.8339822151855003,-0.5835895501215793,-4.417571765307104,-1.6769581610579198,4.160887379117535,-2.5100218359678252,4.2452505858103695,2.663360304593782,0.8200841065473068,0.062106736019061026,-3.776377781300852,1.0950617810764276
108.0,-0.8071897524920193,-1.9723066677673349,-1.1651169152752567,1.4122268003692398,0.1429394747131012,-1.5754171450748014,2.5175780158675267,2.0292624311748795,-0.6440752211565757,-1.6640518813585075,-1.0718738509779153,4.151838489091708
109.0,-6.38350018122755,3.720651974207036,10.104152155434665,1.3509575068506692,-8.274171398644603,6.9073917634971025,0.6883072513875257,-3.764423904512214,-1.7614522561786168,2.052694537491773,4.305425290046923,8.656009002465817
110.0,-8.711864797935666,-4.236756322162991,4.475108475772696,6.4939979148674984,-6.622003988873237,0.11377965946711521,-3.1706817789974573,-4.710249881925709,-2.651723012484518,-2.7460990813014434,0.6343124194255993,0.3627659752815493
111.0,1.4668612804955803,-2.6081154987760704,-4.074976779271667,0.5939628233990017,2.740348726209314,-3.350229522363257,-4.3936229795584225,-2.780289331988718,0.3400532329799746,-2.4557891004269115,-4.5262668703234,-11.900987298002034
112.0,7.296312382336272,6.810305495674951,-0.4860068866613536,-7.1025642083700085,3.9351255281158917,3.147016012251877,2.6672251850103654,5.320423584171487,3.614140141588033,4.750218950590584,3.968532915761781,-3.662405386648408
113.0,1.4077266735262257,4.105281868534588,2.6975551950083454,-2.720266127963164,-0.6049129287459927,3.4558115556141757,1.3535514173213468,-0.5333480057306943,-0.5877128155933735,3.5858961728159935,0.9478428543081061,4.185897661530937
114.0,-0.2692532688877738,-5.269981130335269,-5.0007278614475,2.732403028437479,2.403802502392633,-5.170767421180377,-1.4942221590942506,1.5366490401494257,-1.893529136865079,-4.149916937966725,-3.5098081374097854,1.2561916323658546
115.0,0.22237197155812582,-5.091064035190799,-5.3134360067489075,2.399650865804016,2.727664519455702,-5.1704625687912396,0.30761620256523153,1.1173929079597733,0.40822417525122573,-4.9017679729707355,-5.110842486951183,-1.8359118908576
116.0,-0.6613712012393032,3.1972320482844396,3.8586032495237785,-1.2243656844752215,-2.2983573459198428,3.4705090411774764,1.8349999520840212,-2.050070106667654,0.7839966545795237,3.035561512248741,2.5168744270798573,2.2512963886025865
117.0,1.5139431322155465,3.5116152604463386,1.997672128230805,-2.4719343182813316,-0.19965425020011773,2.768309635610826,2.936657324852346,1.113159041738199,3.184205003864468,1.940733513750043,0.3061021140282274,0.6532269190291888
118.0,0.19171922094749072,-2.9135537912857337,-3.1052730122332273,1.319429804592149,1.6126988458299822,-2.9992666944149624,-3.875808931190522,-0.41461517598484576,-1.3069600560847923,-1.9215826947043537,3.88210954843321,-2.1389726575161045
119.0,-7.74515516918056,-2.7914624318161874,4.953692737364341,5.223832127709969,-6.385674970406378,1.0925145273280403,-0.45113482461922927,-1.1795808114389548,-2.605779121342507,1.3050873906661153,0.5153184608827632,1.0319843764198418
120.0,-0.968203123572144,-2.546332291441723,-1.5781291678695917,1.79022547992134,0.34656717039978746,-2.0453562814691706,-0.8811669218745151,-0.950419153713643,-1.6423575186660593,-0.19520207856066307,-0.4684980070475946,-0.6207073378995442
121.0,2.1810743135520503,4.474476250618029,2.293401937066011,-3.2941668085662696,-0.014842255095026902,3.4087931029643137,0.22186660673584346,0.8180040615059584,1.823810489864257,2.2706511784184573,1.0813446274995744,2.8670186345648645
122.0,8.035680763747754,9.215093805165122,1.1794130414174306,-8.589882685562104,3.3917057458109774,5.151474861622603,2.081140416294141,1.6858495513972538,1.193659488486237,0.2800233793977153,-0.17846495226756176,5.882880857546952
123.0,3.748956573751823,-2.2765839321323273,-6.025540505884081,-0.7778088311249283,4.931776022782473,-4.190744703184668,-0.5162103314923566,1.9030329987653853,0.8149851131484991,-0.9322307497002869,-0.937563080658474,-1.7231936915879518
124.0,-0.011077772011809595,-5.640475830368982,-5.629398058357124,2.78390884877855,2.7776794032876713,-5.592987867872414,0.08481452187167277,-1.4026236863434578,-2.1569652794279337,-4.284188031990509,-6.563902883741108,-8.229720570629281
125.0,-12.572242400988046,-8.302323251052448,4.2699191499356,10.471275763046124,-8.450016180952556,-2.0533011798940817,1.0702624086980046,-3.014116719465821,-0.4631040819527039,0.009318168119312631,2.0897847029370284,-1.019782697984629
126.0,-1.6743056262019662,9.44256740626368,11.11687303246561,-3.9338364876993035,-6.422467671306515,10.31883754549672,-4.104284356913762,-0.1548246067697372,2.2832293248231585,2.164656048522096,6.6863645878497096,1.6553235524805348
127.0,1.4097318730332244,2.5694591155781183,1.1597272425448342,-1.9657727160405527,0.17870317877910447,1.9001669083471757,-1.5112630183682607,-1.1623668347812477,-1.9787939543720579,1.1351055820846887,-0.4018570772619361,-1.3882251454875767
128.0,0.09597586078764841,-3.173238213005704,-3.269214073793399,1.5591547731915096,1.659597850694145,-3.267983611341522,1.2751034751564583,1.227196889705365,0.19455907777547243,-0.8252968358930617,-3.2029718200655015,-1.306711149305325
129.0,5.843427855863506,-3.081831695879483,-8.925259551742974,-1.360071956401677,7.442459021723462,-5.9746269001936545,7.0601261446291,3.329838813982825,0.8796391620233659,1.2846612799847044,-2.9644190031228304,3.6906854612562863
130.0,0.45338202297080876,-3.920440384897341,-4.373822407868114,1.7581848925227506,2.395058064443704,-4.199253149296183,-0.17136012258016375,1.6191182926882541,-1.1993590719067804,-2.794746345857745,-1.4958013683603706,2.4060963441721612
131.0,6.3465189852114525,5.146175563800503,-1.2003434214108877,-5.794009181215229,3.7556558077024635,1.9982936627786654,-1.6928485238728679,-2.411371111462613,2.167151523351799,2.036765373043637,3.172216142639501,1.9355946933738164
132.0,1.7137164044280195,7.250435148964045,5.536718744536066,-4.522953444606765,-1.930739880979643,6.419086081854191,-2.0548199313580406,0.9577506583795563,2.7220947441489254,3.3462254786159367,4.883901424513973,0.950230453958653
133.0,-7.76752937349588,-1.1553153555251536,6.612214017970744,4.50414042074343,-7.2129580896681995,2.6770472991888723,-3.8961303997541084,-0.13961084409379187,-2.607763408492593,-1.280699864168586,1.417216177553942,-3.1782569712879725
134.0,-8.486633282653981,-5.910643480722605,2.575989801931336,7.242509350399453,-5.481043849872311,-1.6363444629887296,3.049822220067608,-3.4324465045915895,-2.1629495963308405,-1.3058094755451828,-2.2051360873307084,-3.83479009489261
135.0,-3.083989853438525,-2.3496548061758418,0.7343350472626253,2.6786173755269957,-1.9430551457984087,-0.7715902764065994,-1.4601257353656663,-0.9259773045596205,-1.74676839006854,-3.847226958859394,-3.5527608218249367,3.216309771014801
136.0,2.0337518582674,1.4559015685949555,-0.5778502896725102,-1.79042489343811,1.3468344568975026,0.4020627048904164,0.6209719916522531,0.012531637546705054,0.46152203811644454,-1.643021891806977,-2.5074446282404397,0.6219507455460028
137.0,9.597961301482503,3.4692482033359964,-6.128713098146545,-6.510315880399422,7.82440270789604,-1.3615040881781926,0.02590200565210321,2.421609712469637,1.752734426264233,3.9404046607343837,0.40159012699144525,-3.0577893997405354
138.0,7.254551159487527,0.7379472052918012,-6.5166039541957375,-3.982892128221633,6.926811313499034,-2.8389013501201905,3.0726556809668186,0.7267892111627563,1.258992374370856,-0.17679996879782744,1.1717412480299296,-1.2148838012087293
139.0,-4.175883955737238,-4.043649671875221,0.13223428386202984,4.115589978343472,-2.1885297172114946,-1.9833245741904817,3.402105487632939,0.14241381754484683,-0.1555057109998481,1.3993753673296285,3.2831171785779922,0.9742639452617287
140.0,-3.5595683781832674,-1.967985231011781,1.5915831471715238,2.7661793496515696,-2.5283575854905562,-0.1396557036083662,-5.751586448194084,0.35750898760720906,-0.6183158831914023,-0.1834880723097494,-1.6183709255507956,-0.19506728147208885
141.0,-6.9069691976706675,-0.6631677546886507,6.243801442982055,3.788587232671501,-6.605951681650259,2.754353265464066,-2.2276365483703215,0.23124511872147233,-1.0861590008946689,2.4010638655490864,1.6367096884149173,2.0196280374394107
142.0,-1.6172378060540091,4.4636528817056185,6.080890687759625,-1.4149504825441568,-3.881939020293497,5.228367276012643,2.593049703354574,1.134056418945185,1.2515148074399607,-0.07268455936154855,1.3193271389038563,3.8848602280597966
143.0,4.4199039802464295,8.778962919143758,4.35905893889729,-6.584618551837488,0.07052538578449807,6.595581671865654,0.8419527847969654,-1.4783712313983224,2.27804287756971,-1.3113232329461906,-0.994824601937752,0.5884553947910507
144.0,6.275386932118377,-0.8808046582958564,-7.15619159041431,-2.754774560922115,6.668971561007962,-3.998197471740914,-0.33283373472728905,-3.796178264078299,-2.074140014284048,-2.8385286003932384,-3.5745485309774563,-2.0490886825872616
145.0,6.857915325484811,-6.646776200132577,-13.504691525617469,-0.07924932397109274,10.204642690387661,-10.057546513453486,-2.255321773636568,-0.03939586811254969,-1.103799672116125,-3.805054325348693,-1.4599628216448073,-2.860376812970938
146.0,-2.99900136030312,-4.400694725684582,-1.4016933653815258,3.650808334660566,-0.7821513937801559,-2.9584603802374714,0.5202777157975244,3.2372626692508497,1.763357173759354,3.4617750378845122,1.922831890629795,0.522645255044436
147.0,-10.310944091857479,-3.711308342692364,6.5996357491650715,7.043145861402922,-8.442253317496235,1.4742324339522281,1.9002454160750306,1.7755400598477924,-0.39787260340256014,2.7011137786570294,1.8317690859254956,-2.9913838897049954
148.0,-4.897051371974422,0.42027755124619426,5.3173289232205905,2.2724288931855083,-5.093694744707305,2.9111487916173893,2.3341349943243856,0.19616007602363061,-2.3742045114648365,0.07966432776864352,1.1270469007115056,-0.5736709190052831
149.0,2.3454023693682116,4.737204881706353,2.3918025123381454,-3.505207071886213,-0.08461394026820024,3.5413086169034593,-1.1102608393398372,-2.037203438853934,0.2734489100101545,-0.012643383679929232,-2.079998777061197,1.0001134905315006
150.0,2.56024229678154,1.366614376296373,-1.1936279204851372,-2.004414808366283,1.9002042436042683,0.07424115407411502,-2.743395409366556,-2.741469272583254,-0.964069274384408,-1.964530057607384,-0.7702563320830591,3.4099938151961697
151.0,1.7948939431681432,0.4787058663745789,-1.3161880767935363,-1.1773320243315415,1.5852898032378993,-0.42498238406328603,0.6201608672782544,0.9403035099922836,1.8203431384069164,1.0324922687211604,1.2766373090229588,3.4115822155013746
152.0,4.017745362084797,4.046767957632097,0.029022595547323338,-3.9953570182199014,1.9510090736922021,2.0314764201989113,-0.36781930477983216,2.124572093685097,1.6610856081043512,-1.8307558987408914,0.5101632309555133,-2.8566164002770567
153.0,-1.2517595145688154,1.0335064422087994,2.285265956777627,0.06441331850298604,-1.7292074442452248,1.647161209425758,-0.3228077294625152,0.84042678715203,2.625216422448604,4.518320187352617,1.8210613316252962,1.5292878007585353
154.0,7.250529319187686,-0.38394997201037084,-7.634479291198048,-3.4025972993849134,7.404968952108356,-4.03075843887552,0.3782112618431139,-1.055548761965278,-2.895848177245644,-1.7609045025234265,-2.679315501937324,-4.409951833935376
155.0,-9.878502534009751,-4.863852501848713,5.014650032161027,7.399524227776507,-7.404990599319621,0.1226004921539432,1.5357728147289322,-0.22245227994932915,-1.7090446048930594,0.6525480535156615,0.5733578677399189,0.38550845116402765
156.0,-1.9905009171266657,-1.8892487024762716,0.10125221465038858,1.889395819836118,-1.0831340504856821,-0.8550291927328126,-1.9643681127416732,-2.5511679643321328,-0.3852044442853393,-4.484674349840256,-1.707382757974073,-1.24286453350506
157.0,-0.04512119040049045,-4.1205896502721995,-4.07546845987174,2.1138483218393747,1.9787346896960765,-4.143010289110325,2.0178018391169132,3.304563171726783,-0.14665146901852866,0.736137367732046,-1.602060000800187,2.1219182491031137
158.0,0.5310738780120781,1.2106744272159768,0.6796005492038699,-0.8348160172872741,-0.02906792066541311,0.9765971020152484,0.9710848686301421,0.7449659237596676,0.9741298813797667,0.662262569634805,1.4846224295258894,-0.12292646001636165
159.0,2.7088274582465024,2.9429087793998656,0.234081321153352,-2.862449153441541,1.287851562467846,1.5406785683817468,-0.979023175429094,0.06893492619040703,4.378913799956086,2.901639595756233,3.1316963120702836,1.2331534913238795
160.0,5.155233487975049,4.875911437807007,-0.2793220501680329,-5.046668814599086,2.695840275297569,2.3291710438364435,-0.5021016374430902,-1.6325327165600556,-2.778479216365704,-0.7978926066887844,1.8787174538700886,0.1973677333821452
161.0,-3.466926182046893,2.594544549149064,6.061470731195955,0.4872714084663339,-4.779086256641257,4.279699316238325,-1.774484874565702,1.0134754818326974,-1.8898062039644505,1.4640002823166207,-0.9544596346581269,1.0707148278677654
162.0,-4.187865545065176,-4.514268753922728,-0.32640320885754437,4.324077500408742,-1.9414247158583025,-2.390782088890415,1.0493779709371787,-1.1152781083736583,-1.6169884830176482,-2.706943407890251,-3.4513133278800843,-1.8492858780013954
163.0,-2.6990064438168235,-2.877629544153953,-0.17862310033709616,2.7595218092970715,-1.270419676339698,-1.4993400650858364,-0.56369269523865,-3.578712336760819,-0.41640127968361096,-2.608949139009642,-2.9009067424470145,-2.0175412218946227
164.0,1.801189086197701,-0.7494258961173643,-2.550614982314997,-0.4791403748363361,2.1623465705491047,-1.6998056861754696,-0.41471057153620655,-0.2224399341295391,1.5888851308311724,-0.21981479354281253,-1.9261896903962994,-2.019871050565794
165.0,3.2988357885704787,1.1462379350498118,-2.152597853520619,-2.2576747367864947,2.7062578306139495,-0.4724453789371206,2.686504791807007,4.602231325243036,1.8811294579692932,2.362083973168234,5.652591976078832,4.244852064037293
166.0,1.942597374026391,-0.27535173856572775,-2.2179491125921342,-0.7916994604532013,2.132946389450434,-1.2123709577267299,-0.021377261659682345,2.0613068140771205,2.0665683535257973,4.766374004128932,3.8779233900493235,2.2730928283664715
167.0,4.784592786372396,5.92978163194761,1.145188845575147,-5.393509452781322,1.8666684598416934,3.4980168758698187,-1.9423052041028193,-0.6253441356718277,-0.8378357538761944,1.2641102596645566,1.234557599082904,1.0704852865136756
168.0,-3.935171376095454,-0.4488458945397924,3.486325481555574,2.2370551593694064,-3.74654582895341,1.4850844475316243,-2.4147023632568585,-1.63431791840153,-1.3154245127131114,-1.5121522333779271,-0.017250250442920667,-1.920298965014873
169.0,-1.846001619328665,-1.1076302764608181,0.7383713428678034,1.447018594499784,-1.3303622014563063,-0.13364655425008287,3.5131068550504407,0.38555970795207584,-0.556234356257721,-3.4728874918343693,-3.7060329246887007,-1.6806098691172775
170.0,-4.023176775430677,-5.934386324783438,-1.9112095493527512,4.952942496716532,-1.0165231591668924,-3.9452936927918474,0.6727879822627995,-2.2645560099310784,-2.43104103479744,-3.8182702038566205,-6.671695874929796,-2.2426229957447625
171.0,-0.6545635892295103,-1.463142919764927,-0.808579330535355,1.1145861560311339,0.03779027711356131,-1.1543737922461166,2.31438970711505,-0.41685013412090677,1.8527593832402014,-2.362167703872016,-0.8800162957055471,-5.196756148831102
172.0,-3.8315487147095286,-2.1108328096610265,1.7207159050485707,2.9491339035899857,-2.813634922032571,-0.1328449615308961,-0.06818123189174347,3.6727918778280033,0.38519873412093675,1.5314240715959375,-1.829891767997965,2.004718682839882
173.0,3.001997191820467,3.3693281472813,0.3673309554609066,-3.208612683873106,1.3626299744783437,1.8510433023985882,-4.347954104678704,-1.2878368513069025,0.22915047147837386,4.528362544902646,6.679784628486954,4.412384741543276
174.0,4.78232871807216,4.57159328131663,-0.21073543675547718,-4.701877526359019,2.548454222085308,2.1591963342977687,-1.9190692043907225,-2.0826455337633814,-0.3332093822442269,3.824024298484559,6.916383137457059,6.437747652731026
175.0,4.6639111906347885,6.4250815089037685,1.7611703182689915,-5.492421947077528,1.4329138509004518,4.064894516270694,-1.280666034564212,-1.3299819783030544,0.7676934976920177,0.2687108726745131,4.027131361731877,1.3072545801771978
176.0,5.320760220713525,3.645483705604235,-1.675276515109347,-4.510108161798851,3.487694105809174,1.0265675985953648,0.10282620220856635,2.4810557512270854,-0.07910481607232556,-2.1674140852522337,-4.380813409053574,-1.670891028084328
177.0,-3.8759300795283025,-7.918535458748973,-4.042605379220766,5.950765921296452,0.07837660214505204,-6.027247129119264,3.852158482365871,2.9750922873745673,0.11933742999851021,-0.10402350014922623,-5.0720129489765355,-4.951633250670658
178.0,-5.472747920489795,-7.668568431147324,-2.1958205106576374,6.549035831337533,-1.6428780706271708,-4.907935376085698,3.8956822612544073,0.1927238548818706,-0.839050591759379,-3.037737785203045,-6.072343045172413,-4.047764617109623
179.0,-8.71538021488198,-3.340551306466181,5.374828908415719,6.0108010503502065,-7.054404539583203,1.036543266389141,0.693728515264507,-1.9230915944964875,0.8507202649718305,-1.2042345452425596,2.3241639721628125,-1.4622980437374085
180.0,-2.2079709267807925,0.023763187636868244,2.2317341144176277,1.079094393927773,-2.238223187281187,1.1455424227038908,0.14041822930160824,-1.7861263264504537,-1.8366827277157176,-0.43141711591917364,-0.5292999136669256,1.456823526283805
181.0,6.590395774085463,5.369378532375132,-1.2210172417103184,-5.989922607789284,3.876872254685306,2.0927063096949396,-4.43053663175257,-2.3274421344588454,0.8075521902314704,2.7763877027735577,4.724224192819765,4.164481733120351
182.0,5.35991522866086,5.280406151375615,-0.0795090772852081,-5.328820310576892,2.761082282493807,2.541727452110092,-2.304627924027691,0.9839575427268195,0.877076957760186,1.3566184610669991,2.8061978942964996,3.9497373941001115
183.0,1.3537271111601568,-0.02813905505621328,-1.38186616621631,-0.5930635465455891,1.4049989745378957,-0.6840459490028716,-3.9902834270261582,1.6713259519579522,-1.50351944220092,-0.9563287284139086,-2.0087156297435134,-4.523966489363369
184.0,-1.7062998100115525,0.5644263273956716,2.2707261374072867,0.5596710215796412,-1.950579053117246,1.3597896773979403,3.8660067069319988,0.7606528110029142,1.1625030365154818,0.07818767294561013,-0.9475905354133229,0.45643765260884883
185.0,-2.3572084301103153,0.5418185993243947,2.8990270294347686,0.8920612336997689,-2.6649330581835557,1.7413119931389096,2.808219854801413,3.725771572579588,1.5164819507229959,1.152277470850867,-0.9222121072326466,1.3211322731002422
186.0,3.1664679577861694,-2.2507256362061967,-5.417193593992328,-0.4800530330028343,4.25931955517255,-3.8117561702814347,1.9660145696465081,-0.7822030869159631,-0.6084664630899376,-0.5527160209409852,-0.41072600210789256,-1.433317288825601
187.0,-0.5460381859560249,-6.690832296734788,-6.1447941107787605,3.5880146460901043,2.768583131784441,-6.39180392049274,-0.9779232235021704,-2.7598044222123126,-1.4787190924327835,-2.9406384197619895,0.8082547331602468,-1.6559166707417006
188.0,0.4265107481658734,3.2741477298188064,2.847636981652906,-1.8107693764758217,-1.1650340761394515,3.0930859435928877,-0.0068112036959105116,-2.4059914090578265,0.10918988176140021,0.05850584012138582,1.8349392868033596,2.0792088502262693
189.0,-2.786464072655014,-0.5255261674034982,2.260937905251463,1.6877967486864616,-2.5631570903871994,0.8281985855762135,-1.5455586664235983,-0.7364256985651627,-0.7725794657370614,1.4540805279586075,-1.5464632268903746,-2.835055760020654
190.0,-6.123652600266271,-0.9047711990212327,5.218881401244934,3.4619054732858667,-5.640057664462677,2.1231466622190656,0.8059442650073516,2.1850839260557775,1.0417312081299657,0.9858719400627605,-2.219448485253666,0.22453429895528632
191.0,3.203824003357092,1.2452825517635802,-1.958541451593614,-2.2003154121199664,2.6052287355078345,-0.3097122666117609,-2.4694659673948163,-1.4518738134799507,-1.4141120856867984,-2.3435032644731018,-2.06377051272953,-1.3915756819222345
192.0,4.298112180965219,6.6724100371032575,2.3742978561379937,-5.4601968471132,0.903548958965179,4.489190780633084,0.26809759895625085,2.4780795785794756,0.769395166843375,1.4953038416772098,5.344938488317291,5.613545219239619
193.0,2.158112933775272,3.193636894629295,1.0355239608540618,-2.726648236875004,0.5830725715901321,2.0744166867129943,1.2092851560064268,1.907415653558974,4.797693775093783,5.51561612006613,3.210566273062007,5.975662631997236
194.0,-2.8242058120704363,-11.144210562363737,-8.32000475029319,7.015694498242041,2.7760144585909,-9.701095837605795,2.390626414707349,0.2558606230598589,-1.2959933790438372,-1.6379195350838631,-1.3863088429315493,-4.362470835301835
195.0,1.3096793263541433,-2.4675476779425436,-3.77722700429656,0.612943486738962,2.581044793624817,-3.0979037936215246,0.7209000146301903,-2.001796744467234,-3.3230136622303794,-5.351130022857161,-3.5799069381984223,-5.635682271515825
196.0,-0.16725469467683154,2.631286789637806,2.7985414843147254,-1.2763848462111622,-1.514468118798602,2.7360188914275936,-4.782163313634802,-2.8887920490446293,-1.666761754377952,-1.1493115950874722,-2.681541349708657,-0.34779366017834024
197.0,-1.0385282068694208,5.195955247264115,6.234483454133553,-2.125179807381389,-3.6615600402528243,5.736950876879479,-1.3468815746259795,0.3307492210334355,0.1004175177913228,0.18577973329682718,1.6691631300671113,-0.19223973556279106
198.0,-4.9469276537897855,3.3721851491408206,8.31911280293056,0.8157359421660708,-6.656744595123572,5.792791852036125,0.5087507870201528,0.3034490895523277,-0.38554423571475405,2.231285687914528,1.6393357725765163,1.0819230214195203
199.0,1.730997892293058,-3.1582429348186123,-4.889240827111744,0.7375273003142543,3.2822886557387942,-4.070214513504291,3.6128181326226305,1.4647713676276275,1.6340330741422961,-0.6109520428583821,-2.6294865919089716,-1.559702226224367
