Time(ms),I,II,III,aVR,aVL,aVF,V1,V2,V3,V4,V5,V6
-200.0,5.690576827372196,-6.34910131554383,-12.039678142914894,0.2917067275942061,8.89523613022098,-9.233369456466122,3.0655032079717692,-21.669803664367652,-21.23009787215595,-13.552805307266091,-3.028076139853816,-1.8608768560183684
-199.0,-10.232973486581123,3.248007337528213,13.480980824110667,3.534770007520948,-11.829420599085402,8.390823451594255,34.07001390524934,12.789574705855575,10.331805750021692,8.583026095309034,-1.3885835170806482,-5.15214098879401
-198.0,-20.5836876221924,9.39999878967155,29.98368641186491,5.636169615849754,-25.25493935704952,19.7055326455409,35.33088157847774,24.589728386557095,31.52569398915593,22.163131880345627,7.0659212121935555,6.243072195159749
-197.0,-24.804369662010572,1.6364109005637073,26.440780562574684,11.551853710780843,-25.668838048312892,14.043960249888547,31.44564846413143,45.968571162298396,39.5839043589444,21.74330759794552,2.776346690263784,-1.3366419333307655
-196.0,-11.900105919918943,8.3592898824949,20.259395802413582,1.7398409218551647,-16.122020370610716,14.313053124948826,18.62980491147012,36.91625659055983,26.789823918521364,15.513339014648107,6.810062860621259,8.701025588759576
-195.0,33.527442795338494,-10.594347453132954,-44.12179024847196,-11.418469547001136,38.86311969143761,-27.34897301674168,-17.00570466784856,-13.265194927778042,-23.680366374233223,-22.370473753752098,-15.008984042820671,-13.242674638923727
-194.0,59.32950045425979,-23.839555498656523,-83.16905595291676,-17.777796664893188,71.20787989139764,-53.48456071053503,-41.86412952022498,-36.56898848387885,-51.12375710644439,-43.45262398841303,-26.168864971427933,-27.908129008099348
-193.0,32.34284791018347,-0.0010192798008565873,-32.34386718998442,-16.207520082252742,32.376550407384926,-16.218898307112653,-30.37809549033994,-32.899657365336616,-29.5089499674155,-14.697384867529788,-7.116460311985842,-3.5368556322568403
-192.0,-19.60454717115025,23.027407732140382,42.63195490329085,-1.6735604337386554,-31.09092933234581,32.872554073311484,-16.492933791546783,-12.54558189641309,9.954199447320345,19.080082377359517,21.868995150767446,23.126586708123817
-191.0,-45.14359304898375,17.366566642027585,62.51015969101161,13.923057040138904,-53.884045034388194,39.90795495332707,2.446771868858927,2.30830213697174,23.723708985824832,23.984404682457885,22.870918091886118,21.708755214586397
-190.0,-38.353707890141756,-1.7683590479495415,36.58534884219244,20.015649645895216,-37.45182070433326,17.37706508030054,24.272497201837837,6.51636618596329,15.281879547672872,11.587119333486608,5.788872715972053,7.385290578721216
-189.0,-19.702623186954092,-7.4062572813515,12.296365905602752,13.58932524534605,-15.982730268950597,2.485694676117248,28.2272428357309,16.402940017162102,8.52246322501545,0.5669404162805023,-0.47286135591287515,-2.135543343882282
-188.0,-0.5350836193771,-14.681208473239442,-14.146124853862206,7.568268507554402,6.824312975610127,-14.461341219515093,15.685447009021615,18.61788783975151,3.2092585762839754,-4.821975702929868,-10.525597063413084,-10.197650273399217
-187.0,24.43698130918584,-9.08337375370174,-33.52035506288749,-7.632347160019437,29.001493613761973,-21.27947635428962,-7.559707377712751,6.955120621811485,-5.378326162446284,-7.215011954646539,-8.87482355664601,-11.78944808207783
-186.0,30.30235007958696,-0.45760723041664075,-30.759957310003518,-14.950723517322631,30.479745067838525,-15.590787342526838,-11.260987260280109,-7.647120173649434,-17.41201329649923,-11.05916310408131,-11.374017716324474,-11.525720683653352
-185.0,16.84564657036008,2.612021098114945,-14.233625472245123,-9.752172829485437,15.491855644504529,-5.791093919141126,-3.4745575742382595,-3.502987835221563,-3.5605060583156387,-1.389837070211879,0.14568109359602488,-1.5106943230357235
-184.0,3.433756462382142,11.61456512911328,8.180808666731119,-7.465699143707692,-2.340479517730106,9.924726583136962,-7.9598060647556395,-5.598559372259374,2.019848369354179,2.2662131102398835,6.226416265047826,9.996703261587795
-183.0,-6.375978346006027,5.784994252123328,12.160972598129359,0.2757428582790933,-9.234774261096174,8.931601086872032,-7.85034704727952,-7.396911774763092,2.7167138177686243,3.106872651088664,8.891433722215165,10.509487006188614
-182.0,-16.573318066207307,5.181877490658429,21.755195556865708,5.6740971460169085,-19.130720419055564,13.436687064102074,-0.18293810714151526,-1.6388480046735205,8.946595133875347,7.73097653283729,9.390363106612503,7.55101794780026
-181.0,-7.4545859443791525,5.577713414600704,13.032299358979825,0.913320240145655,-10.288922641146879,9.357022347554297,4.7594778343762485,1.228203356444359,4.257328289001844,5.567752852929869,1.0405900774636554,-1.9461154708828463
-180.0,-5.566746550808171,-1.4531969166844854,4.11354963412359,3.5598213892495894,-4.885300044775024,1.3018833568878625,7.072152884572695,3.1415642861429087,-3.1434274036120464,2.33157342073122,-4.754577770223216,-4.487249398321268
-179.0,1.4500712610180688,-18.519745810459195,-19.969817071477365,8.503312534548662,10.745143193096037,-19.281510335329255,5.10929296866037,2.584283022633263,-4.973475663473309,-7.111454728446216,-11.494273222111543,-8.160885265330744
-178.0,7.862606046922444,-12.35684463617661,-20.219450683098998,2.2939384938742338,14.07967393449886,-16.259551229371628,0.13108925687782325,-0.6023189121428758,-8.423143120670149,-12.363229803048485,-7.2280614078253995,-7.344015890347623
-177.0,-2.349001519383247,-4.370230317321229,-2.0212287979378374,3.329780598581361,-0.1984718833990753,-3.1821511484311316,-1.8219238414568062,1.6219453541193736,-0.7297522400269965,-4.32664370005878,-1.0203032473166895,0.15543880146760403
-176.0,3.399075826080971,14.128118216827847,10.729042390746947,-8.789414941555755,-3.692333289633478,12.429455017414007,-0.24796850119490088,-1.1507282179644218,5.3024645507511705,3.4783406671772155,6.891961245500304,6.265553454351786
-175.0,-0.7673681807258448,14.436535817677436,15.203903998403316,-6.776952576967111,-7.926301229624415,14.814052323626434,-4.972601078198484,1.6625017045144945,11.791960300201204,10.16770191610425,8.362875562833665,7.829133017112203
-174.0,-0.06689216521029562,1.879114964490281,1.9460071297006607,-0.9233537647600709,-1.018780377250207,1.9069491394232987,-0.7202087566642383,-0.10391286152979273,-3.6322699437143484,2.2276353377667384,3.1052211852064238,4.415252918198367
-173.0,1.5151265068949424,-7.168389226810918,-8.683515733705711,2.81116285969431,5.091485993276131,-7.923357872897285,-0.7299990419427755,-1.0684973948132899,-6.384483773384917,-1.6839486986499899,-1.9803318873200575,-4.852185174007732
-172.0,-1.248265192525833,-3.420922324757109,-2.1726571322310892,2.318193659135794,0.45486045991033053,-2.780215150186229,0.3056475809133788,-0.038056614561633006,-2.776658317093432,-0.9373007498475527,-1.7659428167938809,-1.433344889334053
-171.0,1.8431238278000204,1.0351028924935046,-0.8080209353064647,-1.4588596137485736,1.314194108330136,0.146477432430844,1.0377458362360035,-1.1585442812781466,2.666853177456755,2.8883591069446792,-3.695055519090891,-4.688983062391753
-170.0,-0.2304541742723033,-1.4191169806561947,-1.1886628063840166,0.8790375997972586,0.45974188314405695,-1.3349837261092279,2.8156247324592796,-1.7181215163310237,2.7939140135662206,-1.960476765555131,0.5999149161696562,0.6271256356927832
-169.0,-2.118712796363562,-2.2726697226061394,-0.1539569262429047,2.1662526123099686,-0.9332941390235668,-1.2347969099415548,0.2666874223817153,-1.9101111653704967,0.0797295469337227,-4.812627007964135,0.06601277337525113,-0.527169724274475
-168.0,1.3318634410855879,2.270083693891219,0.9382202528052893,-1.755926097275545,0.15667301139578038,1.5853636483808398,-0.22734964761869547,2.6561644463196505,-1.120605297979483,-0.7569633218624996,-1.284986163898737,0.41798654957028764
-167.0,-2.1314360417518516,0.7687960735249482,2.9002321152766477,0.6442595422375755,-2.485889588125074,1.811899321298223,-3.4332397378508306,1.6208825990814986,-1.1907213502292004,1.440851267265097,-0.689597089045108,1.0759402188161413
-166.0,-1.7760533383536894,-0.3943044458777414,1.381748892476025,1.1241375928614372,-1.5544635458633067,0.5417996503469189,1.7966606159745666,2.0436675676798566,3.12140732642378,3.319730098605658,1.9385884619467912,0.4014898956300681
-165.0,1.4762804302971608,2.1654018169800486,0.6891213866831343,-1.863091908431308,0.3373080085359621,1.4662546458966546,-2.3711173642728096,0.9400966488951021,-2.3567205124182604,0.17125411186628936,0.6363242933917839,0.8946059435406511
-164.0,3.035877144882885,-1.8900144881811,-4.925891633063754,-0.6173638428948607,4.004499522287982,-3.4548642718697353,5.1320482001339265,0.4373250513310707,-1.9247742112697503,-1.3493418274391598,0.001249458291861738,0.44204617665329016
-163.0,-1.8096782964762106,-0.5403745549488259,1.2693037415275445,1.2079351763673345,-1.5126483667510038,0.3929486712374102,-0.9132846486121947,-3.127720385356452,0.4155292117943441,-1.3492311921276594,0.0013257625171331777,0.6021192802143324
-162.0,1.5601567660384177,5.193239605845544,3.633082839807227,-3.3437493438764854,-1.0842345476915949,4.363808842584612,0.015283322168175184,-3.1373658543123257,2.8754565803217984,1.8123358203506497,1.2941283846099316,-0.157476927939255
-161.0,-1.3012633358124923,-3.1120152352353894,-1.8107518994229306,2.2414088945999033,0.28975147850670396,-2.427622567195017,-0.386863399987459,-1.2985368824651504,2.114199678481337,0.19570991161007328,-0.43965149188696306,1.0163808825307432
-160.0,-2.737278008684889,-8.321961828201704,-5.584683819516962,5.488909677813937,1.3832657885839734,-6.913483113788358,-1.9793030972380252,2.3382494408722394,-2.4848628337039287,-2.607812588748107,-3.4381152400857333,-3.332722700237175
-159.0,3.3921701174734773,3.351237657458601,-0.0409324600150367,-3.408550384361314,1.7572842002761642,1.6219331317470043,-1.1364719975242727,2.733753986552553,-2.002290741912476,1.432014113173667,2.8639133459896398,-0.9368721702978782
-158.0,1.728880692435176,5.434317311919514,3.7054366194841735,-3.5361626618233286,-1.0246009356770074,4.540143899864368,-2.223377299309493,-0.931615581312286,-0.9390064780336775,-0.7473435307280065,0.38780953311588284,0.26134144580203744
-157.0,-1.8615323333855855,-1.4995796292504564,0.3619527041350137,1.6498567191897557,-1.0680980512832086,-0.5982353194586483,2.3552691912805086,-0.1451854354513359,-0.5123099150514867,1.403880422037826,-4.331862660416494,-0.948851210483292
-156.0,1.0300895369265914,4.090560516097916,3.060470979171259,-2.589487831930181,-1.04942062272385,3.6220392292006336,2.1230488585014937,3.5197026953247557,4.1436387340485075,-0.3410170818674948,4.425360158302799,1.697113723718379
-155.0,-1.7208473551078427,-3.0460907334395158,-1.3252433783316684,2.4335545390249242,-0.152792548130543,-2.144245973926853,3.2248774146964885,-1.7489527553923214,0.44406605349530004,3.5526094153305543,2.585332309174766,5.022395389925202
-154.0,-1.9183935787664377,-4.1976351868373305,-2.2792416080707976,3.107468589887792,0.14666561020141206,-3.2820674957317975,-1.091830156754338,-4.098636233378137,-4.384705491665291,-2.905971074333758,-1.7370401339641812,-0.16659837225641727
-153.0,0.14940037983866405,2.4306021618872458,2.281201782048708,-1.3213961965586425,-1.1001948755583828,2.384580432904417,-2.9008768258423556,0.5310445550719973,2.794444142482164,-3.2263802730382203,-4.45159880976812,-2.9233947272549456
-152.0,1.0224890136157903,-0.1076439932687209,-1.1301330068843716,-0.49268764345677585,1.119916410526855,-0.6745791420760974,0.4845601242040225,-0.24467525013609392,2.749297662561525,2.150851315530644,-2.0302041059848985,-4.710294850898755
-151.0,-0.8306828629409091,-1.1603835356265608,-0.3297006726855728,0.9548592871492992,-0.28648751553342455,-0.7258285880865586,1.113188896288113,1.5568084631190062,-2.7083366224957244,0.11849535619365248,1.5194672020765119,-1.079366376259159
-150.0,1.0080280297262183,1.9325755900877521,0.9245475603614953,-1.4381385628733292,0.08380490493838244,1.4466049048164515,-2.654536261334523,-0.6029821419864994,-1.7072765332182098,-2.2116419903992592,2.7527041372378602,2.1019621892608273
-149.0,1.4299731339372208,2.260527821060993,0.8305546871237117,-1.8179500655022423,0.341082341485595,1.5657487539299042,0.833223681342133,2.530998247929242,0.951332170694789,2.4239269624358206,6.561458832547416,8.27670332030825
-148.0,4.228252540796912,-0.2707881268340868,-4.499040667631034,-1.9538687034688451,4.325214288154262,-2.4377824059929774,-1.4500760989779282,2.413954889754096,-1.6912793665603825,0.5775752345276913,-2.0670697779866365,-3.584402048176999
-147.0,-0.8603549855168477,-2.536206252130925,-1.6758512666140768,1.644917472279948,0.367789429793548,-2.071417983932631,0.9118939601053107,-1.2973416737821797,1.0871863691965427,2.2962348817054448,-3.8261377163264445,-1.3743369139916284
-146.0,-3.8614873318622416,-2.1005642726337133,1.7609230592285212,3.0093334540149117,-2.8525861327529642,-0.20329843180008728,-0.7088413952339776,-6.661785821946742,2.53760590335529,-2.3569131315956495,-3.085690430727473,-2.2051558798284447
-145.0,-4.80831384306712,-3.0471921520794236,1.7611216909876817,3.9599447000399435,-3.247464068558155,-0.5868912090092764,2.7348650932066167,2.2877971593502147,1.2458617789195459,-0.4221380368172244,-0.9834210243143322,-1.4805884649344958
-144.0,3.072626369217213,4.601378387791172,1.5287520185739278,-3.880465494213858,0.8115248039909084,3.0514318342819697,0.36709926887370714,3.946864268603762,-2.342684334540337,0.8738056453256002,3.081997745739813,3.996885312607028
-143.0,-0.786515006375026,1.634554523196874,2.421069529571814,-0.46661026275580864,-1.559263744278847,2.019193055043849,-0.8667065256731307,-4.303049320719907,-3.5472226706401275,-4.230851734533317,0.9067724295308708,-1.1199298092276082
-142.0,-0.8918490934432522,2.410878105988977,3.302727199432114,-0.7253730639124392,-2.1252660010464055,2.847850948936608,2.402055847597933,1.284742361465968,1.3702757854033956,2.697566501514263,1.4320220280908436,1.8927774848726837
-141.0,4.570836070742584,3.6523568250369896,-0.9184792457056333,-4.082186650476696,2.7218505652851293,1.3521545784090447,-0.8057604253971695,1.1674565884011174,2.1357415276198006,2.7239451640604746,2.8287648221528587,2.2222723805719706
-140.0,2.194005041333158,-5.084697526802591,-7.278702568135725,1.4681174601246914,4.71527414727886,-6.206528612249647,-1.177786066266841,0.5177277046539789,1.0653717729885097,-0.45217055910747783,-3.1027432852001238,-2.6396624689842954
-139.0,-0.3312480824869737,-5.674891215412271,-5.343643132925163,2.9397280189115333,2.4821690123692637,-5.46720321074955,-1.8716440954991933,1.8037442350854205,-0.020414354835745385,-0.5090332422135871,-4.310966079844766,-4.810886222172982
-138.0,-2.8527192389415674,-2.326942796219358,0.5257764427224267,2.598569679760012,-1.6416747753074932,-0.8694391693189609,-2.647592974483029,-2.1274788253216634,-0.418158503659259,-3.7924142395355305,-4.899600568291003,-2.406644284866519
-137.0,1.0449770212945793,5.069121656282474,4.024144634988094,-3.0527669961962056,-1.5301443423339185,4.491293924532358,2.219505810515752,-2.8165487375242173,-2.0846698638963925,0.10617939203269078,3.4414588017992758,2.100583020086302
-136.0,-4.348587695240658,-2.60917301836239,1.739414676878348,3.4822493460306654,-3.0148002443416098,-0.4148684814203447,1.5288474673141488,1.0009996802551793,-0.6257679400065325,-0.6220412153185907,3.469028658966966,2.0216353624442984
-135.0,-1.1944917458321243,5.108146365476328,6.302638111308328,-1.9501343231608086,-3.725652948272228,5.7261982437342205,-0.19538243359470586,0.24738838437249705,-0.2485441128829815,1.9444762987305233,5.92236874003801,1.8470613549094095
-134.0,2.676343864715882,4.653549472673975,1.9772056079577984,-3.651015985221048,0.37014703236430013,3.3399895178499133,-0.1565559628968034,-1.3750154994942718,0.8618737638165883,4.7983621386600985,4.563626932422329,10.511118725667284
-133.0,4.246471751866128,-0.06147452888254956,-4.30794628074893,-2.068834182859067,4.220679738934708,-2.2336947118881136,0.40465990543523456,5.4858266529611495,2.6213886659676366,1.6735468099347626,-2.1397296466249944,-1.8829806057562188
-132.0,-3.4546576852538373,-8.158451957931778,-4.703794272678051,5.761521206155766,0.6515346001265954,-6.475045505884281,2.610827262756042,1.002140800606331,0.6470003200870147,-1.6244130933319112,-8.064563999830309,-6.198428098463577
-131.0,2.110096904232683,0.5324496105553251,-1.5776472936773072,-1.3582554643170357,1.798733780499368,-0.4835079707208978,-1.7080209197108804,-3.0133681083773816,-0.513472720331898,-4.708408921600242,-6.815506579706732,-7.504048488008955
-130.0,-1.079018148341412,-4.504666836995474,-3.4256486886538577,2.8378201631395297,1.2143802220350808,-3.9225121028168517,-1.2999759376012099,0.4224488581155321,-0.2522673765077111,-1.5520999264421809,1.2724018269504627,-6.058374097158248
-129.0,0.10418987253738898,2.6635562299189726,2.559366357381817,-1.3384974069931839,-1.2578607942716424,2.5787577603729765,1.0401557736359013,-3.943342875828337,-2.622582911310228,0.7587091661771892,1.7696524101431022,4.197242667328746
-128.0,-0.5256108160075358,4.199550048621151,4.725160864628852,-1.87568745915949,-2.5702429409445635,4.433465351201438,-1.2133413247578497,-4.119987631867136,-3.2180361704484834,0.972537610330785,4.250609094705165,7.156351545137155
-127.0,-1.6445268530367385,4.87910932332668,6.523636176363488,-1.6649273726124187,-4.1024477417627825,5.755691391773176,-1.0997660508291567,0.629609216798837,2.472107504207444,-2.852591859976736,0.888758675354413,5.227366643505858
-126.0,-1.7843098571333313,0.08761959290274035,1.8719294500360766,0.8691297899596807,-1.8432690546023434,0.9601638850975478,1.8305402759889997,8.299607096264658,1.8222577669641287,3.0390381692368797,1.1287208614061337,-0.45254508669150306
-125.0,5.89089790585083,-5.6854380990228375,-11.57633600487368,-0.09094815513719401,8.71933895358291,-8.646140029205124,-2.9357491623941137,3.7331501172896457,0.08205152024692142,0.9883414510373554,-0.0011672260768158527,-3.2069381571530338
-124.0,3.68695186097219,-0.7472638053483802,-4.434215666320625,-1.463197896425521,4.044953245636991,-2.6033373324711384,0.5322724572385145,-2.4134014025661488,1.694015313431483,1.7816537602027915,1.5418996550869313,-0.3813987108984249
-123.0,-2.690765748822939,-1.015316306034329,1.675449442788505,1.8599195381459965,-2.1230471833797573,0.395785008331738,4.119599261535612,0.6981363395093021,2.85404549014927,2.5304603350029016,0.17842968110962487,-1.8531373996539895
-122.0,-8.006490428382259,-2.851596400675349,5.154894027706812,5.441456118522628,-6.603480199034736,1.1339569937764413,0.008330430919180065,-5.830581373675188,-3.406674923566336,-2.5833899658721253,-4.758469893042543,-4.192553322870964
-121.0,-2.403325539198315,0.8232752918454818,3.2266008310437186,0.8116900403528806,-2.842335474371428,1.9979881346757344,0.1915136523477804,-2.8608686876525145,-2.548678264355055,-2.6551718447756985,0.02814309734059961,0.935411126873497
-120.0,3.999293951884649,2.8882760042396076,-1.111017947645073,-3.490384392653471,2.601784792066925,0.8487048780245594,-0.48767037655528667,0.6265544513372561,-2.191885601879342,-2.501553116706643,0.40779393509087347,4.73437741269139
-119.0,4.290602670493874,1.02666960241252,-3.26393306808133,-2.6959981625773564,3.740378965616689,-1.0942100500666392,-3.4426757418443223,1.7473029600334162,1.197383563771075,2.1981903391665467,-0.8257795623039683,3.1138959643025634
-118.0,1.6823686701271168,5.106512363850051,3.424143693722965,-3.3467834271123236,-0.8336725198881374,4.277170028961342,1.0156623252901698,3.960908908367355,4.213609941961128,1.0260155134275926,-1.770686272874188,-3.225884723795791
-117.0,-0.07733021634969783,-0.539690899649794,-0.4623606833000919,0.2800466174218983,0.14679339889587695,-0.49666673860774924,0.5294515174729841,1.0478518738429163,0.89805080547038,1.42243552815316,2.56098268561693,-1.7587858283079691
-116.0,-3.355066587786341,-3.1991396758251884,0.15592691196120095,3.3265601817719723,-1.725534604411713,-1.5174185328679826,-1.6360012582533243,-3.3010799441909295,-1.3825503809741253,-0.50048698054448,0.06084599363056631,-3.287433054389173
-115.0,2.180738640186852,-2.5812293446416588,-4.761967984828502,0.16730212040962744,3.4215330861190094,-3.6598572331069086,-0.3207380655264297,-1.0443980853519435,-0.8447906400194655,-3.9646080121886786,0.5473900734856507,1.6433631152725707
-114.0,0.007414204433993099,-2.459715802302493,-2.4671300067364785,1.2662856083437923,1.268031913056758,-2.4379161746452462,3.7522428965418735,1.937487793393747,-3.3348147415501326,1.2718109342164823,1.5867495626735915,2.517640392514619
-113.0,-1.282258688506113,2.192643475129854,3.474902163635993,-0.5005834113971419,-2.342891264302449,2.797601001642673,1.5494077857848976,-1.0680460053659109,-0.929552959299423,-0.46723079321282807,-0.7255352529304087,2.795576228331632
-112.0,-3.455322302427691,-1.8813324199541448,1.573989882473559,2.694960563382273,-2.5504653333997216,-0.17279426073672144,-2.5808252632200093,0.05380715623505067,1.5352712334123586,1.7224394773161755,1.9438069653970822,0.19175159084228566
-111.0,-2.5228841456437574,-0.6374457806930987,1.8854383649506161,1.5228165577072006,-2.153473702452413,0.619137084293263,-1.6274702815989888,2.181726869193856,3.212635443480305,3.6652463907347843,-0.13889504525456187,-1.3156488159707869
-110.0,3.97944280523411,4.928097282117578,0.948654476883439,-4.4345993638479895,1.4931918131904878,2.943392432201917,0.5467203624119878,-0.46865640029963884,2.5803681935337144,1.8461393450109573,-2.01796276151299,-1.4556036807243722
-109.0,5.390214265325156,4.660609136757644,-0.7296051285675398,-5.004453140848263,3.039637400947386,1.9755777147945355,-1.8191256382212693,-3.409692403806456,0.08766082417194831,-3.1952553054492654,-3.0923057920792285,-3.2123597921660556
-108.0,0.1682778183569429,1.7614039229908833,1.593126104633901,-0.9381815707958543,-0.7354928279783506,1.6879064302581934,1.067618401801893,0.2521853378237293,-0.04703059456770581,-0.5537412154872752,-0.2051288540054439,-0.11691913036982737
-107.0,-3.5538207233636925,-3.3193645721635328,0.23445615120012353,3.4713517758697425,-1.9238279123595368,-1.53519265402745,1.5815676319303575,2.003213985509575,-3.0804556069472246,-2.629409198405705,2.973246279878669,2.690804939793039
-106.0,-2.159857847199777,-9.848491929147135,-7.6886340819473755,5.9681771090643245,2.805298086291816,-8.768177134805216,1.5612698513836603,-0.8585656688596351,-7.207952965547455,-5.301045758192381,0.8185435532875553,2.7721629228641724
-105.0,-2.5176267297030677,-1.507849047518059,1.0097776821850244,1.9821879492856773,-1.729744551635711,-0.2586606608376196,0.6391779459153613,0.39020594164235234,2.8292676159059624,2.64558307120463,-1.3942057845206386,-0.926311268349322
-104.0,1.9660744062384592,1.0586464982636923,-0.9074279079746863,-1.541205349257111,1.46700717332095,0.053366350704154464,-1.0418070478614636,1.2825940217746834,3.121202469926825,3.8201406025345617,-0.1726011830848988,-1.828826670741613
-103.0,4.704626173431963,6.132729601230075,1.4281034277982076,-5.4489418407277705,1.5900164214600045,3.8226842561960703,-2.4286207745625443,-0.41810887399414537,1.664585408826323,1.505621536693626,-0.3465879409777431,-2.943379021000838
-102.0,0.8693699811303299,5.825022818726639,4.955652837596364,-3.3012618886676597,-2.0878361532298118,5.339556216041525,-0.35846377893394155,1.765157262678119,0.26010800640458154,3.899635486365377,0.2908163491545627,0.2574700309340128
-101.0,-0.4644913465889293,-2.5461553804679733,-2.0816640338790338,1.5496771363551995,0.8479703555519225,-2.2983248131657183,-1.4592116195310447,-2.2714935350362824,2.600269578014474,-2.584441242933652,-0.892546427807678,2.607266744976311
-100.0,-3.640250841871956,-3.0042730760952847,0.6359777657766749,3.3668940078812395,-2.0934387853733893,-1.177069120203619,2.124660440897793,-0.5434416821479897,-1.971710695175306,-2.734091532991747,3.5560527263496344,4.305979932913258
-99.0,0.63667489651081,0.6847640852962826,0.04808918878547386,-0.6935792112568389,0.26386575589538286,0.3702465252710634,4.3569167798587,-0.32636457922350315,-2.965995908500933,-2.8405505664113404,1.4115443646069723,-0.2810101306114201
-98.0,-0.6556793579543654,0.5535523840188357,1.2092317419731595,0.018377020386995846,-0.9618511757304213,0.8874762234468057,-2.4470149986167846,-1.0272512877174906,-1.254566062361355,1.5340230762053269,-0.10843001608794,-1.4636947531107478
-97.0,0.5106066257438375,-2.3813353156499186,-2.891941941393835,0.8998627063000387,1.6702408207480515,-2.6237786089821746,-2.452828508853356,1.0818187950481088,1.7185989323720867,1.6727388680898567,-4.319120440835346,-2.4584482502902207
-96.0,-4.3003910737236355,-6.087611763837318,-1.7872206901137613,5.23100004035946,-1.2123613645244369,-3.9152980312475765,-2.319729918339157,-0.4164545883494367,0.664988140872764,-1.9346094978800115,-3.0623182947025027,-2.8757023026061965
-95.0,0.3811095529319035,2.3923889233326716,2.0112793704007226,-1.4366475564594867,-0.7749709430285969,2.1545756430198426,3.577146995129837,3.2040534839071433,0.30312995561916245,2.0982786321445683,1.9394369945379322,1.2017539022793085
-94.0,5.576492077360983,6.69817543757362,1.1216833602126262,-6.115493899625268,2.185109379197894,3.870269492639421,0.9679158680838749,-0.7860881491126515,0.05192149855384087,0.2516131537451787,1.1113227136617214,-1.2259699390556653
-93.0,2.743338437109478,5.942646328549057,3.199307891439603,-4.3237578201850795,-0.19421348307522135,4.615021105791603,-0.10966941756000459,-0.45259286735215576,0.6183019176188367,1.4745958014280718,1.9712847335623103,2.3993099495823142
-92.0,-1.355080246469956,-4.223549828694418,-2.868469582224413,2.812400888532721,0.709998074975009,-3.578275797555518,-2.8306145031336722,-2.6627587806037694,-2.1609628098492353,-2.1928681597328112,-0.7709204344178895,-0.6391488812904169
-91.0,0.2441533586193798,-3.35307051172767,-3.5972238703469976,1.5876692972422228,1.951711755607834,-3.4281207298183087,4.768935125677855,2.058588185763943,2.046640986593135,-1.894122967075444,0.02227936539181033,4.745039255145128
-90.0,-4.084118862279116,-4.655736223528439,-0.5716173612492821,4.338285745640378,-1.804607888974711,-2.567510495912826,-1.3563081059663185,-0.9305260515612548,-2.098027344182555,0.9820471183543267,-2.151772307018678,-0.8619208545021945
-89.0,-1.2431490142604527,-0.6995626667247539,0.543586347535695,0.9534646799764244,-0.8634226136139045,-0.1127076351062104,-2.2859159374981894,0.1727475853721938,2.345594619602294,1.9063907803325986,3.2449157976417826,-0.3331081988129111
-88.0,-0.06250839707530154,0.8622324230610299,0.9247408201362824,-0.408013570603343,-0.46417794554258696,0.8553955647824887,0.4714549155970704,1.2444078109291228,-2.982503732844969,-0.6442363464557427,-1.2369146284959665,-3.5271606903621504
-87.0,3.884058306593828,6.348538935505523,2.464480628911647,-5.121133350557704,0.738376879893826,4.364283497330125,-0.4672426135632124,-0.12722014507176233,2.4263864636557937,-0.7758992583148203,0.9311266880667561,2.8006192939905064
-86.0,-3.077274413676836,1.5843970325961583,4.661671446272973,0.7383090796134182,-3.921080207967052,3.155793158017569,1.0444482437304603,1.8284872846189433,0.9246890668744758,2.3883056352521663,3.51634831090111,-1.061417970172623
-85.0,0.6114875855204371,-2.684038795209643,-3.2955263807300605,1.0201850212606867,1.9000642894839472,-2.9589929497550234,-0.21182827713160501,-3.0064814712783083,-0.6015096455526926,-2.047688474698973,-3.571794477633012,-0.869593106096636
-84.0,2.0493723800645607,-0.5814416033794663,-2.630813983443984,-0.6806907064557515,2.3639842356435197,-1.5745627939780096,-3.2243165050950946,-1.7075883480845686,-1.7399447444925358,-1.7720064235164241,-1.347676217626808,-1.1178625910259326
-83.0,-2.877410295021307,-2.709485571081585,0.16792472393977453,2.760476724577913,-1.4986383235005074,-1.3145905702973972,2.1713613209217772,1.382861134528226,1.0836043100806287,1.0951022583471737,-2.562370118673036,-1.5756013101811264
-82.0,6.214636725991942,3.151251153610696,-3.063385572381234,-4.640534822844158,4.665490374416961,0.08356738967116906,3.3982259604499143,0.8565245527096768,-0.33487212988750886,0.8489557661573236,-0.1472064999810035,2.0033293906042497
-81.0,-4.704656718479672,-2.067783198199572,2.6368735202800675,3.3511325818340554,-3.639794062730432,0.24958896121093732,-1.8513568047677655,-0.6752833854029037,-1.4036129723101574,-0.8133010399385786,1.0681684013595283,1.3686071379160152
-80.0,-0.568238494068257,-0.011543283621457567,0.5566952104467169,0.33819483473889134,-0.6051087380679872,0.2396400302459281,0.1870534576150184,1.3784540451906357,-0.18764705439014395,0.44031643054575703,1.0451324371589477,1.3015341461878482
-79.0,0.30117687415058625,3.0556124308596915,2.7544355567090077,-1.703142194591736,-1.2654485030679077,2.9500356510737777,-0.31446624026782266,0.00834429443572915,1.7720675598145654,1.7860006659688406,-0.24850311070274467,-0.02612810850448466
-78.0,-0.3729080361713276,-3.127646880881918,-2.754738844710661,1.7298770261297798,1.2317143365781904,-2.978109367041463,0.9320623979508595,0.5462699703237119,3.2105744824578224,1.282069750634435,2.467435888068827,-0.5474155709574848
-77.0,1.5576903784455085,-0.5577324556439476,-2.1154228340894536,-0.518874995435777,1.7958975198957838,-1.2990123217083867,-0.8965286015293982,0.862726559538235,0.3015522185500472,-1.9333075510278972,2.007210227926879,-1.2117568909679308
-76.0,0.8499948353159243,0.9255951922179808,0.07560035690208311,-0.9080653556505379,0.4196176069099573,0.45555334804028913,-0.9173026098484781,-1.3154115155862491,-4.33127455846826,-1.5950780670949014,-0.5251164459771753,0.536966710507438
-75.0,-1.711143094668285,2.021608733469345,3.732751828137677,-0.09975715537015428,-2.6965597360489117,2.9084462337607144,-1.9805404106889974,-1.553058327106071,-1.8762396559440284,-1.7400979804076584,-0.8596495023378338,1.707665603806027
-74.0,-0.755055009398223,-0.25371297021708394,0.5013420391811787,0.478241481223474,-0.6878803555444555,0.1540870177990099,-0.18523797206774317,-1.8835662570569496,-0.7698786586066948,-0.4730065373681952,-2.7508504186041156,-3.012096537763675
-73.0,-4.476107191738091,-4.4115050119223875,0.06460217981574834,4.495022920780386,-2.254931563666153,-2.1437291543521924,1.99277379212204,-1.044969890063146,1.313865513618771,2.5857094893595645,-0.640935825625861,-1.9892719762548818
-72.0,4.68500784725302,3.8447869170636517,-0.8402209301893317,-4.292056799734443,2.77835376221148,1.4516562668915054,1.9171052818864733,2.4645094668469016,1.4792525426143406,0.5439934922791705,-0.47760283461134156,4.075419231071788
-71.0,4.6199128898162325,2.4890796454052606,-2.130833244410951,-3.5803440089806147,3.3955757258187957,0.1248027869888326,1.7590666644071755,3.9874364584467967,5.697642245924117,2.4642780548641774,0.5013086584433575,-0.8672888889568546
-70.0,2.98788509856017,-0.8007507511045296,-3.788635849664714,-1.0398886122870992,3.4160523812108132,-2.275844887762086,0.12755394327332314,2.388120270542182,-0.3676363042842894,0.40691355074584745,3.3532373387983077,1.0341576205102452
-69.0,-6.5170744076391935,-4.4941011171426615,2.022973290496482,5.47937730621968,-4.312130060434153,-1.2225853080055002,-4.114490762811246,-3.4346007950317015,-4.067274336135608,-2.1947492274403055,-2.245076030199218,-3.8861374019110904
-68.0,-1.3611733043172296,1.981749216636933,3.342922520954095,-0.34013680384813516,-2.3860176802070443,2.671477021046786,-1.3858248114119367,-3.159051363242872,-3.3004899109741372,-3.060980330383849,-0.7551708465539961,1.9789593856612866
-67.0,-1.8542631201277646,0.49372901254942264,2.347992132677126,0.6448527889402862,-2.1290783449796202,1.4301234881212164,0.4759713704363906,-1.8931009853928122,-0.4190805605597214,-0.04052411421680291,0.47544403807176827,2.5756532128405416
-66.0,-0.3561927912190016,-2.0778286744803807,-1.72163588326142,1.2543733045360006,0.7368384487139179,-1.8858336409052276,0.7902205623074805,2.087248620824012,1.1302047167541667,0.5880844994719426,0.12724279485354897,-1.4393743648288928
-65.0,0.581419597934465,0.7707057865557918,0.18928618862132107,-0.6433675329099351,0.2507720142004311,0.5018514678646757,0.7896742600502928,0.3210669208477339,-0.23650106542917282,2.542865895544157,1.1318643612688768,-2.465076424942792
-64.0,2.430362771303152,0.13981160024575012,-2.2905511710573916,-1.2547508029092693,2.3344050067869846,-1.1235390140860166,1.0320576497111307,-0.06512925694322191,4.01502858407289,1.3975178818169902,1.054687450624678,3.3681599909605957
-63.0,0.295543679470893,1.8939343610016068,1.598390681530737,-1.1434174381145594,-0.6818828815196387,1.7833054597098879,2.293267598957881,3.8880164031636717,0.9436376084000919,-0.634747896995949,-0.1508553175319715,1.7773056575256323
-62.0,4.372823759488224,1.8789125834608935,-2.4939111760273147,-3.0952023654452234,3.39660852223022,-0.34686256038330476,-1.0561631151250546,0.23067544544461938,0.5048928960409749,-1.624489570526062,0.4137051534199727,-1.1453905623767464
-61.0,0.5397556405652097,-2.2805601584702817,-2.8203157990354963,0.8222694598601816,1.714913293356561,-2.5924235070849493,-4.477903758433837,-0.5414320590953513,-2.6939028163056316,-1.1592762512393922,-2.160852170018706,-0.08077417043216678
-60.0,-3.905249015705462,0.34621428775466945,4.251463303460118,1.8085297470203534,-4.049843528265858,2.3293083401249164,1.2769602153917172,-3.839860781561276,-1.4403023768991972,-0.4824133921770336,-0.4773011321080536,-2.9832395959166162
-59.0,-5.473441274069892,-2.9608061968710295,2.5126350771988375,4.1644009906059845,-4.047307915582798,-0.2012790729054138,-0.6607138055337157,-2.390054583942295,-2.3032314318311538,0.4844470087860079,-2.166660141994349,-7.418622106799285
-58.0,0.8320298893101294,0.4604129965729582,-0.37161689273719456,-0.6233919091313198,0.6256076113756759,0.060519192401748384,2.644051483823602,0.029602431472200763,-0.8839296683866438,-0.22072009558022743,2.7162449534120547,4.251409848090299
-57.0,1.0917590915780335,0.32214876221475214,-0.7696103293633032,-0.686018073319897,0.9570700492167028,-0.21187008905955262,0.05355940744417276,3.3668354453407883,2.857910129766152,1.0413585989222989,-2.0045406937689636,4.848076171648728
-56.0,3.228787771346748,3.066435046870482,-0.16235272447628402,-3.1262506941867922,1.7266621907330402,1.4622798008209172,2.025793281835137,3.3434273243280153,4.8257611158957054,3.051589112650763,2.521497341282687,4.6891576500263135
-55.0,4.64318602566311,0.028720906297227122,-4.614465119365889,-2.3119151454509472,4.58600262927832,-2.361027270868182,-2.680020767823147,-0.7461159288154122,-0.7760964523013842,-1.0761442050068253,-0.9944815706300885,-1.8124546557296775
-54.0,-5.171622247031085,-1.856816715976239,3.314805531054848,3.4633416772103787,-4.283070618390307,0.7411251964606643,-1.2889325242650203,-1.022312342907727,-0.6726264237632026,0.5569492137169535,1.9503668759273811,-2.173134157823684
-53.0,0.406621600431188,1.5316627160589795,1.1250411156278015,-0.9377405540367025,-0.3204249115929201,1.3428844476055644,0.02907438023381248,-0.9913043737916766,-1.8383945311666516,-1.2798142031664645,2.311769981436594,-0.8781201550546966
-52.0,-1.7810759675816756,-0.5971070501230801,1.1839689174586039,1.1440374073383814,-1.5256587297371997,0.3115856004619583,-0.5242962269889525,-1.3071052599599136,-2.1073219836411408,-1.8755512727815629,-2.726553442111049,-0.6415749583232853
-51.0,-3.6928295531076376,-4.642836795464801,-0.950007242357159,4.124019458936068,-1.3409662816703383,-2.8514177050255904,0.5339664037770753,-1.770419468237684,-2.0630981130695942,-3.4520843171595312,-2.6055484485598908,-2.725204098144777
-50.0,2.718210237033275,-0.5224442115530974,-3.2406544485863735,-1.061583979805588,3.0042231312902308,-1.8495799539259545,2.6097070467052546,-0.6965756711481719,2.2271093378660107,0.9030057787754555,-1.1889362728794948,2.612026239557363
-49.0,5.609414695345482,2.8857763309590627,-2.7236383643864253,-4.20844303190469,4.186462690058758,0.12384709082738954,-0.14082151247332453,5.0372930369569096,3.105458474295117,3.69261233133201,2.9868960750679987,1.335516330855084
-48.0,-3.020605968756283,-0.010071000869939617,3.0105349678863176,1.5593765749079749,-3.0777834085469036,1.4766560488689269,-1.0619664856112538,2.127300031085663,-0.1652707752702809,1.7896354405241623,0.6781356708461376,-3.4451149786369637
-47.0,2.4294896625101936,4.458182983885048,2.0286933213748033,-3.472476657006671,0.2150000700617315,3.2319301459240815,-0.3889382953481183,-2.6613485982108145,-0.3587384967433861,0.4274685275299077,-0.4926424485186308,1.0580034670088274
-46.0,-0.1982615791441239,7.012061559557228,7.2103231387012965,-3.4302183318194883,-3.690580019084317,7.10908413149724,-1.779674153214411,0.5025244383490418,0.3736937894723374,0.563074175030516,2.719280034313018,4.795831285809989
-45.0,0.5710708419823207,-3.0138532054668525,-3.5849240474491815,1.200597926433943,2.091292715709553,-3.296848094834886,-0.6533268322129009,-3.9427131881384163,-2.541496424249348,-3.2841651603676723,-2.9072333046269048,-2.806513698990511
-44.0,-6.252316027561226,-10.48609512478105,-4.2337790972197835,8.347029840287348,-0.9963843708381916,-7.358721046041778,4.156796712729863,-0.35610270587631665,-0.14850960911752642,-1.8318043385488505,-1.6466692914358827,-2.0011548712510527
-43.0,-2.705395278649598,-1.2935169459783147,1.4118783326713449,2.0511032018017716,-2.125017417712273,0.05308167684472975,-0.612780014943813,0.6400559239129532,-0.00775839221753688,0.39891422747490846,-0.13107240266328912,-0.821174606273696
-42.0,-0.8170580775512049,-3.619252540153557,-2.8021944626022792,2.184239929239098,1.0047070738690953,-3.228916841736769,3.8459863829211947,5.456849224724813,2.802935517109333,2.9428114422171885,1.1623618801394433,6.3812761269086105
-41.0,5.580616872614896,3.979952386617179,-1.6006644859976518,-4.741887475790677,3.6035724931649336,1.2354863875955746,-3.3243725599610814,-0.7611353938251146,0.8115367060748754,-0.19970947922898552,0.628843128299999,-1.0134155387197077
-40.0,2.3452332681536245,1.9086577480480251,-0.43657552010558376,-2.171350995845701,1.4062829386389917,0.6883959377432958,-4.259190682958439,-2.3224830653787065,-1.7377985340461428,-1.0466216388849245,0.6688780181365251,-3.3573319570043942
-39.0,4.432568116383138,4.304570247605431,-0.12799786877775765,-4.33483084114523,2.299758058013185,2.1070490412661558,-1.8161755552405456,-0.8376145948373014,-1.9350294356817794,-1.445929111443277,-0.5691164798030347,-2.406782597672482
-38.0,0.38036314126305437,3.7649808146342423,3.3846176733710314,-2.0363288672346407,-1.4777545341115625,3.5852860418738377,4.070066510435098,0.735163667276406,0.08031507555660344,0.585858315383988,-0.2641131656605222,0.7594543814169474
-37.0,-3.9743115672853944,-0.2831221842626048,3.69118938302264,2.0906949261437617,-3.882810139437211,1.7108535778282508,-0.21720974212428024,-2.985688571418115,-0.30818630484514825,-1.6341571102979837,-1.351666300924409,-0.7561468701090222
-36.0,-3.39404549815493,1.3302837033330697,4.724329201487927,0.9979224349205886,-4.106747843589261,3.03443972974781,0.4194770433188513,2.0728934813550133,0.3609258810658812,4.516531204411193,1.3166849852758693,1.164091524623333
-35.0,-5.13178503418503,-5.774743651020795,-0.6429586168357309,5.4997604886173725,-2.213035974610961,-3.19887640641056,1.6171906136202145,0.5583187429746793,5.055659985753795,1.4608965066439623,1.2795224413789197,2.093000474621535
-34.0,2.8828520527303576,-5.026126891742022,-7.908978944472295,1.0374004041866058,5.425578345135956,-6.532599822389255,-2.4345623098847033,0.380740791866677,-3.023671947939834,-3.780079851098189,0.3220559067912593,-0.7509658210052057
-33.0,1.5096172668426782,-2.6664193820291806,-4.17603664887174,0.616978575002272,2.8698937272545844,-3.404111264871967,2.3881655009265326,0.20627974163390184,-3.1446433794514053,-0.5021318106141919,-0.9385615807621285,2.917416063876593
-32.0,3.3114021960853566,0.5288234623003898,-2.7825787337848973,-1.9693349943984868,2.9930330002576726,-1.1071098209614179,1.0322853053979308,2.191848378737115,0.9023479735897069,0.22813798735356494,-0.7928398428204108,1.8223462415488605
-31.0,2.6633178315805073,3.7987765140400445,1.1354586824595871,-3.2119764295014397,0.7878587183986623,2.488966972388865,0.07016137716869092,-0.5866227601999817,2.7135838597232715,0.28394892002400424,-2.0503923845539442,-2.4149021373923656
-30.0,0.5587638384495306,9.492326070214492,8.93356223176503,-5.0162155357894385,-4.240880136702256,9.157998295520366,-0.5235324799232021,-1.3830998948436075,2.9060071442566007,2.236340083729622,3.5933472739781456,-1.7001149481703675
-29.0,-6.419353990844061,-2.4951200989151543,3.9242338919289352,4.459509401495913,-5.142722510273972,0.7404587969114917,-4.87883124339362,-2.847591242066332,-4.8593094596833275,-2.9062024067574734,-2.2311236446287506,-3.3212782293890584
-28.0,-2.1117318382412114,-0.6357919720523102,1.4759398661888712,1.372954739376317,-1.7590969425630334,0.44804130430878786,-0.8271110451541464,0.8343724339188663,-0.9037647273443585,2.113350402533313,1.7262192872456443,-1.6305472894124642
-27.0,2.3220022992705918,-4.895324482671056,-7.217326781941738,1.2870677752677038,4.810312117122772,-6.026948379632393,2.6141549473484753,-0.14727900640972985,1.458386735470211,-1.8880752861214771,-0.554004423823909,3.3768783625895855
-26.0,2.7254338303541576,-2.516059340881841,-5.241493171236076,-0.0994417820063227,3.9491794430234313,-3.928133307219573,-1.6996592470785363,-0.40907286816295674,-1.848402775259142,-1.7320419012796593,-1.444501076158175,-1.6125443821999284
-25.0,-1.7445076106797484,-0.9999779782463356,0.7445296324333124,1.3845554851151993,-1.2792280103890095,-0.17876141398608958,3.014111708587886,1.4794737085881426,0.7758154336705959,1.290263310045193,0.20359626664291558,1.6234876343827773
-24.0,-0.9896794870148252,4.665886578034284,5.655566065049106,-1.8969628062451058,-3.362905974802809,5.1856130272223675,2.346863075790524,2.753802900177155,2.3782461703864097,0.6351806547054833,-0.35787636562777114,3.428165391576712
-23.0,1.6984543576690907,-0.6590977766549524,-2.357552134323956,-0.49333387678901475,2.0567147859650405,-1.4860833696146911,1.6404549050546005,2.5598173298424203,1.1822558607303755,1.5993564379389569,1.7706850799227491,1.572812455871643
-22.0,1.7278687810663391,1.6566200167717156,-0.0712487642945957,-1.6618370822217945,0.9169392912305636,0.8140022068811081,-2.0385783795254158,-2.577409752803236,-1.8054809474788012,2.3783703833665615,-0.15546940857160974,-0.8122816666191517
-21.0,2.038475326469927,1.8964713416477859,-0.14200398482218707,-1.9360969847533358,1.097982177048137,0.9004227447775559,-0.5846496336525295,-2.116277264404284,-0.4297665051708319,-0.4027030123984071,4.149925532589639,-1.7629593802669872
-20.0,-3.8409958449461468,-0.8289150367304915,3.0120808082155577,2.285538687121025,-3.424014883894228,1.0409351876593964,-4.794481336575544,-3.6712703062269005,-1.6335684901148018,-3.1061877050981415,-1.4022468058984854,-3.1563646060935184
-19.0,-0.18838252926070087,-0.8664010654270374,-0.6780185361664479,0.4740211985182279,0.24782949951861655,-0.8154699834483723,-1.0962127343540793,-2.3935645877243585,-0.23874449418955723,-3.008084786282195,-4.517417976114828,-0.4698357558914088
-18.0,-1.432356610065132,-1.6521446468098957,-0.219788036744907,1.5638689938797947,-0.5975077851992598,-0.8917924576672038,1.2412907172822965,4.352796249812905,1.0495059993850606,1.1556998443150728,-2.679484631875874,-1.1080414615781358
-17.0,-1.6951248499334401,0.45999491734798603,2.1551197672813753,0.6381716977446097,-1.9070989246396082,1.3600794798950275,4.720167130950964,3.33520109613953,1.0730137316888144,0.3915914812920527,2.8960787030093442,5.22056760815323
-16.0,-2.210723115892052,-7.225489253362039,-5.01476613746995,4.74245967975829,1.3516486112361867,-6.140253913818706,4.011615463985469,2.333932021383033,3.6703799267440167,1.8661151309307091,0.78581922030952,-0.4880399745456496
-15.0,8.762745903182015,1.960290850223883,-6.802455052957837,-5.328155554797752,7.74158658576739,-2.4391291317707298,-2.273947619618739,-1.750558116430279,-3.7295064201790105,-0.14836812580264613,0.1385981333808981,-2.518518397559243
-14.0,3.096355746223253,6.192580119322861,3.0962243730999273,-4.67693975993979,0.04486629862231384,4.623431666495888,-4.006048711597735,-1.3063187126335594,0.026574600095102596,1.8099713087455345,0.16001677575801632,0.8111914602777495
-13.0,-3.457819798638286,3.0398022951268735,6.497622093765398,0.1905948650279976,-4.928628370815142,4.740209590610718,-2.310813441010136,-0.4446322331887793,-0.36417491738758023,1.2866190488368277,1.509669768901194,-1.0310237920128076
-12.0,-4.466776422830209,1.1846792889411146,5.6514557117715025,1.6346655003344601,-5.087218610429243,3.4580387928007235,-1.026469716442349,-2.924185532800233,-2.4363037088521082,-1.7353042415265159,-0.36605352673088265,0.3371633903948869
-11.0,-2.1098055059816847,2.194850798481561,4.304656304463181,-0.04144334708716557,-3.2362388383167398,3.2795269661238526,1.6120258453853253,-1.0610355442434654,0.4923726847062898,-2.9733369182554834,1.1524371067014894,1.7790386988816211
-10.0,0.2746826387233374,-6.556042475464621,-6.830725114188228,3.143387363851138,3.599557977570952,-6.749587408073852,2.78851567763221,0.0076585668696673714,-0.7470644370930861,-2.9271347501615623,-1.5993098164668769,2.1852450175444744
-9.0,0.8417888210864028,-10.885564214097382,-11.727353035184107,5.020518456572586,6.248576079240872,-11.286094307745078,1.2780032440317413,2.7231608535377965,2.1110581462916302,-1.0536974847282812,-2.6058446582766255,-0.7766483409488846
-8.0,2.45403159946343,2.772241698190002,0.31821009872637873,-2.623065004684721,1.0276733756135434,1.5691019918544882,3.0331659357446825,5.038502685911311,5.2143883209384105,7.783737797407163,2.1624015356379513,0.7935609183727255
-7.0,3.755391023874943,7.816669707280217,4.06127868340531,-5.728436995590167,-0.11769539496516912,5.971116067693717,-1.6463937317393982,1.624103378716768,1.209167570976478,2.1834307595391453,0.15781948888743336,-3.0141182303025116
-6.0,1.9568600067136543,1.1054385274071432,-0.851421479306377,-1.5642751894174127,1.4378319482442241,0.09125363651799567,-3.682516281765767,-4.287835531288959,-6.232711892475431,-1.923711081800223,-2.130625340573758,-3.8764071601577776
-5.0,-2.2339511061683535,0.3786742821993556,2.612625388367843,0.8835265547903928,-2.3895000590820317,1.4707472389229066,-2.0111064699942576,-4.4166365242277505,-4.043699974002939,-3.2457701050712844,3.170561845301708,1.041659936117276
-4.0,-5.74460812894062,-2.990711403599237,2.75389672534137,4.393627257722923,-4.293280241933298,-0.13456482765541145,0.3141406442921786,-0.1139738058495281,2.629222989188171,-0.7226369525745626,-0.38229062289907123,0.5362142735899086
-3.0,-2.3665023851786744,7.462136230589996,9.82863861576863,-2.5274257594587524,-6.140888826828626,8.634791937264687,2.307870355847441,-0.5676899056478644,2.1396112433345382,2.4779898688306568,-0.6643681389498133,3.5570643703708207
-2.0,-1.5827904232147079,-3.6568565943351867,-2.0740661711205663,2.6378419360370295,0.2809586820472152,-2.795014246095951,-1.912832113359332,0.7882738675533116,0.43476956514844556,-0.8069712928630935,0.14274273602951895,-0.9873929512235693
-1.0,7.773449919925005,-3.9260049118053937,-11.699454831730584,-1.905339773728437,9.692369344267343,-7.8215609189119375,1.9863398076883434,3.48099975858817,-0.8771667665707856,-2.494603233818994,-3.7795868324193767,0.6390025313666221
0.0,0.06130724736880877,-5.117769930644907,-5.1790771780138485,2.4703197794019474,2.654644344054372,-5.160072339655175,0.9014297510689818,3.4926396122657093,1.1038601775497843,-0.229623707065836,1.8397701197780663,0.26297127637667755
1.0,1.2069903344118018,-0.7716007629210346,-1.9785910973329424,-0.27139628476451033,1.6285315830173146,-1.3913939174605705,1.6399244501835137,-0.83205249672305,-0.1577543195188355,0.6538389955749506,1.3637884501852795,-3.734138942396541
2.0,-0.6789502714214724,7.294192821633448,7.973143093055019,-3.276487940843829,-4.365803081157494,7.611375854726233,0.20443940678760503,-3.8957787481082007,-0.3127891847062898,2.15469492455343,2.732554840033588,3.688447918029828
3.0,-2.6912137791420663,2.8676716443485724,5.558885423490851,-0.049000357971076935,-4.081347874629732,4.263029049626679,-3.3546436903729147,0.29689009422892276,-0.02365049403840605,3.1230342723596936,1.528303940153171,1.7089932884617896
4.0,1.125226041305428,3.415949188884321,2.290723147579052,-2.2218784253615853,-0.6129846762178852,2.817658121562024,-1.8760040984540467,-2.2459418358783103,-3.7025740382377776,-1.5622374955659917,-3.5502365182325266,1.0315012117876237
5.0,-1.7193715685500195,-6.413969128448479,-4.694597559898437,4.045644382191744,1.4606167697192518,-5.5171632124745695,-0.40825471148235737,-2.6154433352888944,0.3105593434182432,-1.5814910262486048,-4.291489200887199,-3.1846548165619426
6.0,-1.9384858651426768,-3.216443873835884,-1.277958008693459,2.562264060793636,-0.27819566968234966,-2.293550693143006,2.377473367744536,3.8908793389811898,2.6861289024922876,-1.3128748668474426,2.0248637953264614,-0.5748301696233182
7.0,1.622481417025308,1.2833506881187748,-0.3391307289067902,-1.4679619860942763,0.9509998394952089,0.5012715721792835,1.5433863780913948,4.162223793624109,3.1322935963167127,1.2402252994236445,5.321879077833062,-3.682969386248788
8.0,5.9080249358105705,4.6185322334440375,-1.2894927023665725,-5.284781835683185,3.5629365044831913,1.6919487762371042,1.2620527693817796,2.3420032848916224,2.814522853325063,1.4846175280532028,-1.1446540062254202,1.0894036812662096
9.0,-0.4623902789289325,-0.031878678251341164,0.4305116006776585,0.21391651687850244,-0.4109591191315456,0.14768144490151985,-1.9127352747417905,-4.267838812280189,-3.4739422356359295,-2.247370127562509,-3.1020947217088093,0.3572513822613388
10.0,-7.583020220727333,-6.631576269932636,0.9514439507949742,7.139288424189479,-4.238662041135766,-2.811896078164841,-1.084687285913183,-1.9861311343714643,-4.6869005136568695,-1.915002264355453,-2.089040349532584,3.2148146490269696
11.0,1.2686409919219335,-0.6996162512066273,-1.9682572431281695,-0.26354084162937585,1.5636209730777157,-1.3820214182371195,1.1757959587566147,-3.026878500732388,-1.7699182971179543,-1.5564224224109906,0.6016995452363426,-1.805623535297669
12.0,2.2356621053903365,4.249112090051472,2.013449984661613,-3.2262283756565724,0.13365337456757126,3.165973140304591,-0.3547957043376434,2.1216132094588147,1.8294286203475147,3.071907112763034,2.4436062545130692,1.8973159796355508
13.0,0.318433210079094,1.086178366588109,0.7677451565093942,-0.683063344036412,-0.20031476566493917,0.9670569736354406,-0.45445540509788596,0.7357183918988638,-0.370784990838259,2.4484126908156796,1.1411118758908882,0.10388296328579238
14.0,-0.2806270557540296,-0.6647037316466076,-0.3840766758926337,0.4233017882432073,0.07982682385641886,-0.5569117441302873,-0.46463185553900854,0.14102919928387037,2.1373836184071537,-0.874064697374378,-2.506225819493329,-1.5838208132744949
15.0,1.1238103308580047,1.7617123203881149,0.6379019895296717,-1.3991561402697916,0.19614565470090733,1.1730048739181111,-1.859674517523704,1.7793575792599479,5.048879882994837,0.08026269270492117,0.32237368010334033,0.835712655444379
16.0,1.3705763850421324,2.598733735439804,1.2281573503969367,-2.0055910153632515,0.02644032904609843,1.9693387366171935,1.1047862846766088,2.3959022380457164,0.6604187327992037,3.0012349656538744,0.3998058954690582,0.525171149922837
17.0,-1.9623752737178868,-5.663528440339881,-3.701153166622773,3.802344550752563,0.9024054062299158,-4.704155964267134,2.9054495958275353,-1.56070092190206,-4.3107095559459525,-3.1593624899995962,1.1213652548209048,0.22056240051655485
18.0,-0.9128911312935484,-4.2023055106735985,-3.2894143793805792,2.5509493062246116,1.2171041065949755,-3.7700108135723096,0.8888681625907877,-1.4396775931638288,-3.1026670795595903,-2.779749688323656,-0.2331844641297993,-1.0375170360582389
19.0,-3.563322221382982,0.025373712226566703,3.5886959336094244,1.7594771068002473,-3.5538164407977844,1.7775862434468213,0.6422466870267838,-1.335383272595608,0.21557295086525396,0.10778944053549222,1.1057136079198797,-0.3763366073333939
20.0,1.2396111275019523,4.65326289182665,3.4136517643249,-2.9639940885549083,-1.1512586323753515,4.075694599484144,-0.7765298439403617,-1.4599854785772324,2.362152107768746,4.293052359479211,1.7657058086188768,1.6169744543327063
21.0,3.687330726567407,4.295412988017331,0.6080822614503845,-3.9405284053938017,1.5473307834559313,2.4866793809135785,-0.5347247371641304,2.532775290573412,0.585317861199098,-0.3568008092145132,0.7906347256724026,-2.494108482305853
22.0,3.9948811871912957,2.5098127228064833,-1.4850684643841658,-3.289759209668575,2.743781960402136,0.4622952768570395,-3.6021883138182216,0.1646682871560765,0.06734210980158717,-2.470678772856409,-6.170731507544469,-0.8259836915291218
23.0,-1.6200847320136407,0.8748420487139953,2.494926780728301,0.4075367561451275,-2.0530815170710808,1.709021063702136,-3.1626665703602415,-0.37399516467212446,-2.332096507730781,-0.8357199262929167,-3.267860867701822,-0.009898861579218765
24.0,-0.558183383305495,-5.994727660948199,-5.436544277642196,3.3087031780982437,2.4492765670946217,-5.694291319608756,-0.6705956549719685,-1.122208639548283,0.2938985375940991,-2.2391599990233892,-0.885101566226276,0.3895872455597349
25.0,-5.785431813590962,-5.469249783103941,0.3161820304872198,5.581034949697122,-3.0309761589932354,-2.6353918119260658,2.325512760764039,0.6942602410531882,-0.53858840466957,0.32491308013434794,4.100851847768826,1.134173455451087
26.0,-2.5122987430456254,-6.111732683740335,-3.599433940694836,4.345738676840477,0.574740184909863,-4.836326250602851,7.572568098734243,0.7827863208242564,0.9634877439346633,4.205765711378623,5.597319357358771,2.2451506917105677
27.0,3.4559160786049787,6.878928683118961,3.423012604513575,-5.211740440163082,-0.021372181475405483,5.170001529330331,2.59109363740762,-0.29223909329591524,0.6715414122592986,3.1013329179841005,1.6308019204144468,2.6124740692762454
28.0,-0.837969594955918,2.4689612371685685,3.3069308321239497,-0.8603227592718756,-2.1048675410540354,2.906948406895364,-1.7484554636344798,1.147042264660923,1.3153565275337575,-1.364315080324162,-4.364755138501961,-3.7894485969639478
29.0,4.0216003160291764,3.3163191735171877,-0.7052811425123653,-3.636130818685314,2.330875938997295,1.2459149396762856,-4.044681556118341,1.0589933388171533,2.7040634594826867,-0.2523093184768962,-1.0395560522601857,-2.6402921907731143
30.0,4.154566745319174,0.25533762530105575,-3.8992291200181857,-2.1723473764353205,4.068216572573148,-1.802375738352032,-3.331587683321895,-0.10976012920070674,-1.0496701978409901,-2.0888024489524106,-1.0224708614327649,1.1261211427758713
31.0,2.1000372579211524,2.3651996529262487,0.2651623950051303,-2.1979823421963363,0.9516787691714819,1.3355984827443832,-1.8442892155493031,-1.4087542356291207,-3.2977722002090784,-4.060032321161589,1.397185572266632,-0.5401505800132732
32.0,-6.110639943077485,-0.982590134749671,5.128049808327896,3.507327578941034,-5.669952575999973,2.094453491421824,1.4288836965616067,-3.6370455332332017,-4.408056047988568,0.8541767393404442,-0.3511099861388301,0.44129710852327936
33.0,-4.654854613607435,-2.0094961127609987,2.6453585008463967,3.299944178812095,-3.624349793543575,0.2625061039610536,6.213777717172806,2.0647308450183557,5.184615099832882,4.866657556781213,1.7144890939922153,2.4476312369018665
34.0,-4.073644284113472,-5.640070855562878,-1.5664265714494356,4.9112542384529245,-1.2251136325258885,-3.578347894029937,-1.070321852153437,-1.3833003128618393,-2.096088686102017,-0.14891402283082922,-2.918905179317581,0.9117158270951151
35.0,0.6815021483438612,-1.411548776442666,-2.093050924786565,0.34764743788155794,1.3445717963057415,-1.7261794500161514,-4.869869440045189,0.2547663149859682,-0.7790202840942835,-3.341316325046444,-0.5745616109615874,-0.969247835282737
36.0,11.449120243115294,2.942174462157123,-8.506945780958212,-7.208425085604201,10.024541518594045,-2.8343364913081106,0.8314742045935977,2.169643900879766,2.6621033372846803,-1.0863672609612387,1.0739520056742788,-3.875343425125008
37.0,3.4374151838852223,7.018032053998756,3.58061687011364,-5.239081227682353,-0.09333699655679872,5.326330719675633,1.092416603399418,1.9697727601191146,2.947467526173637,2.9612345231583483,3.832428416791693,0.24429100949229454
38.0,-3.491123797623073,-2.4719213704766845,1.0192024271466311,2.9684866299743797,-2.269296641426968,-0.6992592186542428,0.2537043116394363,1.0358413912608673,-0.2749088486368678,1.450507893375348,-3.1056387747813567,0.7434556073764342
39.0,-5.4148855311360276,-4.674240352087443,0.7406451790488877,5.106350656683017,-3.089325779382351,-2.017860038740461,0.13658040063116766,-1.604140456258767,-2.5635872529319554,0.17153549677289914,-1.130991670222127,1.134482915987564
40.0,-4.473398898973857,1.3345600262491408,5.807958925223317,1.5475706432216685,-5.155425537138916,3.600757306313346,5.530931991310224,1.213943577869323,1.1453353636144756,0.9127037458733788,3.128248646641475,2.6288171967047624
41.0,0.6771828427276607,0.6007580959425258,-0.07642474678496924,-0.6653228410469385,0.4326186565215977,0.21657123867574568,-2.06650170535246,-3.2709418166456214,-2.1050143735201448,-3.675182709880039,-0.1273626933013119,-1.1206329573595504
42.0,3.996762982450187,0.511268502400906,-3.485494480049304,-2.2834195939322144,3.706902214959403,-1.448273435255145,-4.8137521773914305,-3.8497140072677687,-2.74861286796187,-0.8726339409795949,-1.9555358400642828,-0.25080631489388366
43.0,1.573085452898812,-1.2459865101023502,-2.8190719630013605,-0.1153080761338956,2.228698553931222,-1.9865595062832417,-0.21091867391961916,-0.11532684273896954,-0.673178540894233,-1.3281983137628715,-2.6963069345456896,-1.2573019854418812
44.0,2.83190555188286,1.3680426154496295,-1.463862936433573,-2.051216778473756,2.0917677593251427,-0.073532226235274,0.10371614448806743,3.7742629142110253,2.258313359484018,-1.9201425153169593,-1.591749621840262,-2.6798790364491127
45.0,-1.8414223386728361,0.9707531513060212,2.812175489978513,0.4063383378769494,-2.3101603858896755,1.871140306887784,0.6232785147351767,1.6364609481194778,4.599484483977014,5.1751050130795,5.214937295958749,2.7513532657602773
46.0,-2.845110624162076,-0.08829571706801684,2.7568149070938057,1.4376698431766735,-2.78516390271566,1.3157039924215554,0.9768256085274414,2.1261339575660854,1.7407037063095085,5.445668943050035,2.72953237051292,1.3873250408347526
47.0,0.6507025976056016,1.3414886805701376,0.6907860829644683,-1.027347846709183,-1.4908770697097395e-05,0.9950161383425198,-0.38879716805018716,-1.1229248158668863,-2.9516328130146765,-0.5244924707153684,2.4440932088769265,2.9608942855044194
48.0,0.7723376878241323,-1.2567675190892036,-2.029105206913116,0.2851345610875321,1.428681225989369,-1.5918833897679612,0.611394418179837,-0.990097309116825,-2.024169808078291,-4.88963700828242,-5.651394361569704,-4.55847891201955
49.0,-1.679108900470911,-3.179820296193893,-1.5007113957226954,2.3875776121409413,-0.13053127347354,-2.2984975230394764,2.2713254345976672,0.6901167133226116,-0.679105538129928,-1.712200879962769,-3.1852856556814384,0.07456491960656098
50.0,-1.1435850932463931,-2.603229204897338,-1.4596441116507366,1.9042068458773194,0.1255047254670278,-2.0784543786587255,-1.854258744119217,-2.5014847501249333,0.6664429368394091,-1.9444051800506936,0.33599306150921215,0.8830147941093078
51.0,2.61019566264448,2.594560593120187,-0.01563506952430549,-2.576310971056068,1.287147292803155,1.2339802568990268,-1.696968752862265,-0.20128929860374267,1.1018561139645815,0.9877929511596055,3.51487196348176,-1.451931757358551
52.0,2.8877075088674475,5.20054078413931,2.312833275271721,-4.0208192247268215,0.3447622242898207,3.7754050158495938,-0.8953317577476221,-1.7497613219056174,-2.488306659558314,1.0925822549398116,-0.47844220703431595,-3.3499412795944874
53.0,-1.6614513911695978,-0.031452763279979035,1.629998627889485,0.7900604483174427,-1.6648920948433075,0.8191175933986883,2.7675833426173,1.1204280142643097,0.7699828268296969,2.412068923367054,1.0837111313048942,0.7474185511473157
54.0,-4.360194053103248,-0.16384718392258812,4.196346869180621,2.284675920489506,-4.218123886796006,2.043263951635052,2.2836426954817073,2.0805626512593958,1.9721306680866808,1.913858972635737,-3.8516144599650666,2.279134860169436
55.0,1.9568239594155505,-3.5608265084726405,-5.517650467888136,0.7469962793882369,3.717557822152214,-4.500618647717118,-0.8859684599576233,-0.04654545443611391,-2.6025227510682267,-0.1801807078365918,-0.07788010283119184,3.409557694909138
56.0,2.5945912127474497,0.9767208719031386,-1.6178703408442692,-1.7600563167299805,2.0836671524279877,-0.3480776507283272,-2.5634392444314567,1.944074154608212,1.3483129534564693,-3.872691613801969,3.89793432445368,2.8741985723595134
57.0,-2.1467018161837723,-3.469227042381231,-1.3225252261974387,2.8364597297510574,-0.43925306474692594,-2.413894836127399,-0.18419769246546736,0.46411346985328655,2.6285356872528816,-1.4953510996510138,-0.6195110299963482,-0.5718738357597083
58.0,1.1279517833480681,-1.9643999999936193,-3.092351783341661,0.45085758559997824,2.0774164106256174,-2.543395637727152,-2.510045308563774,-2.889473397172866,-0.8164915645474891,-1.476455310570313,-2.4323506053267256,-4.728527562830936
59.0,-1.4236934604253733,2.0585738267222102,3.482267287147577,-0.35833584665946366,-2.412205344666768,2.7507669645506883,1.077465491467172,-1.8226496809986517,-0.12895063382355065,3.612960130461497,-1.354432956370444,-1.378666266745511
60.0,-0.3353769784475826,3.293633810634532,3.6290107890821,-1.514223543081182,-1.9450948758905824,3.4309639826020533,1.6080516222308885,1.3513578977953271,-0.975145009168909,4.0986573109205136,6.931664213255606,0.46662262618555683
61.0,0.7714576580223234,1.2901795549062556,0.5187218968838654,-0.9813949004161049,0.1618106850287968,0.9397204967292114,1.6095763077240963,1.4374138690219687,-1.2463305824948754,-0.6778291656531854,2.6165659563778396,-0.0670782267012664
62.0,-0.33526877257331233,3.95648747975949,4.291756252332751,-1.834716222181395,-2.3570202202335704,4.148087106069083,1.7949517830090664,-1.5914314360604902,-1.2258415679105872,-0.28152854654429754,-1.0536777508072501,0.7362614196691823
63.0,4.005987204213226,0.017717644816745093,-3.9882695593965303,-2.0316831636118224,3.9537234545291566,-1.9677241058094006,0.08854704234127098,1.1753759802622976,2.2616450586955263,-3.335964977242247,-7.484591856135614,2.8317381187948767
64.0,-0.4391678642450567,-5.383810822063707,-4.9446429578186635,2.9733870501029003,2.2875489652981056,-5.147468370189346,-3.6127462812105264,0.1560430336775065,-0.874404768537681,-2.927265215778619,-3.6129225599440775,-2.8419715186289882
65.0,-1.7091802552942124,-2.5692216799596754,-0.8600414246654617,2.123670975550711,-0.4697901798916584,-1.6947570697469252,-1.694044155970015,-0.4668427839944973,-1.4554921198838562,-1.114947768725452,-2.1863972163486913,-2.323603883173006
66.0,-4.267081361572852,0.5492435511763816,4.816324912749264,1.8428094514063855,-4.509426849647495,2.6277894060280635,1.5599313649960647,-2.153939130221707,1.9538268111102437,3.804626026059123,3.6637847952820524,-1.1126779092551433
67.0,-1.8834976367503187,-1.8573376621144582,0.02615997463590669,1.8519412781866693,-0.9225719506969712,-0.9689323891212994,-1.029271558011847,-0.07963708017454962,2.1961039786239756,2.405123315010133,4.897694331266515,4.046539862297483
68.0,3.2598916626661807,3.177317533333337,-0.08257412933277597,-3.2405902344467377,1.6269093971125779,1.5707172279651929,1.5520052894962748,5.013180530907402,2.246005355566032,1.7496382275729714,3.3594812989393166,2.9878591914948767
69.0,0.7656007497640884,1.019367104936892,0.2537663551728866,-0.839324140665747,0.29487916724511337,0.6546676082599228,3.0277037221786425,-0.3041913618942673,0.13401707087398296,-0.49216172586359797,1.476439988249942,0.8701543591188794
70.0,-0.8788648785203903,0.6347223785569771,1.5135872570774451,0.09378915619771488,-1.2298862247101874,1.0859001224852067,-0.04583953953922393,-2.45529614089404,-5.133294288489867,-0.7454517891858081,-0.32117657715109804,0.23677458811029342
71.0,8.273639917086513,-1.3104421713725642,-9.584082088459052,-3.432448802965165,8.980171539924836,-5.440385527789651,-4.1979304163186875,-0.3551637791263833,-6.708307251771417,-5.365771199750909,-7.435815171432359,-5.497122279790183
72.0,1.6823483475976344,-1.6668109706274041,-3.349159318225068,-0.03765970261318441,2.492945312979188,-2.502361339473437,-1.7169375238057871,0.7827715373170152,3.5086077418207378,0.29841220643080657,-2.404847556937643,-1.9800789602509163
73.0,-1.9546445183859795,2.3468291749955785,4.301473693381501,-0.2262754723451212,-3.1489939676214562,3.3332138189575247,2.177143490611461,-2.3300792310185283,3.7636847693608377,0.41425721311566666,3.460487849343643,0.18992823751973797
74.0,-11.394427908949636,0.3448885721996218,11.739316481149219,5.57175691938732,-11.588768953208335,5.980456214072606,0.16747728943857343,-1.9299277723640578,0.41230591627101143,0.7366311831737336,1.5162574704571234,-0.18027444314310803
75.0,-6.416070687125336,-4.2928883903299315,2.1231822967953935,5.318803148332195,-4.294189140464944,-1.0561631506608555,1.8478763353548953,1.5334640007342384,1.464277735227813,2.205622232087043,-0.49999331585438167,2.5379737276311056
76.0,3.3368030537110265,4.9984603496741995,1.6616572959631948,-4.1312107116557915,0.8892338373144848,3.372143790532847,1.8741307730025365,5.46675691013081,5.02053109464104,5.12071020063718,-0.08614121080344694,5.109871049318842
77.0,10.201420837384122,6.420410131045986,-3.7810107063381033,-8.362179434628787,7.042135029149739,1.2961360933826516,-0.01934644771266475,1.3017951805116095,-2.396435963030345,-0.30873433601068756,0.1313592637178146,1.0550202564136617
78.0,6.521308853183126,-0.9487662767586524,-7.470075129941754,-2.7687007761068956,6.9695471154056445,-4.222263958572258,-2.101631975244387,-2.3387170652441562,-5.820264694892759,-4.884095419328578,0.07505996037584911,-2.307172063668658
79.0,0.030313948361577303,-8.901118239972268,-8.93143218833384,4.443933902068508,4.458250222685232,-8.922406779768636,-2.2834114498205684,-1.4455875619911465,0.4193120853779635,-1.0442139553033756,1.8792490634783383,-3.745478930236832
80.0,-6.684629827903035,-3.208978603979064,3.475651223923964,4.949076870648033,-5.09884193833366,0.12909512796694944,-3.7148646937058047,-3.4278527553847047,-2.8849211161103794,-3.662813515550481,-1.4548160970675499,-3.893148635822804
81.0,-9.015067024959329,-5.768043151741528,3.247023873217805,7.3917372533504135,-6.147060741368364,-1.26757776000975,1.2867853599883532,-1.8156832521321367,-0.7052576860090627,-0.8488554042122526,-1.1675248184520437,-1.2527331042847403
82.0,0.26298158510985026,4.957278505142796,4.694296920032974,-2.607392880954527,-2.1528102434690117,4.890794478675477,5.187078859094115,2.1801732766850614,2.9031376424602726,3.150451787642364,-1.7173264470703913,1.123482990019105
83.0,3.479523478865572,6.505974739371013,3.026451260505473,-4.983343295418484,0.20734076376488364,4.743348357585818,3.5717189302493573,1.96550227502189,4.949272465605342,4.805236106449636,0.46726686710541343,5.384595876957895
84.0,7.168167039266412,5.414109810893033,-1.754057228373362,-6.272261971754394,4.4349533303542525,1.7973794655737314,-0.3359130505275578,3.7280333286913283,2.2245282108030566,3.023957507374974,3.8796420506445983,4.668509774616192
85.0,1.992066339555561,-2.314450275961301,-4.306516615516874,0.11195542657054292,3.191617252133364,-3.3515126593010978,-2.5702732717310184,1.1588733069192605,-5.034830764056736,-3.4731854793272547,0.005676294039633323,2.044675835309391
86.0,-0.08122806582483233,-3.5939825284586275,-3.5127544626338385,1.7986758338961208,1.6668463825864543,-3.520589970678828,-4.147063302524224,-2.977416339357772,-3.729389245307776,-5.773320620428965,-3.3824695888341285,-7.252190964514847
87.0,0.4861568787038206,6.665687134671914,6.1795302559680385,-3.5272622617858262,-2.8298281558290848,6.45530533803775,-2.923772738126557,-2.610514540467014,2.046420889018131,-0.15749898721217193,2.361933343706955,-0.06257178018770437
88.0,-8.041635695857638,-1.8682153819348442,6.1734203139227635,5.010083196010325,-7.1019485219186045,2.1902141742380836,2.1850542596713654,-2.7774345953474615,1.2790240269154345,4.079624685100541,2.2486733431427397,-0.528540125558626
89.0,-8.644770132774116,-4.025041510598603,4.619728622175518,6.3146965763340965,-6.634080419048997,0.2647081789790291,3.113649297262562,-1.0057553439683415,2.5246076069613945,2.3022731752062686,-1.6385168840789481,-3.0662264473024488
90.0,1.172591817508608,-8.425201458474184,-9.597793275982765,3.605794885777811,5.381452103543664,-9.034586094114715,2.3605359498322143,5.711521010871159,0.08046882038276282,0.5416643972691165,-4.405442705662296,-0.5069892770806527
91.0,5.746886234127356,-3.9128641879612807,-9.659750422088603,-0.9414469205760481,7.703775311568958,-6.80158813048404,-1.4752684553639577,1.9153337457004453,-2.1751152575611488,-4.150659757844833,-1.7808455797408413,0.5459210869325407
92.0,7.795763109966904,7.647505796503145,-0.14825731346374127,-7.75254139723573,3.982049617665296,3.7382879583040833,0.08857794171935718,-1.0585875977945054,-2.3614571538293414,-1.5920183137185022,1.0308920502581578,3.325703328578017
93.0,7.006451823310746,9.262297749995584,2.2558459266848327,-8.093506711363275,2.398256004072932,5.8256071376935505,-1.678190306422986,-1.6653027245187433,-1.1585718180162168,0.5574837572072202,6.107151893540826,2.5913590952633747
94.0,-3.7300500951625115,3.6516586015074246,7.3817086966699215,0.07496123064736704,-5.59845543303742,5.499044530883717,1.034095594978831,0.37634115440041227,4.206255935777672,4.375835710638421,3.4787717391846362,3.386748110481238
95.0,-6.422618863884562,-6.952298149157061,-0.5296792852724979,6.643061695700483,-2.9000564353980685,-3.767261456397689,-1.3735775965818722,-1.6770123711473355,0.41381184539020377,-1.8078542585082613,-4.999245480708202,-4.344464795968089
96.0,-8.143260506128689,-5.5812042311370735,2.5620562749916376,6.899413041712894,-5.380394751019724,-1.5455885596804877,2.4362456877559477,2.739482581803191,0.38375140819952624,-0.2975761193945106,0.3446618308649767,-0.31007189942142643
97.0,0.4818175825088966,-0.48366904454245674,-0.9654866270513082,-0.034529733128654705,0.6936829753292053,-0.6902864881029428,-0.7170397425887668,-2.5358849612033625,-2.592676612805267,-2.664948931113175,-4.838195499645017,-3.6457664887957133
98.0,2.400566989954859,2.3454810474571604,-0.05508594249764909,-2.322504937483427,1.268300005236167,1.1744046587976216,-1.5492238559989873,0.7619279883248349,-0.546237252808605,0.7566942203156155,-0.9766529545046105,0.6220815107136815
99.0,9.55800439095891,2.652539667827143,-6.905464723131734,-6.127884468424049,8.181718055501399,-2.0978950891597967,-1.0460152530166325,0.926601887415393,-2.6818900704921913,0.4878924681633214,2.3432793779763412,-0.722690472626175
100.0,1.542919085285888,1.8178017629114014,0.27488267762551066,-1.701330359920585,0.6514205726185125,0.999789360833401,0.08243620535398372,-1.5135064537052332,2.048658718448674,-0.9798289713161838,3.815443868252602,-0.2794010669610204
101.0,-3.7482395201285907,-0.9268422567602226,2.8213972633683158,2.3130294865303087,-3.27444619312029,0.9073935171412666,1.8324008916089023,0.6669708777920783,5.507043263247151,5.89193400516057,3.4330781862131783,4.6871221355506885
102.0,-8.835506918952131,-3.893464244608221,4.942042674343822,6.410382094037761,-6.878467639042375,0.5710655244346364,1.5366883644542635,-1.6473490444532422,2.227773704801067,2.7459520650621982,-0.1806401742332644,0.1817047154793503
103.0,3.57024885274185,1.0683523968946074,-2.50189645584733,-2.363463114773921,3.053755519437739,-0.7415071118714105,-1.1528171812212171,0.6833584713261549,-2.353092311716286,-2.5395469455730377,-5.111706180520211,-0.16102728865845783
104.0,1.6134406780507482,1.0801825169394104,-0.5332581611113865,-1.3238656428503819,1.1038990749636803,0.33232163641342294,-1.4614525641528326,3.8163033056668874,-5.173261787514845,-4.971394360419559,-1.7564877014560207,1.4666495391306227
105.0,0.48705249611911783,2.4467672092018744,1.9597147130827606,-1.4533979554653302,-0.7698882135602301,2.184560876417109,1.057750245601694,-1.2315168549285225,-1.9454979759302455,-5.265024908781953,-1.361968614696858,-3.2755534589833997
106.0,-0.18584550329599625,-4.916977069446528,-4.731131566150487,2.559339083135492,2.251385582532259,-4.845517696821322,1.9157133277142402,-1.3318876729170104,-1.097528930339723,-1.1116772156640353,-1.4990701050014736,-5.0066865536489225
107.0,1.6639874199205205,0.3904106123672355,-1.2735768075532288,-1.02067677782395,1.4544707989907806,-0.46892630894794207,-1.3498525407684752,0.6799390997072683,4.076735329062601,3.6020755900583676,4.252014936681304,1.8474520868202071
108.0,1.50977600288099,0.6665472032666638,-0.8432287996142696,-1.0797397371380886,1.1628982564726091,-0.1225000417526671,-3.7850240081053568,-2.2830630385189177,-0.14431803718343383,5.038190696092826,2.0508245080297423,3.4425457065241796
109.0,-4.546130406311567,2.8377521578757903,7.383882564187395,0.7875278690973782,-5.982827437270966,5.150437407095315,3.2247049164610755,0.06335499827912405,2.4906571712708576,3.8905951983612055,1.5813168362889707,1.5615222451505917
110.0,0.08865305498966314,-0.19220893747538814,-0.28086199246504284,0.06774334536267387,0.23921228735754774,-0.1978106554606036,0.45841148005488097,0.8985488520862969,1.706385518616815,2.558381175987588,-1.0558348223917904,-1.1207092772284097
111.0,1.182328185842675,-2.5018333328770246,-3.684161518719722,0.6786412694588351,2.4816787073491673,-3.050546489782528,-0.8808804737983608,0.5394748038709432,-0.4186962434718068,-5.866477919940656,-1.4543883452802069,-0.6165793078058958
112.0,-0.14341641661383522,1.1221068716238283,1.2655232882376164,-0.4691871518877011,-0.7386850953583662,1.1643264948501515,0.6483680470925239,3.2657268413280187,-1.5029044203359176,-2.7935629320720694,0.09531215543735705,3.0212078021025293
113.0,3.9564581041633318,-0.2527339720367829,-4.209192076200167,-1.83242853656076,4.047086663010854,-2.2535195518154807,-0.4564835955987485,-3.8029607600267523,-2.972839464165385,-4.565969368422967,-2.7128978505627237,-4.337524571612013
114.0,-1.8247556538363876,-0.9366406564107488,0.8881149974256033,1.3186615555665406,-1.313366965591152,-0.04275156522595791,-0.4274411066299168,-1.2538231273060676,-0.6256552077481656,-0.10036572946598499,0.08609261195159945,-3.1233641101287684
115.0,-0.4304108356375735,3.5970181639664096,4.027428999603979,-1.5708616537577953,-2.2640877647687976,3.793332809485777,1.6482024087592761,-0.06207917327796064,0.6598407669058469,6.145657403511958,1.215967229519325,3.2708781164022196
116.0,-2.0485018016531553,-0.7518990319973533,1.2966027696558202,1.4077676617499946,-1.7075663339934817,0.24905723547124703,-0.887743512179654,2.6628490401336498,0.6423730848552638,2.7671277178068423,2.6110273450718933,3.148681586574223
117.0,0.20311065452643395,-3.687663136212927,-3.89077379073934,1.7456423462935255,2.0902356920736116,-3.7399331349956,-0.5137615000977048,1.7732572391256707,1.1488217828883487,-0.6500286177273851,0.26891369133761844,2.8119938529356006
118.0,-5.326653102616825,-2.1547866832071376,3.171866419409697,3.7417731697680727,-4.206755986177608,0.5528292131734773,-0.8682071123583627,-1.9039389614956959,1.1108824086585183,-2.4081835515667813,-3.4855723135947296,-5.23786345558797
119.0,1.3293747285750765,3.4446026200333772,2.115227891458298,-2.3856330870359885,-0.42983877651753905,2.7440458112604222,2.637715261590251,-0.9234878542610363,-0.04669956506979289,-0.0323447728640045,0.937472925954475,-1.311365427965017
120.0,7.029000990102448,5.138593597191658,-1.8904073929108072,-6.079549403610842,4.422744255096492,1.5914434916566464,-0.6399622083648798,-1.3580540026050865,-2.4596453219553336,-1.5757535662365934,0.46362236822983005,-0.23768199301293735
121.0,3.482911865307353,-3.1784598926360683,-6.661371757943436,-0.14326341816262556,5.114935830123876,-4.866536294398882,-1.4552941101231793,1.3104123624345951,-0.3435766566006706,-0.7136489716535656,-0.8155361306127218,1.0685578498894261
122.0,0.2511818138640758,0.2586762905861426,0.0074944767220599395,-0.24064263311708256,0.08822097918024996,0.11714449980886465,-1.8669424758459365,-1.7682185389893097,1.130083412035456,-0.07343708421624459,0.3681450956583512,-2.777100120834893
123.0,-6.555098473441838,-2.9042754741539647,3.6508229992878896,4.669988255088254,-5.054228345308833,0.3662666348938094,1.2745948133622442,0.21550684517727758,-0.6435814053401351,0.20226926221352207,-1.7750806423752734,0.6964953476876667
124.0,-2.636275606436392,-0.688288030573869,1.947987575862536,1.6848967428982673,-2.317837717728691,0.6286751919801272,2.742404026152368,3.6558553669331264,2.945072001475509,5.060271525043136,2.7517880713341993,2.6111593862772646
125.0,-1.1870883547054283,-1.0126660740843634,0.17442228062106202,1.124974944822899,-0.7025330198116224,-0.41935588794994194,0.07625807175800814,2.1560011549766247,0.07453477184686896,0.5540619717280362,2.2299732297860806,4.92935612101169
126.0,3.9648926214847084,1.3334737121917049,-2.631418909293041,-2.700677214199048,3.3572691048780583,-0.6535810030990937,-0.7638802468950925,-2.111577182005652,-0.5065889342095712,-1.8766598669955292,-1.627422954846871,2.3497872557134563
127.0,2.129609191429071,3.5000154659074725,1.3704062744783476,-2.78475299389818,0.35900394148812187,2.422012272151952,0.917340489908247,-0.6918708368518873,-0.1069502144717771,-1.384434507962589,1.0470076953870684,-1.1682947694889074
128.0,-2.8060701398161365,-0.9380592655246138,1.8680108742914816,1.9062354940287558,-2.362422279378398,0.4412700740520813,-3.976636440682459,-3.4745685431422526,-2.9142709407510496,-2.398059830426761,0.6711659196740962,-7.115771701259714
129.0,3.6185490812549497,2.875157954157701,-0.7433911270972609,-3.286036319138635,2.1472736113036865,1.1112631810215967,-1.2241699958519912,-1.4526257962643123,-2.3953082094688662,-0.9874702791169867,-6.312440739253099,-3.8986166402322926
130.0,-1.4807459320123866,-0.5361647509363644,0.9445811810760469,1.0539530843431426,-1.1780451628247541,0.2430713225483075,2.935825932852006,1.1457889837953763,0.8921229417559472,-0.43859035860860884,-0.04554296750156195,-1.6460948004072415
131.0,-2.5853689491580765,-2.846725985385084,-0.2613570362269633,2.688125051363096,-1.1377493140280066,-1.5961742340576766,1.9404611801499487,1.5798712896339677,3.147334653110033,4.908280967492275,0.19245403915486764,0.9873814939018722
132.0,-1.212717191811711,-1.4150081305115463,-0.2022909386997806,1.289717432738405,-0.4888834079790184,-0.8490833468887876,0.6881985199337943,2.8801472755310815,0.5027030240008432,1.3596787578987621,2.0084245705107815,4.631730779508856
133.0,0.4554260170854916,-5.665424204217759,-6.120850221303198,2.5827913261388664,3.222162031366512,-5.8507526329192245,0.2643307991691668,0.8253064596832649,1.9789700171971356,-2.810245495714098,0.4893596543246683,4.004435893636191
134.0,5.220194242991763,2.5771816853327696,-2.6430125576589787,-3.841553500512045,3.9463125311153866,0.013583325658396816,-1.6969392420822227,-0.18775165461446963,-2.5395591183106014,-2.14956746320941,1.960662167099295,0.07754179096697777
135.0,-0.2566109215537007,4.0685206057352215,4.325131527288894,-1.9273603004551798,-2.2686515210431164,4.166353154670069,-3.3801633482026596,-1.2684888653620328,2.772572886123548,1.0694198719012902,4.510094468670456,4.675261656516128
136.0,-0.07520551849809909,4.648731333797887,4.723936852295932,-2.3074555883136316,-2.365306704918386,4.653678280085209,0.1670143852707371,-2.1464559513265993,-1.1672194466208314,2.6870154106311537,-1.0484579119746524,-4.194877973210588
137.0,-4.634611504909088,-0.5009127896127987,4.133698715296227,2.6273648279161117,-4.41409601661785,1.7774307406466496,4.917101064371803,1.0028454888188076,-1.9050400246530497,1.412017054935834,-2.055839743008492,-4.327374077383304
138.0,1.2626920895316913,-4.699586672420053,-5.9622787619518025,1.701277550810856,3.597012438978637,-5.300066849270283,-4.542823508616651,-3.410632396821723,-3.048891690077629,-3.012100444750242,-8.689760534556937,-3.399215843627315
139.0,-2.806408714807573,-2.307891086676829,0.4985176281307102,2.5414659575081715,-1.6560008268577608,-0.882695818519069,1.7684726234947692,2.5175157390032625,0.8418692245291799,-1.224054343401767,1.8164008210853342,-0.3413291031095187
140.0,3.6516329446782185,5.097775983826417,1.4461430391481995,-4.390355263827727,1.106867203805555,3.287913982865842,-0.8723467283829707,-0.01007813923607026,0.3059842859684069,-0.6267427698430924,1.6279384668401704,1.1844078780716538
141.0,0.3995661915494686,0.5200527532175763,0.12048656166814575,-0.4773745597451371,0.1463100099419039,0.3349372115364591,3.164252579531833,1.6161577423534488,3.978433345295754,1.9094648886426677,2.8457620666500536,4.066108949384598
142.0,-0.22201734015838603,-2.338334660708467,-2.1163173205500216,1.3377204327491246,0.9517938817132827,-2.2874590906636834,-0.26786276712858226,-0.6560176399067892,0.21753030969886789,-1.9962721946217157,5.129915244495708,4.077621565404678
143.0,-1.0911808273584604,-1.8081333625438192,-0.7169525351853013,1.4239374432079175,-0.18839322331357167,-1.235645161859162,-1.0648066396922637,0.6188788647173018,0.813787712014664,2.861845534152043,-0.905274424368542,-0.765183014775995
144.0,0.13203967549128232,-0.6306848753482336,-0.7627245508394566,0.219397976720891,0.43779436932911475,-0.659051432237882,-0.26387354338040536,2.21899220881063,-5.028627661929097,1.0616930515457437,-4.087484192527034,-2.18703603532747
145.0,5.183582988505215,1.5982054641128718,-3.5853775243923147,-3.344812617386877,4.3657220192592865,-1.023635929429242,-1.7828808967277405,-3.578746483429997,-0.1277420244745764,-0.3920518358110572,-3.1987700254488907,-3.175910383977015
146.0,-2.868418864336346,-0.6279137959251522,2.240505068411189,1.7150088726350632,-2.503183993975262,0.7857209170581212,1.193198077978135,-0.4415164633415527,2.25376806991426,-1.840556546386342,-0.3307301024777689,-0.43523079917683494
147.0,-2.9990094487999435,1.1395122361157728,4.138521684915682,0.9773156890726121,-3.6036443382236163,2.625284325264666,0.744184979701175,-0.06451652764177607,-0.3344073386815765,-2.3107963342488613,-1.8735963734361927,-4.222485539890284
148.0,-1.342292986081122,-3.776371608687427,-2.4340786226063456,2.5321662362652955,0.5839431743888492,-3.1149057239471736,-0.8786760056396524,0.5356265367608959,0.13404706269791622,-1.4326837952920384,1.8256130905398145,2.6698718428768986
149.0,3.202529981199196,2.7056402683910443,-0.49688971280818084,-2.976093422626374,1.8046039918079613,1.1751216871508605,0.8754717704616444,0.271175203097465,1.991495672771372,1.436685107650189,7.778233147482142,5.058210369001365
150.0,-1.342606445160343,5.575078399479026,6.917684844639391,-2.133088279425886,-4.099832702586946,6.238139517600638,0.7221902644394931,1.9891016023110664,1.9289513871401878,5.068163411986734,2.735456585022002,1.8167530371038518
151.0,-1.0235515118979497,1.7456157573738016,2.769167269271813,-0.2951796364940107,-1.9472938419684411,2.247174017857721,-3.0863593819552246,-2.990787786702309,-4.634269690745108,1.8716100919906669,-5.808578418483797,-0.04500073336738497
152.0,0.8127316492955395,-6.48585893401629,-7.298590583311762,2.8252767880965726,4.081756680238845,-6.906157341450239,-0.12572526485636082,2.4383499633521204,-0.48428326708255987,-1.4796882096982769,-0.06025064783785217,2.0510680544652544
153.0,6.276599694359917,-1.670706683722817,-7.947306378082695,-2.3158849001754094,7.137111825458282,-4.82819875214425,2.235326675204247,-0.881277863585062,-0.10882218712870706,-3.4962637034071165,-3.238558146763689,-4.305037863936046
154.0,-5.941700463525821,-0.31744168207819445,5.624258781447629,3.111322633466371,-5.758084745651409,2.6280914091402923,2.2548104821334496,-0.0018243522220954822,1.9678126605594404,0.7750323638047525,-1.5887610198412994,-4.409763713073479
155.0,-4.51766376994734,1.1213723921014458,5.639036162048773,1.6713404203650617,-5.132035206848268,3.4277242227802764,-1.5746648350319241,-1.037823052234327,-3.6756701404410697,-2.1606752601640937,0.9055288006251976,-3.371409930246057
156.0,7.266096348887353,4.902325757725393,-2.3637705911619737,-6.042814962534706,4.84045949587685,1.3121553691246508,-2.1902176901488106,0.6166933492557427,1.0725240858643854,-0.7013174412611418,2.3577273687990705,2.9234792983234317
157.0,3.3663566159241767,-0.4462513758780804,-3.8126079918022673,-1.429398220545264,3.537247727273974,-2.1680664923787494,-0.3267540049912052,-0.18170202834375757,2.689788527380878,-1.3184051813394544,0.5251389767864099,4.111217814270512
158.0,-5.432848331754641,-11.031560596046223,-5.59871226429159,8.17504255314852,0.11163722743348992,-8.354665142701633,1.9615455824232717,-1.636330593639974,2.5645435185912033,3.320894471912637,-1.481543321905978,1.1930713700813484
159.0,-1.6885666892909381,0.9725826677287861,2.661149357019709,0.37370688744566705,-2.1419494840435984,1.8565711464370014,1.6365825694342133,4.193155400791637,1.5577115557111614,2.409233770965316,2.345739769201111,2.9460915271904726
160.0,0.4986202735379768,7.4821237961645375,6.983503522626546,-3.976436081423463,-3.281611659031265,7.194821070657334,-2.937047525173831,-0.2666721395183105,-2.585922533116229,2.333241934287795,3.078441942749125,0.8520476172640938
161.0,1.5066409375574144,4.64961264162697,3.1429717040695646,-3.0617156475753067,-0.7697510829811847,3.9376484760332664,3.479407604621051,-0.9108560174833364,-1.8455948157772635,-1.0726486064074143,-3.1155978643061193,-2.784676647011507
162.0,-4.6275602453194065,-3.6540240243717053,0.9735362209477447,4.084605149026091,-2.821017796769539,-1.2998870685162016,-1.7640222390176215,-2.948762945655852,-2.3193713986516133,-1.987999544844004,-1.815667637386068,-6.819444297438025
163.0,1.837187905697331,-0.19806263664449397,-2.0352505423417697,-0.7883501682067477,1.9250018161666738,-1.1586465346978003,-2.461423924233467,1.5766871922333683,-2.690369142888326,-3.705145246883874,-2.1420447900610595,-3.7464099312813914
164.0,4.970170190761115,1.4480614611683682,-3.5221087295926967,-3.168289687414864,4.241936093934603,-1.0855867160372898,-1.969532313289264,-0.6943207885319982,1.6794215077545274,-1.0428245956496733,2.5344977477336545,4.564071231560976
165.0,0.01796457759519976,-3.372358163890886,-3.3903227414860453,1.648306861638508,1.7036238516413138,-3.360035245192618,2.275061323754011,-0.053479954558737636,3.8306060442796683,2.364001264807946,0.11622182222808308,5.337105640483186
166.0,1.2631653888650196,-1.8621169741214456,-3.1252823629864563,0.27789944870640726,2.1937635183364623,-2.481844377116219,2.615352230425808,1.8791963248693184,-0.4846945033135519,-0.15728812931725566,-0.25571982214100086,0.2339168605816555
167.0,0.6766138355641883,2.3539547732924753,1.6773409377282549,-1.5316597650273023,-0.5039382042763247,2.019793078760605,-0.17215641304277018,-2.089223931682832,1.194335723232392,3.315475495218808,-0.08783908290730846,2.2190845016608476
168.0,-4.8514518474849115,0.3090011358378655,5.160452983322705,2.2583294862290364,-5.014923433608136,2.734956835675244,-0.873577960244894,0.2581025459053255,-1.1382167650709638,-0.11555780039734431,2.2462633058378634,0.2445354482995129
169.0,-5.968202654680775,-6.4435589752058196,-0.4753563205251199,6.274278192209018,-2.683362569450114,-3.458313531288726,2.2884520049477644,4.451967567524829,1.9131246433120175,0.7573187860132362,-1.4808159671736476,-4.6115660646071115
170.0,-0.011404758120491465,2.699781212292419,2.7111859704128722,-1.3523735371269463,-1.384230126685854,2.7119691630489466,1.260605566881367,-1.0384622981404683,-0.6459465378651128,-5.211826350462775,-5.153843458747842,-7.214158658685257
171.0,3.259305675618181,4.834942378507314,1.5756367028891285,-4.053620783011166,0.8117846870927988,3.219773516667841,-3.62558754314495,-1.1925189581629947,-0.5525203130147975,2.074448667827547,3.7641505398883086,2.9780970576864583
172.0,7.333708595043012,2.6609838717504357,-4.672724723292557,-5.003366748398673,5.9668916709712,-0.9833042668384215,-4.811908345996586,-2.6927041917127963,-1.1774395272790579,3.1428309358807835,5.458485195499236,4.592267146144023
173.0,2.4811794010345953,-1.7924439363971025,-4.273623337431685,-0.35202966683309667,3.4152300064054244,-3.0835155498658335,1.5135559490658301,-0.2846770710287443,-1.0280328536838264,-3.194499472185252,-1.827832036337034,3.0266806854774426
174.0,-3.773922662875162,-5.142395296017795,-1.3684726331426322,4.446235834471166,-1.1670675979177676,-3.304029583164043,2.4711316677828017,-0.040620675974404996,-2.664473923949026,-0.2717049895191612,-0.7776639632535475,0.14558530411956205
175.0,-4.088496943467363,1.6724661408260157,5.76096308429336,1.1894661283303871,-4.967320988198577,3.745007143165719,0.8308738777808007,1.885088812334134,2.2486328319496085,0.9395192433386055,-2.273831600781129,-2.576534530998699
176.0,-0.6202801587460036,3.442459255983171,4.062739414729142,-1.358906347446096,-2.3027085558237124,3.7765968542095685,3.3870007317303843,0.7575082913438165,3.409669532519627,0.4259399680507842,0.9066719815117485,-0.20791325819010642
177.0,-0.014551554439496961,0.22346260598065104,0.23801416042011647,-0.13910985289325184,-0.16269935429110038,0.24973944081449972,-1.9748439672363702,-0.9239310830823513,-1.4548816999481793,-0.6429314984890128,-1.6884920293172316,-3.316485142973703
178.0,0.20564397740269177,-0.20354989614966423,-0.40919387355235687,0.03607967442483212,0.352606195001805,-0.2917931955372978,-3.1548311770279915,-1.542773010741304,-1.0148209952344793,-1.8310764810222788,-0.4876815753136636,-0.40850583710437194
179.0,-1.1358516563516337,-0.7382527152461651,0.3975989411054809,0.8902702449255624,-0.7994182382600094,-0.15916436120095978,-0.19850200722787914,0.6763171543781746,0.6362665105563721,1.0958734159193275,-1.3646187269837402,2.3950911472977863
180.0,3.185816552333627,-3.3171624283720798,-6.502978980705704,0.09434677031325017,4.8100872510234,-4.980227689712375,2.3134371559002336,2.2844960670054855,5.0942916861594565,4.0069021667552756,2.7581550488815987,0.8386637546749591
181.0,3.673217907712968,-1.294385889000789,-4.967603796713768,-1.1626781037914369,4.361300956305059,-3.1242790872180413,1.3079076803605083,3.2861495442592625,-4.395653785718353,-1.2072366048735006,-0.2210154546571217,1.7419052454875628
182.0,-2.939949167602293,-4.402801856183403,-1.462852688581127,3.6179721263051308,-0.780465277400253,-2.9270034134920095,1.9002240693893007,-1.7707208071066365,-1.4275066333135653,-1.4316820726486597,3.3046366892254477,-0.22768091658362422
183.0,1.4528337668152145,2.28604430318849,0.8332105363732583,-1.8456977618906398,0.343766356914212,1.566239906845623,-3.7892718885983507,-4.624025763261334,-3.1350549624693747,-2.940132189879515,-2.113090857589444,-2.597285714600752
184.0,-1.7145484378033577,5.740426192322085,7.454974630125446,-1.9913655772969774,-4.551322563361661,6.607397714986033,-2.6926404948114198,-1.4477317548340622,0.8767833455009579,-0.03440744239914073,-0.06202456151604907,-1.8814120250654223
185.0,-4.761524651499087,3.0560622393399566,7.817586890839053,0.7930890244543076,-6.332907993955486,5.451872082140633,0.8233696394144585,1.0787148748201598,3.931121337540805,2.265343702734949,2.1689591144553706,2.1489884154706553
186.0,-0.8241008260408105,-0.6705948011916754,0.1535060248491451,0.7645168761607554,-0.4500327101957553,-0.23682380754134336,0.06120548251418495,0.09574660828636905,0.004215914739015725,0.3103858254318379,-3.9583945080953757,-2.695621119909066
187.0,2.070504954872723,2.5715421871896065,0.5010372323168983,-2.3042150579751093,0.747720543328887,1.4856371940126405,1.5021184949164157,3.88986423410634,2.714271538838722,2.3385402644633726,-0.7215864441537949,4.939680724110134
188.0,2.136216979912687,-2.43483585801417,-4.571052837926846,0.1681251368208328,3.3961005400543485,-3.4704092577946724,0.27516393154393826,1.5546747980282365,-1.9527575824633423,1.067326709604663,3.5091732371555473,5.30541761792935
189.0,2.2651783560910173,-2.166950747330976,-4.432129103421978,-0.02578598334383564,3.3098249933022674,-3.3441675909965642,2.2582523991462367,-1.95907577901795,-2.6966679243060065,-1.6861067938431815,0.9539583499730968,-1.5851768565231552
190.0,5.692664667013209,-0.7827846961727918,-6.4754493631860015,-2.5039214658456532,6.0397063695447635,-3.5959450666087123,1.6591938934832373,-3.9813413247153733,-3.0182863169562424,-3.897534484551994,-3.2588661270550476,-7.7878560357189555
191.0,-3.4966988225742135,-3.4457378019347207,0.05096102063946173,3.4295736363425284,-1.746297764692248,-1.744930520106381,-4.4793920462863825,-0.17910349880989251,1.6439667832920064,-2.944748884306154,-4.1659460823139955,-4.2052454180152665
192.0,-4.14468705377495,-4.993866160691734,-0.8491791069168313,4.613452328597469,-1.6260780324244704,-2.8910982439064554,0.3269646335546632,3.3236298798065604,2.950552133478331,3.9415802080454325,2.5172787242260855,1.8557405907797455
193.0,-3.1737380415643823,4.51198535487971,7.685723396444053,-0.6192583089952197,-5.410805294355264,6.131663020449356,-1.3010433000011088,1.281793882546848,3.403670540552914,1.8342903228540304,2.833413406483533,2.392376863653158
194.0,-2.031272191458871,5.890844820181625,7.922117011640494,-1.9553454381481505,-4.956443960780153,6.867001666632239,1.1989763590271214,0.03821123822653816,-1.4709474076248308,1.024232813094691,3.079402576561992,5.728857824721501
195.0,3.988829418264373,-0.5969289318674198,-4.585758350131771,-1.7212113545108418,4.233732149234937,-2.5421977879972286,0.20909750159072527,-1.038427417167552,-1.6762837565271678,1.2010461540360144,0.6177914465544261,2.017334195740959
196.0,2.3559212041725246,1.214748029037105,-1.1411731751353864,-1.813351585853593,1.7807213161581246,0.01832304805232321,0.9502875394797998,-3.047680665146585,-3.233437381035353,-2.2600845574486197,-1.9227905463076262,-3.940652257313766
197.0,-0.9475154254340996,-0.6623351307079274,0.2851802947261888,0.8506645650809039,-0.6558381045352566,-0.19760643216072182,-0.2757151513656856,1.7870049887067037,0.2279220181931345,1.2707780031691258,-1.5946693302569943,0.5380851848995436
198.0,-1.9121023459557653,-0.8459996548468253,1.0661026911089437,1.3403219266083453,-1.444257322561519,0.10596360809844474,-0.8305719030917063,0.3800749475654421,0.8618279140769239,-4.946673515438332,-4.003661757985374,-5.176113951687062
199.0,2.793263421399478,-0.11405451671984301,-2.907317938119328,-1.3042945809992885,2.819707849993186,-1.5159613982879847,1.631292650177689,0.045132269641787126,1.1228355451629513,0.5273129860837171,-3.2604071266223382,-2.510601725572431
