Time(ms),I,II,III,aVR,aVL,aVF,V1,V2,V3,V4,V5,V6
-200.0,9.81445149713148,7.906705042509989,-1.907746454621488,-8.909766953106628,5.823478048787997,3.015021499124219,1.9862330925307607,7.54876974233584,4.480578216313299,3.8693300330207303,4.468925942054704,1.4663719172111693
-199.0,7.255386784932863,5.036592552542196,-2.2187942323906684,-6.1966964023785565,4.699595742999058,1.419987914915887,-6.125156908228066,-3.612883503146129,-5.121043939752789,-0.15732985692642565,1.7681916243638267,-2.4508316105294226
-198.0,3.8836357615069343,6.466917076201821,2.5832813146948643,-5.15064954176067,0.6889020526842349,4.53401233591835,1.4558594658609678,-6.8865470404105,-0.2908298523315891,-2.2150534568462836,-5.098372920014819,-2.657744199121284
-197.0,-5.776254333744403,-2.237095767281168,3.539158566463199,4.0275183358371365,-4.623150181595831,0.6599677906293031,2.4928136896970807,0.7927990489481189,1.1520058219688964,-0.6988840870067248,-0.16760035772696957,0.6138748534140404
-196.0,-6.804040291792622,-12.079582082710056,-5.275541790917495,9.460055517813366,-0.8129072612939312,-8.745664281542382,-2.052476748144533,-1.001208100858298,-3.611428859591114,-5.51399139949324,-5.492714356830526,-2.8634368058805664
-195.0,-8.860314534356437,-8.760795068332492,0.0995194660239278,8.828111519491989,-4.453449107536913,-4.317103276787961,-2.0847624719925797,0.44373582412810725,-0.3904785123722403,-2.616694372608206,-0.2895592345005351,0.20174375350440044
-194.0,2.1415657575551323,-1.329755889923995,-3.471321647479112,-0.3875470915586412,2.830744601708377,-2.3832325981965856,-3.0438114251839017,0.726148594909524,0.1754320292581339,0.9865069874473911,0.08811721536141348,-2.033699245448567
-193.0,7.281870280463993,8.752939034026095,1.4710687535621534,-8.076670796690706,2.85030189779569,5.133796428560878,4.161266424771631,0.29388359757951243,2.755999018215312,3.9059026121662157,2.362465351414718,2.178658381209532
-192.0,7.5013574534934975,4.603815400999541,-2.8975420524939013,-6.032668182835693,5.223638080615765,0.8798462268105123,-2.7753792788883866,1.6470953580091547,-2.5256337211612014,1.8089132500588185,-0.5961581162949754,0.4349553774604342
-191.0,0.36024037589722635,0.2760228680993899,-0.08421750779781818,-0.37727686477553135,0.24767065595688242,0.04873095664569638,2.3107121931488406,-1.007128138082593,-2.099725686423917,-0.9901903454309218,1.5162790619557407,1.0233949738442525
-190.0,-11.305372186249572,8.474154826133589,19.77952701238316,1.4352678360946252,-15.594171907418385,14.083966623575602,3.8267230093829623,2.277950303406916,6.279292450170475,6.751274020452444,5.707845538432138,5.362458435914309
-189.0,2.148421591239403,-0.7915181410834733,-2.9399397323228955,-0.6566470309122825,2.572983285402495,-1.826508212545673,0.5726015250635044,-2.35224777934533,-0.41380296415528006,-4.691157904470328,-2.0235880427726687,-1.1958253296020225
-188.0,5.851421940014209,-7.905524299938893,-13.756946239953118,1.054381204863971,9.835110892360142,-10.789852562444654,-0.7007503824523239,0.5671144808875977,-0.41069698527108484,-1.4805317041210535,-2.549826654396622,-4.902045123306
-187.0,-4.093912742428481,-8.388761542992096,-4.294848800563645,6.277522458164269,0.05555281200888418,-6.378399929632041,-4.718945564196506,0.30032729116992973,-1.2780035499573033,-4.168917865375465,-1.7574426708458508,-0.8076787442955777
-186.0,-3.2632222193816545,-2.998490980628749,0.26473123875288085,3.0988880773463308,-1.8046373224174428,-1.325543657414566,-2.1835732169572144,-0.15171180488115033,-1.0555480063984117,2.5619981455438396,-2.041873489952007,0.6107799298050551
-185.0,-1.2699004143603816,7.460954629824727,8.73085504418513,-3.1176342350397395,-4.95630120127897,8.056105580653101,3.2606658091950416,-1.1376792324547147,0.703670153605825,2.126019944577404,2.3770826364131423,1.7555056076933824
-184.0,4.860159162590599,3.5343174546693805,-1.3258417079211409,-4.2124425415654985,3.144583878731884,1.0610570771090049,1.076866453030879,-0.47186056232238605,0.5437735993580007,-2.434856041207764,-0.9594714124735226,-2.201748896668513
-183.0,8.669861075512797,6.236345936257882,-2.4335151392548324,-7.465355602364045,5.53244628815421,1.9338200600264681,2.2004190259844867,0.12839378429556222,1.4371083045536965,0.02274968018371562,1.4895471439294619,-0.3254038018020593
-182.0,1.465784281694786,4.8661052587917615,3.400320977097008,-3.1786526777958612,-0.9800006228371867,4.164195785568493,0.9171293887615495,2.110703566803525,-2.9220273955157783,2.536700974090765,1.8089038582023167,3.498365661295617
-181.0,-6.3660582222454245,-8.746152637309274,-2.380094415063856,7.619884130750858,-2.002515227720973,-5.609394791554579,-5.459014660080614,-0.6739498494844129,-4.353410634148127,1.2287132842039932,1.7680898680236505,2.4940234456285646
-180.0,-8.563028934247521,-10.481082426498462,-1.9180534922510015,9.504733651711067,-3.333233888609354,-6.1625011061873805,-2.279869660545187,-1.2528431169008372,3.8078251018771994,-2.8767051943703965,-1.059886578560717,-1.8485828325861478
-179.0,-5.78905414710497,-4.161067718024028,1.627986429080885,4.956266622830961,-3.7246405249783296,-1.2228945946091545,0.46421082871541686,-1.193218113332506,1.8156005651671638,-1.0845400058051382,-6.3782379296601865,-6.724058787882122
-178.0,-1.7207593008761017,-0.23310764550189833,1.487651655374153,1.0361216621849427,-1.6283379334861527,0.5986769043315774,1.2290582001877501,-0.7752815570301061,-4.567307244641143,-3.7217663905242135,-2.540264825000147,-1.4366916629773336
-177.0,10.37133965201243,7.995593022995735,-2.375746629016731,-9.204149787751584,6.419582737311336,2.7856008404160044,2.1568836596183107,0.5922017988916713,2.654589780925313,1.8219654154179332,0.2741139082903381,2.737533245593385
-176.0,8.583793557641311,11.777461244068482,3.193667686427154,-10.203973968338746,2.7335687930767576,7.462047920743147,4.969689679266873,5.865273619000495,5.536831099665657,7.055702485018967,7.694377869441506,3.4315119672883383
-175.0,-1.9798389597945203,2.3161771606123365,4.296016120406861,-0.1961500489524166,-3.1054804214984086,3.2802858699970643,0.5046745822377927,1.6002831369286565,5.619694865494853,4.860449094568644,4.773859861038624,5.78514378980222
-174.0,-1.4069310615966124,-3.326522216372173,-1.91959115477553,2.3329810673560667,0.20474776594286342,-2.573691666527539,-6.012314066890953,-5.27594405389784,-9.487007455738045,-7.621077851384673,-1.8564884456991133,-4.382455689573473
-173.0,3.970826422214989,-4.973452512661487,-8.944278934876436,0.5413041763203172,6.400457561939138,-6.990778668010247,3.031572817542015,0.5732876688737174,-2.0580189551927264,-1.4053051824745313,1.4831889989048717,1.7311495097170013
-172.0,-2.217966362630675,-1.037358340481962,1.1806080221487698,1.6653985119844061,-1.683700523478325,0.1185270287002913,-0.3669511137068071,-0.04421018797997478,0.763253111621371,0.3130263614030686,-3.41264452984834,0.22178720985076228
-171.0,-8.790245466013307,-1.5073858692454247,7.28285959676791,5.1881207692006575,-8.026715488103278,2.937114924935881,-1.8366906125497178,-1.7446747934199547,0.7744627588667559,-0.4380285100660942,-2.9640607552359866,-1.275740729499453
-170.0,2.296422334175328,0.05614791045733458,-2.2402744237180046,-1.2107602008870217,2.274503538593768,-1.1185270006382118,-1.6159531375784228,3.825547043249957,2.549391263850966,1.8378255429963728,-4.1126936879820315,-3.4747510633005145
-169.0,3.451265428840735,-0.04546672855376821,-3.4967321573945536,-1.7306229826416901,3.480243640532714,-1.7970520920901574,-1.4127658828698482,-4.428071493375727,-2.939298670042846,-2.934561593558709,-2.697987582428608,-5.828499891957726
-168.0,-8.094761902952675,-13.369741155864059,-5.274979252911453,10.711115855043415,-1.3991143438781182,-9.352344235959572,-2.5934376848310734,-6.10551168680367,-6.9458385139818875,-5.070513302028027,-0.5762085695161818,-2.3091480559277473
-167.0,-6.6909640149085865,-4.268092436551271,2.4228715783572223,5.463385598954608,-4.538076140925554,-0.9613081050165596,1.7908242033656128,-0.6299181140152151,-2.4108419804815546,-0.22872701131460627,4.300378189811088,1.9723734774178285
-166.0,2.7653535126881326,14.698547300046906,11.933193787358658,-8.666528800159897,-4.555789211167617,13.344766108203471,3.2320395073359522,9.466129506795873,9.089198197769711,7.461292990772046,6.7569333769607915,10.226833588942402
-165.0,15.225285323666979,14.70112249654225,-0.5241628271248384,-14.97583863566628,7.831814076140942,7.10759149078415,3.2917142825240076,5.16520208671348,7.7049511417276255,5.742372588960629,4.744672403709568,5.878408791442224
-164.0,9.021854371769509,2.7724718943848323,-6.249382477384751,-5.9109505443982355,7.59679146749173,-1.7239403812607046,2.8461726542861374,-1.0288349126246568,1.5507938933584606,-0.7432889347260345,-2.244100614322721,-3.882168648614359
-163.0,-1.9809659839674172,-2.5153203592241735,-0.5343543752567861,2.2315360488163556,-0.7619869896257767,-1.5075036757852909,0.9567355420182078,0.5969795377731306,-3.0559838874259864,-0.9826535130116348,-2.696342881585803,-0.8351511213717737
-162.0,-2.6609256497408045,-0.4184755842850958,2.2424500654557256,1.5973758369299378,-2.4138793097547135,0.9393253410343192,-3.870185500517084,1.7758208841420817,1.3442106046222086,-0.04728576341524171,-0.3517498964930792,-0.20956276444434252
-161.0,-9.991785824343774,-12.81668934507805,-2.8249035207342326,11.377051363992017,-3.5478096597708966,-7.857532459117511,-5.056248369193619,-6.188197399042441,-6.147430476809252,-4.733446730345918,-3.753610323677829,-4.7961783542124685
-160.0,-10.731172215304621,-10.70221548531357,0.02895672999112997,10.682008041357932,-5.34446490967513,-5.357755872041111,0.21069308581503599,-10.312334637734324,-8.215921956961983,-5.118324270758837,-4.520714319422904,-4.450661661963407
-159.0,0.20954923412697646,3.6133891710478956,3.403839936920981,-1.8755432180500247,-1.6376347236548159,3.5004748681836273,-2.6940838508679477,-2.0288655551125903,-0.5788820088659516,0.911737517197877,-0.04368425800592113,0.46908785090228666
-158.0,3.7136465479550496,-2.2007599983137998,-5.914406546268841,-0.8067805644306973,4.8564642976181265,-4.0576207390551975,0.18755127296865307,4.9671398395902475,1.2341483802157907,-0.05682107980935913,1.5666557772899947,-0.13274975983042248
-157.0,4.154565072213796,4.713213506696016,0.5586484344821768,-4.410916113792748,1.765140724879235,2.6385556465475934,5.288528008834353,6.555900082146225,7.141921004722236,2.5341138863161774,2.0321535243395368,1.7303760919274678
-156.0,3.0291068214492114,3.932724298714719,0.9036174772654538,-3.4602702561537306,1.03069930978935,2.4188491184824903,2.5030957778256724,4.327734556434484,2.350911360080617,1.3317873740617494,3.934178355294225,3.6171047314332387
-155.0,3.492958360220793,4.715524609661751,1.2225662494409593,-4.082752066103662,1.1003420238080341,2.964613588253094,-0.42608820601109176,0.687791541245435,0.7029092526304859,2.114526109769443,1.945631450748536,4.015449143468199
-154.0,9.298051603726742,15.003858579870894,5.705806976144229,-12.126535059482196,1.8343015498629889,10.422124222396626,-0.6899154640479708,-0.32220446192068475,2.4261678907316155,5.013287288212189,3.030348387766864,2.492532352916518
-153.0,0.7529018776172465,-4.143868287140663,-4.89677016475779,1.6443654313668135,2.8561490541664623,-4.540127797146584,-3.568243703537859,-2.365955702626867,-2.065191142480591,-0.0778198225181237,-2.7881336795357656,-1.8529526715702875
-152.0,-10.411062022003597,-8.73112556184956,1.6799364601541231,9.52178935624177,-6.020250240517459,-3.555036077859987,0.7815636836500368,-3.3147343275486496,-1.0977827863017056,-3.7385525102320583,-5.520282596162676,-5.1473526841658135
-151.0,-8.219708517587126,-8.071522702863334,0.14818581472378867,8.17469254760586,-4.241346398202075,-4.002020165849386,-1.3445385146454019,-2.3430741638933137,-0.6578237622521859,-3.533080298771181,-1.8846597572333454,-1.4436512312642207
-150.0,-7.56818216818572,-8.09596426168532,-0.527782093499658,7.858971612095587,-3.5001185467921445,-4.28517627135783,3.73834931801451,-0.3277300447384415,-6.3103012212164815,-5.005314195311852,-2.8277620008638813,-4.197613313761654
-149.0,2.5439372577002457,2.567445800787694,0.023508543087370937,-2.5315668883041442,1.2813519924041052,1.3107739954410587,3.289221881622205,0.8696107628091468,-0.8222775163512841,-0.7351057134200287,5.44433771511235,3.3200474988168485
-148.0,11.33405826591618,6.7651985387837215,-4.568859727132526,-9.106140881070404,7.896499358300519,1.103753731107573,-4.007818227624686,0.22961008949449013,-0.8647307489862113,5.39399302555757,2.9681088036946695,2.167120006104423
-147.0,5.720280965666293,3.543891199008436,-2.1763897666579037,-4.609607791864262,3.9755501893662397,0.6825033672748293,-4.526343284525119,2.7618805136995745,6.452527351235005,3.713027958400857,-2.0592251304502907,-0.037060390866020754
-146.0,-2.857071167226005,-3.5138298864643134,-0.6567587192383104,3.2109751362670655,-1.069454269373995,-2.0898509375932623,-0.8554147618366024,-2.7509463174880837,2.847794735712144,-0.3271156472241761,-1.4497225644597203,0.6278058948916871
-145.0,-7.4336520529385925,1.2765256775582163,8.710177730496858,3.0311353192920154,-8.11690765088985,4.988994178685587,2.9751749045574205,3.791476778877428,-0.7257620236180666,1.251811637526885,2.492512787902254,2.6578505624914652
-144.0,-1.2968632035491976,4.422687696027421,5.719550899576705,-1.5238673842998995,-3.472057069802508,5.069901988027684,4.555983033489368,2.2003467464122304,3.3584112094009835,-2.1979958303790124,1.3517965225751527,-0.17037964862792898
-143.0,3.993099758481095,3.445788868642292,-0.5473108898387067,-3.7509998894767698,2.229403291911146,1.4531870755600462,-2.834751919781908,-2.799319626450807,-5.770808661912721,-2.106963360793827,-2.0527966962916055,-3.2188540372456065
-142.0,5.399841470015735,-5.478718531367182,-10.878560001382864,0.0932966193470986,8.178707474648583,-8.168522129610128,2.779961098555647,0.25482552241722556,-1.2699965681826555,-2.7315720844569493,-1.6433194453905724,-3.3960255268626636
-141.0,2.5454092416012366,-0.1632199410629971,-2.708629182664227,-1.21270209946817,2.589642633816491,-1.419495331550782,-0.8369283044816986,-1.6246780076043126,-0.22477239055796527,2.0773888552391604,-0.6152718414104166,2.3011966607508265
-140.0,-1.2572083674494419,0.246241394450732,1.5034497619001632,0.4824767594681918,-1.336214202276194,0.8185406431392419,-3.8317618579874577,0.7523149579554593,3.1232110707038787,7.189693028285581,2.7898236009409363,2.158726123348743
-139.0,-10.460504006079228,-2.5959674756447937,7.86453653043443,6.498961528929662,-9.193149421359594,2.6625747511153817,2.2946463000228974,-0.8128062098009989,-0.17944488387749824,-3.1417470334564084,-0.91484136755121,1.5621796502317011
-138.0,6.416711272811227,4.16473460703472,-2.251976665776505,-5.25121372298179,4.309022777959293,0.9121528184290386,-1.0567280703204487,-3.0373222696964266,-3.853921068617674,-3.1121138332849596,-0.019187123708394982,0.8038352589506831
-137.0,4.16542300368321,-1.5316089482786532,-5.69703195196187,-1.2887555887071123,4.990823086646831,-3.572639286215734,-2.056157479769839,-1.2802247457534892,-1.5516035018061982,-2.6616137887254006,-0.6958609312035164,-2.032203755140485
-136.0,-10.940847324815923,-9.861194405384007,1.0796529194318993,10.340541529435203,-6.023339558375644,-4.341086330005766,2.4779269139810483,5.765201680311667,4.543314253268212,-0.5396958460708846,-0.7300435149165857,-3.2744952086916363
-135.0,-10.551457994441805,3.849618043181394,14.40107603762316,3.3634840687901337,-12.48473493371366,9.104107709746286,3.7073638915509948,2.0400191130330287,2.1597750917834535,7.282939179798712,3.6625493198323267,4.200126682895182
-134.0,1.0580795159933962,-3.1612627576886148,-4.219342273682064,1.064431308792468,2.632043413465437,-3.705621205011224,-2.623392201036221,-2.1016182638644745,-1.434624269916538,-3.3802024271346944,-2.2243738044513055,-2.7197118157376687
-133.0,9.249836348667989,-5.396115802973506,-14.645952151641545,-1.907413610758382,11.939233570303116,-10.034000273605502,-6.373003580577333,-6.701968068319024,-4.904248182897689,-5.3849514172783195,-5.821659570636421,-7.822794552080625
-132.0,18.011764321535654,13.936813455693446,-4.0749508658422435,-15.943229247471159,11.02867294927157,4.9160434476018855,-3.131869207418085,4.685941806067326,0.9438289793522947,3.3792932511690568,2.71749526754,3.969764073509197
-131.0,4.965855627468034,12.878227540517358,7.912371913049289,-8.955775840055896,-1.418666146392873,10.374968387242673,4.372983808634535,4.84739401768318,0.5273354532926451,3.994517728131032,4.461810060630818,7.838149317807243
-130.0,-4.450096031837751,4.182157722123326,8.632253753961052,0.11339417601434487,-6.5769885101343455,6.458697799473134,12.610747339727881,2.2102077277175916,9.10831853353066,4.540413410112819,3.962340587932804,3.1742962898043894
-129.0,-10.393490739849266,-4.646226555864545,5.74726418398472,7.509060876143327,-8.039542375442622,0.5174187653210773,4.161020210550762,-3.0902235171082197,2.4989361593265316,-0.2767585280945788,-1.4008707878971085,-0.30722415352705235
-128.0,-5.597882212884971,-9.494013030591088,-3.896130817706095,7.54022821177058,-0.9093567215460485,-6.652066320419191,-2.1710101427663386,-0.38976314248900534,-4.283817367253161,-3.3768051643946966,0.806687503415265,-1.9561950900131992
-127.0,-4.758243587260546,-8.427236410412904,-3.6689928231523226,6.5874405569853876,-0.5314576832239304,-6.082430778048974,-11.13182554591034,-6.998386645073428,-7.909043201995141,-4.532552262495136,-3.8752962110979468,-2.6600526488062943
-126.0,-3.513263725169904,-8.394366092958997,-4.881102367789044,6.023957670439317,0.6948681417570589,-6.588455517205475,-5.047440844903615,-0.6396456778175277,-4.340806306328384,-2.5461785567321775,-2.049971428593186,-3.4302427804690727
-125.0,-1.8231732115950572,-7.529624784101843,-5.706451572506721,4.661934734879017,1.9555910446985303,-6.641151439571764,-4.463364023243349,-3.102940089067157,-2.445046842521109,-3.171087096576725,-8.23346125877945,-5.036135911546584
-124.0,1.064688825838001,-2.615237405897725,-3.6799262317356547,0.7534293835630748,2.3933550265372676,-3.1652407587567435,-2.6212744972312025,1.9257568582374693,0.275417245495996,-2.8329693816455905,-4.431019773983505,-5.160093544498691
-123.0,14.263583661533033,22.52740917496961,8.26382551343664,-18.425379820852267,3.029645759140897,15.38046210246853,3.9650621296202018,10.115164768240398,10.560630855276907,11.40278266291289,12.821066146955248,8.956794398462765
-122.0,9.71447661566693,19.69309892933213,9.978622313665252,-14.662710790351127,-0.1737324894188077,14.81923852583806,12.127525289368753,8.162119028479548,10.804085800053489,7.7749062999430905,8.292403985846605,11.034041984197032
-121.0,7.547242031769639,8.244952765196293,0.6977107334266899,-7.940257267755744,3.3866629969993385,4.528208659745196,14.510273327396412,-7.451904737177478,-0.5736506999497379,-2.236531228175326,2.7026864630850795,1.421900331139108
-120.0,-3.610822247419485,-12.83916808458714,-9.228345837167645,8.255469137516911,2.7697366303873903,-11.063540110804777,-6.530106114349603,-5.6667991394915465,-12.28690648623912,-5.557910945174335,-4.2594210419897,-5.341192633111895
-119.0,-20.21720884261406,-17.34149863378854,2.8757102088255024,18.80887414511551,-11.510973452067216,-7.19288405101326,-9.690279308911494,-0.6347084744759846,-3.124130166484729,-0.6217008443990109,-4.0396232093915465,-4.411411376548816
-118.0,-6.841838388184863,-10.030479902223927,-3.188641514039107,8.389399750770124,-1.7963798754200235,-6.656573315212639,-6.165226466446391,-1.3931526074477834,0.5408330628485172,-1.5427476813006233,-7.282011089608551,-3.9039794009317297
-117.0,-4.898120522688022,-2.3167986636778686,2.5813218590101017,3.6450004091107706,-3.7136755109409494,0.1580429688531364,-4.224113031490267,-2.423134506073591,-1.322785186821499,-4.041744109519962,-2.126370218467458,0.3636790492242463
-116.0,5.798948436495362,8.5224844303344,2.7235359938390062,-7.194136706768566,1.5615772702207664,5.567751206947804,6.863838424610064,5.026005227942047,5.860509335480226,2.5378642451633064,4.355807101208196,5.001193580697482
-115.0,12.2521307135364,5.163851387773701,-7.088279325762694,-8.73255388490113,9.614595424047387,-0.936594170062079,3.536282981994769,0.09033009918077939,1.620236165670665,-0.2192307116791954,2.8325905411701457,-0.9224393765279641
-114.0,3.8159582614383982,9.173001371064267,5.357043109625909,-6.4317501462199935,-0.7480792430464831,7.29691972071859,-0.6448119202881535,6.517596851415844,0.7607525491792342,7.041687604271855,7.417075714362811,4.733000834792728
-113.0,1.4388654334034454,0.9984858295208614,-0.44037960388252073,-1.2279890704717742,0.8815041571700517,0.31979045322595745,-1.9486914004034872,-0.01218299858156735,-3.4047604292132156,-0.4085543451085134,-1.6237693649059874,-2.0697107378321524
-112.0,-6.294269046968099,-5.529402046542364,0.7648670004258028,5.905907361920651,-3.512152637268641,-2.4115823134371626,0.8932959382526156,-5.415965363616269,-2.5562397806204626,-1.9916275365466782,-4.201768326409815,-4.459340583818433
-111.0,-3.239810355303468,-8.836892701871115,-5.597082346567614,6.031399617626248,1.1923645034214476,-7.240739905849152,-2.4617594630051567,-12.607442596897132,-2.7121912058894297,-5.858828466713508,-8.26714910145517,-4.687437257650946
-110.0,-2.94132516609667,-6.229510826216002,-3.2881856601193427,4.572801280037561,0.18460427729378925,-4.7822993501895406,-1.6693537065693502,4.6505477883530375,-0.5404133647133755,-0.6867055086411726,-0.6526705482920301,0.6765363615986788
-109.0,6.960937264546416,10.038806707203616,3.0778694426571294,-8.521882667639948,1.9528385752374762,6.529554824799787,4.900568170973604,8.886942827076654,10.053762961961233,3.6716080169541874,6.879056318899292,5.00122969427786
-108.0,3.4632613716239935,8.158595366572536,4.695333994948441,-5.765360424002784,-0.6010180231404905,6.467472994068129,6.9800032218157275,4.456110118092093,-0.45627824374556614,1.4895281204353181,4.599923847293182,4.4898760469413705
-107.0,-2.969583671007455,2.6101641581737334,5.579747829181112,0.13604747225269453,-4.331087850735507,4.124597689741347,0.5988536781547309,0.5842452363971238,2.4654849535774552,3.3966518402496404,0.767221544298359,2.4840150191267103
-106.0,-4.771443072465537,2.1833945385921454,6.954837611057646,1.3215552081778632,-5.830671721028922,4.589368395346431,-3.8236578549297144,-1.0264543092239258,0.5223816718142625,2.358212611877318,2.399508405444589,2.5817790573983204
-105.0,4.301510061100521,-9.070610165073365,-13.372120226173891,2.408764454140672,8.802199449324952,-11.285598965987948,-9.060039642739683,-5.687502479393524,-11.502226903271119,-8.445526918532977,-6.327508072467077,-6.893229007915824
-104.0,-7.90996253392085,-13.323398698867516,-5.413436164946655,10.641907362771175,-1.192583779694223,-9.354942481675524,-6.406179026551211,-7.834303857557401,-5.499791199799167,-1.9330651881455707,-4.323762558462418,-7.215929329223346
-103.0,-1.116760362702124,4.473520685263189,5.590281047965331,-1.7274967279300748,-3.3669740344488015,5.0489011882716435,5.665712319369579,2.848431636684168,9.383703369581376,5.3637109158944725,1.2660645038946012,1.0951398881757255
-102.0,4.020516328046089,1.9875549612536099,-2.032961366792456,-3.0467083577078844,3.019276857840837,0.0012729089964806928,6.263699087626771,3.482273160664722,3.107725747663155,-0.16630636218000627,1.9505858086476255,2.502146013811591
-101.0,5.043598450815168,4.182081982661037,-0.8615164681541139,-4.569447896908594,2.9462759644503764,1.614162918241445,3.4670694417438037,1.1654070815128876,-0.4339051914525127,-2.1298462612430145,-0.635605177149555,-0.3905664764687202
-100.0,0.47985510632642825,-2.127984429782088,-2.6078395361085076,0.7961677643415639,1.5336659040148777,-2.326897369338673,-1.5499540833532937,-0.6388963462176824,-3.127663224268615,-3.6559570264879957,-3.0647353896769514,-3.2944569752998287
-99.0,8.81838116860894,5.4991080950359965,-3.319273073572945,-7.100750784651433,6.050487390357172,1.0587140934885448,-2.2590983290852797,5.419831492114919,1.0727694642751096,3.984890983232216,1.405831073426548,3.5427409408378905
-98.0,-6.360219490080513,-0.04724965232312428,6.312969837757377,3.189252804956762,-6.28687488308813,3.1055319645353645,-3.211580169726904,-3.3773791033481415,-4.82979700742104,-1.2901220276778553,3.5557369536358285,7.160541282501856
-97.0,-6.984378626910126,3.865885658205748,10.850264285115857,1.5493877518401447,-8.957440244177064,7.4108028778425314,2.0557723662640375,5.2657978984764595,4.417333387825391,4.033009186366564,3.7077857247090864,0.2008634631395081
-96.0,-5.261739059637177,0.12841406694587987,5.390153126583049,2.5589094674057655,-5.2968544911866395,2.7327408668345976,4.341436312160983,-6.879645154171667,6.833767236530435,2.995799085076747,0.9667679032187935,-1.6321090263291134
-95.0,-2.863060367516487,-8.589309002260414,-5.726248634743914,5.717411581755396,1.4539950177691492,-7.185748521427069,-1.093283768523021,-1.266656312508256,0.5116791626991597,-2.1117063035071064,-2.274478070660753,-3.51940941348717
-94.0,8.591493120698198,-3.8684440122683874,-12.459937132966552,-2.374522526882781,10.465986214712002,-8.115153285843368,-3.8235884207523756,-3.9924729214303847,-8.518385906566447,-5.838041674707909,-5.785535528169148,-3.226345395408223
-93.0,8.132747254936643,6.584016132167986,-1.5487311227686265,-7.29955391538255,4.859382778436583,2.5645858997343147,2.364707536354593,6.42779976244009,0.5511415923370921,4.411658286045718,2.3137302087829936,2.8810128190065614
-92.0,0.015751791925135095,7.571886640129241,7.556134848204149,-3.8224038624866683,-3.749784797379311,7.5292266385199875,0.38842999897515396,3.2859274085202674,3.677602545111201,2.7486060302448108,2.3078368725859795,3.5207426698667796
-91.0,-7.559104181456583,-11.249212390187719,-3.690108208731103,9.366401589271085,-1.9113191212627303,-7.508766292030222,-5.658376684219819,-6.033709182458518,-5.207164921083412,-4.486476979788978,-4.547789712790313,-4.384121965732268
-90.0,-9.603737138038635,-8.846356470193454,0.7573806678451969,9.257666215116902,-5.233408094425172,-4.088966095999663,-1.8824252945870354,0.14280191591339875,-1.4330520789029142,-4.807241680742114,-1.0774225583004835,-2.294902765281393
-89.0,11.559442697686748,5.82677984480916,-5.732662852877585,-8.666895411544157,8.674012450213542,0.07620951354298905,6.445227865519639,1.4299347658647423,-1.7072794355878245,-2.1672459562171333,-0.7842143794384443,-1.3257964547595287
-88.0,5.195275982420146,2.5734572260321875,-2.6218187563879454,-3.9405416338167125,3.8592390999565445,0.00192081541857414,-1.8618162862839904,-2.2111429408421515,1.9348331240205154,1.4230980623117746,1.525180255546078,0.5708040606396295
-87.0,-1.6556956768537736,3.987060597610894,5.642756274464697,-1.1437781028305563,-3.6181503267205084,4.841378463569662,1.3865532276080357,4.064248943471256,4.015296237872073,5.747867763484062,2.998484944072299,4.646277884995353
-86.0,-4.897639993698479,6.467190343956955,11.364830337655476,-0.7610349325729687,-8.097399469982408,8.94628958658226,2.714357292672296,1.2518558830014421,7.235613281072382,6.088420395312928,3.8342193906766897,2.9046297702330244
-85.0,-1.5145391459626785,3.9873676260146205,5.501906771977351,-1.20937139086516,-3.5485709728024433,4.70197256484984,2.373856083221316,0.45526219139019625,-0.009204656611449202,1.5367647195888678,4.327355467781047,-0.1887838644894051
-84.0,-1.1003052101403894,-7.6920760427142625,-6.591770832573822,4.347956317023295,2.7905009588248073,-7.179040209671826,-0.8396756134319702,2.3538708318797106,-1.8077625799463095,-1.3653318078951837,-5.157770594109513,-1.3015843253582293
-83.0,1.1271031996122451,-4.828120726993441,-5.9552239266056555,1.80482511744477,3.5145892340746707,-5.346765477420642,-4.028965340408084,-5.302223446265393,-7.706451370371745,-7.463770796725679,-4.765099721029124,-3.974382538511529
-82.0,-2.022192375720044,-2.941823090975201,-0.9196307152551553,2.5161613927436988,-0.5706829244571261,-1.9644817944170887,-3.2549198570288524,-6.08801638727793,-4.820168275536046,-4.158991386388661,-2.206101255316748,2.189954831821805
-81.0,2.143002603658586,3.3051489608466285,1.162146357188012,-2.6902773261273913,0.47652969645860455,2.1972693225507443,0.20793614634953306,2.3704585533932327,4.463591838402588,4.397005283804514,2.5914848564701356,3.6193376044554917
-80.0,7.472711937368731,4.161976570462088,-3.310735366906682,-5.785013606239752,5.459144058863071,0.46412978881079475,1.3763290740854033,1.3017979592551847,2.899920358518592,-0.6435253146450508,0.5889485784027716,-3.016016189578721
-79.0,4.484030137001628,-2.4367519396834463,-6.920782076685087,-1.0722128735066598,5.689872011954314,-4.643717541518637,-0.6131396307506296,3.429577302848255,1.1780093798520888,1.3689884863552393,1.1931679035871905,-2.1535991806932535
-78.0,-16.327073033612592,-8.103665144092933,8.223407889519686,12.164472942345043,-12.292879692913555,0.09285134178456655,1.600065412241033,0.9794284736927263,-0.17031173475554828,0.8643686797861581,-1.853896488406904,-3.9993258849562623
-77.0,-3.460438898927973,-2.395154314483144,1.0652845844448793,2.953810541458866,-2.288627057261589,-0.7113970561323262,-0.6894704726150656,-2.026527388938928,-5.571915044913856,-4.152174039219107,-1.3108584113299047,1.1126639300915118
-76.0,11.86577234031207,9.702035267400007,-2.1637370729120278,-10.758648448391781,6.979804080327172,3.7226501636111133,1.5898859407974348,1.0206995807953207,1.2681728383128992,3.060409342248098,3.5806028883327032,3.517602100345507
-75.0,2.8403330552187835,7.40395025383008,4.563617198611292,-5.096399600442769,-0.8254687860848913,6.01586735900775,3.9874814600889947,2.3179035061547273,5.099440469720964,2.687766791311631,1.937691220170815,2.519660740492239
-74.0,-1.601872403448931,-2.70448826919686,-1.1026158657479614,2.1801543340048033,-0.21716882682886773,-1.8720773543183404,-2.5151263627187666,-2.1617063269690515,0.4445109832545613,-2.230091962119528,-3.0072621127962123,-0.577963059276656
-73.0,-6.235247480758167,-4.133680905363876,2.1015665753942647,5.133756091389474,-4.134671143099869,-1.064037559526592,-1.6662966052861485,-3.2704168490708776,-1.0397312525896192,-0.3482938941868713,-0.5357566217381289,1.8213959551059669
-72.0,-3.687205068098248,-2.7248052519262127,0.9623998161720368,3.155554625914013,-2.3642788383190636,-0.85037992839354,0.15247719466521792,-1.7460359244395807,-2.648312498234053,1.5410734097054972,2.2411246674243346,-1.5935174566912589
-71.0,0.685418197096967,3.307789527356964,2.6223713302600293,-1.9686148833947859,-1.000442404484842,2.91897677877699,-3.403493392789146,0.021417662290551975,2.220172646386473,0.8080929536221323,-0.9537531721090108,-0.6234524241064268
-70.0,8.455718855244697,2.365373371114491,-6.090345484130161,-5.38221426795462,7.326324648843179,-1.825534575357349,3.2058865877308245,4.907015256898264,-0.010722744827312947,0.3961641493540162,-1.2933928010578146,-2.781272510951079
-69.0,0.8516976524327999,-3.9718097186328296,-4.823507371065581,1.5122686784188306,2.8150613267667177,-4.353935284150387,-0.34184976822592983,3.6917553039625757,1.8112812963952076,-0.4384798312709113,1.3093335834722641,0.5652461212833655
-68.0,9.682172775639433,5.127122737380026,-4.555050038259373,-7.367644053707704,7.094061950491973,0.259337457538372,1.1173183257369148,1.9958700173614452,1.359237627667937,2.571818284631754,1.7496015445581086,2.804664923639194
-67.0,-5.491644666310531,-2.8211361483605275,2.670508517949996,4.202648196793422,-4.112227862974299,-0.09368868779080175,-0.23229728729819277,-5.16708713056966,-10.258055300611296,-11.07256024992878,-4.2278798946900595,-1.9558218516033248
-66.0,-12.348379788586067,-5.14162338954416,7.206756399041824,8.723190073029762,-9.739366451389516,1.0208694243073357,-2.007968260913186,-6.032029065085681,-1.6402859755584762,-0.13204280662056478,0.7777386677044542,0.9579134156851001
-65.0,-8.916042792524916,-3.25312231948795,5.66292047303683,6.071972722810323,-7.260935154503241,1.1970611924298467,-1.4662566006374667,-3.51030662244618,5.39034865443023,1.7085269512763002,0.18973477850929338,-0.8169015505721967
-64.0,2.400051249943024,-1.4611228290988005,-3.8611740790419464,-0.47730643305699383,3.1516076476052817,-2.668425894476417,-0.47921657786553784,2.561014226223989,0.12268318108782283,4.187046202327829,-1.358125389377126,-2.6579584482265086
-63.0,-1.4189050809716726,-3.72427799322099,-2.3053729122493714,2.562287460626856,0.38155544125085306,-2.946033631949044,4.124951165210511,4.52783913406412,2.3504638187502422,2.195380818848276,-1.7877176788606608,-1.6597295561762335
-62.0,14.336249944951273,13.902932894788904,-0.4333170501623491,-14.136425016865573,7.402048868563648,6.71923341676854,2.3634420956363367,6.204884628661869,6.22491080255743,4.670875016237,3.937268465608699,3.3801360487849683
-61.0,15.835006888696318,13.722989244241402,-2.1120176444548053,-14.807298059144923,8.994691443168676,5.781793857675553,-0.5725972400797527,1.111006457973296,0.8051324198420236,1.7548041344871859,5.418591918102856,5.368810218189137
-60.0,-7.972687990732084,-1.5302946218273377,6.442393368904883,4.789817640514748,-7.258510673640592,2.4224428310949175,0.47735120835487954,-2.8394603435601886,-4.795481986498928,-5.797762124511127,-0.847139462270567,1.7658995981158556
-59.0,-14.444653387688458,-12.729180853357272,1.7154725343312767,13.615561599269283,-8.044444447930903,-5.472246102337452,-1.3273548251862033,-4.314840857279095,-4.789143934199668,-5.257054959510109,-2.8791762630408275,-2.690156144006556
-58.0,9.51634393969209,-1.3179484460355475,-10.834292385727638,-4.0761044242491495,10.218362107990089,-6.051016217678914,-3.2196516459398383,-3.307508169915003,-2.416998986603619,-0.45092421205279276,-1.5322487874148618,-3.5335207254619516
-57.0,5.672601483626934,0.10837562829377934,-5.564225855333225,-2.8690453665496127,5.588183808050841,-2.788193241608275,-3.071429199191264,1.749858023746742,2.069803075775791,2.4618557957463167,-0.8208396225661858,-0.28541569083873375
-56.0,-16.54343382031243,-9.046749181082333,7.496684639229999,12.73836064645274,-12.047731068606716,-0.7587127211202418,1.1252766437636947,2.2915793294492106,3.448349251486129,1.519290785605827,0.1377344778950902,-1.9352291995003261
-55.0,-5.308042398270365,-3.999893233978053,1.3081491642922431,4.598062746127075,-3.3361061344567084,-1.3264782653908,-0.47457386203928453,1.8468863469877836,-1.441842983080606,-1.7323127147678659,-2.2481783443152485,-0.40008757369533265
-54.0,0.15567857732016188,4.584449255970582,4.4287706786503875,-2.347319712300877,-2.087940837069001,4.5338501979518195,5.8548621996780765,-1.332075010166951,1.6147417907953443,-0.4874985750667906,-0.8136025368785765,-1.6078407232040417
-53.0,9.258176799271725,12.04057466645571,2.7823978671840206,-10.627607430435553,3.205575034735138,7.37075782666277,3.1952785043763257,-1.5904991297919882,0.4479846398709759,2.8151773858239215,-0.6318975259371213,3.7865675555900005
-52.0,4.360703123305882,3.2692255025795793,-1.0914776207262313,-3.7941284996476856,2.7719676186178273,1.137755393008435,-4.3360538264082535,-2.187615810457988,-3.2955178668886855,-0.8366343647790586,6.907014900380029,3.324131663762154
-51.0,5.071012261324219,-2.456466341491749,-7.527478602815872,-1.28628117593808,6.268206914114913,-5.013953043026744,-2.9699432155000456,-1.5501020193289567,-3.856630202307571,-2.588803786390778,-1.640157547637866,-2.491193633126933
-50.0,-1.351597746920112,-0.7675143126066499,0.5840834343135715,1.0036268115108145,-0.916353053156314,-0.11097921877327366,2.716934660611992,6.2863821574255265,8.715944793780753,6.252519430896942,3.296550910541976,3.006523598830926
-49.0,-3.519595115504927,-0.8108942938606098,2.70870082164441,2.1915277732950154,-3.1371841033482504,0.9266998218469489,-0.9878127021905672,2.906805888857961,0.9531756016938808,-1.2155905756033127,-2.026482176220485,-0.7365390371644283
-48.0,-4.691092073271596,-2.116658159876166,2.5744339133954828,3.43478768301227,-3.6529821974663186,0.19958189603821275,0.15797906659812422,-0.8069695601050522,-0.703232529983738,-0.6333064849756153,0.5750671006888604,0.9167928962889909
-47.0,-0.5112695099305968,-5.7666998485710455,-5.255430338640455,3.0964033352905886,2.35188173823025,-5.469964010589204,-0.09038086661307415,-0.9803699002075743,-3.3674011468406877,-2.5508121422359276,-4.668636450039372,-4.550528682511727
-46.0,-1.209779174248556,-1.3902669514717827,-0.1804877772233049,1.2630068512761827,-0.5379508843370013,-0.7506910693732407,1.5225917466144718,-3.2508836388782703,-1.5734443360974912,0.1778038642705877,-0.030664549406899333,-3.0740177125907024
-45.0,-1.3023919293328985,5.532856731151829,6.835248660484574,-2.0676554741653392,-4.018845455324917,6.216415574120761,1.589593521854044,0.27238591556594915,2.713333818979516,0.8677441081310235,2.381374541015169,4.700827344851026
-44.0,6.345007055691209,2.7684338023093824,-3.5765732533819885,-4.581767347168386,5.004341147200865,-0.4482277777805601,-2.3447754419206683,-1.597489557357341,-2.483799124142189,-2.661506810940122,-2.157049026278597,1.2577555903519195
-43.0,6.0129040491707775,-1.2283560246173248,-7.241260073788194,-2.33253853304031,6.585985811555443,-4.2733041906003795,-4.5039594727525305,-3.325872240561189,-2.279856896539214,-1.9586349596858146,-3.1596797688750886,-4.3573263230818124
-42.0,-2.02922254353805,-0.746570427931111,1.2826521156068904,1.3738133227007854,-1.7012185380076255,0.31539174676262094,-1.1271300397016784,1.3592179899962669,0.7552839903314389,2.286584542914104,2.430622331232145,-1.0388997260486639
-41.0,-10.488608416568923,-0.7788232767240124,9.709785139844925,5.622021906113628,-10.067427801044559,4.440548831312986,4.4182153288631385,3.0725947203415602,4.126050465223652,2.6404788898380236,5.3725113505775255,5.365819826212523
-40.0,-3.8873785091959614,-0.05171817998770856,3.83566032920829,1.9564457362089962,-3.828652211756571,1.871319741142046,5.613326649395345,4.449622314112245,3.089441477704587,5.452327162189293,3.0701246775477804,3.1350560862631918
-39.0,10.140239162455384,3.6089341114126405,-6.531305051042645,-6.893262186515122,8.293568817092812,-1.4017788493551433,-1.9673787694594687,1.891309734798517,0.19270157792579323,-0.6773402990983755,-2.1878651476135054,-2.868800189725015
-38.0,7.148303323251174,-0.7308706884991572,-7.879174011750222,-3.2362545146570616,7.555796746988882,-4.32602257306948,-1.8074372595355588,-0.2822581635716488,-2.4382050944694527,-1.6770382616993433,-1.739551310068848,-3.016700209523851
-37.0,-3.260367437186723,-2.760894741325738,0.4994726958610771,3.051557100410544,-1.910385334372462,-1.1556384466467762,-5.09794398248846,-3.904010042901997,-7.290330425214964,-9.385523123768335,-5.626490100014512,0.42902992307914234
-36.0,-5.445584366546152,-2.7352481541375444,2.7103362124086265,4.121763487211524,-4.102665064443161,-0.042418669952589694,3.965100939239501,-8.7648546114205,-0.7778365988047677,-3.662323547009392,-3.92010698117992,-1.1372918078721326
-35.0,-7.287939137669656,-2.6866320043530574,4.601307133316532,5.011383848605995,-5.886213638548068,1.0012340651250013,-0.2952794263595766,0.4237944532623308,4.3789637979913465,3.6332081145501225,0.8053014437967925,-0.7747895360444681
-34.0,1.246592739497331,-0.21714797689655507,-1.463740716393981,-0.5735362359958147,1.3373524621400281,-0.8004474143967443,-1.7150145144418318,5.214928161091729,1.8332976663740879,4.381433917970954,2.769241334770651,-0.6114794586104341
-33.0,4.395870061125951,11.854715364678214,7.458845303552156,-8.106362655140298,-1.5484320396928166,9.61518688410689,3.202825800154738,6.406329957369627,8.53242826673106,9.254894216385651,11.995289833694983,7.626376408745898
-32.0,6.5891520935954695,5.417753994219735,-1.1713980993757835,-6.061318639183359,3.863353420482599,2.157877080702537,0.5596190979703843,-0.8109431104560421,-5.073267433258891,0.4812285256847373,3.1524021363686523,1.9545270484580914
-31.0,3.0083886180806436,-4.278092980529491,-7.286481598610109,0.6604242130170941,5.130904868131749,-5.829341431225189,-1.2198152507921294,-2.497402396849432,-4.531604652921373,-4.805187575353217,-5.01195689241729,-3.983095255385491
-30.0,-7.05335043530717,-11.010934959373087,-3.957584524065823,9.064723788116657,-1.4837767145060585,-7.456606212754769,1.277108154391579,-0.4078165472878974,-2.417301116030302,-4.431461163517705,-8.96462741151515,-5.674059572504741
-29.0,4.811488834894628,3.6511026121436574,-1.1603862227508301,-4.190316492368254,2.9751011827194125,1.1896127316470912,0.8790893743511976,0.4216455467947302,2.4650360951697614,-1.283688160108999,-2.5828321519489155,1.3926817595958885
-28.0,-8.555870966460983,-7.230075627195423,1.3257953392656379,7.863442160955681,-4.946606539663061,-2.933043753434831,-4.163183071959996,-2.358609444469875,1.3807136330091656,-3.3871034840638536,-1.0128973168265647,0.41137187560554295
-27.0,-1.6162329214530766,2.216450683672972,3.832683605126034,-0.32331881937213947,-2.725576658489015,3.0421934056662856,-1.1404806305260724,-0.2878419319630884,0.8490299069237723,1.5276776485634775,2.213158868996236,1.624880216782129
-26.0,0.6620763819439839,6.25214870080122,5.590072318857099,-3.477163132563192,-2.4629582635186615,5.940880454107632,1.3446428599539146,-0.7099068029141465,-1.235544246617932,3.555678517819349,5.253674713012555,-0.9024976374938358
-25.0,6.278854142242644,0.025958589419580846,-6.2528955528232535,-3.1726114266629897,6.264877189723114,-3.088004096136954,-1.693334305667394,-3.5624074695484294,-7.882480692634228,-0.47145867008138787,-0.7366128789409903,-1.0550135418994102
-24.0,4.761024914424939,3.386201814201169,-1.37482310022394,-4.0175715875059375,3.0601348328813103,0.9601992532591986,-2.369418243925105,2.848617427399127,1.3659390256907153,-0.31830323524557813,1.3612631324377962,2.354421507245799
-23.0,-5.717281015082613,-2.634765899655849,3.0825151154267028,4.150013029833166,-4.418245519841264,0.2647329532987649,5.978436200637723,5.086695238331546,6.900250053523083,3.6579608723666657,2.0101456091873366,3.4331026920985597
-22.0,-6.325787313850031,-3.763665431090182,2.5621218827599215,5.0947582230990545,-4.474230190010791,-0.633432607755113,3.3881454651625154,1.4119834750386935,7.458354820347927,0.40056031181587237,-3.531808743990114,-3.761371548712112
-21.0,-3.059727882214809,-5.5348386282188695,-2.475110746003887,4.267165439310312,-0.25404874628979823,-4.035871364637018,-2.6401514035115943,-4.43538088024429,-4.006981361262511,-5.204097694453543,-5.544196660448362,-4.749789165520763
-20.0,6.96517911229062,10.913491593816909,3.948312481526509,-8.96960292038445,1.540872637389706,7.398711256672405,0.40109353282263793,4.0882376319436915,3.1622154641261186,4.991699703897371,5.950272726058362,3.9079551079574832
-19.0,1.3085808525263745,8.056826402697752,6.74824555017155,-4.633685237863546,-2.68751982321601,7.446322507959727,4.590997794144533,2.5303571106962464,-0.2547942554351288,5.164096264451411,5.437722364635021,4.6007294227028765
-18.0,8.772870342682827,1.7132421460697596,-7.059628196612977,-5.272244834860763,7.874921249585396,-2.6318706103051457,0.21461056459187255,-0.21347415851872764,-5.224615807601268,-0.7715549194736431,2.3461992377203673,3.3370043544829766
-17.0,2.9457024090284025,-9.313514406787224,-12.259216815815662,3.1547844035614974,7.569635785368844,-10.74622966322962,-4.1360969667893555,-5.660029915818255,-6.715570643549723,-8.612339362603816,-7.255953061290031,-5.396973349776943
-16.0,-7.662532287911931,-8.536487804708727,-0.8739555167969058,8.148563601855253,-3.4176386655222726,-4.744024888851122,-5.306154043797213,-5.9495325874521905,-4.278154863632885,-4.514248849963957,-5.513456287076814,-0.9944952548226791
-15.0,-12.82821296675172,-12.792945471937381,0.035267494814165135,12.779746294124967,-6.368191862376582,-6.417950721517307,-6.986570765376091,-2.206021169751815,-2.6433458223676207,-6.097676707715116,-6.907089163359561,-7.496398754944041
-14.0,-5.329130925659022,-3.126545420162156,2.202585505496741,4.274213201187095,-3.7760465860191283,-0.5025818727212505,-0.9422280312347697,-2.2161247085666878,3.7160274432688434,-0.8433253521931985,-0.45560700923955566,-3.850469049903863
-13.0,15.918581174339778,8.790278480423742,-7.128302693916056,-12.388651843133712,11.513894040248784,0.8661457543604976,-0.3768972885974451,1.4865635612885897,3.4309545107438986,5.785803364077371,6.266302040119165,-0.20917133210507444
-12.0,8.51094108441666,23.932593374374566,15.42165228995802,-16.258126651714882,-3.4692314539989084,19.708276244953687,6.959834874757092,11.673273680379914,13.683865132296301,15.51943778487553,12.770352608333877,15.248234802554592
-11.0,-8.051288189313574,6.373705693810361,14.424993883124184,0.8786940054849941,-11.182354543707959,10.426326276931526,11.619736841214976,6.705238918917324,3.68010148914511,4.4894589556997655,2.7226101581275666,4.5919257220826
-10.0,-4.629268001883977,-0.13463410484941463,4.494633897034904,2.4188680062781844,-4.597548272417281,2.124581287945842,11.922917313594322,2.999981176324236,1.8755647565485019,2.326216702999331,-0.4251832129186994,-1.4606086912060072
-9.0,-6.808623501584993,-12.660057322599078,-5.851433821013819,9.688806001305139,-0.5280676298541975,-9.235147478552449,-11.276514792342866,-13.932585935469893,-9.749692033779919,-10.355542911531005,-8.798347778723334,-4.407948068682957
-8.0,3.5839633046171016,-4.520770886679543,-8.104734191296593,0.4970703657687281,5.861669197863091,-6.293797381535038,-11.951389739495696,-0.42741458152208267,-7.21881763294752,-5.514915548314586,3.026888286919224,1.467368701925408
-7.0,14.779736510598157,-5.318123590420966,-20.09786010101923,-4.786069422849687,17.44938153387467,-12.768151899506346,-0.2249476745935013,8.296659655620491,-5.022185516434303,-5.18558740597842,-2.6307235286125135,-2.355492265781445
-6.0,-5.937993779105142,-4.291195870140992,1.6467979089639044,5.1330062226846955,-3.780991129518581,-1.3024213364090578,11.52780634576141,5.752652758255271,5.450060669997633,1.5076617299393096,-4.442980086299451,-6.171307751605629
-5.0,-3.4510052133408093,-6.712539351578617,-3.261534138238126,5.096345570826033,-0.07464089538384755,-4.964293927942651,1.9880581019166672,-5.378324970485078,-0.6701525419628935,-2.3292401892295604,-6.048032170986328,-5.2884569702126285
-4.0,0.8493460176410434,5.474763793549734,4.625417775908353,-3.1489358625926496,-1.8535887440600716,5.077485667847826,-8.053373181026519,-7.968862822375688,-0.2093050317316658,1.862934827949302,0.6239305021838044,1.5791462548870343
-3.0,5.959311719809076,15.6429394379489,9.683627718139547,-10.7863508475517,-1.8907165360976306,12.617695556935017,-9.350345969569089,-4.745952063574316,3.220426914134336,5.5067704776575574,6.206073633041175,5.762616666018607
-2.0,-5.9923010389736096,7.10633456546689,13.098635604440448,-0.6161671301245359,-9.561891912156213,10.141586737726072,-7.362195061225936,-15.177513596621989,-0.7930308131099331,3.548356504909621,4.793195292935976,3.785532194400081
-1.0,-5.130689826846405,-5.598795857499576,-0.46810603065295986,5.3917292690145455,-2.3431814146541248,-3.0679481899682086,-3.6668534802034225,-4.976475246586439,-1.0404216937045243,-4.660325814152922,2.5144213137759275,1.596326903333118
0.0,-3.1978668389613896,-15.108265350882492,-11.910398511920722,9.188878003970721,4.339774031808316,-13.540077609844992,7.076597047908281,3.9271506401083043,-7.936370988406228,-7.781596664807713,-7.17275758451205,-5.203784207167237
1.0,-1.3077497785929177,-3.1623261913900222,-1.8545764127967308,2.200934450299047,0.24465766321760407,-2.458207175410351,18.67744769007747,17.761188205437655,6.131842048456496,3.000625895772499,-3.5747292055396453,-4.184245787339359
2.0,8.621843350284024,13.954389639489875,5.332546289206016,-11.314861893159666,1.6786315178216693,9.615924680367359,9.88123246004744,23.770915836432565,13.32213706281262,14.415598790494865,10.321360229664364,7.098429840605576
3.0,12.797466844119809,6.962782751724622,-5.834684092395151,-9.82350633301781,9.335182027165686,0.6152067463967869,-9.254760622419944,4.724223448881724,-1.8181827395205707,1.8060387760737995,6.427345532348831,9.746002603967733
4.0,0.187940347141347,-3.5171632922288816,-3.7051036393701744,1.6435446580610593,1.9559617298000047,-3.639722472964685,-5.316114481124388,-6.757974729262251,-9.3474001277774,-5.282751959166932,-1.4761163853877373,1.494909804227212
5.0,-4.126271782419145,-1.4374588719782884,2.6888129104408716,2.7581617178426945,-3.4006669246891783,0.5950203158586254,1.9717573075512007,4.421730569152608,3.606891513497118,-5.1772226348639405,-7.6311617543917745,-5.765940712181564
6.0,-11.118436883782284,-3.3850446156471543,7.733392268135147,7.30107759224383,-9.415252419350212,2.219022891198152,0.9944951801110218,-8.31823610934639,5.716809222091893,-2.396893418203251,-5.391703050864034,-11.078133187062228
7.0,-7.689776449390681,-0.5093364775532678,7.180439971837353,4.062791559981002,-7.417133044043143,3.297373276277788,6.528720498693357,-10.575169221143474,1.6663616406015487,2.315061328568229,-1.7392470953577948,-6.2952608885975145
8.0,-10.17179465191084,-11.664770555481415,-1.4929759035709456,10.87456872170661,-4.392914850048507,-6.543110543343472,-4.829063060215043,-16.85901810822446,-10.685615567029132,-5.488864355501495,-4.98666019001963,-3.168685685250288
9.0,11.126001588798719,-2.8222020096493887,-13.948203598448654,-4.121235140680515,12.488016982638463,-8.432719908869377,-23.33170425857279,-13.964032182986298,-13.546455037578642,-4.779150978310258,1.976733136324219,3.247785319512982
10.0,14.77013372778803,2.4516203636782214,-12.318513364110338,-8.580443171586513,13.574540327194157,-4.905537790415843,-13.37806132104504,-7.287701251253377,-8.893764494479266,0.0856402693872318,4.202225403932376,9.728187405446494
11.0,6.4644470497494275,15.599479279731895,9.135032229982233,-10.997389493379865,-1.307505927322116,12.393807754032286,13.525879968623688,17.186957468856797,14.836833508235182,11.544165013221393,12.356430300840138,11.522345941942437
12.0,-6.7304821697604105,4.115697297232535,10.846179466993217,1.2703386743791194,-8.763884867721718,7.429677883029926,33.14998650994812,27.394768543947457,20.656687754578286,6.556288583487092,2.6525762981766334,2.1964503507818574
13.0,-0.9725842619789491,-0.11047676931309391,0.8621074926667038,0.5119751707943091,-0.9737108639721832,0.4062844075351899,23.30333336802012,20.278308655096126,9.28697676350827,1.1613710885744464,-4.554575521987122,-7.95280367715883
14.0,1.601840243044288,-1.4230422167005845,-3.0248824597439725,-0.03521356848281343,2.336352014256973,-2.1892488013912406,-7.278616338924802,3.7054779501317583,-3.125442721209181,-1.7380186867019198,-9.715655947471289,-9.864262204217477
15.0,-8.023339689930273,-5.549295542075649,2.474044147855085,6.762162510286714,-5.222352547818086,-1.577201455665012,-28.887311851029274,-7.222657550995509,-8.470539917067942,-4.5023766107696925,-3.586815977791913,-5.309700695061111
16.0,4.149426684323094,-3.4464887592918627,-7.595915443615123,-0.3802345430826408,5.903872040708208,-5.557049322179674,-39.62190231471934,-29.083268098253477,-21.247100535995095,-8.510628251256431,0.11962106101880288,2.879926036797971
17.0,10.302019431731301,-9.000102641295578,-19.30212207302761,-0.6878974468191776,14.758891197872627,-14.105747556565746,-15.601195131279555,-31.397487280158273,-20.973453768897688,-14.306057641962564,-0.5970656894996491,3.641851014377654
18.0,4.011727170780823,6.30553251123698,2.2938053404553713,-5.125685652627217,0.8177882177461502,4.267430824916285,19.752951352481354,-5.019564684946909,2.8817116225979067,4.953000187010212,5.652725671761341,9.210417723156
19.0,-19.667294428925757,1.5048743998690595,21.17216882879427,9.107733639049485,-20.38336040182104,11.385112064186421,25.701263189532924,13.008492666174,21.658019811017684,11.04542696472769,9.628483915932199,2.1722128283659563
20.0,-24.869259753596644,6.151710363758371,31.020970117354786,9.38338943855327,-27.991350985571128,18.553453012567918,15.768039515137401,16.982269506898206,21.800556081592262,13.079369005490422,7.503284300806799,7.1904760188153425
21.0,-15.115680399384663,14.160745205085536,29.276425604470237,0.5047974417056,-22.16839201455546,21.76304505791717,21.377298662489515,28.254311932007745,24.46349595757494,18.036121071222215,4.706116590609458,0.0006360542758720028
22.0,5.821931615830977,1.8826625656208895,-3.9392690502097505,-3.898172061492426,4.904315291253857,-1.0645949078735377,16.303670397085273,26.90800736038797,4.115457857337365,3.6629347591894934,-3.728105117511534,-6.704408762910309
23.0,36.88986532356959,-28.026883803804925,-64.91674912737416,-4.4717712416123225,50.92522466076756,-46.51046952587696,-10.694973639128886,-7.109998112741879,-32.90818867391478,-27.84129073458786,-26.74398360893724,-20.31431647419203
24.0,38.99406200049802,-25.13449858881506,-64.12856058931273,-6.888166829453873,51.58368938356375,-44.593609237169844,-22.94479021064271,-28.345271362277714,-36.89731516460666,-31.555126369142563,-25.138545094104565,-20.67676334790737
25.0,23.29668947782956,12.338875883899727,-10.957813593929771,-17.85544768066106,17.0727856148889,0.727234873847662,-28.267350168157275,-19.122480861710393,-9.870830335818216,-4.074895613981287,7.014789602569999,7.198793837976312
26.0,-12.50566902846646,30.830145484128806,43.33581451259498,-9.12496951423371,-27.97289766594888,37.04141392258635,-24.727308188862686,-9.425913079621093,18.903766280672777,18.35082303742406,24.93679747877913,23.25436785681321
27.0,-39.969275604333255,10.49968144861588,50.46895705294868,14.687900777784844,-45.19042312722844,30.445313854408827,-5.2364979299318595,-11.345981525710842,14.412140183284308,14.845040098249997,15.857936016022768,18.5432725202448
28.0,-32.4681729852344,2.685343109753819,35.153516094987744,14.91847876122188,-33.78028344263049,18.963578258140522,21.062156724516985,3.007283699257938,13.473615406821322,10.31888098117962,4.246722469710681,4.669675786039676
29.0,-15.154917983098176,-8.401327842676059,6.753590140421753,11.802879020302006,-10.921803812675698,-0.7745005031767835,28.257078674424935,19.5628461266939,8.854057599496274,7.135602924877303,1.2910253905966638,-4.715747403665411
30.0,3.7890008768919605,-13.89166596525064,-17.680666842142774,5.077059405082922,10.690550757918501,-15.81126375130709,18.018413372383645,17.890067339633696,-2.7209693597225044,-1.5859000806335426,-8.084245569607011,-13.470916783655545
31.0,16.472136074824345,-13.248358263361272,-29.720494338185603,-1.661113099037541,23.132755511986293,-21.508188290489187,2.544909997724851,8.385613619393206,-8.192434593068585,-8.937780966565661,-12.129024012299002,-7.546800464602045
32.0,14.767948114497027,-10.219072530015072,-24.987020644512015,-2.239584317816867,19.836864209516357,-17.629926140609033,-8.95705955397917,-1.5397971156951797,-13.386727832787084,-16.484342681123398,-10.000914827499427,-8.614162098152455
33.0,7.454024879873845,-0.06990550344993274,-7.5239303833236555,-3.73050296374654,7.449737737108094,-3.752896504023566,-12.338913099965925,-9.066261162304643,-9.436984501347709,-12.399948118043689,-0.33600895858428537,2.3402072119245645
34.0,14.680609887561822,18.040356204971054,3.3597463174093125,-16.39418027874541,5.701259041575424,10.653967150242735,-12.219780320649662,-11.949777309390072,5.176690922161351,5.843713093656927,7.004087280504462,9.23195652149052
35.0,3.7775247201644664,16.27764405057973,12.500119330415274,-9.978511802125016,-4.3189605869384025,14.409119854794383,-9.875957176744889,-10.882690189756126,4.786044365937967,10.276006668680735,4.530026772743535,5.464753263542977
36.0,-12.263670821815296,11.00921900242871,23.272889824243954,0.6013515454830873,-17.803086182450357,17.150701142953864,6.349264279129899,3.1534495807842795,10.944393091460622,15.465355045171723,7.9784513984860554,4.576861104434771
37.0,-12.688670358833905,-1.8931737820957588,10.795496576738087,7.347826633324766,-11.696977875187565,4.454535100552759,8.760846504739888,9.094938546498515,4.102848524367692,9.694638801275193,6.847123687237884,-0.6552930062955507
38.0,-5.787468209012191,-8.845768261798934,-3.0583000527867146,7.298895969790189,-1.398176374937222,-5.949311776055447,10.627869453658551,8.326663996943054,1.4686959202202323,-4.39822560283633,-3.561944199633175,-3.6283292961942477
39.0,8.087703751386236,-11.030361253461663,-19.11806500484777,1.45701067545275,13.568025870215482,-15.066748692411126,3.417299862711471,4.015255569369616,-4.412716447519617,-11.161691557570338,-6.395255605400621,-2.883150563067261
40.0,1.3434687706789594,-15.970015898958852,-17.31348466963764,7.3004672088195806,9.291662818704186,-16.625758914453783,-9.427806123506963,-9.73759960018424,-11.277018768693512,-18.82176794240108,-14.18618337870231,-10.36130080341356
41.0,1.350469056794959,-4.3667297987763325,-5.7171988555711915,1.4939283845617224,3.574405997572013,-5.094820280700824,-4.464859009866751,-7.595362633509543,-8.502769568397966,-7.666101646586098,-6.206933921934203,-4.210070619548485
42.0,-2.1011994864160615,12.26356499842601,14.364764484842121,-5.021354227755913,-8.192010956647433,13.348904484106804,-0.31286139293022774,-0.20238806117219532,4.489742375307817,10.02648694361666,6.932215388059149,9.827698942810343
43.0,-6.847900528456079,12.96186633717914,19.809766865635176,-3.0835299895026473,-13.285496235359041,16.347817826931145,1.4341292313494618,6.295094008336051,9.331216787231968,17.186249383704812,14.284937712606956,11.183593496312582
44.0,-4.334760972607239,-0.4121954764367466,3.922565496170396,2.3376992510985657,-4.160811329367581,1.7983516761240406,2.155634560822393,4.675616228434315,3.8429508378916566,4.578634875534894,4.5474172319155075,1.1445694983968941
45.0,7.148055841812144,-3.6634143264306402,-10.81147016824288,-1.7081496190497432,8.94998202985094,-7.273961651044486,0.11582617436599452,2.6420439652172067,-0.6729508588974991,-2.961727743204923,-2.3783117756584904,-4.429398003826446
46.0,5.664321710425638,3.0214531689167234,-2.642868541508941,-4.393475478722237,4.123839582749683,0.22820632943896024,0.5590704506475672,-2.9994774054032183,-3.622679523991045,-2.863651395948929,-1.8490658860568234,-3.2840142150757297
47.0,7.613518905213143,0.30391843129554064,-7.309600473917565,-3.9318154566144354,7.429273506735054,-3.547079926963897,-2.3944909747883902,-5.600526886216079,-2.458085337941239,-6.745881917974462,-6.587738648625759,-4.872764517012895
48.0,-1.462703009537841,0.838162635191054,2.3008656447289852,0.34338883093643147,-1.8392999707299733,1.599751637442031,1.3496727890486317,-0.17554034115568617,3.416457190178072,-0.34670472187552637,-3.447684449406374,-1.0287284402643029
49.0,-4.30517219494658,-3.073522986687684,1.231649208258976,3.7290818909122505,-2.7296525710708637,-0.8940102661402767,0.847994495045627,-0.15096024437416222,6.444250455342904,3.807456144453646,3.6655968057259614,4.852704311360364
50.0,-4.2811283137475975,-7.68217150067313,-3.401043186925487,5.952898953441949,-0.40347364705368216,-5.595455835516626,-5.031721288428912,-5.715151769574967,-12.106588159352741,-2.860470531854345,0.07624819558484458,0.8121345121795669
51.0,-2.683707941441691,-2.4451843143536327,0.2385236270880554,2.5441049468696777,-1.5036941982275291,-1.079280833094528,2.423257997201577,6.61321853687935,-1.6966819199265668,1.5719758887175612,2.744536003379048,-1.7623235880195594
52.0,1.0476205113358374,9.742381658715075,8.69476114737923,-5.411660492953176,-3.8654047142608308,9.242611758203754,2.169382696654565,6.161950325542627,7.468447410547766,1.505243299817217,2.4519814022889452,3.6076547557664513
53.0,-6.5162275373440135,0.3586615812447125,6.874889118588712,3.060015141713529,-6.657680451216012,3.5626025237079513,2.9570390005519256,3.7281672775216452,2.2675586869057525,-0.13597899709389183,0.17372446938164465,2.717206274543038
54.0,-1.2763319703545895,-3.463869356013872,-2.187537385659262,2.344560712156377,0.41534236292948545,-2.800118585854805,-3.0081074660033345,-5.139999222669873,-3.2784188241169177,-4.313032653408718,-4.880380752595839,-4.3279270023910055
55.0,13.692559045370832,1.5324730370768727,-12.160086008293952,-7.568042834853857,12.965102004195401,-5.286527381749364,-1.3052324398987762,-6.008997810138297,-4.106515651644257,-1.283298359018774,-6.754315498267548,-5.889717194054882
56.0,4.852833673966378,1.7178736739850524,-3.134959999981308,-3.24859969500134,3.9543328917208633,-0.7571843618653684,-1.7078572195172903,-2.2351583200969856,2.3174600388331092,6.342970465266168,2.1683505746362335,-1.4420348202194324
57.0,-5.330338693838624,-3.851399218660462,1.4789394751781606,4.622902546946586,-3.364495975685553,-1.1516280146620974,3.144278768455936,1.4014670643542035,3.054616598086809,5.134537734529447,6.159821407028875,5.805350672646209
58.0,4.672408498856308,4.625487624047134,-0.046920874809172064,-4.697037228090607,2.4013954925516625,2.251686282056143,1.2584892384432185,5.042419113642932,0.6922159645630561,-0.9557630355086566,5.213010698513072,3.9415658640061384
59.0,-2.675003434297762,0.6828307604103062,3.3578341947080337,0.9489207706358056,-3.051523912933916,2.0701153122261013,-3.3877836360244773,-0.4656826231270492,-3.5175956526906322,-8.460914800531611,0.45456659803866284,2.3584697988280103
60.0,-7.0064381541877,-4.016370934388411,2.9900672197992613,5.54453188658414,-5.031471519138014,-0.5319618132796005,0.6887866482118115,-1.824921957229802,-2.071879706266273,-5.302248532706416,-3.7768372353908592,-4.1642268011288746
61.0,-5.753698966568145,0.3185945965801047,6.072293563148239,2.7513336297430118,-5.94431831746304,3.187138963801945,2.4349669090542663,3.5992419281485817,6.71458491431878,2.986142285420842,-5.4435090901640155,-1.3476362039268457
62.0,-4.0417943187982095,4.911662190115182,8.95345650891342,-0.4809712485915789,-6.447719099276135,6.933440395678211,1.3703157674625221,2.4352862309401195,3.9884461652456125,8.834944088656387,4.534305351318532,2.049669694555332
63.0,10.905079897965063,2.067302126801296,-8.837777771163687,-6.456239125730012,9.846379532329196,-3.378338788865693,-2.4718626998955058,-3.61443702248178,-3.2350000337221436,3.8139264741189205,-2.1321222715403048,-3.436017624849636
64.0,7.56651999342894,-13.37455294316467,-20.941072936593518,2.851585761869872,14.312834095087075,-17.149699634622003,-6.347828922984374,-9.061329860736498,-12.532645166352628,-9.168945170730055,-6.631083940174469,-6.675845458796584
65.0,-8.052201733079274,-4.91143660695804,3.1407651261212948,6.504899063569505,-5.6101010582735436,-0.881786676502081,0.015201513540261224,0.24649840856205163,-0.06293144115730964,-0.7878957550188828,4.104037530741026,2.54044539389763
66.0,0.6129594510114821,2.8273564630167947,2.2143970120053074,-1.6987799699010144,-0.8092329676866018,2.514213197239642,3.8865065762709734,5.911348408453846,2.3008822902095343,-2.2527399074603873,2.3973819109852306,5.2624335152579595
67.0,-0.9855798913071541,5.403895625073595,6.389475516380674,-2.187482888912061,-3.6940007305515294,5.875701292382946,3.845560867172738,2.945792169221928,3.5748754529149167,0.8111615296873287,2.1277884858531726,1.7902229338007891
68.0,-1.4516067975130726,8.818830437315974,10.270437234828941,-3.6600864306247654,-5.869971182340569,9.5081134088987,3.806612342275612,3.051988072873921,8.31391066997526,4.030013520882889,2.942692066057417,4.386548357940097
69.0,3.772281132339354,2.585456912420495,-1.186824219918976,-3.2317327702165106,2.4635456998834444,0.7284365181968706,-1.9792374219443107,0.04584779583572285,2.8663648086841773,1.2213049959362903,-4.299047147688345,-4.669797184855952
70.0,5.884137865118379,5.1078586769757415,-0.7762791881427316,-5.54695495458512,3.3041188169566076,2.1875270018038284,-2.3525886548583186,-2.037757862836459,2.651418775063983,8.336835703689223,2.7134559259392526,0.9134738223544225
71.0,5.005748308037499,3.1354988233671413,-1.8702494846704132,-4.0416879110592525,3.4802805128779952,0.6544748570278491,0.4207011629596167,-3.39465336567923,-7.259877740045675,-3.820342869716735,0.2994640457580071,2.8867842841235114
72.0,-6.143138142962241,-11.938318224150077,-5.795180081187834,9.070454827899393,-0.13941972651285872,-8.837763887730638,-2.964098877207754,-1.278183456309677,-10.305266122482251,-6.510784921105833,1.9071567491510992,-3.400001463787954
73.0,-11.256609819301563,-14.799259719840684,-3.5426499005390766,13.058821071507133,-3.9040905670947446,-9.209116358775495,-5.999747425710194,-0.9859248053404941,-3.8941054743250456,-6.040145515572096,-5.552715942296606,-4.751752989886531
74.0,-7.8903656891857334,-8.826979404814335,-0.9366137156284828,8.312847625737867,-3.4427001406551447,-4.907537558173775,3.112439730939037,2.970294945913111,2.478849632770019,-1.7147491783867825,-3.5427321872690847,-2.5437427111667326
75.0,6.51750873652035,6.74797193095146,0.23046319443124186,-6.596833578274076,3.105959087274288,3.473272150865654,4.1730569571849685,-1.2026949839957395,5.850488696951602,1.5035229724723969,-2.956697474284494,0.03308740822767628
76.0,6.7537275993838595,7.914680563107516,1.1609529637237679,-7.3734052284541,2.846787608403075,4.526803412173981,-1.6895555387942385,0.7666807484004134,6.467832435727098,7.230853474417627,-0.9546835350819296,0.44137535604648503
77.0,7.802349283322894,13.173058149671567,5.37070886634871,-10.523016319181837,1.1960160603271321,9.338974339508667,0.9655689469431104,-3.8786988501627095,-3.452182516144224,2.738282797988039,5.321684415517787,4.47140891930672
78.0,-4.090919030904284,1.968569268075484,6.059488298979738,1.108281363860864,-5.089753362658165,3.9966849596671237,3.4449417689608617,1.908081479849242,-0.6156961327059267,1.332684272157116,7.472922033543315,3.95263948214623
79.0,-5.275303678387168,-6.285493268326951,-1.010189589939856,5.830340033873362,-2.1467294697829353,-3.674611977408733,1.3786898766363636,6.080510335681771,2.9495590227548543,-0.46135850099427256,1.5643392044021098,1.332002792656089
80.0,-4.6439826656405145,-6.0670368683748865,-1.4230542027344384,5.327876874445392,-1.6292373923964607,-3.704588739803003,1.5867944471258029,3.6534765002184297,0.7676884348428706,-2.523023650657736,-0.2079385489107698,-1.477660384166622
81.0,5.125437625108163,2.284591552941195,-2.8408460721669866,-3.7339590574700363,4.034845459703828,-0.32829366470356725,-2.2795479340284044,-1.987688034046872,-0.32152055130327306,-0.6137956431074318,-1.5503394127495853,-0.34535889039951284
82.0,6.316744839116869,3.285001552937425,-3.0317432861794384,-4.834005033167591,4.637407868276397,0.14464725435841963,-6.8018170555929105,-7.113121091025822,-4.6339189464142105,-4.548215380385383,-4.620712851914826,-1.4524880275891383
83.0,2.5800513776688025,-2.609105798028764,-5.189157175697539,0.05348271022034751,3.9174666743145257,-3.889010155169215,-8.207171525422035,-5.390004518281982,-8.360648167674412,-0.6523374615512783,-5.589460835133968,-4.151890862770515
84.0,-0.2163041270570633,-1.1649804195271627,-0.9486762924700745,0.7216291784917239,0.3924828085450449,-1.0510881162032173,3.969138690233492,2.666142985043217,4.161929271379908,4.409188249713634,-0.040018504041409386,0.3906822938074517
85.0,-7.346629560300138,3.79155939972037,11.13818896002051,1.722063883441005,-9.297954849958654,7.469966356862719,8.467962805278592,6.103024759635046,5.282335030365241,2.7035142072884626,4.544190376050487,0.847060837476901
86.0,-5.086714675006296,-6.592062675020699,-1.5053480000143944,5.856683409165428,-1.7667835047833753,-4.040864124229874,5.924879880630234,1.5672033423454317,3.726910388743014,-1.7942981241198477,3.070029123940682,0.5734008460070968
87.0,0.6572788578406015,-5.6550711751564275,-6.312350032997026,2.51285890033187,3.4343014377779633,-6.049135665560309,-1.3418149538926372,-1.617208820928512,-2.9898553774431527,-4.464458994588178,0.10842258235245605,0.06997540313720974
88.0,-3.141237495117565,-1.8028229694049576,1.3384145257126565,2.485452988219691,-2.204118627800793,-0.21145283399237225,-3.2508262316304677,-4.855451887883851,-3.4860340466411572,-3.1272155833466,-3.3097189401143554,-0.6085247834079213
89.0,6.68078328367085,18.751872252437877,12.07108896876711,-12.70127739896523,-2.649787032293518,15.44068418053162,-2.3360192774258985,2.1829621596948465,6.5110326050073395,7.678849367537138,3.294360191726304,5.119367215692804
90.0,1.2747856349429831,0.6824267070914534,-0.5923589278514481,-1.0395608598277155,0.9105933540286552,0.0825363480102288,-2.230763672147937,1.2105915966557503,-3.1958347313329187,3.5170755597606114,-1.1350720908811323,-3.2706238013170834
91.0,1.4914361244271408,-7.867580881829493,-9.359017006256629,3.208773177468709,5.41165927487019,-8.64785885353643,-3.269760796025178,0.5838074138213372,-2.217281275002001,-0.3921717220704781,-3.5096323335366857,-0.8379805912769336
92.0,4.064241719779886,-0.7030100884908848,-4.76725180827083,-1.6572847731304607,4.409040162234621,-2.76604030957314,2.9078268356412096,3.805249988706673,1.444418891730056,0.29569360395608624,4.1981807172786185,2.0323870717847603
93.0,-1.01883633456841,-1.8523547681756591,-0.8335184336073485,1.3827320533322212,-0.09590231937254057,-1.2953243186782366,3.51934667216667,-2.091055915193977,-0.42657415271458526,-9.356764092410646,-0.23680388341354197,-1.4370140875016013
94.0,-10.156964513746786,-5.1550875547552115,5.001876958991501,7.684998919752818,-7.58247285135984,-0.1116350321725963,0.4107671103387611,-7.094233193498022,-2.8588076052730402,-4.243651727434062,-3.618229672064071,-3.206147700034905
95.0,2.6605927495573685,3.720221008433387,1.0596282588759967,-3.1572517218788487,0.7952821774535757,2.3487010797119456,-2.0476817203337294,0.11373602351935608,-0.9662140995252313,5.533641490870356,-1.1296548719790387,0.6884309316045014
96.0,5.524608274162251,6.602241664995569,1.0776333908333546,-6.1036596301357555,2.2150128927026214,3.871053030020387,1.3864491891161121,5.088136315013749,5.557965083591954,6.42155277720191,3.9530908263662825,5.7029915426795466
97.0,-0.7070707144858288,0.16461324488416373,0.8716839593700407,0.3156633132355666,-0.7226585371144684,0.544609767574836,0.6052481048468894,-0.12387885889698502,0.6971823421544228,1.791746606425975,1.1816667513637602,-3.1366260166518134
98.0,-0.4291231228256163,-0.14911067265167888,0.28001245017398085,0.260077238650072,-0.3703988919076636,0.08999650508225898,-0.4837882150815087,0.92171915233358,1.520593120116955,1.820459134010703,3.8097287633183163,-0.22658212240414166
99.0,-2.2794537464777047,-1.3220214133747554,0.9574323331029676,1.7749328568224136,-1.6390466406995463,-0.15736378043010107,2.7788582234293777,4.005075608067125,0.25413482439762086,-2.741732550928605,-2.9656331259644597,0.6102193031041536
100.0,-1.3073272685415158,-4.9227807900058265,-3.615453521464311,3.1680773454956603,1.1267308970703824,-4.3217801800497,-2.470903655840859,-2.797472175622178,-6.165808664473215,-7.496688345259707,-2.835733570306902,0.6462252708252614
101.0,-4.211353015471366,-2.279408441835279,1.9319445736360692,3.216117966595676,-3.029456060498733,-0.2261698872469431,-2.221433554952778,-4.217829661961806,0.09304092634495875,-4.9681831093272155,-4.191183270924359,-1.0443098727461408
102.0,-0.014593665098677988,-0.29767469054960505,-0.2830810254509304,0.12009157713664176,0.08636640417202385,-0.26570653110579867,-3.067325044591379,-3.238054879399936,-1.2310651148813079,1.7165324593027687,-2.136210938713093,-3.1583766682504026
103.0,4.146116518105466,1.9058278588729065,-2.2402886592325615,-2.992168616520041,3.2120753339555717,-0.14582399991156708,-0.8874059420942755,-1.0886018261652164,-1.4179934130886431,3.5713636905456667,2.8391688339730217,0.028057156603817246
104.0,8.507462920270989,7.164007952758112,-1.3434549675128358,-7.811381003457504,4.9337220958801025,2.927960451667323,0.5889921056811787,3.589733812209738,4.526868333557018,9.297210907028294,7.0404897196898855,3.3361035370285808
105.0,5.1751110769015245,1.6829746751639139,-3.492136401737553,-3.4130079615752864,4.334763000126295,-0.8895818193241183,4.995725585614251,3.0689680692556136,6.080597549717716,1.7630660087463985,0.2255330862320739,2.748564201639901
106.0,-0.9607722834374977,-1.371186254593115,-0.41041397115555367,1.0975853809730414,-0.2762231523358647,-0.9549150769158901,3.4209775474306388,5.885423088801963,-3.2056493146867298,-3.1464176521449394,0.3038240336633746,-3.8467913756031544
107.0,-14.757163131636814,-2.565883266516386,12.191279865120471,8.670056449258855,-13.472165423599256,4.830041316891492,3.576901280123219,0.7201643566367397,-2.7156084930041464,-5.388104785687651,0.13421128639230495,3.350114836032706
108.0,-5.732419045534271,-2.1473250302512863,3.5850940152829627,3.951196619624514,-4.649219177447986,0.7420563209561933,-4.504084296000333,-3.018519204733526,0.03532025053559029,-0.9901653711785516,-3.6530124661224974,-1.7726430952581818
109.0,0.17457734903252842,-1.4189979194176099,-1.593575268450226,0.6409399264385591,0.9035792104623996,-1.474893595683576,-2.7757479026966347,-6.786227678329305,1.341611651577435,0.3857189968475221,-1.4699314533270993,-2.319957159397188
110.0,1.206479523454289,-6.573665132635185,-7.780144656089588,2.7132763846800256,4.444197775122891,-7.215050523053687,-4.160376242230832,-3.926098948057538,-1.734887774885665,-1.5878463794276365,-6.510964368278714,0.11344912449458167
111.0,8.959348557415726,0.4107586778622574,-8.54858987955355,-4.721770767784919,8.791894144205617,-4.098575356059177,-1.487556332499901,-1.5965463295189828,-5.333436545172714,-3.5882454540190714,3.116040209523992,-1.9037275336079067
112.0,11.641828964359181,13.897934538504256,2.2561055741450433,-12.79568700081065,4.657388828078297,8.132356558757214,4.689537972059748,5.794365701528402,3.0639678939964963,6.258476602493316,8.90241589106737,5.619301033821445
113.0,0.760404152478932,4.7286635010584135,3.968259348579524,-2.6848963653093465,-1.6369258427294913,4.328194050945348,-1.0695999512366368,7.732779632653951,3.2677485261172023,3.761747860531966,1.9226108451243222,1.2217377684705188
114.0,-16.144045220305784,-10.260876036492451,5.883169183813399,13.183888233607068,-10.9673028864582,-2.2090510068612126,1.7755831711618015,-2.9349575826347616,1.7893543304174422,-1.8993827678761699,-3.8551423030901995,-3.8286655034718855
115.0,-4.927011351474559,-0.797668959154973,4.129342392319643,2.8377114760652846,-4.4820128613933745,1.6434892854867706,-0.8256709256576684,-0.6892454056948238,1.036959749300429,0.547879514439677,-4.968246861913575,-1.294699366936435
116.0,5.295794644179121,1.0601549083408734,-4.235639735838218,-3.213914739497424,4.733161502107991,-1.5343636793470357,6.159708253309459,1.6236768956015915,-0.22289752853672384,0.23980814464529698,-0.08062702135534439,-0.15591492437458987
117.0,5.131834219080686,2.820965256053511,-2.310868963027173,-3.9472638209008446,3.689188546489246,0.22706413565313166,-0.1072091167438669,-3.1643588105991816,-4.11633935622691,-0.42898931414262687,0.7323029125015206,0.9108915717207824
118.0,0.9813640350725263,-11.055701766311222,-12.03706580138376,5.053895306054379,6.556191538052487,-11.497113509628276,-8.284494167491669,-4.589877614229293,-3.47227926117087,-5.029830256976042,-1.396851103386901,-1.5167537880736215
119.0,-4.418009812287635,-1.8865168946909097,2.5314929175967205,3.1610580381591538,-3.5067203492292207,0.2925403253034795,-0.28329157099316093,1.612654139891089,2.358200007074261,0.014343395249352131,2.6032690655676958,0.8180530021095096
120.0,-4.082685104882959,8.54240493182218,12.625090036705142,-2.2227361479465193,-8.387132142894766,10.55366453139197,0.969685501316021,1.8938911037183621,3.278422445717871,1.8459292538266712,4.888694904420784,3.178572143510287
121.0,-2.0541894064746558,3.700081282960118,5.7542706894347715,-0.8113541223776821,-3.8613635003528044,4.775195292428355,3.8833192600077653,4.07562737082543,0.7879981048117015,0.8209771045373286,-0.6288420745013341,2.272340772176917
122.0,6.5864625590853585,1.8411288701412234,-4.745333688944143,-4.272188414625324,5.704656021180083,-1.4845313775460913,1.2656732965096396,-2.5591303214495325,-0.24585316928305967,-0.14420362196219672,-1.4049275258851968,-0.5682214244852585
123.0,4.535248781660112,2.3658244025005577,-2.1694243791595538,-3.4200031641835027,3.306804725026656,0.06302890395590999,-1.670590136115992,-0.698272057628005,-2.1653671847611324,0.5342361697717667,-1.5836729886739627,-2.1043837795958553
124.0,2.770119949989038,-5.088537952602003,-7.858657902591011,1.1982709060539127,5.340945556143432,-6.433328327525336,-4.509053190367406,-2.2008773819442005,-3.193818834049156,0.19149147692735008,-4.041406295429755,-4.270865931569033
125.0,3.3548970731666823,-0.043667091021508675,-3.398564164188131,-1.6908043676881728,3.3175677712492346,-1.6841017047733735,-0.9619130664050957,-0.23351414550941751,2.7004290716387085,2.916403327845943,0.7732703111264314,-0.1665866551676798
126.0,-3.068648286148198,2.5504051722341377,5.619053458382414,0.22337413091697855,-4.330141996546592,4.040189271925907,3.578586572078076,3.4632292088475847,0.39874407693978164,1.9564292464468895,4.9800289376088305,2.710578214109665
127.0,-9.28400854507841,-9.111074063259586,0.1729344818189107,9.235598219829063,-4.717877995288109,-4.437204114478686,2.1868020409755307,2.653718213779885,1.448738770368009,-3.9593024701979846,-0.676443879375102,2.1329262763749464
128.0,-9.080236460557478,-4.324661507190987,4.755574953366535,6.65459802251986,-6.9064032306355765,0.1664126673901476,1.9223338499114662,-0.9418362152001283,0.7036122573212014,-8.141513546368788,-2.3136086394296376,-3.3575259356490212
129.0,-4.1984343126454275,-2.401285991121091,1.7971483215243307,3.324302067352566,-2.981235253187969,-0.2746487361582154,0.03897499563167761,-5.1630979009569105,-2.2613684893931754,0.5076497187308164,-4.88824034011599,-2.4464292569942083
130.0,9.821459084981399,11.323546460508599,1.5020873755271245,-10.551290274403136,4.184070152920963,6.437680460271875,-2.2366303654256474,-0.7327518783410967,3.989330184900324,5.976144500714543,2.6696942929962906,2.679777800784999
131.0,8.243557762192712,5.897611299750983,-2.3459464624418302,-7.048266068922836,5.248432254979953,1.7192056628208991,-0.831770105256536,2.955397679255941,-2.8309611001559514,6.313384707287449,5.6147545451309,4.577528540394902
132.0,9.73475151776694,2.892478710137674,-6.842272807629341,-6.286628058040091,8.326363714736285,-1.955445428612823,-5.708857177844921,-0.43037587899226404,-1.2916803805805583,-1.271180022461054,1.8997825515238498,-0.36209905537436793
133.0,4.0878413077442355,-0.06075391132813457,-4.1485952190724245,-2.0593543327196104,4.078128669164871,-2.087567191201244,1.7216564530253287,0.9249518703553499,-2.5459298700336057,-3.737976978956204,0.1385457605814353,1.8429427135129313
134.0,-11.548675883992846,-2.9440892656916793,8.604586618301134,7.2050759570020935,-10.120788393173264,2.845435436978906,2.8902811290925094,2.2967200023757783,2.6245599916002424,-1.7654842690675028,-1.5366112596044834,0.2409795291574396
135.0,-14.94076901896068,-7.414535127631505,7.526233891329133,11.216165391559132,-11.206216383324584,0.06943536395363908,2.9140081059213165,-0.7365021021240163,1.2555879100734657,-0.5174278163826467,-4.253134792566611,-6.184890836262459
136.0,-4.789262235901077,-7.804846190099804,-3.015583954198749,6.2539741958132815,-0.8672175272664093,-5.476789566427235,0.7083645880429792,-2.347604834396865,-1.2428511198457932,-3.279842951631202,-4.11428020520492,-6.747757949472822
137.0,6.469351960070212,-1.5245075397328058,-7.9938594998030235,-2.442443824091467,7.246140599695834,-4.74811977099084,-2.267286107835515,-1.702522340248573,0.07338785702290246,4.433833736510673,1.119025629450182,4.326765820143704
138.0,12.377821209974956,9.875346259269268,-2.5024749507056376,-11.103096586757507,7.453981916511857,3.6971224165806613,-1.070988183581989,0.04922122224027459,0.3007939885821853,3.3004287554705085,2.8370958328197156,2.3012832887744645
139.0,6.5304547110191375,3.8177517327404304,-2.7127029782786307,-5.1556569519763915,4.6391939807133165,0.5641019261518241,-0.14988584420406714,2.2696275241677255,2.4211950735204932,-0.8547787374271234,0.9266878099435805,2.896604851722539
140.0,-5.798798354589583,-5.923759988334341,-0.12496163374468539,5.799200683240961,-2.8911909365862662,-3.010407378524273,-2.573789576070686,-2.7909266534894606,-3.9917206744663956,-4.390368774423159,-0.8826098577767849,-3.9707354785119375
141.0,-1.8020060283564003,1.9288711479090632,3.7308771762655093,-0.044225407932302785,-2.7340977929785364,2.847305863933294,3.554612782824531,3.4813693406034236,0.23114416896888978,-2.7471228322822148,0.8245909283662568,1.497865973088107
142.0,-6.266027290878803,8.932820351711827,15.198847642590652,-1.3071884390150248,-10.771762841155464,12.008174794497096,2.6086343746517313,3.178596487187048,4.5192448104210445,5.595424589965054,4.135989623373886,7.125328543051204
143.0,4.989650681130281,7.766598340261189,2.7769476591309212,-6.419958092071606,1.072439859866467,5.2956149210075685,0.9346976035167633,-1.4101212195763146,0.45570960444964626,3.536018275790118,-0.24176402998471447,-1.1366967807645754
144.0,-0.4269029523879293,-5.891399760070341,-5.464496807682418,3.208874885387979,2.5674292487512616,-5.653061599417947,-3.6381514851108787,-0.7827325903720636,0.16009212263425124,3.765902916027423,0.9110432895470921,-2.033381381981949
145.0,-1.5102344078599863,-11.22969689665841,-9.71946248879845,6.353613966430659,4.155915260900754,-10.529293959063986,-1.7233530895827753,-2.505296155168018,-4.68894128516948,-5.9043243096566265,-3.3770062160227887,-3.005905111175823
146.0,-3.8134968526367476,-6.487151054654239,-2.6736542020175245,5.1441041319155,-0.5954646452154786,-4.558621318523019,-0.848805378847641,-1.7981381203252387,-2.7461809753040947,-3.2925416325253765,-1.2221308549861813,-1.4865175013740135
147.0,-1.8970561302524227,-6.750394738803751,-4.8533386085513595,4.323102361506864,1.4537120622351971,-5.782738974900213,-3.9288632033753275,-1.8061283557658163,-2.0447531486275863,-6.1796933012832165,-3.6563592190820993,-2.506634949065994
148.0,6.271679372517362,5.583943478455885,-0.68773589406148,-5.928361687625818,3.4553577811797496,2.4653702718730646,3.1842687136104453,3.1979559296286983,2.6559965363514753,1.5992109944545607,-2.0109555220993856,-0.55168371570487
149.0,0.7330962571227708,6.8061922590027155,6.073096001879962,-3.7752667856514583,-2.6166548320595835,6.3781248937314,2.3405056377534788,-0.21030767500583192,4.303017369686401,2.463171975863604,3.190142211069525,-1.4346417093540829
150.0,-0.00010183643072059212,8.73460550042418,8.734707336854926,-4.381362453906844,-4.394714716655953,8.754272737193839,4.778080636433366,1.3548899598588338,0.7964073815429726,4.687129829104148,2.3364210698187344,4.846102693241766
151.0,-7.250866434711427,0.16174356211767194,7.412609996829112,3.5211683244319754,-7.361137385528746,3.81155037342446,2.9749875625854894,1.625387622572231,0.6507102393268938,5.285514053504381,1.8174921484073967,5.069594175449577
152.0,6.969269718983827,-2.287080441364923,-9.256350160348747,-2.293113102803363,8.160729283660668,-5.741016650162166,-3.156020624397729,0.9032001954142146,3.1198409352998606,-0.5375071732093004,-1.887522412999974,2.589285314483711
153.0,6.0029744382878505,0.5050388079072121,-5.497935630380631,-3.209601192375877,5.719551854743191,-2.5380605087521584,-2.9134373899838524,0.41937403078779484,-4.048545946576466,-4.41795117359377,3.016200494383619,-1.9192263995037422
154.0,2.584126036833748,2.437474868272076,-0.14665116856166094,-2.544408704208006,1.414796093258062,1.108628606827887,-3.5073550705761813,-0.6877920619556245,-1.8682793122734243,-4.8458040324728655,2.855132912800756,-0.857893508486308
155.0,2.9547794536091394,-1.1670524055898364,-4.1218318591989584,-0.9232702560764685,3.5118973378142426,-2.6007315344012705,-1.1517159660743128,-2.6655123985075733,-0.35029248388788226,-1.4577026247662763,-3.414418313424873,-5.420797075292496
156.0,-9.046413596034126,-9.102408912970317,-0.05599531693617976,9.050978597527376,-4.517972225626316,-4.537602496347265,-1.897259321000601,-2.5997339979299356,-1.9332301448490266,3.696478476339495,-1.2980443275354592,-3.891999076443001
157.0,-16.415610302620642,-3.0201465434029635,13.39546375921767,9.779052058842746,-14.924751518952531,5.144777114732086,3.8402547764286785,1.9237192794766014,1.8971836212166457,6.221271221350568,-0.8332717616199188,2.3047507570436396
158.0,-3.7323661356959406,-6.5190385150655406,-2.78667237936963,5.11226166347688,-0.4106139384582841,-4.703717402416498,0.6408728322965378,-4.648003175522561,-6.302887335788663,-5.658664780948951,-5.847809823506563,-0.5914312780696982
159.0,7.084517777959125,4.7580854813115785,-2.326432296647587,-5.933359661528803,4.690170816185788,1.2358370914455283,3.7982020832062924,2.827551395798361,2.6687335501086262,-1.0283708262250724,-0.6696010924427431,3.7211290321909734
160.0,5.390573836355081,9.440198197264172,4.0496243609090445,-7.429126159047719,0.6544219599822276,6.759875102874259,4.5311820613556115,7.989929936537857,9.638097768273312,2.1923688326826736,9.943143394190313,6.4510195696057675
161.0,11.124528264300142,6.046447508345734,-5.078080755954466,-8.603564869178498,8.082333114424978,0.49905375963687515,-3.5746061181696387,1.3601556034191602,3.4279004601827947,-1.0418782373980515,-0.3256468568036075,-2.192700563734479
162.0,6.8307198760371355,1.2349800069596077,-5.59573986907759,-3.9782537981405373,6.268141486294054,-2.160065557022753,-4.942697760485299,-4.431118836837747,-3.2898477502887515,-2.4886172898422974,-3.482589827155019,-5.8354836494871
163.0,-0.9594279047477206,-5.148466895148212,-4.189038990400538,3.0230135022334688,1.584911067370837,-4.638768355443237,-2.3428752699678506,-5.1618048271347865,-9.66724463223361,-0.7074175267364038,-1.65093276740794,-3.216328416030575
164.0,-10.623501034413934,-6.391716700540785,4.23178433387314,8.548758792942504,-7.4635122455164815,-1.117551219931503,-1.835995636108718,-2.5862060301675625,-2.4356059172353666,4.353179842423899,-0.7126913981422237,0.7905370307373745
165.0,-1.5649329905918972,1.1635163102374273,2.7284493008293604,0.15705050399421072,-2.1081403542938837,1.9181262445598917,-0.6656609874873415,-0.15476342531592913,1.3633013152475733,1.5134810708701765,3.3451573959085157,4.757183131405636
166.0,-1.575502092288251,5.576827500416975,7.152329592705289,-1.9706880920902958,-4.405385108744669,6.343044934221129,8.36466092795036,7.492672628287421,6.673370074441663,3.317682183896681,3.174534134424051,2.9445422768455374
167.0,-5.328435923149179,3.2667048546233683,8.595140777772611,0.978336499603826,-6.9220518329422305,5.912049727289835,6.023701990973688,7.201310691135495,5.231114910986182,1.0771876411364798,3.9313679844313083,4.047673881263822
168.0,0.3881121213884735,-7.350059388237778,-7.7381715096262065,3.5054383544671923,4.108483490636305,-7.484029284649041,-2.4069255629558963,-2.1730115844013365,-1.345469267024785,-7.3949752194654605,-3.0132992685818314,-3.046906879586674
169.0,8.140724591203389,-6.814413250107748,-14.955137841311126,-0.6377613546685763,11.521396573997468,-10.903963168053027,-8.207667322635682,-9.066153938855587,-8.008333219494624,-8.307652819465448,-9.922894398852986,-10.032370990634147
170.0,-2.073441082549154,-0.16109109655747944,1.9123499859916748,1.067890694776406,-2.013936419206888,0.9350651129041898,-2.0947112773023715,-2.147558495170541,-0.22851623120395814,3.478064679920598,-2.2678051662320553,-0.6692563331201171
171.0,-4.184118124313571,0.6564482084753314,4.840566332788901,1.7998778769664443,-4.531736421274867,2.7294104882797994,1.0130632540428004,-1.407888900264615,-0.3984788095875984,4.077065764029379,1.0176021228835814,1.563692644455505
172.0,-1.3312303614238175,4.401495727912797,5.732726089336615,-1.4910142687545784,-3.554964302844952,5.0475445115614885,3.615602272496149,2.7761870972687133,3.9843532475587677,3.5519266567401075,7.281403902267426,4.122228295273643
173.0,1.250393272354243,5.126448740386721,3.8760554680324737,-3.2155625858957926,-1.2657961694593254,4.479335652435774,2.276994930410207,6.666410349265342,0.867721699171081,3.794576540273119,4.108937752429009,4.604934890316766
174.0,8.636271215728453,3.856000491560772,-4.780270724167691,-6.268448749496527,6.742891587365564,-0.48873967880323743,-3.3248863131681725,-1.664688504125563,-1.7271505135939957,-5.88508091541294,0.38186893015444356,1.9410708310211788
175.0,8.00947262421529,0.4162940627999654,-7.593178561415348,-4.234375269422401,7.74343940696007,-3.542603268518701,0.552216384257529,-1.8378020011032545,-1.4648009029642166,-2.186914016616116,-4.695937577568923,-6.198080724224047
176.0,-3.992189571572728,-3.433486427570138,0.5587031440025605,3.688100478425458,-2.266942978314435,-1.4765690376728813,0.2530484346481489,1.9342881253014201,1.8776790719137844,1.033443853003598,-2.5253864147363663,-2.4242242150814395
177.0,-4.357875919401417,-2.5341340328710795,1.8237418865303041,3.493897396275015,-3.090589860754601,-0.3199993065794082,-3.384513461121991,-3.6605862047521356,-1.155965320333293,0.4191319250487626,-0.859252838524009,-0.5875082738178667
178.0,-2.6751685139801173,-1.4069888698971793,1.268179644082915,2.081830785885619,-1.9735357799049416,-0.03549154579131142,4.5265943747883615,1.6188175633886046,2.470207721392364,3.2196496216880677,1.1649941567400568,1.8481732641787174
179.0,-5.917980386708768,-0.7610409841125181,5.1569394025962385,3.295128471592473,-5.534166571771583,2.154958488753474,4.798566899069309,4.797430594512778,3.8123047657955866,2.692053780979626,2.8366260879761134,2.7199544275668854
180.0,-7.050898914094576,-3.686403395723168,3.3644955183714096,5.3986281961209714,-5.1925171672303145,-0.12129995139024019,1.4696992949456027,0.8212683742244136,0.4614290556651346,-0.9503619491822244,4.106733762920735,3.6726198307345124
181.0,4.32479812190776,-0.7977903178385025,-5.122588439746247,-1.8140232861507455,4.755347408824309,-2.99499015973987,-6.522043153918675,-5.210942183888474,-5.138440073298491,-4.936086881767889,-2.0849716850765327,-2.8932247730818
182.0,10.231772110395978,4.250159660883478,-5.981612449512477,-7.211601378588648,8.077275508423376,-0.8972829907078416,-5.470943800339508,-5.3159883752252854,-3.7691867909211627,-5.863184752666184,-4.068247632496528,-4.160173403311393
183.0,2.948891427594125,2.956284931346184,0.007393503752094688,-2.998032082111484,1.456471734821914,1.5305654119942684,-4.777304021797651,-3.574635215722336,-5.34750907515951,-1.7556244421071014,-4.140359282159668,-1.1789624277283657
184.0,-5.046235084053065,-2.0236346097822056,3.0226004742708996,3.5745146665932763,-4.0391384113441795,0.4695729720319626,1.698437601775864,1.662126574885175,-0.601635635085935,1.2971910637576138,-0.6146130523378999,-1.6259952932537187
185.0,-4.268994324818128,-3.529968720620629,0.7390256041975152,3.9466065561985366,-2.5062649916761925,-1.4257564340114455,4.948331510468147,4.220499023240378,5.71474445379559,8.666985714677347,3.411605735735074,4.052429272733993
186.0,-2.780004182127615,0.22429596639866034,3.004300148526256,1.2534084547677726,-2.898718761526177,1.6628385856416599,5.31763371030274,6.732619334046169,5.92509240910046,4.880084719355193,3.495029124367714,0.4429348177457295
187.0,5.68631102444812,5.191139729881232,-0.4951712945669371,-5.458164970432958,3.0748942964274955,2.397360503409554,7.462448984524591,5.072998209112361,6.577688079121783,2.8730817703509643,1.537542776232315,3.2503199036514956
188.0,8.350497964456846,7.9576993096580475,-0.3927986547988648,-8.171974416423158,4.42285595216233,3.754068187555694,-0.23087702945217448,1.2125365166537376,3.122675869111342,-3.0674119085849516,3.016235416749939,1.1092658970916147
189.0,8.534363393775912,3.4400313927620494,-5.094332001013917,-6.007061376565709,6.853934579417768,-0.8556158056758851,-6.586176903414529,-7.764618224720931,-9.855692622367432,-8.390742470112283,-0.9205974195527616,-1.8515724949801793
190.0,-6.879073497260568,-5.093980545661159,1.7850929515993932,6.041065630510912,-4.380863728704398,-1.6852054134633756,-6.58664281138223,-5.6616764969372815,-4.730440712225502,-3.134075041056902,-4.924082170895749,-1.3063319647828604
191.0,-16.370329785691418,-14.95018994163873,1.420139844052699,15.631397430251548,-8.950320419496217,-6.721899908727808,-3.3654330740521345,-3.407288589297675,-4.059963297821511,0.6431045139163021,-4.647850047114515,-3.8884721691195945
192.0,-3.932590143460782,-3.715560139131725,0.21703000432908504,3.7923526877086973,-2.053302623899307,-1.7916530993152038,1.3205109817694258,0.38727320601915993,1.5837999971558907,4.0991558394036725,2.4910505882204754,3.0498012714970515
193.0,-2.4571823464827798,-2.4798597281248353,-0.022677381642024486,2.515734983462589,-1.1934054563321363,-1.2221876212072742,2.5370735453268303,2.092524884660878,1.526021135682059,0.9136873571459976,-0.7386483758607707,-1.7194717797676236
194.0,9.152604160586135,4.614623094281204,-4.5379810663049,-6.833348173811383,6.875562937393199,0.06108080380923553,1.4480708428594804,2.298109653282417,-0.8447395284031827,-4.313506591633832,-0.7414242811111893,-2.288762070392125
195.0,8.069680519808141,15.479535791740766,7.409855271932648,-11.798804725590802,0.2905090621371116,11.463097128493159,5.531587652809384,5.670628079913122,7.7042843973264645,3.5520605688871694,6.421927204309931,3.5647146741965248
196.0,4.512790417316088,1.6625082988775954,-2.8502821184384852,-3.108683026003665,3.7302804145847466,-0.6563470942053637,-2.3487024844641544,0.22640243908316426,-1.8379299384661776,-1.5280122811453527,-0.7341036188190144,-0.49672754243092854
197.0,-5.279526479034604,-1.466653090071159,3.81287338896344,3.352193923282889,-4.56910844073885,1.1892195373972372,1.954619493323432,-0.2522340317431514,3.2224077993326663,5.554103951367369,0.21920133334011405,3.2459287645656865
198.0,-2.683224935445698,-1.2683836492113767,1.4148412862343014,1.9516440090244958,-2.0691521699986177,0.0904824019648161,-1.6031622697932855,-1.3601464983153218,-1.7873279221542653,3.853319828688367,-0.31545672993004487,1.9031172856552967
199.0,1.0662663836129784,-6.2291110767072135,-7.295377460320213,2.5520346788564865,4.158593726116112,-6.743131639841148,-1.6662433143918582,-3.7915422899675866,-1.4326322867069716,-2.9586156375653845,-1.5350145835420332,-3.299879469611433
