Time(ms),I,II,III,aVR,aVL,aVF,V1,V2,V3,V4,V5,V6
-200.0,0.3305270205307913,5.118486486791888,4.7879594662610465,-2.7464028273984535,-2.186081113797546,4.91200680878383,6.10281664011046,2.6328979662440544,1.0623855199050654,0.5302355929631704,3.637273540279776,1.1266814906299083
-199.0,-10.77604764353463,-8.552731908605098,2.22331573492952,9.652641494790338,-6.53285260800765,-3.1297250482197327,5.767084142813661,2.5568678464453596,-0.23965309481994557,-3.8300469629848215,-8.802861492252028,-9.311719279164578
-198.0,2.5761817143188876,-2.182473797078325,-4.758655511397134,-0.2006234281171526,3.6363589344254117,-3.437916637797477,2.3219478749877527,3.4246903432428235,-2.294570059261687,-4.205482028190831,-9.829723261723863,-3.3684585926011232
-197.0,6.275573628228004,2.1904985465290734,-4.085075081698717,-4.232572861262439,5.150372532264878,-0.9155542245944259,-7.682590680829894,-9.192921839384896,-1.3474954756222841,-0.23749982980464646,-0.5915382953574992,0.3223960809271289
-196.0,-2.1466742714211264,-3.898560849148165,-1.7518865777267365,3.022775792814614,-0.14794988575893964,-2.8710507833640806,1.3969251646994096,0.1699745940580759,-2.004982115277768,-2.11563525733202,-1.8203550352804652,5.236955458528868
-195.0,-3.2318387226619696,-13.878249073908668,-10.646410351246473,8.550515789971392,3.757679636152662,-12.304723498680682,4.127415856874855,3.9017679454594427,3.95875971841014,5.494157560431841,4.164273963215789,5.01027107502196
-194.0,-4.7705786046672864,4.833815925294859,9.60439452996226,-0.04421512950751638,-7.214207800803378,7.260948055902186,3.154248755138803,4.6660562655617435,6.985985074310113,10.067770092528688,12.742994885021877,0.5894770069968773
-193.0,8.524722660737906,14.281991109574655,5.757268448836763,-11.347099819585754,1.359035691952791,9.989849735506516,-4.3417068267312064,-2.258420211883675,-2.318563937371941,-0.78874618690483,1.0458348853712254,-6.347854423653317
-192.0,8.032163926617795,3.125005245623261,-4.907158680994547,-5.6110352891182895,6.446601635779862,-0.8340745393051847,-1.8687611650210054,0.9898801132975117,-2.560016957343858,-4.2608542451106475,-1.5337523093966752,1.3604751737086156
-191.0,-6.914034892000289,-14.21373672548743,-7.299701833487299,10.523102006042777,0.24886018637734897,-10.770717380795071,-0.8389208156166159,-3.6307484758318314,-3.6329119927700444,-5.869640332104605,-8.644408967993103,-3.0276850386657124
-190.0,5.665723150960837,-0.6812826852995291,-6.347005836260605,-2.459603264832159,5.9820270501810135,-3.522211548883226,-5.808233857407687,-1.9024363428992517,-4.704668157141423,-9.60861841380419,-10.125125800075129,-0.7205410432817656
-189.0,-5.023210314114019,9.032274282682492,14.05548459679629,-1.9735010284814818,-9.567476928676918,11.538454586373735,5.188110103590153,-1.7610328657115448,2.9824506675377576,3.9129720084292403,0.43851524708938605,4.358310366043381
-188.0,-14.244649115680655,-2.5947601033769274,11.649889012303614,8.374131328524141,-12.902375343063216,4.520644140857042,2.2063146877401145,1.9848467303312591,-1.4569135514241793,2.5789444087250253,5.549401426966611,0.0019030784910372134
-187.0,15.001877974301092,16.746722373190668,1.7448443988896845,-15.836164127177955,6.587636385300135,9.233391211078409,-1.3873752371042696,6.000947975241923,13.666091954213979,13.734790882412366,15.627521379907286,5.081722255296139
-186.0,2.59638998529155,-4.306357472107641,-6.902747457398928,0.8205171226433396,4.779984880729534,-5.625220201216803,-0.3255143669247169,-1.9952434887109047,-2.970638256661183,-0.46961643242536066,1.4522670615330968,0.008720185387664836
-185.0,-10.463622814540868,-22.608857241732082,-12.145234427190923,16.58594395342044,0.8642588108135021,-17.328273719588008,3.9885221842580547,0.46242768652235167,-3.035147049502195,-6.315916736216978,-5.829592451645732,-4.5846230337528375
-184.0,-6.8189349917956905,-6.7821861134054675,0.036748878390437056,6.774564273023027,-3.4887620615986035,-3.332542191902057,2.9770883286441268,-6.317323430807374,-6.3597567675944635,-5.553723111681961,-11.554607190891842,-6.219386786113206
-183.0,4.326613290416871,5.005326447913708,0.6787131574969627,-4.69210889051176,1.8382092308452302,2.796813473136406,0.042610863564209914,1.3184011998326843,1.0846328320746332,0.19538890943338005,-5.336421195788666,-0.6367619247153358
-182.0,14.339169867984754,16.314503619748532,1.975333751763701,-15.355986368934051,6.195144600180995,9.095651967756057,-4.195797596682114,4.189424377052466,0.48874503209056597,1.3891708325729242,3.781220056935893,3.7636316159348704
-181.0,2.67852813540755,8.259669305727877,5.581141170320037,-5.424015341836711,-1.436457999729897,6.948474063030075,-6.475296471885511,-2.580010332706513,-2.1615673454240323,0.6229360114074696,6.156158808524175,4.906078450922744
-180.0,3.69945883856081,2.8128952336672324,-0.8865636048939072,-3.2152680009369257,2.3117906507313157,0.9920990073546241,-3.7238877301679034,4.277882895644696,7.133164402972298,5.831266837491509,8.182235044069438,1.3813556164186993
-179.0,-0.94057661496003,-8.649677435584655,-7.709100820624844,4.75507167894604,3.329819872690927,-8.148104418803808,3.1644198502274117,0.9146268313799445,-0.11516899524180024,-5.054611440267981,-3.6972706355218357,-5.48565092263993
-178.0,-17.068063895854053,-15.494081480919169,1.573982414934885,16.241597967270884,-9.290389050497058,-7.0047907082899705,4.4510831923325975,-4.80238715631338,-1.8510074853759195,-5.575783005511623,-5.635214878819675,-3.061239042130738
-177.0,-15.341269371598528,-1.9264946770166267,13.414774694582036,8.676352862827871,-14.419628879227604,5.701359700132381,5.582540123861262,-2.782863305969158,3.5261888308258538,8.171672645042603,4.711143056816487,8.612534316106657
-176.0,1.975665735449006,2.1383151725008847,0.1626494370520719,-2.0098414662825004,0.9499797026671883,1.1868486252572157,7.181847327239487,3.329650267613712,-4.146293084129364,2.217137519772135,-4.343689232099671,-2.5796341526057947
-175.0,20.620716891248705,2.3339792898411584,-18.286737601407374,-11.504513893472561,19.424318324611512,-7.94147792839672,-7.392503891741452,1.2600973489339022,-2.081034014097863,-3.490657618312603,1.7394273643426206,-3.193657606828957
-174.0,0.564339329752297,-2.950244236680134,-3.514583566432326,1.1683251259880851,2.0937798903744103,-3.2794531529671374,-5.567126599653415,-3.1143246762019796,-2.7103482059992317,-5.808822166406779,-5.23048523044738,-1.6556912761135765
-173.0,1.2727022230898166,11.449619707018343,10.176917483928548,-6.3859558592278365,-4.473128766923432,10.840485989814123,-7.683935544353124,2.081650195277558,3.359883871833098,2.392054770020984,-0.43957424924879707,1.6425712943790067
-172.0,6.056249529089017,14.980072235640217,8.923822706551146,-10.545342383688114,-1.4536903591339347,11.97400541596362,6.260391717510178,3.182623977183884,3.039078817118967,2.2938319019800235,6.123324566562673,1.8641005434120754
-171.0,-6.267665394473102,-3.2272606615747206,3.0404047328983106,4.79599459067145,-4.675510308392433,-0.15508576216679248,2.2926210088284846,-2.985495879900805,-2.6563205327934014,0.4562568445119687,1.3984568260097545,-1.4879853335082025
-170.0,-3.407953992165808,-3.3694782253213718,0.0384757668443636,3.4353991421585826,-1.669929084494862,-1.6521225432250761,-0.5660079859867886,-2.8347114972474965,1.6046091912431089,5.669245256967228,6.72700809424747,6.145340864331914
-169.0,0.8950119401979384,-7.256720917805076,-8.151732858003024,3.149303825887528,4.492529091893449,-7.692238759898023,0.6741115995660174,0.5624883111017318,2.3975749833379543,-0.2727899814085297,-0.15488693769363016,0.5934138171280559
-168.0,-1.573486140948404,-10.777984206026286,-9.204498065077823,6.147053798800249,3.7794678971308695,-9.977603469127029,4.762340773736075,1.2844315854412836,-6.573115264661093,-7.149270376481683,-10.542771061152742,-3.712264577547941
-167.0,2.182948748255975,0.26406745006713894,-1.918881298188765,-1.169321977080675,2.090297407002617,-0.8090984216969161,-5.706434188330766,-0.8386998794779725,0.7361053295845235,-4.65949960699742,-7.024568676600953,-4.889098098240164
-166.0,-1.9401660848209192,-2.666542564884474,-0.7263764800634861,2.282536721285038,-0.5677311134682919,-1.7501274437632477,-0.35476974484932544,6.50106448046328,6.6694649316434695,2.0900465306443117,2.0247317528972086,-2.1098880851728996
-165.0,-21.348969539648447,-9.520053726750575,11.828915812897858,15.41570277058479,-16.62526378055529,1.1867434997234683,8.96079706945407,-2.147438482566739,-1.4065938708057522,3.130907417811699,1.9261947362480163,0.02290198405922428
-164.0,5.594732449602536,6.223691817552589,0.6289593679499861,-5.928220954277333,2.45268287364679,3.4644106363182976,-2.585031483159713,0.48810364681801854,0.9503173831219855,2.894303110773192,4.061243429510281,0.9744865945140706
-163.0,24.26896496704211,22.0943448441452,-2.1746201228969713,-23.20243000913322,13.277888587448665,9.921950588943428,-8.697134659313177,-0.2806075411113331,-0.5536882290815031,2.737643143616571,6.023078980460811,6.429263733921515
-162.0,6.037713845548083,11.713541225250534,5.675827379702382,-8.819592408788111,0.16551000415525063,8.655922324481589,-5.093084481790564,-6.483036993568524,-7.677429901312351,-3.266245015041191,0.662294256526367,4.294992516195398
-161.0,-4.921912285529605,3.2345908577313853,8.156503143260915,0.820177549160678,-6.549314530798768,5.73185738051685,3.0976930960787,-5.40440097078562,-4.29224783146185,-5.2334713996772875,-4.616429244017512,-3.439733776440999
-160.0,-2.42858386348558,-4.811438723875212,-2.3828548603896955,3.6761752678117805,-0.030402685288777764,-3.644081781698846,5.775824885843649,0.2217604458994451,0.4771505132712186,0.3004539591528079,1.703052822510291,2.1609146196418463
-159.0,-18.0880757240812,-29.440535929427156,-11.352460205345972,23.7435787124286,-3.375387678480545,-20.367463806332243,7.996009442184021,7.549461564788832,7.572561204592171,2.1605580416889394,-3.4222910109317595,-8.393111377331456
-158.0,0.28541791997523625,-13.198531048440229,-13.483948968415454,6.437055852508742,6.875541519595482,-13.311268366574847,-0.7353808644354993,7.949828712416787,8.949285311420205,4.407834602793584,2.0408775062693,-2.5964675257930385
-157.0,1.908177484576696,-4.350865022474732,-6.259042507051406,1.2007208521139665,4.072916836823517,-5.269763953792701,-7.0988228978589465,-0.6182069065119782,2.1847396411794056,2.673885286784831,0.18400888958944142,5.631388823633366
-156.0,7.540308770163769,7.6890949241278035,0.1487861539640623,-7.639855907472559,3.7634822975416276,3.883694877833373,-6.918746801209826,-0.08223509123953698,-4.919365339017776,-4.649375715707998,-4.887237318861665,-0.7707114973857685
-155.0,5.283314204451556,20.179772785445365,14.896458580993807,-12.685914056326991,-4.816511962674862,17.511813607413988,4.455109018041517,-5.9011188694408405,-8.39728619398389,-8.003218907479543,-9.688098731909214,-2.4601277040012226
-154.0,8.841735647350925,25.61264289157576,16.77090724422478,-17.192067682131277,-3.9729813446247246,21.172270539558202,8.027680244335894,0.8860172207667869,-0.6320553566563962,1.4394837006487764,-1.4114115277813426,-2.800675514019379
-153.0,4.975845113556904,15.708886190274931,10.733041076717942,-10.397603713733275,-2.8866963161366015,13.282779093538192,0.2930129752249253,1.1520911397492486,6.077320773986268,9.76566376033567,17.708087141320924,9.107735403505464
-152.0,-13.594962508827749,-16.773530358419134,-3.178567849591467,15.196683387338076,-5.218816036146898,-9.99535987586631,-8.465942744609674,-4.351612874462633,-1.5064381517752437,0.02329785524129857,6.199595769973409,1.4462655240055775
-151.0,-16.457252384979707,-29.521865562836766,-13.064613177857078,22.993061140216476,-1.7128921519829061,-21.318988393762524,-9.459735072300782,-5.719810482906223,-3.7919656074967283,-0.8109169637357156,3.9600362883518603,0.33439808414759237
-150.0,-4.740967893671296,-15.632762101770691,-10.891794208099325,10.184960020876531,3.050150873429773,-13.296223440180196,7.056784657758245,2.1728128139603475,-1.0666797416890215,-0.651860324595241,-0.9862274700938467,4.025220405942868
-149.0,-9.261248300272538,-18.26399821376745,-9.002749913494757,13.759789965557028,-0.08545747730342157,-13.595426465785788,13.67850085883512,1.7539069269322205,-6.971169332006047,-12.104162919142786,-15.275919674803657,-9.670940874775637
-148.0,19.08026206548084,15.308195480030534,-3.772066585450151,-17.193220848807805,11.461252739974805,5.8033849002011415,-2.6597495117696317,4.952909719295317,8.477305007799824,3.5342218601202413,-2.2009266829155845,-2.206800472365802
-147.0,24.738612175667985,28.042664021221324,3.3040518455534134,-26.381538927207615,10.667341613950304,15.633154151800687,-5.972129249214586,0.8181347160708836,6.9988937605492225,6.645313001941087,-1.6068808394915712,-1.5781144542112011
-146.0,12.728599265474669,23.82045183758451,11.091852572109788,-18.254405330408932,0.8437060198825952,17.50344892891949,-3.3347220622831366,1.5413257814334411,4.948397195024848,4.582109619012271,3.1794471564624796,-0.9511262875425115
-145.0,-24.034266250869436,-7.071081411800659,16.963184839068663,15.50609462054967,-20.47474590355867,4.926586732583752,4.992992026900739,0.3368456983822632,-1.2173807741658902,-1.0175968256145431,1.0348212766755083,3.880980736364201
-144.0,-25.688082127817815,-18.232663156489473,7.455418971328218,22.003547273671558,-16.62701955932654,-5.396431216547165,-1.7192020481171997,1.526985356078026,-5.404278409963493,-1.8039038661278295,-0.687039426975323,0.3284068748400393
-143.0,20.33681027714265,-4.59407588401821,-24.93088616116095,-7.8987702025017,22.656459379392217,-14.762698620075843,-3.17031288488348,1.0397205170885748,3.2036919582478642,-1.5616422731283797,-0.46118220867653337,2.083820697759779
-142.0,4.412282173884931,-12.78884613623886,-17.20112831012383,4.165102590647599,10.82747619634879,-14.994365775888399,1.9901964417187104,-0.08676897295916608,-9.152385283530498,-9.541718229964964,-6.478729005067163,-3.534045855697404
-141.0,-4.959345657592646,6.517700761823951,11.477046419416606,-0.7236082456695159,-8.2786642596643,8.991359562743508,0.40171899504142994,-15.154910164543054,-11.808293273310547,-3.1675817073227983,5.509978147461032,1.8039643152353475
-140.0,-9.041522038044391,8.806358830595041,17.847880868639468,0.09068871931937328,-13.42843057038633,13.308594403390751,3.4972387570550847,-5.599556452901707,5.312945793357114,11.478109591873398,19.392089759140223,8.429071372497086
-139.0,-3.8216285823926075,1.5613465645696243,5.38297514696224,1.0969094129627313,-4.586143814125826,3.438790104701275,1.975195800183524,8.063917377677722,9.223120073900636,7.753375790814866,4.4678226282808655,2.5393369852477257
-138.0,2.357691336313869,-1.0363275594889467,-3.3940188958028075,-0.622786220511246,2.894782310598718,-2.1825880430140856,-1.885319226874646,8.88594708904694,8.441770271370215,2.034800777319901,-7.36739731453037,-5.186445980856688
-137.0,8.663295480170119,-2.4308588995653664,-11.094154379735468,-3.0859591978292125,9.903254605145076,-6.736983100467177,-6.613568997150835,0.9259106512942408,-7.034829985650072,-8.551634225997184,-17.378162848891982,-11.33734783809361
-136.0,12.358151129214836,-0.1758436911654757,-12.533994820380322,-6.1463458023589785,12.399083671311686,-6.329172480632204,-1.75255607824498,-1.6200942415031978,-2.6094515468375667,-4.276617124965716,-7.616742582230433,-0.6569179750017744
-135.0,-4.163787826851285,0.3790394741309504,4.5428273009822,1.9107207192232298,-4.314599350525163,2.4929727310051,1.377727446415565,1.033966883586279,0.9280889350036929,-2.611730226923266,-0.28534594352164255,4.568499750132144
-134.0,-4.689630419464139,7.1649681780730985,11.854598597537219,-1.2227863086498045,-8.30730809555593,9.471985339996822,2.135518980620276,-5.948897608783561,0.8595465372524194,3.053766489687554,8.324822530905411,7.05107457408956
-133.0,7.676658187037716,2.8864201028995398,-4.790238084138141,-5.268232859053523,6.20004550752643,-0.982324104128109,5.794591753140024,7.345237072386203,7.562011606383175,3.019345573291497,1.9828689148521814,-8.813758232960552
-132.0,-1.8502286266858308,-2.6746886048941314,-0.8244599782082505,2.197509191539555,-0.4685449579179588,-1.7771655029094207,0.2398744495262446,5.642564455701889,4.22780068563894,7.675129743238202,9.496806248324416,1.5560332228750289
-131.0,-5.378400955846866,-12.622920440146604,-7.244519484299761,9.0172892330991,0.896115260026265,-9.963733499331049,-0.7477029730838547,-2.584412077744667,-6.534199555043613,-5.240370218141184,-2.5788738531073445,2.340003236829866
-130.0,-20.32173607730546,-15.599118204210312,4.722617873095073,17.98238741605425,-12.482773255006629,-5.395471997891863,5.1449830571039605,-10.183612899572585,-14.680815472507774,-6.4758377517786645,-5.976217685441545,-0.8374522831915672
-129.0,4.389355367785685,15.206421017108397,10.817065649322647,-9.76835121716524,-3.1753993217283494,13.048092726739572,-7.707787664083704,-4.6535087217148625,-4.3136321091698,-1.6593192212756698,3.8844498776496357,5.890313032231921
-128.0,10.942039257948357,14.44297834452139,3.50093908657299,-12.73284591578863,3.6813240613177687,9.00432663766132,-10.272156676401037,-3.586086328984679,5.069282734246396,6.376851224906219,6.670860477330532,4.632394489779344
-127.0,13.851846603882628,5.265512427073903,-8.586334176808776,-9.511640908407669,11.182773850562175,-1.7067420424610846,-2.8486498697236313,6.76610821834848,7.234392239998213,-0.08934039119743975,-1.2421742146234456,-6.380539806706974
-126.0,-16.689826741297235,-0.4120144185112151,16.277812322785937,8.52591493964798,-16.43720472402345,7.890468630938765,5.799692526535783,-2.1636532531399997,1.5876361207949028,-0.5409485612924936,-2.0912990005434495,-1.5016510975697033
-125.0,-0.8787874117965988,-10.585496289990836,-9.706708878194318,5.710813734959239,4.386671954032463,-10.103739711145987,12.552657863498347,9.564667015243701,5.076590777147079,-2.6533785586798917,-11.934903182585696,-6.608014057760783
-124.0,2.021431564831608,-17.925335238656206,-19.946766803487936,7.931249423136137,10.961838216294629,-18.888116753554723,8.833646839567352,4.5807698037680895,-1.5496149987666472,-1.1389746518057198,-10.84308866884042,-4.587156384540071
-123.0,4.725290898476531,-7.151684545815316,-11.876975444292023,1.1911527519207898,8.362427241634965,-9.542756845821973,-4.648814191237841,5.673007454112092,2.2776990951588,4.059679371680694,3.743268973493104,4.631398086768365
-122.0,10.51036183330879,19.23166431770337,8.721302484394382,-14.816007116706613,0.881225051117704,13.945380179696091,-11.580908030000641,-3.604945762525426,2.8374792622777143,4.7432078041519405,9.31382375451863,7.17304784926208
-121.0,6.214922507421216,15.143137874802525,8.928215367381164,-10.62485479142002,-1.366908993824908,11.996591683691793,-6.173214654990037,-10.159918052239396,-3.1999202725513056,3.3957819723619522,14.676755149276008,4.217373934356765
-120.0,-10.1867617555389,3.888611446379244,14.075373201918067,3.1247267025957868,-12.139702015357411,9.010072646907798,-0.9000948443631467,-5.026563731219634,-10.66734657329289,-7.007709317822272,3.0413796325266436,-3.2079927509265524
-119.0,-28.647051076765234,-15.414299503168372,13.23275157359682,22.006798515466773,-20.948250198389843,-1.0747201147170689,8.090714650386904,-8.194416401792637,-12.178043392126622,-14.013921258037772,-8.01794197599699,-6.9227455895487555
-118.0,5.158161345074001,7.160295819155845,2.002134474081833,-6.183494671432257,1.5691084108944882,4.588308132822471,-3.8795817511605355,2.652287409180757,6.663000894241097,5.917112539131696,-0.06181906227665124,7.990955785958109
-117.0,14.489931055703023,-8.012493377157524,-22.502424432860536,-3.2647867129281014,18.486552839042854,-15.253652914853962,9.728857520978707,11.401344561933092,10.314223909705076,6.59854121778899,-4.000875159653593,-0.9081859905133627
-116.0,8.555540848914921,-1.054623481151176,-9.610164330066079,-3.7005653115613204,9.15148880658582,-5.325354765041775,-1.9580862721687406,7.178989516025994,8.150708844431437,5.541206503288227,-3.282368891817373,-0.12221271203011885
-115.0,-4.431429465714222,-7.021692739394388,-2.59026327368014,5.69509944556928,-0.9312170782674496,-4.790303558807482,-1.0758612194972244,0.8031733118355611,-1.0675790358960757,-2.045131676734433,-4.62646338762344,-3.4855927013623904
-114.0,3.1575873404646453,-1.0673533582917325,-4.224940698756361,-0.9990103525792438,3.6791870385646566,-2.697819122641141,-4.2369804537178375,-2.654359173604825,0.6920113852487354,-2.548968448619217,-0.03387063954561631,-3.5017290709150988
-113.0,-1.1811979146305647,12.665877481762896,13.847075396393464,-5.774128125480363,-7.529598156944551,13.294446471870284,3.0283872669397347,-5.382532459096107,-8.418575265187751,-4.584327614856119,-0.12435824432388265,0.1839374715498998
-112.0,-3.5864037273729545,6.354867846042556,9.941271573415516,-1.334737116360821,-6.7850784029618385,8.114715450967974,-4.857287624791113,-4.797391018290803,-4.9968223401058145,-1.7618412889249662,-0.6189227911784791,-5.6337281503763865
-111.0,-1.990171401792919,2.7814152811098776,4.771586682902842,-0.4218355639628266,-3.409760170817065,3.824018653248559,-1.9734737468697081,-4.331691526190085,1.2805476397792503,5.3120724214064055,12.804296768877931,9.203187775679128
-110.0,1.6793607931813632,-15.986305764915333,-17.665666558096618,7.129400462715272,9.714244898581512,-16.860658952922122,7.207057452626779,9.386841902264724,5.631864940606418,4.493149519338153,8.067462997161947,4.517386557995781
-109.0,-6.748799637876907,-10.373238214784214,-3.624438576907221,8.537230472302106,-1.5275401053067306,-7.041147220150232,4.68370059458149,6.717781304142613,1.9312939968264171,-0.7801518134084982,-6.3603522983016205,3.4455688228919525
-108.0,-4.32333307181791,7.2983851495985475,11.621718221416497,-1.4342071017553586,-7.942909719841289,9.487221755993406,1.8399336643697652,-3.422104746304159,-1.2346159375368289,0.710081635443284,-4.652955736274767,0.24877475718814324
-107.0,6.542040606857441,2.6756429835975837,-3.8663976232598976,-4.637035031303504,5.152332357510237,-0.5762384390618096,-3.391773893756999,-4.579092218887147,-3.1147605952720188,-8.788207909449351,-6.478340943187524,-9.934978628742448
-106.0,-0.900254639607212,6.8211271737703,7.721381813377432,-2.991251677617733,-4.36355428350395,7.285730641502958,-7.257260235871747,-1.2299147836506787,-0.584034185774642,-3.310379894059347,-2.9713517211054734,-3.267606975213498
-105.0,11.683520536756394,10.035817423398273,-1.647703113358177,-10.813111078951364,6.692175796654546,4.207844688533474,-9.787498726522918,-3.3252239518258477,-0.3218217170742194,1.755493876318897,1.065468702148709,1.0613602956017893
-104.0,10.986304251291445,7.000767440947159,-3.9855368103442825,-8.946671982323677,7.514002069699288,1.5236818501950338,2.3474119730014964,2.0064925626772,-1.1074288365280487,5.1247961442942875,3.966359869693119,3.0288587446312696
-103.0,-6.8471509524898595,-10.818146960223501,-3.970996007733604,8.802370583461784,-1.4079920093814549,-7.45396345874253,8.49658845261717,5.5915242964621195,5.739822160630463,7.439740529882582,3.9969192254113315,3.2043346613703303
-102.0,-4.926629835016785,-5.519415821388138,-0.5927859863712972,5.194793760836792,-2.213806736735612,-3.034263272230892,1.3520902244691264,-1.2805606218174126,-1.4004158696944908,-1.0230457860675228,0.8256570925759501,2.056783323458329
-101.0,-22.723319538342665,-16.86950077167174,5.853818766670929,19.7699511135592,-14.256030276593917,-5.563849880943858,4.530783361297348,-3.6788827725249997,-2.064611534226561,-7.315616467049151,-5.615346122885967,-7.516637502645764
-100.0,-2.575707017758015,-11.59416299020285,-9.018455972444857,7.059811762197805,3.17400012510012,-10.283649831725027,11.770873977721152,8.268079375701454,4.415877519981129,-0.9222890499829242,4.493736325113132,1.9779294425767788
-99.0,6.714565795346001,1.878396017280037,-4.836169778065988,-4.2416642242293054,5.803541861965103,-1.455812680950277,-4.267724294896658,0.8665417629364793,-0.034798530192424515,1.8401529396159222,4.789020143287008,3.3091650372600157
-98.0,25.503919091937945,33.63570831945008,8.131789227512149,-29.51378885988807,8.709542374366434,20.909187937711554,-17.574462959456774,-3.8902166823460176,1.3257802525263025,8.708679472541691,3.4054465130886866,5.85798202236528
-97.0,-0.005312279436269662,6.455562469896121,6.460874749332429,-3.2470818150326046,-3.2933141727985493,6.488600696787016,-3.5670527609774574,-4.943756876447234,-8.105406683571298,-9.03077876542168,-12.501700745655192,-11.334002261150948
-96.0,-6.8998352234721825,-5.196668835602932,1.703166387869297,6.025603841913737,-4.286532000031256,-1.7880150518873466,2.7021529534763005,-3.5365424520633226,-2.3715919456901298,-5.903013808319022,-6.2431206961406005,-5.882674283040755
-95.0,-7.462910713823833,-1.7126796110893716,5.750231102734486,4.562053173873792,-6.592263013223333,1.9857325938066326,4.466110485977021,1.126403272385013,1.2444733452241303,1.5104677578859569,3.0269455037051043,7.845651194037282
-94.0,-8.080544272386263,-12.051553213536655,-3.971008941150415,10.034697945958513,-2.037444374659449,-8.035996920068323,4.807976946145541,3.611793347668086,3.546741853493989,1.86642546321325,-1.311210682211594,0.9638213097092136
-93.0,7.160774744775042,-3.203008432586188,-10.363783177361292,-1.9385825824130327,8.785903722653451,-6.721501195516199,-0.7511133020606673,4.183227009170846,3.2256774161751136,4.612373508087877,5.793391981285501,1.4159446083550122
-92.0,3.1669005547346822,3.5836093230561117,0.4167087683213335,-3.341724185837815,1.328016840562309,1.9904839558467735,-9.32910212658986,-2.307887829215982,-0.20258727193426163,5.770461250147127,7.282549033932131,7.117861715901211
-91.0,0.2838971879065102,4.3125809893302005,4.028683801423593,-2.3480467602070374,-1.8330970946113068,4.167239615988811,6.812753145573685,0.15763890467683012,1.0222601273550922,0.5997519964671967,6.301412099613041,2.2562549723487018
-90.0,-1.9999285733963843,0.38247718340017656,2.382405756796533,0.8364048502655304,-2.2253855592336955,1.38390830670776,3.982459718522999,-0.1636732226658828,-3.433105491828515,-7.056283028952534,-6.420138845838637,-8.451098213631203
-89.0,4.668950253645921,-3.538462606965221,-8.207412860611123,-0.535470291282222,6.405780289687168,-5.868891526076062,1.6255434026793727,-2.0037040215625757,1.3719346353948305,-1.2941517606300068,-4.977988066063002,-7.9334561755536654
-88.0,0.1893256673467345,-0.21733085028885601,-0.406656517635455,-0.030549426511965683,0.3429873807269393,-0.30858292117137687,-4.087170832490592,1.5604071113264046,-2.366047282852683,-5.6333726666960535,-5.364029816536076,0.906151539231117
-87.0,-5.988731078490088,-4.653187765589754,1.3355433129004899,5.360283116177757,-3.6990929122862255,-1.6598475707205242,-0.6746757976860125,-0.9020116607209079,-1.3098122981680005,1.4806462314057798,-4.345888935032665,3.79188429974403
-86.0,-12.305354107054388,-16.03071109753635,-3.725356990481859,14.132886421284343,-4.251484447528571,-9.887101306471894,6.957068521474339,2.3727298222011486,-0.5259090616183372,-0.17787424971784982,-4.571597541666244,-6.471872316113928
-85.0,17.746991650089697,19.25994176669716,1.5129501166074713,-18.536021308899784,8.15369304090062,10.366940617356528,-4.067482841460691,6.815690925563823,11.993078801009188,9.729530960106075,8.584273679171694,6.072854339438377
-84.0,-2.243138694984724,18.74996521863801,20.99310391362262,-8.206175022946049,-11.659793910691475,19.84125518382766,-3.557734123292821,-4.6572379275987,-4.251101503418175,-0.23311837760352105,5.457394216310355,5.34756689195493
-83.0,7.992856213834374,3.1497053823410193,-4.843150831493503,-5.6023640416960925,6.379024557986517,-0.8070887524795598,-7.927455405947686,-8.849461205466701,-8.497901032998023,-4.714678566171609,8.726182118528387,-0.5198331172184445
-82.0,-9.47278300386171,-11.300730048678167,-1.8279470448165451,10.435428413142782,-3.7781898666670095,-6.530034397798259,-2.423444469843589,-4.070122638120706,-4.219098367886223,0.17430387541775172,4.629303133902644,0.18992131769242937
-81.0,4.858330994975877,-11.574053309361732,-16.432384304337592,3.3302071839751655,10.616176437013298,-13.970609698096355,4.878038144154477,3.9891923011013235,4.6386205311700754,2.848987121459047,-2.5694551956044536,0.8171253907908158
-80.0,-4.500644262152157,-7.039415190041696,-2.5387709278894555,5.74630552416331,-0.9262589086166155,-4.83469614341157,5.736672421497632,4.376300840535043,5.029298889463063,2.638652986853602,-4.276558723680821,1.6418823523352328
-79.0,-5.778305394015606,5.286997677516161,11.065303071531872,0.30535997046271834,-8.442217765022635,8.13105770053084,1.4524447389713195,-0.7413010445271704,0.9417686504551717,-1.4363311721178464,-9.93087949246117,-2.0019679016363923
-78.0,-1.979129797212711,9.063556278540569,11.042686075753297,-3.557181397521963,-6.530158421715141,10.08521003728323,6.569227243387351,3.41307901435231,1.9326389260120045,-5.060983670985969,-9.488261919153327,-3.4025899353980518
-77.0,-4.900301117161076,-2.8721495568291227,2.028151560331856,3.8732896977542657,-3.485298853523655,-0.39449096231229674,3.092005137605553,4.476273303193934,-0.985034068973003,-5.565792462531404,-1.9693743332447236,-3.0537669986400653
-76.0,14.319465769750979,0.26788745181065243,-14.051578317940447,-7.307500744399194,14.23875134192558,-6.950101249472663,-9.369745764836015,-2.2533517704126536,-4.049788678646748,-2.748279398936071,6.826089764570956,-4.61099216268935
-75.0,11.60301839869638,-6.340148927323667,-17.943167326020088,-2.6488977045802713,14.741727783973841,-12.128700579846951,1.8264897723625992,0.09515903128991665,-1.1288196216919957,3.077640002627405,0.01622586525842795,-5.454567536897649
-74.0,-6.023393220803236,-3.9874136728393577,2.0359795479639677,4.9827938849299285,-4.066477164418264,-0.968244612664312,-2.293170798563766,-1.8061003771142494,1.6455513836952702,5.929639136703167,9.0518756075924,6.654601819805758
-73.0,-4.35580096640602,-0.027401480752040352,4.328399485654193,2.242862514188658,-4.303274542422562,2.156803975921001,-8.20390760674424,-3.0424344225125095,-0.003657348705263852,7.237190504894228,4.34951854958733,10.931866101422726
-72.0,-6.671350347492587,6.792259165530108,13.463609513022881,-0.012348481818442503,-10.028194256757946,10.138379308802715,-0.18412998652529344,-0.6087560795108515,0.021579047926933104,1.3308167412272618,2.948349177464338,1.0499524704356524
-71.0,-1.2753432227079928,16.236573185280285,17.51191640798835,-7.512230717135447,-9.428827373747382,16.893280994082982,2.327707891872684,-9.8086078110675,-4.868554289710548,-5.432951323083273,-1.9981054097577877,2.139095277395375
-70.0,9.598995217230165,11.11248646057036,1.5134912433401588,-10.386806317394184,4.014579217951978,6.342500636361682,0.5173258511848173,2.112645652510267,1.3542058381373159,-3.640620116113467,0.21654116451954764,0.4061173806022538
-69.0,-14.860037183189476,-14.650616716913664,0.2094204662757122,14.724953118969292,-7.47643703989252,-7.260866522283176,8.832228752420356,8.083712768765828,5.1961100848142365,1.8720670284674172,-3.241422475581402,-4.382118168626586
-68.0,1.7939617811891777,-17.671661562540514,-19.46562334372975,7.986541965827312,10.61521169979691,-18.60433123540195,-1.3605357740610717,5.210750157443661,3.654804354795075,0.2719283166273736,-6.4022204810826,-5.751522519418329
-67.0,11.463536300959426,-5.638988908040437,-17.10252520899984,-2.867827404235399,14.270232812397698,-11.407469378023855,-2.3757636872170362,4.652431147712271,-2.78433454250941,-2.271343774355974,-1.2979072256026774,-0.6646474971851113
-66.0,4.625039743401014,0.35032840184037006,-4.27471134156065,-2.528309266752777,4.433503190648457,-1.925920345343262,0.8540162625002565,-4.2972985803401,-0.8186799808425491,-1.118017395886793,-3.0492301360243883,1.6043060711550812
-65.0,1.2410505352274668,1.5764818661733087,0.3354313309458252,-1.4583334314832448,0.4277192022878429,0.9840916145487423,1.7271608613927065,-4.682754434692919,-1.3678460384953697,0.14685887012506577,1.2629044726583656,-3.8226095631833266
-64.0,-5.877198356569316,12.17664398847324,18.05384234504252,-3.1305320125303275,-11.924015626049956,15.135607436505271,1.95044547840932,-1.7344315893416096,-1.9258675212224499,0.8422623269511662,2.4554674867567674,-0.8274497479807739
-63.0,-0.4625616589677488,10.372870780059863,10.835432439027558,-4.944574793484016,-5.620357957540269,10.619135643986658,-7.394450040315198,-3.379283019751448,-0.29487375498516144,-0.27865537662005435,2.046206505316702,-2.8549978357476236
-62.0,-16.59088092828878,-4.219621285850375,12.371259642438385,10.411163551132793,-14.541764250859528,4.009888350787839,1.9928287006360752,8.313186045316634,2.3106037688308394,-1.162222842878211,1.983171585219524,5.7044398444205715
-61.0,3.636227933467736,-3.7348953041109394,-7.371123237578709,0.05628265994966419,5.515928168706779,-5.539383578166248,-2.603750620951384,-5.4674629933524095,-2.717488996577035,2.6729793019844403,2.150203105333202,9.69411501673606
-60.0,7.7455877883714,-6.501276832191484,-14.246864620562944,-0.6082162742829647,11.008830320024448,-10.357533889170433,-0.9738142732358686,2.724782050632098,-0.6241251191793106,2.812157184989754,-0.08548759705123499,4.637236693297254
-59.0,5.236053485416759,-2.4791301395451697,-7.715183624961977,-1.3529871090200363,6.494577677738864,-5.076649390023503,2.2942963787863078,-2.328715273652472,2.460739185867311,0.3479767560509799,-1.6320777616760054,-2.971644033267477
-58.0,0.5199818299530703,5.566758148409523,5.046776318456419,-3.0831425407381556,-2.233801718742372,5.252657637374526,0.9268313432447659,-3.3413458395164852,-0.45665350821935236,-3.261013980732354,-2.7427607847914377,-8.640402899632555
-57.0,6.363763999045593,5.729434820964695,-0.6343291780809337,-6.073737325905694,3.461976077023947,2.5759586943995494,-1.164429202947491,3.3449317252099284,3.949391843558238,-1.5224866239310852,3.5655765121776417,-2.9991212606106945
-56.0,7.199402164007295,2.3006972549372158,-4.898704909070084,-4.767611542150997,6.022459170155605,-1.2672505370730573,-0.9980462584010534,5.430191304496983,5.881315401840535,7.02499768785371,4.987224799095702,3.7193501260274724
-55.0,-6.29103014288454,-5.545377365780864,0.7456527771036718,5.9848626830380045,-3.5383803176315842,-2.4435250379728943,0.6207899802425516,2.95299097672049,-3.329253976507245,-1.1468488216430517,-4.923914558870399,-7.544404427946802
-54.0,-26.135458231948988,-21.033887547295414,5.10157068465357,23.57403563742457,-15.558133156747951,-8.005822144911203,12.746027820359288,1.4265235593163426,-7.345065359507307,-8.061203613587724,-14.087209692680387,-8.482526676958603
-53.0,-5.960625445723883,8.389501016574204,14.350126462297991,-1.226718595373912,-10.176528093081176,11.414160664580445,-0.25481274661281095,-5.930185526122649,-3.9417957453922576,-2.6197383730660557,4.920023553176092,15.357555573373935
-52.0,7.270962988142495,14.375437340503085,7.104474352360453,-10.838819608130041,0.0562954248178511,10.790875317722078,-9.59174357328103,-11.973199298027396,0.017670838354411078,3.9789974109940407,9.160787215401992,10.466514107878574
-51.0,10.099481340412682,-5.155189893279955,-15.254671233692722,-2.4912478012826638,12.721944012441556,-10.225694211976528,-2.3142246889742975,-0.04774611432564413,-1.5430817038631097,-0.4515353590824511,-1.7150034778212762,-7.652445627749597
-50.0,6.235084192466698,-3.7047014121098547,-9.939785604576592,-1.207857343316987,8.04723272115728,-6.837005770431654,-2.3920780725373407,7.95322593329434,6.332123415186152,3.319825432886491,0.6715237989120295,-7.5903311351405325
-49.0,24.36269035864709,19.462485207990845,-4.900205150656236,-21.93449166387351,14.665483983996278,7.2696302080924715,-8.982790873943129,4.002813217690434,6.246420371405728,3.8501360332957653,7.370407654549516,9.188570918523432
-48.0,-5.22063113304268,7.508459389857366,12.729090522900055,-1.1647507960891348,-8.943073000036769,10.10675382133744,5.657896102644349,4.083017273839016,4.428140276425576,5.222790480148199,1.9438597109636375,8.902258859743727
-47.0,-19.541969563394716,-20.588750766177622,-1.0467812027829386,20.12475486176128,-9.294708621767647,-10.833888249873976,9.366309917980221,0.44516685176701287,-7.156008222315791,-6.632377318476417,-9.115222676951518,-6.464359790158447
-46.0,-13.952137260339269,-12.411237620230985,1.5408996401082078,13.162660335203762,-7.792148826873067,-5.378879867677151,4.615633193940585,-4.234562541137331,-3.462625220596343,-7.905264768296125,-11.802450889355896,-11.689739526501919
-45.0,-0.024233961003174542,-1.8954981391518873,-1.8712641781488082,0.9387410075804432,0.9592922099372077,-1.9123802874688058,-1.4302674625134393,-7.61912601462684,-4.467426380649634,-4.667336859988357,-5.6909533788892555,-10.80159478725176
-44.0,-2.6763340964918996,0.8085428589449477,3.484876955436757,0.9079884637358304,-3.0414328915790625,2.112968403070045,-1.291426261736323,-2.3811577157430377,0.5918142865879736,3.2130627515022865,2.9025082203211596,1.8483527407254758
-43.0,11.10156188464788,8.494257476080023,-2.6073044085678307,-9.830197031228085,6.81839707822736,2.9867950482722003,-6.5991582855885955,3.5466252017836504,2.714465954706276,6.833507703800059,12.074186674298977,10.739091995609927
-42.0,16.430517197078508,7.085980769581349,-9.34453642749709,-11.71768432800884,12.933052816039918,-1.084530506327075,1.7594151098832027,9.316539955911654,6.805638405004254,7.296044801954286,14.017757485957375,9.394661176915672
-41.0,-2.7587832685109355,0.10764240910769018,2.8664256776186914,1.3628574114243985,-2.8447504672226804,1.456437454397196,5.085645376073186,4.425982361774572,1.5335639393257399,2.218495678908575,6.0375649412157015,5.108324768656554
-40.0,-4.780282714222523,-2.124839292344238,2.655443421878295,3.4903802623861937,-3.7514079828436104,0.23823643533507277,-6.448460931345652,-5.748970565013012,-5.2462380335543815,-5.688455594206063,-7.619304042318493,-3.3301930125110384
-39.0,5.144880330332063,12.010843210380596,6.86596288004853,-8.614667858700654,-0.8193107127116848,9.413253299500361,-2.9586179904672805,-5.037756389230598,-5.184188220126065,-8.229005342723276,-10.039354277128654,-2.3644712263878103
-38.0,-13.064731514440089,-8.356313976311812,4.708417538128277,10.6801501003326,-8.9299813667852,-1.7709392230796774,4.064778392819076,-5.390601454717546,1.493353060217935,-0.5743556196482702,-10.592730422948723,-7.866973893131947
-37.0,-22.02189713732081,-15.622630212660171,6.39926692466065,18.799109338101836,-14.181843722857773,-4.640264195414513,2.4768328452866286,-1.297441008263541,0.803223430874674,0.9709419176346676,-1.2903648478145433,-3.897203370136763
-36.0,6.781482856224866,2.7479848615909876,-4.033497994633928,-4.780961932055707,5.430199675210154,-0.6752282460608536,-5.067890803440319,0.9829775177822325,-2.13401244143024,-0.06916112513366923,4.311456687477666,-0.8090501328805564
-35.0,30.138475300401776,13.240980913421444,-16.897494386980373,-21.621085189006738,23.536253541929,-1.7853223010017745,0.3065745017614206,9.503332492471005,4.680110621618737,-0.02374172702451549,3.161166340345228,1.7002009611423081
-34.0,4.360940352585226,-8.583121238672792,-12.944061591257999,2.105959575297902,8.589785117922302,-10.722132712681535,12.16021152012238,7.17346451051533,7.762205592133803,8.317488287967771,7.074348916747388,5.646979529802198
-33.0,-17.668603519694486,-17.14242813545489,0.5261753842396821,17.403596021534398,-9.081020796880146,-8.344450378447322,-0.3536163669212513,-0.15526612352731828,-0.9650616929703291,1.9544198846375531,-3.5546591446077365,0.8209413799979366
-32.0,16.852014042054375,26.696184979826615,9.84417093777235,-21.77556977812825,3.5234796623439797,18.23700365392996,-11.789635769045283,-5.019213784198071,-4.357803571935756,0.34752502864149126,2.235705066373471,7.879180395848799
-31.0,-10.652286922564839,9.404490147936137,20.05677707050108,0.6191079491174554,-15.407488372227547,14.78072426104977,-2.0341496482460855,-11.01197422920237,-10.583353313917115,-9.837407156628718,1.4818188650765758,-1.9222815296290787
-30.0,-15.553006110381553,-11.137656786322358,4.415349324059228,13.3330295129013,-9.949267422889147,-3.3848884509482087,2.0478017855524504,-5.440695457609052,-4.488365374514945,-6.912243270085282,-7.013243185320643,-9.52044049621856
-29.0,1.7086625469285215,-5.9910800376632665,-7.699742584591815,2.117851096987171,4.750248065542838,-6.864579499818301,4.248618776189016,7.079658633760818,6.682774539601683,3.5197516462244387,3.9889945754854566,-7.177727457091761
-28.0,8.378485975650397,6.10000822250212,-2.2784777531483957,-7.196651532406299,5.307228874490735,1.8953424538908754,-8.9833993594205,7.218228785180983,9.921661955637283,12.153294122936016,7.434161196470647,2.4909230982317405
-27.0,-6.921627028926497,-13.088986977550462,-6.167359948624108,9.957173332782352,-0.38887525061253037,-9.562176245325762,8.615772535131939,1.8292292956887701,0.027163386600407513,0.2192802329592345,-10.486102194975775,2.946251033852344
-26.0,-9.732014747755127,-8.793435964086784,0.9385787836681674,9.284720050730844,-5.341584002848762,-3.9388177653440337,9.74177834790205,0.4542359284136084,-1.2283298941658138,-4.027121612433522,-5.983508702305361,4.463015669109023
-25.0,21.152353428773935,9.178269640773173,-11.974083788000934,-15.146938514377567,16.557152575884587,-1.4095125472991938,-2.3881761377316217,3.442703562040663,3.0583028405557426,1.5022092199459047,1.6891120942302598,10.704986687877378
-24.0,18.335622716435545,14.230124662922776,-4.105498053512929,-16.26301610956216,11.209753086278072,5.048756448398343,-8.403824875273681,-8.228106582430353,-3.117108850009675,-3.2091985989345377,3.6833571891338104,1.8384914817602938
-23.0,2.321909958327579,10.57699285356517,8.255082895237424,-6.424508096529475,-2.985424600152483,9.399005004187707,-9.255231405695213,-10.80219696689087,-7.167779784647027,-8.66153616939218,1.3700973487494854,-12.517906668614605
-22.0,-18.14785540146728,-3.573188409946341,14.574666991520823,10.812900389620784,-16.310199121721602,5.479338345153286,6.446353154375785,-7.185651815105105,-10.089620612675585,-7.628436249273023,1.4570497151785284,-11.849131282084299
-21.0,-15.703074383007749,-11.799529987006666,3.903544396001015,13.7085412705899,-9.838321322286538,-3.8951241983176077,5.207614264782685,16.55293122771097,9.191714151078411,16.56085096620014,14.726857318306546,12.288785612561963
-20.0,-22.208639262683764,-20.00588245064871,2.2027568120350747,21.14543889233802,-12.166386227957418,-8.85279855907616,2.6745453429354353,13.79481208418429,8.679971340196913,16.955428561333143,3.3553354113889187,1.3318849361556442
-19.0,7.646555603150734,-3.035209633357182,-10.681765236507864,-2.346596177802411,9.201959015565308,-6.8922307985655555,-3.995290299305884,-0.5290145594718236,2.387115830092587,-4.765430121858328,-15.146932598225431,-9.03652181203211
-18.0,42.92904412566993,19.27750193650038,-23.651542189169543,-31.06709472933601,33.24967149055385,-2.224496576068097,-1.0661675396478285,0.1269162903720793,1.8341177641519624,-10.567293359656583,-19.20909560485037,-2.4907255657693823
-17.0,-1.3262763419573034,10.836560678547654,12.162837020504911,-4.720431457974167,-6.784375937169688,11.45840005388241,-3.314863568673585,0.03910055045883265,-0.3840416221634178,-4.14775709123771,2.5287091082777398,9.43477294915152
-16.0,-20.694367708661115,-4.151114331868593,16.543253376792446,12.378236842697078,-18.658200315487502,6.230008128366485,3.0750853818133796,-13.770528887896745,-6.103059981837315,-4.763635886751942,7.266942000879793,6.229991371045591
-15.0,-2.074426508585053,-0.7941375657139788,1.2802889428710102,1.468768055733265,-1.6379450586024857,0.27451864550505567,3.387434297777783,-17.999385758555746,-12.451120232139445,-7.4203537053675594,0.3062912177108146,-2.927317937826705
-14.0,32.20497637450973,7.6894073916200485,-24.51556898288967,-19.913007190065713,28.399811097090232,-8.382651759409724,-14.90237913794618,-1.847959040106872,-1.3844161879949395,4.154607542309237,6.00255095485904,-1.1189173069962872
-13.0,-18.60031915059158,2.52266162681073,21.12298077740234,7.991951314625428,-19.821738941284934,11.774769240724073,11.281600283988087,7.266946479489562,2.1388842031796806,7.708454159126262,3.4376043206620883,1.3464005235249576
-12.0,-44.48122097203046,-25.72313805590106,18.758082916129325,35.050241598018346,-31.658418904850166,-3.451086954028044,15.307049058077673,6.065400988167923,4.338699855596836,5.48276505250151,-0.6533092758224539,-1.7289670367882126
-11.0,9.731302755187386,-6.213184530705824,-15.944487285893434,-1.739374108414701,12.797840491665472,-11.125871422024593,-4.300648044666762,13.38692061769618,10.231136651331765,10.199612830745904,9.594340391293485,1.4835582282716206
-10.0,26.18458819814689,18.20567482490817,-7.978913373239128,-22.182549718351165,17.116914327144567,5.144389826848832,-18.776577966887587,3.1416498662853236,2.9006808028182625,-0.42516161538801933,3.5650086225305744,-1.5162512252514808
-9.0,17.536189969403278,2.576967575431315,-14.959222393972503,-10.048347258954983,16.198282849346555,-6.240329176072574,9.949442873985806,15.469036269444757,3.473909144162503,-9.850149762786431,-10.639357111408147,-8.14835868772365
-8.0,-3.4857458853760166,-12.021144786948694,-8.535398901573084,7.762295554861369,2.546967353838239,-10.25010616890865,3.269555591050928,15.516752420886416,2.7349246154269538,-7.800683703128832,-15.692024216835033,-5.34239239525308
-7.0,1.689128698160352,4.338047687950741,2.6489189897904417,-2.9984138209578926,-0.46466511788120995,3.5213198225140294,-4.095652635733149,-3.027892707441584,4.196056948355634,4.574665256543346,-1.907970326361558,0.10547627762814633
-6.0,2.520943444098866,12.819703236969508,10.298759792871147,-7.644207390471445,-3.878681559275517,11.588382919136292,-9.911695664925077,-31.987447834472356,-7.278019074764594,4.534356979945579,6.237401496824093,9.71489061266576
-5.0,-22.14546863052396,-5.786037514842454,16.359431115682387,13.92617346766919,-19.244278821658092,5.240003441674513,2.3294020244127274,-46.80278613414827,-29.07792264361085,-13.238397992247744,-1.2542802938657207,3.798553391820734
-4.0,0.21512367020763712,5.100264859514548,4.88514118930794,-2.6850804478731787,-2.3257454422446564,4.949923159287973,-2.955936196350931,-15.442881776539561,-12.181347232794224,-2.3394211523967146,2.871246145595096,12.737282770827417
-3.0,-19.576207945052918,0.20606451143945792,19.78227245649328,9.666595964222367,-19.74497620987098,10.034259322806278,8.591394582799285,7.836252790998695,2.9628928051778947,3.5139927568690457,6.379447647482247,7.314853775861378
-2.0,-15.020985633426264,-10.844448102973875,4.176537530452905,12.997386352593004,-9.580172217527016,-3.2903094987127472,16.36735601873334,35.837163968320624,15.488481184827478,3.186884240509486,2.646678117184318,-16.039749216249962
-1.0,35.183336202338914,7.252836093583769,-27.930500108755226,-21.232239911855054,31.581994840605816,-10.371558884796421,-9.798862846249438,40.90945771455651,21.842384500634168,12.73253622350894,8.621815601009256,-12.281288095709247
0.0,11.990749632204842,-17.16625377026666,-29.157003402472327,2.5700836495007042,20.60544505408424,-23.19346929576473,-0.4507895566114746,23.496550899252387,18.05538250537979,2.270950845590926,-6.642221633935521,-15.065990019872547
1.0,13.876933015596881,-5.009620491480083,-18.88655350707819,-4.456717721466314,16.340182592082265,-11.901623334156119,3.7533786235011437,5.357151341957414,3.764620438224344,-1.4439778567228505,-11.081626419066342,-2.791062237592702
2.0,-2.1752392397054576,15.546609226608895,17.721848466312956,-6.635643271533846,-9.986091225850775,16.600872245362375,-4.089764614698749,-27.98216450761278,-13.361995175470213,-2.998563143990625,-0.9392224466640959,18.986025008145532
3.0,-6.906992279527567,20.06397205812809,26.97096433765418,-6.61187379457526,-16.895812347066226,23.483496581241685,-9.198637276749794,-46.371565637891464,-21.494755266279853,-0.5310358315353669,13.272211396695205,24.137967862706844
4.0,-13.589093710015906,-6.785268556811921,6.803825153202922,10.229326375240573,-10.153437543556093,0.05491359343208657,-10.53336217970118,-26.388068488657456,-24.40173684631213,-17.06419133117114,-11.462654658842052,-0.29743820854881875
5.0,-31.971255694185828,-19.941300451511523,12.029955242674026,25.917575093519407,-22.03822428247884,-3.9072811061488766,8.802591034101619,1.6311293298374316,-5.216254225460236,-8.71768378488241,-6.380323667533618,-8.510926976819709
6.0,10.470552798390969,1.505064528301867,-8.965488270088173,-5.949631941444913,9.67759577360305,-3.7563848636104993,-0.5515680191757566,16.069318493242882,9.065129415239308,6.239930721041239,6.825121660168794,-5.468841942002085
7.0,33.74171316425117,3.3310856928132315,-30.41062747143595,-18.579581054969502,32.11208810937509,-13.561533687724097,8.656541402300967,50.24620013788711,32.559790590156275,16.479244276910162,1.5387283156277984,-19.487299843453975
8.0,14.498472998379254,17.73745514540276,3.2389821470259275,-16.086246999518863,5.58647727453722,10.46972924067717,1.6747358884926538,27.96829944774894,30.652999118954455,18.719384289559272,9.180825439319339,-0.21117146575887524
9.0,-20.461200109720377,7.922946487745587,28.384146597468142,6.217304186687702,-24.384361145570956,18.13629807332084,2.729161149262732,-16.078922652255503,-8.79029558410478,0.45011550383168064,4.395313542730538,13.619828385287162
10.0,-15.050687755804114,0.982972313806413,16.033660069611294,7.056166947160171,-15.49739749144442,8.56888932455275,-5.266585630197042,-42.64533643111899,-28.85522568730147,-16.64345681127535,-5.04676175466015,13.49568804147621
11.0,-7.496455140634513,-10.702249597468853,-3.205794456835015,9.118747081187111,-2.1701453865931253,-6.974793343241783,2.0628853389610713,-27.44761580430378,-23.69986788346111,-14.688980732152674,-4.17025010897432,7.630666389121346
12.0,12.281161526685413,-24.558558316431377,-36.839719843118736,6.158233602967125,24.545405278737967,-30.723357043572317,-2.4394119741858065,-0.3807148995189813,-4.703479220977508,-7.21873167218331,-11.258942245850712,-13.555406520307576
13.0,-4.28490181346412,-39.37458500996172,-35.08968319649915,21.774343721198335,15.395238239031528,-37.18107356917902,15.627161564475799,33.080569295936506,20.1195513917353,4.138209530096108,-14.140383209988405,-28.228521002210375
14.0,3.289855943395476,-20.20855037242311,-23.498406315820024,8.489789959142811,13.390866244326222,-21.883980171841866,5.5730830151136175,42.91240031425714,26.07465340963452,6.708630708948691,-4.497432831369109,-19.99571519796651
15.0,5.44714487045339,3.181301213987174,-2.2658436564672133,-4.2747777013731225,3.852081836572916,0.4255709818811343,-10.10156863781874,6.94383321146065,5.044632171019144,3.2979151915170117,6.231418931674487,-4.58983518639183
16.0,24.898678331216697,100.94706820891865,76.04838987770162,-62.953247902316065,-25.58523207731336,88.54411636850085,-31.216377286078767,-41.452416177082796,-20.73099218964838,14.598384008487217,45.0896533990936,63.18995205851162
17.0,-6.17949262411133,74.08528862389149,80.26478124800258,-33.97642964105127,-43.16327874178832,77.14395698747259,-12.620206335140598,-40.03682307831699,-21.90133535153226,7.05960092542196,23.324577203127276,40.83099068064466
18.0,-14.60045608257764,-0.3910588041523724,14.209397278425058,7.475558773508677,-14.436009594781913,6.959335487679031,-9.380015490128159,-11.97621506106647,-6.6942519274140135,-9.645399629292179,-9.585998233063474,-1.997641008311465
19.0,0.3890444880352195,-53.44077412243183,-53.82981861046603,26.58380225096674,27.06751007915213,-53.660737937735384,22.621725039253512,34.495631313362416,29.42201925788161,0.5961573387709027,-26.455674280138837,-30.684557567916645
20.0,-26.241643783143513,-68.67334948059397,-42.431705697448415,47.4326866420525,8.12314571803795,-55.57482781215447,37.91196444608773,19.942313813059606,1.1477111099167132,-18.003135205655976,-37.65069248917282,-38.78973298772026
21.0,-13.418469928692176,-54.33051387840801,-40.912043949713805,33.843568749000625,13.769458895630958,-47.64091943089887,26.515441955550777,-1.4018050225829661,-11.216381512771948,-14.867547618771248,-17.12487664145715,-23.51519800046159
22.0,12.184820664597568,-20.076482908022808,-32.261303572619006,3.9869774424683797,22.243806881874534,-26.1077765820381,-1.7604904518768745,8.335641156777776,0.97093906401438,3.190507016658218,12.203938407993796,-1.360560418360933
23.0,32.210466551734896,29.579020875384973,-2.6314456763497436,-30.859407858550085,17.36385924583971,13.457604780179025,-22.700763937310356,8.585627852162434,18.550519659397096,19.59054786532471,25.239464630107857,12.354285129515054
24.0,21.532240578829963,59.10358562977286,37.57134505094196,-40.36518719637411,-7.995455178649372,48.322402645975956,-36.675091849656134,-5.500152373045194,7.9088637594289,16.25437335703096,24.092588474878326,27.93124823251612
25.0,-2.166511851087794,36.59011568272197,38.75662753380837,-17.260342274849087,-20.434896187227572,37.65933374986034,-25.459743787920168,-21.094458812737415,-9.900567035734284,2.707430946336574,11.381589642898813,19.61469217146983
26.0,-5.765135863902364,11.454798480434093,17.21993434433515,-2.8131315075111694,-11.542896550095733,14.32438583737251,3.0253126904700007,-12.978639350815845,-17.40459666765465,-12.148132560073117,-8.171754106992214,-3.2991993287532377
27.0,-30.0384696311535,5.248156627494694,35.28662625864748,12.430644193237482,-32.63356152224427,20.334117887902465,26.289659042553584,-5.954027106709425,-15.072721473642979,-8.840421663576954,-10.890702468518054,2.279973397149477
28.0,-27.39414573855951,-16.4401121127271,10.954033625832405,21.95749112074312,-19.223866740659204,-2.7547000674146522,27.033322624891174,4.108929741631802,-3.286633014443506,-3.772963654809952,-16.948415901939462,-7.993092997160502
29.0,-8.03397159308608,-39.34403998234919,-31.3100683892627,23.654813766687482,11.667330440790762,-35.33966529922874,21.10704838291141,17.494292931559954,10.901024678194077,-2.8630399638008743,-11.574689201091251,-14.873238502544922
30.0,18.75521920853811,-31.131562597313128,-49.88678180585063,6.155860677179696,34.35169565043172,-40.52456848660448,-7.742109260522071,16.679339295042222,14.774337335362544,-5.57705609787773,-10.688571060695187,-15.117611964436207
31.0,47.9982134821932,6.977299839230184,-41.02091364296231,-27.521126661277933,44.54288529481004,-17.041675561562215,-30.445758608969918,7.658543772846054,18.928246644744892,5.507613946250088,7.121898659095486,-0.2669038741894898
32.0,-13.416140485356399,-9.284880613612442,4.131259871744398,11.392793865538343,-8.815962170150485,-2.6018691790533897,-5.983120909632353,-5.378641276896568,-6.023331751833261,-0.8018324862315809,0.15446465905912543,-6.9852204769654005
33.0,1.4507397806333389,26.033563541423664,24.582823760790475,-13.781562925455566,-11.605656527976842,25.357396634854794,1.9801974792659554,-18.29472547111199,-5.508272135750673,13.270573843364714,29.185022402707244,20.667040098181495
34.0,20.28846376071694,34.031807770059416,13.743344009342291,-27.121041858687576,3.3130206766707104,23.93413241939402,-15.249738820594809,-17.512068061166083,-1.5695486395158893,26.726010085796688,42.2080787888649,28.47089881834184
35.0,5.712929600599631,12.251569495806919,6.5386398952068205,-8.938959589438202,-0.4512394546768519,9.362330517927564,0.04128371223274663,-2.5634921652958855,-0.19976187952448754,10.787836998854225,6.336371411008811,5.862749325640209
36.0,-41.06342411568332,-9.347888423022217,31.715535692660595,25.17892800363773,-36.35002100469529,11.151709990385628,18.900420791221432,5.320245839846042,-16.713113465894402,-27.17633434856246,-32.868944730416295,-9.711256856713279
37.0,-35.662503508732165,-18.581931306695694,17.080572202036187,27.107056221518924,-26.41162823356131,-0.7035862529845089,14.309028578288702,9.984831708159627,-16.93530735793874,-34.96560563512362,-43.13634621288341,-15.681380084769318
38.0,0.37989338007674434,-11.197714215567652,-11.577607595644256,5.405195612956096,6.017399984251696,-11.42042410731866,3.163756815584099,9.024171943085559,4.933655041683754,-10.839040788774229,-22.959405460534022,-19.21344676005324
39.0,12.732596587215996,-7.537888371334189,-20.27048495854977,-2.5930359802482656,16.54101106697551,-13.940282014318733,-4.026983016908199,7.898087856717835,17.327385648269086,8.646638006123844,4.530824955816685,-7.722714268494279
40.0,16.528931602712724,-6.137973626703679,-22.666905229416002,-5.189239856956036,19.55967054425153,-14.365039696302151,-0.40994978616919564,-0.6603476264007622,14.115407955194785,15.733365045779909,18.326070152149136,4.6937981017689925
41.0,22.605608163443744,1.057510905617402,-21.548097257826218,-11.830901518651723,22.038968592777273,-10.213945734657711,-10.318637398442451,0.8034604784330828,8.955263072900873,10.391288573697077,19.422775877808903,10.727445978755105
42.0,21.71899188929784,21.842839994394772,0.12384810509675148,-21.793023248537526,10.837595271413674,10.930614694116361,-11.910471334310387,-7.30312844725253,-8.36421706114275,4.840479530869812,14.91088063110541,12.572252211054819
43.0,-15.207907150880184,5.382972854824491,20.59088000570434,4.88245699223911,-17.939938745026097,13.009780334446415,1.9291530832001094,-9.424666572823869,-7.771631780856335,2.8329454676978694,2.494126858539575,5.1537237882569205
44.0,-22.829833812567713,-6.173811287637223,16.6560225249302,14.530884832417073,-19.706516429123255,5.263911251955271,8.981464742733467,-4.616023378407984,-6.335623573863949,-0.9598553599923529,-2.916542111859705,0.8855025704759658
45.0,0.12300792443570785,2.8473806534661152,2.724372729030211,-1.4737057124370079,-1.3434325193284664,2.7332441664229696,2.1316380571233893,1.0481377046106206,0.2090778638473818,-1.2534927051273073,-1.5107369857891166,-4.496580241337289
46.0,-9.185561946906159,-1.5037590473395532,7.681802899566626,5.344102500942206,-8.395637604646556,3.121252457502896,0.6739615766454792,2.754449797470526,-2.8751078126536345,-4.668923377768993,-1.8599118714058456,-3.3077449620138806
47.0,-6.780159413843159,-6.100534626239168,0.6796247876041597,6.4354081178020826,-3.6871086159477233,-2.67057307038201,-0.1851878904161346,2.654176926596725,0.7786630799233168,-5.560411759165205,-10.357642208159813,-9.898795376149314
48.0,19.26482311906145,1.0724302944153417,-18.192392824645836,-10.169878832111383,18.699278378885307,-8.591318076649362,-2.6155587271239447,3.6883900082589456,2.3128103686005375,-2.502875062993546,-14.398216884930676,-6.761000531644144
49.0,2.4998393748337957,-1.0158363123371075,-3.515675687170715,-0.7328362861598277,2.985437332643057,-2.291242487038632,-0.6598898707315064,-2.141773548783769,-0.36327377206793265,-4.289553647938614,-4.366533601741257,0.6748795959937217
50.0,-3.965371540740066,2.363035222217667,6.328406762957751,0.8248051182754412,-5.163450398597339,4.323437668285711,2.936417234919252,1.6916862862323345,3.363110239426593,3.2870768979740674,8.688105252620876,18.806282786501857
51.0,-0.5603694363142623,4.247860063228388,4.808229499542433,-1.8836518696177733,-2.6974922069772598,4.58492885188952,-6.235145575085396,1.9681539947090987,3.5875888771064584,4.992473753747098,11.855291927915747,12.806719459651394
52.0,10.563994651776135,-5.649280282131045,-16.213274933907385,-2.484471076474386,13.454736562876088,-10.954991972087871,0.4435970033237462,4.6702280733703905,2.034527473953692,0.06808475072473374,-1.5384407536814066,-12.307983642975525
53.0,-4.6736483321135465,-10.56275113947536,-5.889102807361924,7.677931637527983,0.592950098826388,-8.253024853441932,8.369457837406715,1.144908799070993,3.463308667013954,0.4366006515599068,0.5718023166417585,-13.276438915191871
54.0,-13.359053500079154,-1.7825073041945658,11.576546195884728,7.554134983088895,-12.48686911227828,4.944235204194825,1.4255268723828416,-10.296720322644633,-8.012808070976376,-0.13860898406808853,0.13043190383764514,-5.994626193608774
55.0,4.4826682549136905,12.26407594825017,7.78140769333672,-8.393080553914164,-1.674162597461681,10.06448066923124,-0.4518309679504993,-3.833372489081871,-5.728880323414294,4.229051327603313,2.98658172629627,3.6575462991390477
56.0,11.043622791396002,14.854803031488567,3.811180240092699,-12.976040289538467,3.6639017492491317,9.289176800295959,-2.8050453907346236,0.4575325617071133,0.6224562940221667,4.701964819252318,7.908623736933189,14.481555855825416
57.0,-7.876033068265244,-5.963317715057735,1.9127153532074437,6.962441591872912,-4.931372995931303,-2.077307599303105,0.7999262479125884,3.495329392463497,-2.4160487127212815,-1.062373358465102,0.7903941768345104,3.079918247186332
58.0,-0.30152436694921103,-2.000827732470454,-1.6993033655214234,1.1848082808211657,0.735785956054968,-1.8321841142910105,-7.348205683542537,-2.657066466094741,-0.002167862261764242,-10.879327910917489,-14.24838913530846,-6.62317555329123
59.0,-7.8130663566346765,-5.227928708896538,2.5851376477380006,6.467841277308155,-5.244366828321276,-1.3114043631187653,-7.556640527316731,3.574980916571359,5.726841378128211,-2.9922971617778735,-5.481773688940019,0.09073875401383846
60.0,4.6195556000135305,-6.6741506728076985,-11.293706272821233,1.048293732046143,7.9880665401488,-8.978739342580326,5.528982699309254,5.1472469423073415,6.864420439017593,1.9726987892291077,-3.7869374488083896,-5.176197278597993
61.0,12.409206526055927,-5.671895796311171,-18.08110232236703,-3.3501130454239023,15.275413898558165,-11.87127032690205,7.05462752299908,2.91523079195812,1.810930211266427,-2.1129016731374586,-2.9730851872295085,-7.520412996290922
62.0,-2.1753792317569633,6.669462481295146,8.844841713052183,-2.307244099915107,-5.559593486379824,7.767859522756022,4.434136449257087,-7.58015140195603,-5.555677068944743,3.1457472199658563,10.643659103615324,8.912379357575087
63.0,-11.34700922189851,6.107352076020726,17.454361297919277,2.6404904094684545,-14.372785683796486,11.801544160700024,0.03738182963944148,-3.9344855487479338,-6.385344682083177,2.982745977518797,6.648989048988902,6.498426230196598
64.0,2.6091764566574067,11.89773058857949,9.288554131922057,-7.229014709139805,-3.3923968660250745,10.547284650296824,0.3709513517942532,0.3719208262808533,2.324917025146461,8.957880495507464,6.93245592846622,4.088953025708669
65.0,6.915845790854972,-4.309911005812486,-11.22575679666747,-1.2736793922260992,9.094906465358479,-7.723427798959403,-9.80941877720656,0.4604346841459085,-1.936180519893532,-4.612765113989438,-5.028123291830953,-8.93548056225558
66.0,-2.4160296509674604,-15.466495413541129,-13.050465762573662,8.896977287264333,5.340003366084605,-14.28461085334162,6.613483768055994,6.697821398070319,1.4029188319767298,-6.875076693526252,-8.479124337359366,-9.245580980925576
67.0,-2.4418821122729835,-2.735542918151763,-0.29366080587881527,2.5491511682907286,-1.0514791774295618,-1.537272192851118,-2.5012716611340062,3.299999382754658,5.431780476938923,1.8886433997735317,-1.8113359421504969,6.521128061438683
68.0,-7.69693155843827,-11.185169251917884,-3.488237693479708,9.483848481180233,-2.1594015795808934,-7.360536693135823,2.664618927519056,-0.39923577810693045,0.12394378861978428,-0.4892917382380739,-2.0524448796977985,-0.8783898215672648
69.0,5.0474026222224335,8.218272932050054,3.1708703098275706,-6.58803063635552,0.9637214687242119,5.745230401389692,-3.1277482511376187,-6.809643404921605,-2.8188107962615314,0.4774550865011159,1.607999147120259,0.5484521865963864
70.0,6.920464274783834,18.20927841231469,11.288814137530846,-12.598720905987708,-2.1571660262517693,14.715777024119687,-0.6478904021287489,-4.248412066740279,-3.3786679672111313,0.4028272780436386,11.426813547833902,5.006100188326711
71.0,1.4358342867805183,16.27476608821135,14.838931801430903,-8.89104128308635,-6.752887288071906,15.598082017840902,-3.4315476175705095,-1.5171607643165772,0.2927556072773403,2.851091018420843,3.3607046384957595,2.6826804376082065
72.0,-6.412737843790662,1.32646306501257,7.739200908803324,2.5826091535584546,-7.049929411768018,4.5715530894746905,-3.482453528377757,-2.0146302482495955,-2.691807715970393,-1.8776743402868543,-2.6426886902932387,2.8364475312272592
73.0,6.922566878918096,-11.324015518227581,-18.246582397145556,2.157080376911491,12.607455018940582,-14.826458923521349,1.3250224736629146,4.807409085566833,3.1311350704213123,-3.4535087081233486,-8.10340073388225,-3.864135650501165
74.0,-11.287933969198054,-14.239779546368368,-2.951845577170241,12.794891516706588,-4.228151594763456,-8.637723869667372,10.513301318525864,6.543569601766009,3.042585099635631,2.095600526669651,-4.360715915750627,0.9453886572764181
75.0,7.926125012260918,-10.180107285985477,-18.10623229824653,1.155311265729516,13.03080433015233,-14.107549699589587,4.821487443667795,5.1796829954033115,7.172225285681561,4.581940544285393,6.724485963084626,-2.33289792695992
76.0,-6.571893245945938,-9.598606924110326,-3.0267136781646977,8.03409619406642,-1.7602811847699575,-6.357576550925217,4.738146961041915,0.9288655021235468,0.12701054165750336,0.6770683685996732,-2.2900271837503094,-10.87309681203967
77.0,0.19338056991561148,3.8090687310024136,3.61568816108646,-1.9723408992857077,-1.6983901822991778,3.7445733348076486,-6.923195013259915,-4.7791944540674915,-8.44083797514541,-3.9716762876105878,-3.173931663510662,-4.496116195809513
78.0,7.689139874889437,18.232826766350904,10.543686891461316,-12.929325212699974,-1.4111231470915926,14.420074288351657,-8.825583625185232,-7.218651214504605,-5.324481068320672,-4.775636183247941,-2.8222832318661553,4.51746958433766
79.0,2.9860293202615913,14.080717958627082,11.09468863836555,-8.577004410374723,-4.0327372602892275,12.542557021205718,-5.359664453566065,-0.33825992397345583,-1.44013816784445,-1.6956114643731908,1.5385366089128272,8.10418676214314
80.0,0.5666420314630853,-7.209450232231015,-7.776092263693975,3.281189643139232,4.12016892734893,-7.455007903473527,-2.8593428042514892,-3.575380222272428,3.1862374760344285,1.5625692353340062,2.4699393850687117,3.3589879755409084
81.0,-19.119291923430602,-13.470280118378318,5.649011805052356,16.33626102818503,-12.430405836394288,-3.945741301265222,8.854437451461044,4.3582576284233365,2.7540118052250575,2.3387072791728967,3.7152365014891227,-1.7267765860847737
82.0,-4.025771159902917,-4.363759965860484,-0.33798880595755315,4.238571427172916,-1.8084490482517621,-2.30099126387136,4.256035957392087,-0.6646248339703869,-0.056344018377118665,2.8268211948966337,2.521303503073528,0.8694062232174837
83.0,17.827076821205424,15.33163288313055,-2.495443938074934,-16.61255392341718,10.197341343823874,6.394179226816145,-1.8828080998546115,3.2010991833255416,4.902878382377558,5.29392915744586,9.552808783252475,9.298377386641711
84.0,9.789834755453725,10.512453425959084,0.7226186705054118,-10.183097921777563,4.568176599510903,5.5958931919782255,-3.692484869737663,3.9385977929975535,2.5252713891702783,3.6881542071306628,1.4033052263496557,2.570923121646656
85.0,-9.500140543378269,-6.878160075278805,2.6219804680996166,8.23687701306229,-6.10847489331229,-2.1507884879357335,7.190460139773134,-3.2856478377191944,-4.517232609631604,-6.59321519112958,-13.37465851137864,-12.88641810558483
86.0,4.254519366895863,0.81398395699724,-3.440535409898423,-2.5643300579557975,3.7958947159164103,-1.2613211798947188,-2.1063297065810125,-3.138166328841644,-2.8500078787078307,-4.92157655127146,-8.447784846694733,-6.230015149922994
87.0,-4.805581388019727,-13.109671514582464,-8.304090126562608,8.928890153099953,1.7722814810972347,-10.739773017412325,-0.422623976794396,5.27907193862461,-0.2951915533810805,-4.6265786716923785,-3.921545482162206,-8.047040618294119
88.0,-6.709892541777086,-12.200244570341663,-5.490352028564573,9.507004103540302,-0.589410923945609,-8.806174962032639,7.150826474066954,3.8630522534785854,-1.2578721584261325,-0.30933122362929133,2.533197599518566,-3.143937718275483
89.0,-1.1514163983959076,-1.2209008243830732,-0.0694844259872967,1.1615159697009099,-0.520886574120955,-0.6909571517419502,-1.5271796635552484,-3.3034223607849826,0.15452441144586576,6.5412980322617225,6.695041432706498,10.72751040218895
90.0,4.391080995407595,15.547749475570374,11.156668480162635,-9.913887345939372,-3.3604695478372326,13.380460278731054,-18.078286588310927,-6.222027237415994,2.6491907390299136,5.393667719384813,7.292158538578198,10.799918581505965
91.0,4.885146870416704,5.745469001116717,0.860322130699883,-5.339327558458028,1.9599557657910267,3.32809739363464,1.665827148348395,-1.9844044031093793,0.49877998125247336,-4.138369357634925,-1.257214857256332,7.754043334021003
92.0,-1.727691648062752,-2.373463507217438,-0.6457718591547481,2.022208410678198,-0.5103307673868627,-1.5646884984655776,8.242406131071919,-0.34336485196276045,-2.2522465595377605,-3.1785838528850316,-4.968632729566867,-5.52700497977493
93.0,0.7795689112790745,9.542489563217133,8.762920651938018,-5.197776339108759,-4.036382241485804,9.1760096098873,2.9808845192288427,3.146827020657569,-0.5826736922542699,-1.602737619638421,0.22206191932702346,-6.5780406873246005
94.0,-0.5882888096614833,1.48551757699761,2.073806386659027,-0.41821218267433524,-1.2952149774230695,1.8033860415455225,-3.8628821390484163,1.868150558290968,3.8274830629516963,2.8059011870952695,4.507688259626659,-1.36587496690961
95.0,-13.638787750282642,-11.929740283584309,1.7090474666983098,12.801780210141288,-7.716635907585519,-5.164321223799703,3.617954384694409,-0.5687362342934676,-2.21831682628603,2.218715386268089,0.5513541240567503,-2.9616768468586114
96.0,13.408832818736613,-3.603164143299697,-17.011996962036214,-4.897048454265733,15.245611017297584,-10.281065546141049,0.4923113886535846,2.9624758455174915,3.1368360927632346,2.9654106588856637,-0.7125808607684414,0.60354568645548
97.0,2.6523462855453244,-9.03295003255298,-11.685296318098136,3.1877182303864426,7.2027991831074845,-10.330004870338424,-0.1471588235978659,-0.6777996248295259,-2.8941956969344544,-2.482560446939933,-6.209412450383987,-0.25363808439172575
98.0,0.7741822173328743,3.2986095887925986,2.5244273714599084,-2.0425346686982664,-0.9211097204194045,2.865473790430463,3.764843096822057,2.1691916063429835,0.3373284150048459,-1.0774841979756467,-0.17385723310318424,4.628245368152476
99.0,-1.4732422129237288,4.22424417705323,5.697486389977017,-1.3798641944382672,-3.553800782036651,4.998055850322057,-2.213156180634786,-0.5538799228059105,-3.0390775015328346,-2.8285798448143087,-3.2303659190324785,-1.380253879533588
100.0,-10.919287183712736,3.741774157276001,14.661061340988637,3.591133436397901,-12.838756491890377,9.16488296569653,-7.6916483081834315,-6.605802215139766,-0.3179914810987119,-2.2215893159519826,1.803191702913849,-0.8645821924908315
101.0,7.997444613359573,8.628699127741214,0.6312545143815118,-8.300082075683555,3.711472874933923,4.677146893866583,-1.6766100423977446,0.7328893349005998,6.0276802075978,6.135982145592856,10.76748978183837,-1.3874724803718015
102.0,2.9365594323596724,1.9670115658753153,-0.969547866484445,-2.504712897976648,1.979223644730467,0.47127988847277624,1.6654803491780465,2.2324510852099024,1.6825537257052805,1.41962089378913,-0.6849594815697433,-1.8766699739222754
103.0,-2.30406300907225,2.802398369453159,5.106461378525429,-0.21035878955876763,-3.7602882690927175,3.9295407483918745,3.7170987648506317,0.8798273977800423,0.8599350392829086,1.0207807721525977,-1.379604274804472,11.729892095904631
104.0,-8.847150317920237,-12.540075632927831,-3.6929253150073755,10.7432675561485,-2.555754362193989,-8.062172928936123,1.8503417041193484,-4.133235417477366,-12.5258291415291,-7.1790983566872235,-7.90368104400347,-2.1835547962651027
105.0,17.156767701320465,-3.345173540533855,-20.501941241854073,-6.9283494191304005,18.848771823652868,-11.949782432566927,-0.69366399800909,4.260926719871868,1.6729864954626863,-3.1007986773168312,-0.11907057043712088,-2.080258923863865
106.0,-12.78100197873127,-12.191244855603342,0.5897571231280789,12.464399102227087,-6.667217272331644,-5.830781587569005,3.3320719487064747,-0.48637383394660927,1.2344056058492,-2.608610751467854,-2.7361230066294584,-10.103022926725334
107.0,-0.9231845307564002,1.4377997674528857,2.3609842982093,-0.28388084385219914,-1.7031062016011138,1.9429447761187495,-0.5130254464588492,4.030100171126586,4.962866319293529,7.038860059397855,3.1052560399757754,-1.1146250254958083
108.0,15.405006731084011,18.181790265046818,2.7767835339626723,-16.82866625216086,6.332274226368909,10.43849639447371,-6.856494826069515,-2.3287524774458337,6.421122484559281,10.59232529006505,8.62443772597353,4.0231189331337065
109.0,-11.76251924248242,-1.690131906781188,10.07238733570109,6.760475570903115,-10.89799135387912,4.223971673303005,3.3173760170022315,-3.910763743530079,-0.45297865830026396,-0.511775730552734,-1.828950961864832,0.8009371180231586
110.0,-5.93114990040492,-1.6041742882795003,4.326975612125368,3.795261144750648,-5.107511773850744,1.3902814591073298,1.5249053443782872,2.295871898305686,-8.21600687930197,-6.532699265031435,-2.665555939524206,4.916960930972566
111.0,-8.472076122831119,1.5335696773478664,10.005645800179037,3.4953112609604307,-9.293348439969522,5.717279083685394,-0.5688511426221686,-0.21232023854554133,2.966070301442543,-1.1058128873935553,1.3248340118059332,7.051383869088871
112.0,19.029535073401615,11.801590359118894,-7.22794471428255,-15.385902144916619,13.156135620917578,2.3124056602157004,-7.047437408219849,-4.773136198400344,-8.409181125482291,-0.5612376618448089,3.468509361942788,1.0428803732977006
113.0,8.090836206071295,-6.309054194585883,-14.399890400656938,-0.9331121771807789,11.276200890326262,-10.406839588691485,1.5835401658404815,2.4676519039656934,-0.8705593789883586,-7.002473404738717,-7.291178546110054,-9.480621885165906
114.0,-2.756929578283578,-13.01251314030371,-10.255583562019963,7.849744096941022,3.705238993071948,-11.605314895738896,4.982551904990678,4.014062562376145,8.648887486472931,-3.527869060957273,-8.617715474413238,-10.658617178360124
115.0,-7.951320094401484,-7.356802534530216,0.594517559871397,7.6241234337786015,-4.3125507865362485,-3.348882283290025,6.493550493487833,1.6168507169578084,2.569382967888688,8.453356841425459,7.519948702195374,2.642372670755206
116.0,-10.307532136535585,-0.8851950260348671,9.422337110500706,5.646666869741063,-9.820498849943398,4.304715489649483,-1.5588078616145498,-4.1206599110070945,-3.3696961841779536,2.47560500974238,1.9803121563367063,5.828935216034594
117.0,-0.6657199913874434,11.897561863524,12.563281854911262,-5.646379580492651,-6.564021779041983,12.190952802536795,-7.113585829657194,1.5278959771685225,1.8028701968370453,3.4144051588018813,2.2891227785996433,7.047281596126821
118.0,7.69469882000984,11.350292421881438,3.6555936018713826,-9.478762641561762,1.997276771667038,7.464995448559983,0.4867140063818982,0.06130804972096249,0.3432750277539611,1.3067388205851387,-1.957204268704582,-2.8851376545395606
119.0,7.9779466482689045,-1.6139853926296777,-9.59193204089878,-3.1441206679318876,8.767293254910763,-5.641070750793285,-1.9762380543428484,-0.6215769800307663,-1.1846329116706884,-0.9077311036991418,2.2709054653083265,-4.761059941430479
120.0,1.190114601944062,-8.665677429290307,-9.855792031234458,3.6908442299527207,5.5072195881733625,-9.221114500715393,2.650761303567954,2.2191298596672753,3.374778995722086,2.2773570161531183,11.530161447759154,3.776544170820638
121.0,-3.4118172879622404,-5.1828697434340345,-1.7710524554718132,4.2452432665322855,-0.8376782211622125,-3.4379937664001137,-1.6870002944371072,-3.2058114277310645,-5.879159778063938,-7.5104534902306375,-5.653131364561247,-2.6108161034657247
122.0,-6.1783666358626546,4.668357947581737,10.846724583444473,0.7784802156148691,-8.455906843183046,7.797032393136425,3.849365172170994,-3.1718558940079227,-5.151833365647457,-8.894538252420455,-11.733649681612151,1.6775530816549038
123.0,-2.2583872905353557,6.111541956693959,8.36992924722947,-1.9032320558019022,-5.343162375327507,7.203116971187045,-1.7817912944018195,-0.832905823860019,0.6365032886540942,0.5150472118895633,-9.149435077348153,-2.5437430214585457
124.0,3.881411166139519,1.6807712125727297,-2.200639953566581,-2.754231649425381,3.004830968473335,-0.2955487433305337,1.82459344504997,4.792953571643867,6.598591144752715,8.804914406481798,3.884623893455723,3.458105274238772
125.0,-0.5698415407169253,-7.355927201485393,-6.786085660768333,3.9178630778837276,3.1450488053990484,-7.105095099150678,-2.7600774273613977,2.475099824664975,3.1637050033675007,4.8177009373883495,9.264066394154863,1.0461102003115546
126.0,2.0660844217273824,-6.243611225417937,-8.30969564714534,2.131386474820709,5.222134930236137,-7.23137296174403,1.9544331354164182,1.9019864304871055,0.036575646334108036,-1.8070161582004363,0.8873069545425913,-4.385469997882682
127.0,2.663105585317118,-0.14937651593389423,-2.8124821012510894,-1.2841829365137822,2.6940551327785003,-1.4358638949535214,-4.364255204069286,-3.667245926415391,-0.6304097741752528,-0.6894688222656881,2.15888507432864,-1.4189935270712495
128.0,-6.641354333146499,-1.2912030569633275,5.350151276183078,3.9453462117768043,-5.956997266573229,1.9950878677172732,6.017131895453463,-0.790662049649745,-4.50324938954671,-3.4814652539098008,0.44678019721669426,-2.9494860870457122
129.0,3.043057260965583,8.176580643872882,5.1335233829072155,-5.549938805523164,-1.079681969347301,6.619870040471058,-0.48625859248092174,-0.7584442250606191,-2.9126333050488817,1.0276031332460027,2.0767775698862367,6.751224738180067
130.0,-0.3768816343068896,4.851759030045917,5.228640664352712,-2.2594277042542097,-2.831293032021435,5.0832211132022,4.029044638578104,0.38742138169665086,3.2947250323916997,-0.9180414566720694,-3.186493714596471,2.8941074199567813
131.0,-4.680475414532436,-7.915746922336576,-3.235271507804209,6.268424332206703,-0.6673800862944443,-5.611284382734667,-2.5676792680543468,1.471388616081645,1.1081058507788533,0.3687866745177051,-7.27338345349289,-3.5462398155144776
132.0,10.401421821591917,8.014542260362163,-2.3868795612297773,-9.247819337107442,6.373777981065279,2.857337483977146,-8.355316632800427,-1.2589309604008165,0.4486200759886807,2.635013642090837,1.9625048906263416,-0.16619919969507513
133.0,2.172813309130492,6.765316757056542,4.59250344792609,-4.439599233475108,-1.2294518688576312,5.644598019023404,-3.8407042183819406,-1.395767924515112,-0.5293983200419782,0.8870376388603574,3.9588110527655833,6.362684789133928
134.0,-7.346885576590802,-6.87114385300875,0.47574172358219613,7.1328626438885845,-3.8539331008488933,-3.152334532102589,2.203399186198843,-2.920645107481853,-0.0405497270450548,-2.4395126513250274,-0.21427386582821395,-1.1225292927417867
135.0,5.13238301776026,-10.645561077528736,-15.77794409528886,2.780475097452864,10.429823957502393,-13.244657481973295,4.384082042332421,6.134632015797642,4.3271709402799505,1.0586067055201795,2.810572005887385,-4.9358664705266495
136.0,-11.380270660647028,-2.614139300564606,8.766131360082532,7.026457229030326,-10.103856296948496,3.0428913506432096,6.5048463166636115,-0.16563683028729903,-4.067728605375798,0.3512100992951076,1.3123578712352404,-4.0797134272373405
137.0,-0.8943883402555635,7.752714582229875,8.64710292248547,-3.470410688136264,-4.806705967785963,8.2448383284612,2.241716322948303,-2.6359040459993084,-5.632134565381334,-4.3919049844368985,-6.308155461675044,-2.5725282577595667
138.0,1.743066388427142,7.633156950123228,5.890090561696038,-4.721831317376628,-2.0345200499024654,6.727065677786502,1.2033059602047398,-1.7903825739699157,-0.9499422154401382,-1.0051724790001648,-3.144688727222936,1.8902683299512826
139.0,10.88878157859025,3.3839524525266143,-7.504829126063716,-7.0878763890918375,9.234502203017971,-2.016458038364365,-7.003084013569923,6.231610357709394,6.93806736148095,4.0366620649755625,-1.8988728247026354,8.14561343897564
140.0,-1.9126427984323158,-16.752703128313556,-14.840060329881354,9.300000712554745,6.502530681912883,-15.830563364165819,-4.446907044697268,0.4215755667430363,3.136126988397486,-2.1014863901956398,2.930176866200189,-1.495946235046941
141.0,3.4321944951847643,-9.669318186957971,-13.10151268214277,3.07800751341255,8.229281843414082,-11.339641239556709,-0.787620169054355,-0.39415743684362936,0.3563403037593975,2.7579774874600984,3.504493740370229,-2.35681027397757
142.0,-10.010845974466081,-2.111615592105137,7.899230382360971,6.088548425667248,-8.990642617120285,2.862082052190691,2.861786043749671,-2.8783291324265314,-2.947690641340671,-3.3023872786189212,-2.852759324972231,-7.846378607226065
143.0,-2.2923057827789837,14.81802482465706,17.110330607436183,-6.245760044713621,-9.736396297738173,15.933044658957359,3.6316040535679948,0.0975684870756024,1.6548859607026638,-0.13228436356794626,0.50355355317238,1.1885937548979002
144.0,4.8614433049367,11.059850696321172,6.1984073913846895,-7.949567639489351,-0.6255464083320943,8.676145713288651,1.287620841261309,-1.555345098860379,-2.193327827545071,6.3879589586776095,9.380414463144472,6.228102465174287
145.0,-3.6051466604364175,4.623294395057523,8.228441055494192,-0.4975883155422305,-5.95331338105907,6.3921516915996515,-5.308718759673064,-4.8363475060483285,-5.527892835660192,3.9385078329963648,3.8766670483184735,15.95650834719911
146.0,7.025622269394305,6.522978986075472,-0.5026432833187449,-6.755684562171548,3.807286408864964,3.052005087232328,-1.9209962097881315,-1.6078380753332857,1.146913456473237,0.10395163643573058,1.9765707053685837,4.110407876908665
147.0,1.0298653963290385,-9.016336610353502,-10.046202006682673,3.9454394075067047,5.584630727002926,-9.572140624157212,2.976938025984525,7.019597759268461,0.2648860021926652,-8.34019687327751,-11.855840143874602,-11.277584101111692
148.0,-3.3051328929414088,-12.353460065750205,-9.048327172809042,7.796367923164357,2.844976531245943,-10.667085608699129,1.1928784519514708,5.686912327966457,3.440852317835421,-5.633076345225151,-10.446585562735269,-16.34815119750816
149.0,3.1272094526096885,-5.502141919545917,-8.629351372155856,1.2476502346347793,5.857635210627215,-7.114122238287431,-0.8691903612905139,-0.8001020703314956,2.4539636899791493,-0.729578750961585,-1.7159873115679147,-8.37690760967102
150.0,3.123008974151257,1.7799692234792222,-1.3430397506721485,-2.45894487935031,2.2166672178593885,0.2467351519278509,-2.992374367937945,-3.4867310659024175,0.11404619246487058,2.8225756030243665,6.272745933307219,1.7997416837045064
151.0,-10.560020131530703,-3.5872470180616456,6.97277311346908,7.072020128583238,-8.781862260233096,1.7206745028585504,6.250200613729571,0.22288455061328172,-0.5203608521892458,4.506973535634196,5.723847551586785,12.714730473349166
152.0,-5.777745690486029,0.27548904287919074,6.053234733365379,2.7491540525138203,-5.8553674546195875,3.114845851571096,4.4613924000255825,-1.9440053603250274,0.421858821042954,2.443447429725881,-0.4950955912742554,4.900122775763343
153.0,1.092684971998899,7.8011784755928275,6.708493503594094,-4.4550532811976105,-2.8331672814759243,7.286472818655143,-1.455142139405569,2.274699213699873,-3.902342811317983,-1.725168596722567,-2.866292456439126,0.6582715991755279
154.0,9.999273573515266,6.732143172203851,-3.2671304013113387,-8.38394730095839,6.599457924166677,1.7666481140777455,-6.412997527238693,0.2200642380351175,0.4590823777995907,0.08430183956840995,4.5333522617347395,5.069456596730764
155.0,0.2011807230797693,-2.163394622153195,-2.3645753452329896,0.9516321738291964,1.3198019998340218,-2.3069808194169523,-3.4193558041114906,-7.955705541171824,-6.0271778204703095,-5.607970700864005,-1.3436132430556538,-5.298444366733378
156.0,0.6847490792255764,1.153640764995326,0.46889168576965834,-0.8792090642057926,0.06064342343868634,0.7684143937525156,-0.23532284006509352,1.4245743923389056,5.186896363621031,2.1908842657859013,-2.8996534642357057,-5.340943586666604
157.0,4.3199245175856555,-0.14739887749048353,-4.467323395076208,-2.051390900932187,4.423688211785824,-2.272662989373093,-0.5887070155489413,7.75748329265641,5.915635405119822,4.959178080081487,5.844743140825418,-0.8774912623982853
158.0,-2.8196132778638145,-0.03363434146092814,2.7859789364028438,1.4611547730151275,-2.7701008272577,1.4090872233126759,3.2716325676877145,-1.3675244046383646,-0.3256776597665869,4.939709697362844,7.645523510921542,7.263858623597628
159.0,-9.46066869454718,-2.781837186920918,6.678831507626282,6.080357064832038,-8.03211441298081,1.9013128578537126,6.582054589117683,-1.3108107686241255,-1.3363592952195258,-0.3242789952617734,-2.0045929839966834,1.8354344975938626
160.0,5.211353172401129,6.751087486350467,1.5397343139494406,-6.017221023899436,1.7990271227145889,4.176883266053608,-2.476279406449712,0.25557847101296227,-0.8954553929520037,-3.522978685259006,-9.061424564441321,-2.5034123285226357
161.0,2.9497560480893106,-3.748773143444218,-6.698529191533507,0.3679810001099456,4.788145282857496,-5.1906605392934715,-3.5318537322380705,1.9497482557141703,-4.7914651134843185,-10.437624277489153,-10.74531132446027,-6.058591087658894
162.0,-0.48342813222671555,-13.99973872682757,-13.516310594600952,7.29174461296587,6.476063235264624,-13.800751298830745,-0.5865646163623894,-4.16147397861266,-4.036929711888047,-7.486946390195753,-3.824968674992632,-8.894838911447552
163.0,-6.306524873488362,-12.485995443092438,-6.179470569604236,9.368946906819842,-0.034201959763337175,-9.371239001753471,3.4082948155100357,3.9243969380346195,7.509220993123724,3.2300120768952563,3.4643414972492703,-3.3976555396752803
164.0,-5.056739182668003,0.413745675609936,5.4704848582777545,2.3729404476679354,-5.245556211976426,2.987433550084795,1.6339278180999035,0.29067019639499436,4.734687571678444,11.161753018645364,10.860835653962878,7.427621406176412
165.0,4.192127096099588,17.98579028579704,13.793663189697348,-11.11718544374002,-4.792829863773525,15.86190025438156,1.9886233468149546,-4.865918665005015,-3.1324121300087917,4.092513860745946,7.757368096507796,13.907019137660058
166.0,10.134348638958567,27.355852111378123,17.22150347241961,-18.696406161278976,-3.5416071055121217,22.345248746759367,-5.656971899109861,-1.89599751206933,-3.7632928598309996,6.046517342483794,4.632074277185527,12.09728153772499
167.0,1.775169823258195,6.389167140062069,4.61399731680399,-4.11506821252429,-1.4176674515520293,5.484288200580479,-3.7972310597139023,2.3618774807017355,0.938495361314621,-0.14502514615148576,-2.289395302042398,-1.7658489569063196
168.0,-4.414435435644397,-17.189937766503203,-12.775502330858666,10.765687328579219,4.187570101129353,-14.996907640810107,-0.47479193115306173,3.0623934977295457,0.3655028267083803,-7.108613661525762,-7.268276542082006,-11.85141636213776
169.0,0.7783989154208957,-10.628382797613739,-11.40678171303454,4.885127390694527,6.108614355196779,-11.031303483935172,-1.3391797915824624,0.2028407378608552,-0.053706988612445335,-5.33638443325145,-4.615842441876759,-10.463728197745928
170.0,-4.880001466943356,-10.127065713018299,-5.247064246074922,7.54083384353493,0.13081802369687745,-7.703258050674847,3.5050036216774036,-4.343689879658079,0.045205142173747714,-5.886663759735063,-4.7210246555251985,-11.632092999169425
171.0,-0.7781381260117937,-7.568196533285513,-6.790058407273781,4.21198500173703,3.0404469024988683,-7.121514843052971,4.225998333925115,2.7001512125639104,3.2208140865833768,1.485592434326338,-0.9923165504958302,1.2837224883694418
172.0,1.9391009303966946,2.521377269791646,0.5822763393948496,-2.186649070189418,0.6393367952492526,1.5244108753558865,0.6079760657991171,4.1149496140604285,1.1947099238438783,4.5781086137748845,0.8321052529033053,10.36506524946812
173.0,2.0488383085439312,5.608401610994567,3.5595633024504654,-3.85721230186039,-0.7141633949341366,4.55046629102154,5.8664821123707345,2.344433447622733,-0.8190943175417955,5.245409423976474,6.952303828023632,14.123472676501079
174.0,-5.16158524575504,2.3731029307159286,7.534688176470791,1.3713923840392264,-6.386985225004132,4.99469353502706,-0.36892269838627956,-0.984988879152894,-5.605625312971511,-4.380687139967302,-0.5538749238512697,1.5639326445438986
175.0,-2.194778855200174,9.389778377937404,11.584557233137499,-3.6180691142561128,-6.852240700591862,10.44745139022151,-11.643323017722626,-9.910732964719404,-3.898302804624623,-0.46714428896495763,2.736710459851579,-3.1527380523272237
176.0,5.402979707856285,8.255655384121283,2.8526756762650933,-6.8525475237039135,1.2319855895027434,5.5942164571723385,-1.130718822907645,-1.6901217654556828,2.1101600886497955,1.2452841175709726,-0.5406830032711865,-7.087370616843549
177.0,2.9707557765569317,-2.57006770982849,-5.540823486385155,-0.15212005915379434,4.291472919642497,-4.0125701596997985,3.814746213150863,0.46424860808428536,4.75909091117401,2.3127017544498782,0.7160372554317957,-4.24261810146949
178.0,-0.7301395978013261,-8.592645208829227,-7.862505611027618,4.620836852547236,3.6042666305055198,-8.260624003414883,-0.26643163420516447,3.3199062438872424,2.0465840071074273,-1.286818064994007,-1.4355483299619625,-1.280442402972553
179.0,-10.668529048769308,-6.710168848442525,3.95836020032693,8.717485844363985,-7.350095102481801,-1.4080475234511098,-2.2829252611836894,2.7326672243955907,-2.4015358079896187,0.6087034277224055,-1.0032629802658417,4.90764313551581
180.0,16.647166288846556,7.35685943196633,-9.290306856880278,-11.981445506361892,12.936336986497885,-1.0010494428883439,1.0331539734736976,3.228401949234783,2.157159518582744,3.5454886209323275,7.3064338553535215,7.325612629270335
181.0,2.0715493816222055,-0.834350248496859,-2.9058996301193107,-0.6015658023869868,2.5381031759431174,-1.830840312279905,2.8679012065886393,4.308276838558979,1.02816793907758,-0.7332219290517406,-3.0331299694095595,-2.085044664134282
182.0,-6.314119370881977,0.5879276465028909,6.902047017384478,2.802155293706137,-6.636594011701052,3.7775205973920256,3.309907284867463,-1.8806912774130522,3.548370474627342,0.730424941585921,-1.8107261937402834,-4.8383091430704805
183.0,-7.246772521115164,-5.172619748957131,2.0741527721577815,6.231763579418381,-4.690399621987302,-1.6018617829181387,1.2243245947766557,-4.511007260137503,-6.279905934913225,-11.040840698884555,-11.292048088191518,-8.333070718606487
184.0,-2.675905096868437,-6.566954509610531,-3.891049412742004,4.6497641037197095,0.653324179599803,-5.207172868911433,-1.3070027034968352,-6.861711718544592,-3.8621087411170154,-6.849786638637071,-5.542989681536256,-1.9738974038548176
185.0,3.1815402573467706,7.7941796100029315,4.612639352656456,-5.531619230895386,-0.7521957453402962,6.224046912613195,-5.1477962536142945,-0.5573745894728339,-5.906484390228145,3.143823229371052,3.6453995706125886,9.254847700482383
186.0,-2.192608668402922,5.085424793218399,7.278033461621682,-1.405717250520941,-4.696524625358736,6.204179627517793,-2.2715386756339386,3.6679663454549063,3.921195602622433,10.35731575771861,10.057635886494968,6.100780257616014
187.0,2.045176855595279,-5.089935603984432,-7.135112459579545,1.488268375073166,4.626396228030506,-6.165034303281819,4.379664479800546,6.315476080229461,8.534766544741032,6.734453631173315,7.774171533076488,1.7586405883835083
188.0,2.687523693071652,5.777543053434424,3.0900193603626196,-4.264626863238759,-0.24564893881038063,4.464336636089563,-0.6258788260083732,-3.3959712230070815,1.1331857227872755,2.8538866652770003,5.114343156786871,-0.07292295063325194
189.0,9.054791993816105,7.095051636699266,-1.9597403571172471,-8.027924682625244,5.4612617060087825,2.5230635730384976,-3.0399271210057925,-1.234573443949397,-0.19569269469337458,-2.376877851947152,0.9684303500080993,-1.3981731220155833
190.0,-2.421326264696031,-8.16078075332341,-5.73945448862773,5.337058742256609,1.690353615877803,-6.9136620951614685,2.2137208722258603,0.5693069937007886,-5.3219403306659725,-8.913606560452736,-10.460768096926211,-7.236322290196766
191.0,-3.4029201424220186,-3.94587402208529,-0.5429538796634579,3.6395097452159595,-1.399781829029608,-2.2856029458767204,0.35073585823978437,-2.3387570177615626,-0.37803015763764547,-5.128153327255783,-11.216927748925606,-3.7018127205585327
192.0,-3.2019479147249434,-5.721439492850292,-2.5194915781252463,4.423582093218514,-0.3900638001271908,-4.082468949668261,5.109346497046443,7.389797410739266,4.147696625009141,5.297978042804015,1.4342961467791753,-4.091050119679051
193.0,-1.1003291818783212,9.252772691013302,10.353101872891914,-4.039634224702635,-5.695979290219162,9.841194271483115,-3.07226194092846,-1.1134192428261054,-0.6500008095275971,1.0629098817762914,6.36789161322768,8.309283474241191
194.0,-0.006708522793055227,1.2889038039204093,1.2956123267138429,-0.6874430219031771,-0.618581682900945,1.252006292015278,-5.255508976760136,-5.293092288323363,-3.426428494338647,-2.0773186720383983,-0.09842974543690719,6.988467023144057
195.0,-7.193541202853443,-10.359303766600299,-3.165762563746583,8.805594718181856,-2.0577083848937123,-6.802780152571642,4.687774465650763,-0.44030970640220835,-1.6885009839662477,-0.4150115082274419,-2.8521472313904974,2.3157298030871214
196.0,3.0668999717508134,-1.2299998321441996,-4.296899803894969,-0.890458389717605,3.719017037115603,-2.725597056682269,-0.6523865054435714,-1.3638529314677035,-1.032532242661047,-1.877097663866303,-3.8035947990866505,-7.305416307227759
197.0,7.672525131062306,8.000185431037709,0.3276602999752627,-7.885606846206547,3.632400924426992,4.200052448384528,-0.09290553989981076,1.4049390230408785,3.825042940237662,4.433693939050546,5.554506877535201,-6.239600482897519
198.0,4.6685664561948546,5.416047280301549,0.747480824106449,-5.008787344013929,1.9216881905809624,3.0360919685339725,2.9914282706827295,2.6702442268166746,2.93943223889762,1.7011407488718873,4.999476135862065,-1.8449070470259112
199.0,-4.091634665815267,1.515061583751943,5.606696249566947,1.3273386640901137,-4.807810447431139,3.589651447331592,0.6169659329613905,3.3132891538019718,0.9671908329581207,1.1602239175930973,2.4795481870593354,4.885906499403797
