Time(ms),I,II,III,aVR,aVL,aVF,V1,V2,V3,V4,V5,V6
-200.0,-1.394994754425797,-7.7467571835037194,-6.351762429077949,4.541567112039118,2.5092505079035052,-7.113912940779593,2.76403193625746,2.9354853586595424,-0.6017087520285005,-6.173736215652642,-3.8119222455593054,-1.4780609833138234
-199.0,1.9896244889909807,-1.741359254172409,-3.730983743163457,-0.15809391960612795,2.811746041641954,-2.7219067905418703,1.7972664006058814,0.8590966251569299,0.31624470718624953,-3.001145550805804,-1.8746964598225315,-1.4803228048212675
-198.0,4.091209349515489,-2.656499594490295,-6.747708944005849,-0.6759106555772642,5.450630063193415,-4.684141648717112,-0.9494416931046215,1.4266558588076443,0.5666980613431414,-0.5762222229900964,-1.2799269493745458,-1.5595557605137964
-197.0,-0.02646546481049028,0.7883869543218449,0.8148524191323046,-0.34087330094386914,-0.3871988883086548,0.8268436358051536,-1.4099114868491054,-2.4980472319459643,3.3168028855469975,6.097453850131464,1.1833890663102578,-2.854479053824016
-196.0,-1.0404489347975572,7.195973132043512,8.236422066841051,-3.0375565706921,-4.680414533489742,7.672741089965586,-2.837995676885404,-0.8493430074478265,1.6105517223878285,6.302223144748458,3.0336331609770135,3.600550406580706
-195.0,-4.577596174564498,3.556267012466369,8.133863187030864,0.4721174798825617,-6.3936707020805335,5.89174701054673,1.0982892056681486,-2.4876052272268954,-2.720958567578342,1.7374068182274187,3.1415547056919144,3.7451986828617887
-194.0,0.5591379721821617,-4.862307816380106,-5.4214457885622656,2.1111145915376617,3.0354524169294104,-5.163114103659822,0.20916819126628655,1.2661515096216558,-2.917955812003645,-3.6397691462144808,2.8337796829214605,1.2169658781804973
-193.0,0.5919794434004095,-8.060682934749595,-8.652662378150007,3.6891988594790757,4.6714706594371425,-8.369370186881865,1.1801488106036118,-0.028326743400644255,-1.3615109579255202,-7.502547745373995,-7.269850232125932,-2.2182410679542364
-192.0,1.0744498185800924,-1.388739445625943,-2.463189264206024,0.1841086330086621,1.741883312422458,-1.9335024564043062,2.0451622476263625,3.5981053552450377,2.319310808982333,-2.9295470271100297,-4.62653305032643,-4.303082917460291
-191.0,1.227729295732166,4.962057728397813,3.7343284326656625,-3.0743290203504103,-1.2798771752008584,4.342236801642896,-0.8943952841868692,-0.9688540749401124,0.09165894043461631,0.17166048029071534,-0.690557341662251,-2.1222815741889276
-190.0,1.0260979589939927,8.081298104362816,7.055200145368838,-4.536811621014407,-3.043572011908019,7.560868526718262,-3.6219743534629116,-0.8047087609334929,0.8574994521451393,5.305861139264551,4.268406974046341,2.199501187474297
-189.0,1.0503125128217883,3.6190692050344784,2.568756692212718,-2.3172070598922625,-0.7143502800911449,3.1617869194723216,-1.8141242241688782,-2.786519445612279,1.9116900477875056,4.221454481748288,2.93722771284399,2.3619435262802493
-188.0,-3.945615554313167,-4.396305066116174,-0.45068951180299766,4.193212454224023,-1.787346657086289,-2.4390504199724123,2.516078285460624,0.5707677586600356,-0.6863693719115833,0.21314260351293512,1.444196737568012,4.168241571848787
-187.0,-3.2879328760544233,-3.218339406101742,0.06959346995267568,3.2039120370470124,-1.6453397116094461,-1.5950793324920483,2.38399703423229,0.04840792598302511,-3.456369766762985,-2.8630170593805095,0.36102066686795853,-0.8386987576015352
-186.0,0.5971115984366961,-6.428618046391405,-7.025729644828123,2.8738375028062766,3.8415077545608134,-6.752827789395977,1.378609083714474,1.1605470197168386,-0.2267627941635164,-3.149873589748859,-1.0464798877297479,-1.965634120017469
-185.0,-0.8419366000913577,-8.108417373267967,-7.266480773176612,4.5170175853312635,3.163276096740552,-7.717000383332574,3.741461934132478,3.4571077503051177,-1.0616097763389947,-0.623626674052062,-3.0020799335794566,-3.1341409639480386
-184.0,4.3290481862303745,7.999542541484286,3.6704943552539233,-6.121261275365488,0.361782912417834,5.88227052112137,-4.1451130966841445,-0.45355189773544224,4.693860877994664,3.2302886191082063,0.40959792812763984,1.973578972128867
-183.0,9.63498311922894,11.900310081444573,2.26532696221565,-10.806352084754687,3.643813683201612,7.130600017681703,-8.433210474937317,-2.6767251178919844,-1.4269414497833852,0.0494185893476613,-3.871107190015633,-3.37542640970749
-182.0,-6.243116310240273,-2.5284784178489073,3.7146378923913757,4.340710501608407,-4.934467256458284,0.5648319231584145,3.9505467538525125,-3.119174506716684,0.6685593826716105,-1.9608401665310207,-0.45744092157575844,1.3984517386693611
-181.0,-3.7931229389701806,0.21175975369094924,4.004882692661125,1.8162867576740682,-3.926423886433884,2.0838236276857947,0.612515121712989,0.8257690107795403,2.0783844810763057,3.225292793650591,5.915111694584922,4.084910168586407
-180.0,-2.0388618402266077,-2.510556593126336,-0.47169475289974283,2.2926831775638776,-0.8050114802018449,-1.51251040428819,3.498575896696709,5.6779604749186765,0.10945214656817016,2.3196990541695834,4.001880436853885,0.2775725491670198
-179.0,0.8738516594041184,-3.8100772970342702,-4.683928956438397,1.4806446338716661,2.840279916721885,-4.188770648593442,0.7579481225037008,0.1835903834356314,-2.222981453580563,-2.2395697127503205,-2.4307273092444874,-2.721556259302382
-178.0,0.40083044281921837,-3.707306156920445,-4.108136599739652,1.663340900064721,2.2385717083242618,-3.930687022265375,-0.2598087735920078,-2.036410127546878,-1.8871047253784845,-4.158984233236982,-1.517123863796617,0.3858718345572395
-177.0,1.0707376551661014,-0.08252810955039891,-1.1532657647164628,-0.48367192041352947,1.0947064462676264,-0.6468636421464526,-3.122330355605733,-4.174593507844794,-4.725128122583451,-1.8677969367633196,-2.6608370281760934,-0.17649669929338352
-176.0,-0.4059084579050972,5.6404745453214105,6.04638300322655,-2.683476563403853,-3.247222766421078,5.884356230949196,0.052450285541024044,-0.5402653333591192,1.4719119880467424,2.6096659581147943,-1.473989632141854,-3.6016556661691137
-175.0,0.2213812394232696,4.498076944380914,4.2766957049576675,-2.344312149103372,-2.053854965624491,4.339373446997793,0.09576939087504066,0.08996198860174622,4.803048133437604,0.9254957921953761,-0.6777314218413928,-0.12337831958703549
-174.0,-0.14504475378431392,0.753967601642582,0.899012355426881,-0.28610901987668313,-0.47461802285408494,0.847687141430431,-0.2466029227661119,2.2313941681841323,3.2698167308193424,1.7747834362118902,2.7859336648982773,3.862412998089115
-173.0,2.786054710184752,-0.6198916771407023,-3.405946387325507,-1.0618470004466019,3.1392102991840813,-1.9986970826416641,-1.317292410571589,1.005008262707174,-2.6137144579180798,0.715630996227252,2.3974614608848945,3.6777393486838292
-172.0,-1.5536760374896579,-3.047598772153006,-1.4939227346634243,2.246194256642641,-0.06855346595957412,-2.2596366869695697,1.7520267997360321,3.2531280186312572,0.9847457327774846,0.4392593109315627,2.770580325056317,2.8001082175941496
-171.0,-1.907102586537902,-4.421452782779712,-2.514350196241873,3.1921778825425156,0.34093308538313705,-3.455593679082778,5.471531843760001,0.06415318596333275,-0.8003126269382304,-1.0235617899687466,-3.057420856078833,-4.391706595043315
-170.0,1.4239222061685548,-5.136399152309583,-6.560321358478196,1.8884016532638155,3.9473541771879477,-5.909805054918161,-1.0278313694104406,-2.4808362392995695,-2.1310411907874283,-3.14720721154293,-1.3036188892583576,-4.435843620034585
-169.0,-0.7387229781405312,2.6189902812432018,3.3577132593837145,-0.9819834844042516,-2.0972991492430655,3.01342053791028,-1.2353188751736424,-0.6681048502532816,-1.0734060656109692,1.2623643476139725,-2.8863468209176184,-3.3783813289606384
-168.0,-2.8338884376883255,3.816838272918856,6.650726710607195,-0.4498812929648157,-4.717428505921031,5.268090050792285,-1.4975433436613605,-0.23560723338702494,2.0713706085181824,0.13188595309454032,0.5746976807445403,1.1827877262336233
-167.0,2.6557993593159104,4.246718423254855,1.5909190639389816,-3.4843940809929648,0.5532686870629968,2.8837830593239766,-5.506941147806969,-3.4755104993740176,0.2444868889759152,-1.6477139162022367,0.8580923671413034,3.5243292880329427
-166.0,3.5988445174491672,0.7827138131638005,-2.816130704285331,-2.2210271130648223,3.226181974894942,-1.0433890273832214,-2.263503494827555,2.498395441190445,-0.5273088293719849,2.940493816130864,3.1876161177416993,4.482757792577841
-165.0,0.02552935035895021,0.4279331959246858,0.4024038455657486,-0.17660108590279133,-0.16957641333560391,0.4734320172677413,3.304471305492217,1.6547155290030635,-0.5401779895273615,0.6228845632928146,1.4579170066939795,0.30460857461135316
-164.0,-1.9742661946047997,-0.9652015675569137,1.0090646270478785,1.4416646078072468,-1.4709839014464978,0.00447031657304886,4.17176350682837,-0.922473797414189,-0.4870153590287929,-0.6306197631398399,-0.8382118290695939,-1.8200680254780508
-163.0,-2.611969034545095,-6.145230370951544,-3.533261336406468,4.429088622652819,0.40482515749785686,-4.857705608273101,2.7986166471981697,0.2580334013460964,-0.11494818130665149,-1.7147903806990459,-3.1913443928134413,-2.632228915438483
-162.0,-1.2232554244387754,-3.073546046325767,-1.850290621887008,2.119583376033784,0.2593916810779648,-2.407144815883773,1.0346307787168394,1.0998826448657142,2.0075044715651025,1.463787780156022,-0.7977305486060313,1.5527157857902865
-161.0,3.788131737915672,10.170368549754066,6.3822368118383865,-7.008566566349458,-1.2714013166312235,8.242518602443923,-2.764458866919089,-1.7415283469500764,-0.5599201641423679,-0.757264659160965,-2.9843645320478163,-5.041821835075401
-160.0,-0.3247601699369045,0.9048479513153218,1.2296081212522045,-0.3193425841963564,-0.7504682885194879,1.020651768488934,-2.946427541516553,-0.5029080912099508,1.6096948156993722,-0.9346915600212149,2.3265110449757325,-1.2854187939900856
-159.0,-4.627830303446815,-8.173933641923217,-3.5461033384764367,6.451174148056862,-0.5121531493657496,-5.841148788313126,1.6227862949315275,0.6654155459178014,-1.7855233339011756,-2.2599149167114896,0.30810629088026886,2.5604457113769903
-158.0,2.0553002553434387,-2.5929965842689953,-4.648296839612467,0.32060346233853587,3.3838163088403763,-3.6123664813911693,-0.31473454173389337,0.6463612189807209,-0.5729858944546726,4.724841187353806,4.391656202122206,3.5911951413723373
-157.0,8.350919033966994,10.046371278684909,1.695452244717902,-9.22447508517284,3.2852788815877063,5.874390169399793,-3.79283279198913,0.5701495651690849,0.5258131255237225,2.422831906467718,5.181018643986018,3.920445622236605
-156.0,-3.9529925268436545,-3.72931983122941,0.22367269561424263,3.8147971319089895,-2.1262365793433933,-1.7465287076675362,2.492396262449284,1.954192936737642,-0.22654878341880885,-0.7157513309694872,-2.0787759158480625,2.1427755948247507
-155.0,-4.303586391529213,-0.29231762415421836,4.011268767375018,2.268167771453626,-4.190991395526513,1.8759812025881202,1.344012486632407,0.15166822962471155,4.011102936839331,-3.509480285654887,-5.347732896480937,-3.875299421595547
-154.0,-1.229431379659115,-0.8430490269367747,0.3863823527223733,1.0785644093543838,-0.7586174016572398,-0.19665794821515503,1.6439791907687382,-3.1208112171105875,-2.605310937756391,-1.7030866602123855,-5.7937070101602295,-5.2643936935870705
-153.0,0.37558123367328045,0.4080432802833246,0.03246204661007501,-0.4372560157778361,0.22487846226606867,0.1893050937985017,-1.888756631728125,-4.749991936190709,-3.0999058785289604,1.2550724067112842,1.4488559391425342,0.0006223374792888592
-152.0,3.974662353554714,2.38303422044887,-1.591628133105825,-3.155213580006014,2.761555477195791,0.3775522881448615,-1.1953432539703825,0.2648689993886497,-2.773639558088696,-0.24097389014218618,0.7069154915131496,0.04939940659648279
-151.0,-0.69387764910197,-0.6530036262250449,0.040874022876946525,0.6886899818808458,-0.3858960029000953,-0.3178755851947946,1.3076831950337326,4.104950177354316,2.2603077679561823,0.5010389924250714,3.858860679511007,1.4599121017970234
-150.0,1.4185832674138377,-4.444748662956217,-5.8633319303700375,1.5226697529817792,3.623937022827489,-5.166915135387111,1.8515992901952627,3.8150676601268643,4.97196401945651,-0.13349855519036324,0.8419925660984662,-2.0140271793598883
-149.0,0.1290327337152355,-0.1178661698762491,-0.24689890359149036,0.001565802394887461,0.17032467127401152,-0.20232987651986045,-1.688161597160569,1.670645830698458,-0.11951240312412992,1.3180196977883643,0.09143657677243633,-0.49873546284189874
-148.0,0.5609101565346033,3.0983703804312412,2.537460223896599,-1.8220956614277997,-0.9298969568100114,2.8666429540739826,-3.317648731682898,-4.307278780755756,-3.828874372544056,0.6648146030368302,-0.09589735413811701,0.5714362352923174
-147.0,-5.756910141795601,2.220705053160827,7.977615194956351,1.699284934513484,-6.891896423514762,5.138166614913112,4.170339245447358,-1.08562582866908,1.8881642000294103,-0.7531019784659501,-1.3591908986019388,3.6931960216900963
-146.0,-0.3605109704458942,2.662013335074275,3.022524305520126,-1.137210018680468,-1.7210015324079504,2.7956658822079308,1.1883405349370735,-0.20859633548065593,0.15267350894658677,-0.15973962574422496,2.4905797944461687,5.919252159192596
-145.0,-1.6543593418334719,-3.0496021273459526,-1.395242785512448,2.369901535154309,-0.08470189346577706,-2.193268893792275,-3.647831299304145,-1.7957876791616523,-0.23947199023793925,2.444960952706312,0.528020762557766,1.8482393082455668
-144.0,5.555314424155273,-7.535290870973626,-13.090605295128798,1.0128088403253037,9.285933933406563,-10.362158813206767,1.319021212167337,2.666050574352033,1.0700511133294321,-1.7933534131802669,-2.2514236167593245,-4.7222150221061145
-143.0,2.989524742219037,-0.839840682185613,-3.8293654244045303,-1.0469239638460501,3.4497232132125726,-2.302798222569053,2.323582381597989,-0.24286105692288718,0.01774990249148664,-5.320515708808329,-6.728772132993815,-9.83285629776011
-142.0,-2.146825589997152,2.601929710038586,4.748755300035835,-0.2735805784517622,-3.486168541825726,3.7094404692010676,1.0094416241443933,0.3848140774191968,-3.615162944189834,-0.5189028941922202,1.6317751675688088,-4.563673019651907
-141.0,4.54345150624207,9.255988150056726,4.71253664381467,-6.941723263299139,-0.043195574213073185,6.940375194615666,-7.916674857811355,0.8290729348430115,1.5689020474323538,8.629663552283994,5.949443682992561,5.678937436280423
-140.0,-6.780298772089443,3.615866633512744,10.396165405602119,1.621982322944774,-8.624724404343825,6.9606048805212275,0.7787754901348523,-1.2332815008812292,0.4813550152284695,0.523324914418434,-2.3463261805976128,5.470244847445129
-139.0,-0.7673553300571618,0.26513581028430644,1.0324911403413823,0.29299617449812865,-0.8577003143985804,0.6785459514062788,-0.3851903106091551,1.2779702676059936,-2.3413803075857667,-3.1315038022098713,2.3479770355301035,2.8538298136327267
-138.0,-1.5085193063863012,-9.443617542983148,-7.9350982365969065,5.440742046128178,3.1753357688297017,-8.664413767597615,4.6512034096952055,-4.309429282331731,0.49253906356272176,-2.669380250120635,1.3141354932493692,0.31565313401911643
-137.0,-0.9964210570314834,-8.118486360137018,-7.122065303105543,4.52344542701395,3.022264947018769,-7.600276181526926,5.263074005410233,1.3756969611514676,4.179655163646414,-2.160373199361124,0.8492565635554598,-0.8902448926200529
-136.0,2.3864100719536543,-0.6382503461474722,-3.0246604181010976,-0.8279405140333087,2.7407483274698774,-1.8158814780891488,-0.17395541077042553,2.3104602036231023,-0.7881324743005129,2.1055585507033543,-1.9405082232519628,-0.5260533580912257
-135.0,3.754780338750059,8.682021280334679,4.9272409415846745,-6.249400637040311,-0.5533825361289813,6.7377983286649155,-5.492359950640587,0.7663086696205885,-0.6084859752734806,3.958048729302604,-0.8489067837888065,-3.1586966505389173
-134.0,3.433701883649057,-0.34472555188580056,-3.7784274355348026,-1.495044964798144,3.6378597880635004,-2.052435670468981,-0.8301132940710385,2.678450077136654,1.0822740034445115,-0.7256038980030777,-4.661470529702404,-6.1939964858014305
-133.0,-1.570147163007081,1.2597389924852624,2.829886155492356,0.1272674375816658,-2.2465264826218116,2.052343614304622,-0.1623268913046707,0.23717378836716319,0.31397738029287625,0.5998432434716287,0.5672963522288357,3.0394524676499644
-132.0,-3.950899224381154,1.0857952401550386,5.036694464536157,1.4051408330125228,-4.538519424806653,3.068846444099794,-1.154662863670107,-5.153078818318742,-3.324196005942009,-1.7476603728092643,0.5973923956233311,4.428737320124154
-131.0,-2.825776460902107,0.42749043362893097,3.253266894530977,1.2497959922904183,-3.002539202704158,1.8502482629424652,0.3949715913900441,-2.593459423186239,-2.4991123203946914,-3.1093579400466194,0.4045694582506616,2.3133393794926977
-130.0,-2.203393383630604,1.4846692178779837,3.688062601508519,0.32939651784258683,-2.9834756160648084,2.6009245685559375,1.2172656219570523,-2.344184645742593,2.3027636978224217,-0.063960507163211,-0.3077365858292347,-2.171535926599198
-129.0,3.386737660596442,-1.6732376212714182,-5.059975281867904,-0.8892665182182051,4.2691442684049585,-3.4239331767935877,-0.09053105629190927,2.5569068404796926,-1.5240619788000616,0.09525424978450689,4.163606091927541,0.5273644369510282
-128.0,2.5462659349738272,-1.1776059311016358,-3.7238718660754575,-0.6405135662530357,3.185546379989756,-2.42100181402535,0.8951001204863975,4.020303336441167,2.9295435414729414,3.3927617139979787,4.907085679022929,1.180917373262739
-127.0,4.096042795672954,-0.01825634461601755,-4.114299140288926,-2.0753486130868644,4.080038045794909,-2.027892288188939,0.7600528915654163,3.935114205943222,3.5417432807408176,3.58940541788211,0.6072202272685728,-0.08512820212501924
-126.0,0.3242257382202398,-2.558699580200595,-2.8829253184207815,1.1591721150172214,1.5785229353828742,-2.753528485993641,-1.7423199778613752,2.25086800246185,1.3002489715833958,-0.03908187644980177,-7.341316413534288,-4.546804486749539
-125.0,-10.17016260683274,-5.7713359515083065,4.39882665532447,8.013020112901753,-7.313196786468354,-0.7136104109101324,3.267502289720495,-5.8445065304835095,-3.240074486030855,-5.483313362989106,-5.134628131845256,-4.576688912982091
-124.0,2.1376514656637706,5.475282478028434,3.3376310123646693,-3.842918300913315,-0.6352316232715642,4.460011445653949,-1.599222289590476,-3.663654091369706,-6.74913628628729,-1.1217828726628412,2.6559413806422,2.952866307039479
-123.0,5.590507311446505,8.224072246358052,2.6335649349115213,-6.944929974783559,1.5148188318464766,5.402328272308798,-2.0175186429528202,0.8184230577332925,0.08637030482206054,0.8349172160992316,3.9420065978588736,6.801516098202575
-122.0,-5.5771564638508355,-6.106992496927207,-0.5298360330763912,5.801912610591202,-2.4923009989610017,-3.3491406107828756,3.4178471552115326,-2.113916595639572,2.7984997908311415,0.3044726733698585,-0.22377556315134317,0.7466759988365577
-121.0,-0.13303298288961918,-0.3303935424270391,-0.1973605595374017,0.26737867934387594,0.06275864058670344,-0.22185523104292462,-3.805472942520092,0.003983423704299549,3.0838272122739188,0.6541971581980016,-3.905775128156611,-2.0394960235614388
-120.0,6.26258260218344,3.4242789783837213,-2.838303623799663,-4.809541595411798,4.506127587024237,0.24998721706420612,-2.523465370870375,5.014259453661133,5.188439087309933,1.081128988958022,0.9184171691907201,-0.6830196289142273
-119.0,-6.8249470281481806,-3.4983205114418494,3.3266265167064204,5.196207902171377,-5.034335572365112,-0.05531666325754531,5.2763931372816435,2.307374826738033,-0.323453092409387,-0.1475916551939115,1.06562324354497,-4.213180241963049
-118.0,4.6429444063210585,-1.2638672477831059,-5.906811654104025,-1.7301856778931939,5.245196593143414,-3.558267297938857,-0.6886533039635023,1.092615844814163,-5.454775117129845,0.08769288095619082,2.801858493957398,0.4621757830566149
-117.0,3.5026862564751515,1.1686846070502341,-2.334001649424863,-2.3706729931591015,2.89422375994675,-0.5573333554093205,2.0666382916492525,-2.6607517364017896,-3.683291444217199,1.2442055122799243,1.181860800022036,2.4382609001369215
-116.0,-0.3163956234387537,-1.0140628196913228,-0.6976671962526493,0.7152989585021106,0.168258498495375,-0.9098375630172004,-2.6759413598478092,-1.7067854622456915,-1.9607332724067963,-0.8611013114849031,-3.458719883871204,3.036808313407049
-115.0,-7.1206021208707595,-0.9255260887092305,6.195076032161363,3.99959716445596,-6.603924027749773,2.581055099191226,0.0559876416225773,-2.9024983414497014,2.468259782335926,-1.2556258750322236,0.8168373629502477,1.308321962800582
-114.0,2.819235020189552,8.037001213004118,5.217766192814408,-5.449013887402703,-1.2298743802892278,6.653602849045795,-6.147793480844441,-1.1259547416829057,1.49952556799923,-3.2629943936387815,-2.3955066470214827,-8.633092023455248
-113.0,2.015334967766113,0.22602785945327453,-1.7893071083129066,-1.0639281061330585,1.9430073572008681,-0.7527335595751303,0.7726405371144667,1.3579820101790268,3.253455561002392,2.4444376939828354,2.8700096966876685,3.372634227056286
-112.0,-4.312096318061672,-5.197057078047603,-0.8849607599858603,4.727517388981975,-1.7589770119494401,-3.007524755316687,7.689821102252205,3.0090819894776875,3.1009424787680686,1.4256511500901858,-0.667900127800369,0.5556659129334605
-111.0,-3.003001437409412,-6.892594041388204,-3.8895926039786253,4.912302186272949,0.4709016874082168,-5.43028493644443,4.632687742125169,1.7925840709483916,-2.5466835249700006,2.03432559774412,-1.911618143248411,0.9731582696066201
-110.0,-0.5180133050582802,-0.07309975821373405,0.44491354684469986,0.32847836344525017,-0.4569889073627311,0.23168527541691075,-1.665259496055063,2.3331004599779175,-2.0313007349322767,1.3559327935165877,3.6812999946256486,1.9087146437488256
-109.0,5.324567468409776,0.40765632940764407,-4.916911139002055,-2.8432437576781164,5.06639235160278,-2.2831085168014456,-3.3822234998997405,-2.850729498401267,-3.4729601855403285,-5.9795927100520245,-1.9437807897218895,-0.11205752310215489
-108.0,2.3992198165819603,9.009042771916937,6.609822955334963,-5.767337437454768,-2.0779068623822448,7.782106326796843,-2.873355907502577,-7.001138984040578,-0.1776726914795721,-1.317218464420682,0.11259868063981371,-3.614151832933659
-107.0,3.919329964203108,4.4230402896409355,0.5037103254378055,-4.158118268164755,1.6621137740568668,2.4332522876476603,-3.4582820688354037,2.282105180571394,2.638996747997986,1.3439693099023273,-2.1734723953455,0.23684386515997224
-106.0,-1.3838127341999824,-1.9949655588055135,-0.6111528246055636,1.7059123081690697,-0.3458064245612382,-1.2605429031449307,0.6356803974238701,4.340513745298211,1.8651404801871136,5.125162756909595,1.3140881435070346,-0.6862398264667826
-105.0,-0.1541099782701265,-0.31279871499286105,-0.1586887367227129,0.2588140820193161,0.05066753959277559,-0.20107833804357672,-1.420099162424258,2.0112596532072535,2.1347801091530725,3.02459563880409,1.2135803003439862,2.8852407991618754
-104.0,-5.032552338153957,-5.730473373860561,-0.6979210357065424,5.418702298770275,-2.1913502429901106,-3.266020764021056,3.1048240534090072,-0.5727228225031571,-2.610273885637329,-4.248092347642312,-0.9716716288850933,-0.4841406463894635
-103.0,-5.084743073118533,-5.874232606026974,-0.7894895329084136,5.449047856723979,-2.1687484333397373,-3.3110600595931703,7.123231290792745,-3.46424089970842,-0.5909773826545425,-4.099423344981864,0.14083067043692507,-0.4749685579524269
-102.0,1.1588114262951812,-2.062787695025825,-3.221599121321077,0.428163026999155,2.1673919983558863,-2.625103691806302,1.81660442833721,-1.5623514939731549,-3.7360007605015366,-0.6367867609554339,0.06857889701663213,-3.0374778415451043
-101.0,0.7107480129106554,4.84605353786155,4.135305524950737,-2.8025441750235425,-1.7412723621167339,4.506555524989909,-4.53456238925097,-0.8099016527520253,0.3682235699310521,-0.4680632851317759,2.0858109070164383,3.0959696383617397
-100.0,5.419749654828362,4.19631448232613,-1.2234351725024077,-4.839478508063375,3.3621022001532266,1.424471971556062,-3.1921655085586558,0.20367805371792835,3.0867638649906928,1.0990137282957937,-1.0376193111762775,1.0032523868358567
-99.0,4.271523525691859,7.118684451131568,2.8471609254396233,-5.659736578011624,0.7425257427110921,5.002265599806335,-4.218742470839971,3.701645396718675,2.3967060702356875,5.446648822908783,-0.8578872870894793,1.6198066530344943
-98.0,-0.4787828834153576,-2.1302136507604628,-1.651430767345035,1.3270779834245174,0.6076537680894005,-1.8675550627049757,-0.3256400779704016,3.3315741758246387,1.1083759981101413,-0.02347132816087072,-2.348814386477718,-3.0216421202310517
-97.0,-5.119848719207061,-5.523870350061284,-0.4040216308540584,5.334529635768379,-2.4217590634498354,-3.014263347267603,6.823795443936616,0.6472249643703112,2.1452120402896413,1.5270699314802731,2.2835533105815236,-0.5150326894141211
-96.0,-3.4707069210502013,0.05739386904905652,3.5281007900993924,1.7146860883892021,-3.4876288900536707,1.8273794250979374,0.08511000486455034,-6.2183523644710945,-6.677093590803561,-4.699405562268101,0.7064473129696938,2.153117038772821
-95.0,1.0535094643430902,0.19496862239804624,-0.858540841945046,-0.6151038984614343,0.9681341238816072,-0.2905266235241406,0.9346222222453834,-2.1727788903990244,-5.33924935456109,-1.2499051795716114,1.1038991513122307,0.25944087074181055
-94.0,-3.160076386670605,-5.092310907676823,-1.932234521006387,4.062222525772658,-0.5981725492964383,-3.5438480622173163,0.46301137192053266,0.6356120857381662,-2.5749008821647874,-0.6911600808754987,-2.7824520987294923,-5.452460402559752
-93.0,2.227058894822436,0.598934601000201,-1.6281242938223612,-1.3901857684820835,1.871141595693208,-0.5424412837204977,-2.4538300700508255,2.3562445256200597,5.283973523851791,-1.781577874055418,-0.45919553282916736,1.009214901570916
-92.0,6.097191727639056,6.531949477609692,0.4347577499706127,-6.283598591724503,2.8623241750520814,3.5344858510809805,-0.8916736110972183,0.4266597920302808,9.083069409077023,3.5655493526690214,2.0942618116376766,4.081742261776778
-91.0,1.5675542180642887,-0.7294619030939002,-2.2970161211579865,-0.46027363378980146,1.9734515855405215,-1.5447173882754024,-1.9827161377092462,3.6882781958074027,4.814851757650704,0.7453490558749079,-0.09089180466574964,0.6949393748965274
-90.0,-0.6972742324566327,-2.342604989595755,-1.645330757138798,1.5615370911258557,0.4463766368887303,-2.032880929960236,-0.5612331491168795,-0.23777843561031498,-1.9599779072754995,2.779893824060081,0.5208173500716587,-1.0384868413020492
-89.0,-2.5107721654694544,1.8316967642858204,4.34246892975552,0.304096809309896,-3.4460815854073346,3.117546646554383,0.9718387687557068,-4.276427047334304,-7.721982875136836,2.7267883850490353,0.6565615819093331,0.990441662836666
-88.0,-3.9852896523912436,-0.05696340944332484,3.928326242947885,1.9859644927854283,-3.9713574665808227,1.9571997601141766,4.543841788804851,-0.872403487617327,-6.428156490520379,-5.008665538106546,-2.900700946444631,-2.140367927588734
-87.0,1.5456872304967648,-2.7270397458136824,-4.272726976310695,0.6344177531363202,2.973931651020563,-3.4844420052970766,0.8881115892445801,0.9276232350629008,-0.900665333847861,-5.674097202337981,-2.463284883357021,-4.691976720260094
-86.0,2.0144505405393085,-0.13419352004805019,-2.1486440605876687,-0.8952965773447419,2.0632695359235127,-1.206085662674022,-2.318784598454852,1.6684681529815595,2.1441455960951465,-0.4656130650755417,0.9806667577447579,1.919453542917081
-85.0,-0.21643947036815347,3.2165109196317028,3.432950389999631,-1.5316301218814596,-1.8514559058299238,3.3429432057176727,-4.246864166387133,-1.271617993762206,3.1569819037963534,4.987571213653627,3.511574945607952,6.563613276827827
-84.0,-3.1386141289085563,3.34217329010299,6.48078741901146,-0.13040417212301947,-4.847610717448877,4.938721455270177,2.0224400106953295,-0.9613887808991257,3.9857545420942384,3.242209890925559,2.2858358380117396,0.8728718687183008
-83.0,2.4277395553533196,-1.5690362606393857,-3.996775815992629,-0.37672233429868407,3.2416515842562004,-2.7436964275387736,-0.4144908653949484,-0.5038703504190483,0.36170799702795353,-1.3437061974397733,-2.7778321166276623,-4.077086080685742
-82.0,-1.263003135434262,-7.438266572759771,-6.175263437325338,4.325550962770487,2.476331530427114,-6.834331634707824,2.363815283148767,4.858545155131439,0.4677238354540171,0.5611604203312717,2.5283597237410107,-1.0418562998719991
-81.0,-2.129744255451702,-0.11291396921246522,2.0168302862394905,1.0955331155493337,-2.0581300747515874,0.9333256632605003,1.7033788896193733,-1.7533634976493309,-2.501025865772674,-3.5101558633237735,-1.232203949291431,-2.6123185418476926
-80.0,6.975104617560762,4.348271923849245,-2.6268326937112803,-5.689206871595926,4.815825860601706,0.845911025852837,-0.690329882752587,-1.6958757366055954,-1.7427270677510684,0.10192582972516306,-2.1052537991068823,1.1947111178594974
-79.0,0.7775102519236161,2.4799530683712727,1.7024428164477627,-1.5786756804755997,-0.5227411674846982,2.074800830307086,-1.2013153764471642,0.7893856696177599,0.46622094291241245,0.8336906372088236,-2.4406363285146186,1.5121241482741237
-78.0,-6.469100641033135,-2.810276499468684,3.6588241415643896,4.612053042471178,-5.039799736994354,0.4023986959667414,-0.6809436066980769,1.4616105711736629,4.115373685580219,1.4137546554795215,2.9270771063806116,2.2497642701863887
-77.0,0.14469878135416625,0.8330478965119121,0.6883491151574934,-0.43353184130774225,-0.2421028601681967,0.8107898513566777,0.028427543011210976,-1.0315630670553322,-0.691455819671511,0.8616521258638338,-1.6649337637770165,2.2799501949988814
-76.0,5.382411717150331,1.3058042401925418,-4.076607476958015,-3.360559862727107,4.684043265787446,-1.3409759213824832,-5.562724785918359,-1.6515756737618401,-7.3520345382192005,-4.414137270508791,0.14501105340017384,-0.907192911043808
-75.0,-0.3109259113745946,0.7730408717985424,1.083966783173017,-0.239665349813861,-0.6636180148482662,0.8908502019085653,1.0604564724738454,-2.666617160764038,-1.896384840231175,3.467742592094934,2.134308793347202,-0.7229840502554954
-74.0,-3.894643510997716,-6.702117554549816,-2.8074740435520535,5.295850412234819,-0.5908629662280344,-4.715004102045223,5.016399201401839,1.7422657849009442,2.580910739940946,0.04620100230258417,0.4141172291161599,-3.4314829307411157
-73.0,-6.556726673941841,-3.8357437475509997,2.7209829263909397,5.195508908888763,-4.611435456103404,-0.5969466072946212,3.7175717003784374,1.300166054118283,2.5851439294324545,-5.930091570857274,-2.8935519760944817,-8.103652577636673
-72.0,3.353321606519164,7.14758875769189,3.7942671511728547,-5.255068105181258,-0.19689758750802344,5.430106955583835,2.2163905548848444,3.7200722734173857,5.5761564505946515,2.7042258239765875,3.276541606540632,3.546921345775494
-71.0,7.717069882682196,10.133006973945857,2.4159370912637432,-8.938954388484664,2.593718306452697,6.310038718012664,-4.098591779244957,0.7788195933607172,1.6224626960464765,5.158069311498089,1.1241601715357337,5.695633565887662
-70.0,2.0132151758172783,-0.6247096185199124,-2.637924794337174,-0.7208777388411982,2.349281528229337,-1.6772362957293123,-5.7567541132937246,-3.3261865487191606,0.2440008972302123,2.8095927135262166,-0.2200839293686499,3.110632416635469
-69.0,-4.426671574940478,-8.88753599319294,-4.460864418252454,6.6963108695788875,0.04618509098813073,-6.642961640521966,3.1485167656411694,-1.8278320730278037,-8.199909490681492,-4.5509469458779686,-3.6758558177186864,-0.25146284741790303
-68.0,-0.9930155130346117,-2.9997782739931385,-2.0067627609585252,2.025884061204564,0.5435408612512518,-2.4710514684448137,-6.286773278858497,0.37472343099900374,-5.684258600834628,-1.2965677913543379,-0.4994550513438123,2.147212143950524
-67.0,-2.3275770736123387,-2.7724766630388182,-0.4448995894264812,2.496810283129233,-0.9761269024089081,-1.5723860585780713,1.7544388001801863,-2.344250054120119,1.83998439022638,-2.603231361780412,-0.304005375771514,-0.3096647117293888
-66.0,-0.667824357522353,2.823098828435026,3.4909231859572953,-1.0493093606118895,-2.1098750587657435,3.1211084022338738,10.060003789580934,3.5290031108173756,9.882957547991099,2.3647828234284884,2.1857794002954143,-3.956951027031974
-65.0,0.6488122554632684,5.19691097737702,4.548098721913643,-2.8858222138712537,-1.9807484543045206,4.8442136708787595,-0.3868982479299632,1.3276413708705188,4.861800725552861,0.4156893264265785,1.4298805170997968,-5.353062925745353
-64.0,3.55272414351671,2.9036964878870415,-0.6490276556297792,-3.2576088170285153,2.1427326519055345,1.106343942514933,-4.641309288629457,-1.4942979742666525,-8.037279775844617,-1.916003411928366,-0.5467477148056958,-0.09002271203978296
-63.0,1.659606064636288,-8.166128411422616,-9.825734476058944,3.23674593191265,5.774947128796966,-9.010711708257165,-1.1811625611782932,-0.4714454106412295,-6.5786516624491265,-0.6652610756191889,-2.064861479093225,3.9351963855161456
-62.0,-2.4258222595237706,-0.15944719291292064,2.2663750666108746,1.2867856939377482,-2.403353283030174,1.1223896456273126,0.7860861544798077,2.259946402385126,0.3408032089973947,3.7157870035673124,0.5574358990676185,1.4591737755257421
-61.0,-0.4002025298656985,2.328415841643846,2.7286183715096075,-0.9632813262900594,-1.5518946824900364,2.5224095252066023,2.0625149022141946,-0.2725075852177975,4.301514947189571,0.8935652867260415,1.5092279370881183,-0.49986064824180954
-60.0,-1.212087021388173,-0.21790264569604767,0.9941843756922001,0.71805084108118,-1.0952279356718968,0.38424689645778176,-1.2696831642109951,-2.354290356267768,2.7449179137080684,-1.8556572209329356,-0.7992931222282689,0.3627386482305328
-59.0,0.16279624990004676,3.5224068916467326,3.35961064174671,-1.8410890612504087,-1.5893564711268908,3.4371913031662196,-4.7523577458024295,-3.3546594724127043,-1.6630877113006948,0.1817688833422334,-0.25145009570999344,-0.37319078649466875
-58.0,0.20545169001473707,3.1293665457418567,2.9239148557271433,-1.6699745521253175,-1.3435752687021203,3.0200892506700012,-0.47255302174786196,2.502884535082374,0.1013648069686914,0.6970712605048682,1.8868390032561706,-0.07633150268618674
-57.0,-2.3154922180123036,0.46042754679138087,2.7759197648037106,0.919518082886776,-2.5199121345631235,1.6058717926835504,4.567723077449142,4.198902808799514,3.535558360429766,-0.5469683541714488,-1.1046429242215527,1.1208872627887623
-56.0,3.351611152991687,-3.4566976095785806,-6.808308762570231,0.11706574632636646,5.037719932475274,-5.152955682343499,1.7046496034539147,-1.8979838447070112,-1.6150380842433492,-1.3972217074499476,-1.8347627215691202,-1.1227422870150137
-55.0,2.8498948351675164,3.2589702160733265,0.4090753809058145,-3.075688290314563,1.1865169807336846,1.8831996619983649,0.9731348891079874,0.03719128769913408,0.7490844103325469,2.7821401854729606,-0.04581215221250379,-1.5143769121120587
-54.0,-1.9245546016584087,-13.218115502838883,-11.29356090118048,7.541881835238433,4.733413029648335,-12.29363230671632,0.1974636491414819,-0.8883731152188166,-4.554657027565535,-0.8244104584486629,-1.368150617865819,-2.47103120997132
-53.0,-6.236953819412394,-8.019342523625667,-1.7823887042131958,7.08928900458554,-2.257695581321822,-4.865491544940785,-0.7769776605462773,-0.5468061015915842,-2.110133003613301,-3.8668504799361503,3.262680142403599,3.966999649710016
-52.0,3.631327001962391,9.85254381380263,6.221216811840363,-6.711902753603253,-1.3293669438293203,7.991627735987039,-2.161414307897146,-2.3027398140454074,0.2922594396833722,-0.7933210150270227,0.6829405369885766,1.3080097647189648
-51.0,5.355490800491464,12.004168533712429,6.648677733220993,-8.65854049815292,-0.607652134807589,9.361791397411494,-2.8226736901170226,4.8836977626262765,3.582155272902872,1.3004724700203876,0.015996794169036987,3.7496797236784003
-50.0,-2.858394874197888,-0.4609638615992857,2.397431012598492,1.6752689377986814,-2.593746499965918,1.0081897578970827,0.5989663585624219,-0.9474669341787534,-0.832890321309506,2.699776784931606,-1.8427347327957593,-2.4858049262528166
-49.0,-1.8996992571737088,-2.768404874753024,-0.8687056175794798,2.269880989330254,-0.4843618909704983,-1.8518241340408543,1.1018487939088304,0.23131592621009708,1.6935673366028392,2.4299757827099095,0.8952985400916182,-2.30236753013128
-48.0,1.5573569007287447,1.6065584021087878,0.0492015013799284,-1.5629346559672355,0.7052111840769432,0.7991932536510891,-0.7899040242920274,-1.0263809854800228,0.5713240936002291,1.164772561940871,0.4297661457750915,-0.5402549349556651
-47.0,0.1924945720688593,-4.313344857047472,-4.505839429116338,2.0888040323316974,2.3001576626647733,-4.435901867348266,2.547959415896038,0.5236531148195593,-0.5451139802243743,-4.283026546991312,-1.5883152938507101,-2.3214550511231455
-46.0,-2.3904904670054665,-4.963594671560234,-2.5731042045546997,3.7176897975183327,0.12129139976256065,-3.715974275373219,3.215808568005057,0.15383337010509596,0.9957494973104407,-0.8744312486106027,1.095436306414582,-2.955503717439219
-45.0,-1.4056340441570794,2.9321344825401754,4.337768526697337,-0.7892963237741215,-2.841412239545338,3.6067537058446373,-0.36599687873986686,-3.2498497076122685,-0.9372464000813638,1.7195890062175871,-0.4924844103741246,1.2287286656949645
-44.0,0.41253460137243836,3.2661356017626213,2.853601000390275,-1.8568845894444344,-1.2685386649560404,3.1079588053465512,-3.4370327041168474,-1.0495743254300427,-0.4959710536157309,-0.7321828862171366,-2.3736871538365376,1.782639221048424
-43.0,1.6865344037553363,2.3536056363458426,0.667071232590562,-2.035044132621196,0.5413181705661239,1.4775855709555998,-4.122624032407481,1.1487845688356815,-0.9912260518028672,0.29957318372095354,0.05822168448527276,4.011726277287565
-42.0,0.5300118512729792,-3.342309472153075,-3.872321323426021,1.3874237456659462,2.2340699767210057,-3.641263722727996,0.7267594946032205,4.037767180839221,-3.1567217087805908,-0.799727578934411,2.5335376203948208,2.0388348464904933
-41.0,0.7247111368978378,-7.233431722331688,-7.958142859229516,3.2273120504453905,4.2972086699780165,-7.551360265900748,5.166816874370973,3.1847613627661655,1.32032559221105,-2.5448131626989796,3.2031567617801535,3.4744543796386758
-40.0,2.988641701681057,1.653787879591702,-1.3348538220893875,-2.2792283781520117,2.197961567200715,0.20374007914864922,2.1802868117220298,-0.9173441224092331,3.595064119103698,4.849023642404644,2.798617198045429,1.6741539697514214
-39.0,-0.05571575498269998,3.2765247839739304,3.3322405389565715,-1.5762822846983477,-1.7348152121812719,3.2691638213165857,-2.6361205578238485,-4.38219805040774,-1.3336972248147367,-2.675730089074454,-5.221045120143263,-10.739192359953298
-38.0,-5.217639498121802,8.803164278041749,14.020803776163453,-1.7626784934140813,-9.657934372412628,11.374935849658353,-3.5059214037760302,-4.886873239374392,1.021076918094091,-0.584361608038931,-3.9973127187059028,-4.3622083154032
-37.0,-0.6747263651275679,2.8789709445284237,3.5536973096558624,-1.1509321430839445,-2.0708742731034904,3.1766468613144676,0.19740183270414313,1.8521612310215008,-0.481460829330983,3.690810315992436,0.05513436129254767,0.7790076229578422
-36.0,-1.9508257664048376,-7.679398317713366,-5.72857255130865,4.8472946878859675,1.9373378203065057,-6.667290728385828,0.6555544085759217,0.961033585699113,-0.26545178415743964,-1.0946020402971102,-0.3586938583795576,3.185267340407146
-35.0,5.91739116912136,-6.666881470698902,-12.584272639820341,0.33074753701783655,9.227547392380554,-9.589668315721754,2.063282003751576,4.793238350718704,-1.0614484233892023,-0.3734446848852131,2.7344843053191794,3.7027170336007798
-34.0,-4.0938488702726605,-4.572957488544562,-0.4791086182718942,4.29080889904017,-1.8225277636436799,-2.4886339503118453,4.371496268996288,2.7606607895861437,4.253631767860556,0.7800287912810945,1.2464647529192494,-1.0079651156399825
-33.0,8.111358033035602,4.455176244338341,-3.656181788697179,-6.247179872915442,5.876570834266083,0.3614576686947899,-8.235277929584338,-2.465309642344783,-3.822142922206443,-0.042141427573897716,1.904246095116922,1.444252684093872
-32.0,-1.9375518455961012,1.5567554862621922,3.494307331858443,0.22570502080407273,-2.71668133842388,2.491165898886795,-0.876880533111974,-2.6086907978421565,-1.2678922959019152,-1.0555687347359555,-1.4081463046263907,-1.7993922301698573
-31.0,-6.850467001696937,4.867880151718679,11.71834715341576,0.9474964700621185,-9.28117848351229,8.339777850532345,8.24053808997702,-0.5233381180964036,1.6962033703661756,-2.656378802919196,-1.1996110957326827,-5.013165745056906
-30.0,-0.41024870085916065,7.328919990794526,7.739168691653726,-3.423584981601471,-4.070332116499902,7.501610582445192,2.0175533745445984,-0.32053059640248704,1.4059679399928289,-0.14509260968181392,1.0189374163473968,8.204172334899868
-29.0,0.40080125725090354,-2.8090713416205233,-3.2098725988714616,1.2416802447690423,1.808237580425014,-3.0450614510614207,-7.174394248075588,-3.710726460203912,-5.428774780993874,-0.774955088621581,-1.8322375187080542,-1.5003258359405782
-28.0,2.457025740004343,-0.7919104233715968,-3.2489361633760248,-0.8719320658076509,2.852426686007598,-1.9823161285751456,-5.995527776983133,0.17076878601271706,-1.6424640867696056,2.1386238236513653,3.265914177774547,3.493310394936394
-27.0,4.12509706386243,-1.8302652815110638,-5.955362345373551,-1.186147646263155,5.0351445674044095,-3.8600807564053845,1.2380102268929198,5.006758932612937,8.392447182181119,3.274381832566489,1.7107379572323975,0.0006842681071240891
-26.0,1.1836771231062477,-5.576583363939248,-6.760260487045528,2.235138651729114,3.962237525038824,-6.218543267309203,0.7883700341259448,0.8225261245592028,-0.05667398037311866,3.819218056192051,-1.6385091492393082,-6.892216017041782
-25.0,-1.3744032755816527,-8.491603683218724,-7.117200407637115,4.889728366017025,2.8576881956978775,-7.777576849947141,6.663745668209217,1.5690013849559128,1.929160300086198,0.9347189957710678,-2.5132759963281677,-1.4005568961700483
-24.0,-4.892920309276876,-1.5469254613801076,3.3459948478967654,3.2512576172686547,-4.057369546306776,0.9270503695190202,8.847605025383741,-0.5882634726905472,-0.16324162560180022,-5.832689626595405,-5.253291672901644,0.8676605619583879
-23.0,-10.869302340228272,-1.9716859492335588,8.897616390994754,6.448104419689654,-9.902240665352917,3.414333003029698,2.327464109512886,-1.9541095480614163,-3.1382633933344266,-9.214911199142668,-5.458867039324028,-2.410932539417897
-22.0,7.05486402558649,17.283726169345044,10.22886214375863,-12.222613367118395,-1.6077059509336111,13.789897662705819,-11.391993380897679,-1.6206314939959652,-2.729167053401392,0.9620708202168604,5.762953303673118,1.3855261031305166
-21.0,12.582823141242855,15.02770835165423,2.444885210411428,-13.780046032162769,5.045804994614995,8.69448482215616,-9.572171306243808,2.839411392659811,-1.6437134746559328,5.563462274708841,7.817384299937894,2.614332478623221
-20.0,-1.2186013484274527,-8.101971874827756,-6.88337052640029,4.686771600330812,2.8845826811777915,-7.453231495867382,-0.33944399961208127,-2.8539636089028533,-8.312926197059134,1.5879956856589725,3.2665482633784975,-1.4152396025807246
-19.0,0.3422352249062688,-17.034377757426594,-17.376612982332876,8.374083203263238,8.8287260830075,-17.24331159647562,3.927570115076553,2.2888712277178795,3.867504440725215,1.876280531407426,-0.56599950673095,4.876404022229545
-18.0,-2.050108471193669,-5.4265439195921665,-3.3764354483985013,3.688002973686677,0.6282874460753343,-4.359800531268029,4.773230962586437,3.1245036540451725,11.005540205521463,-0.4023066978519121,-3.447561953160713,-1.5591873760211739
-17.0,-5.571995968974545,8.258305513993154,13.830301482967736,-1.3949486710027026,-9.660462226664954,11.00776888902978,4.641632312862497,-2.450668452890188,6.5799401981591235,2.4935124171789838,-2.5901582763544564,1.0675375233575255
-16.0,-8.049037439261678,9.89420834102779,17.943245780289526,-0.8986271067871159,-12.956724105710885,13.961749567896401,-2.40355816412388,-6.7104064643152155,-1.2648778761830006,-2.330814131407714,-0.808850063670894,1.9299993251424579
-15.0,-2.2334683758347564,5.795091139242329,8.028559515077145,-1.75996270243258,-5.169208347872408,6.877492573311589,-4.143534465340162,-4.731267600668076,-6.681713374327355,-1.8912291526821825,0.8037172365565737,0.16654871203899724
-14.0,9.39146732779094,3.342826842679692,-6.048640485111237,-6.347723299666646,7.685317887498435,-1.3853040691262615,-0.5968818668104985,1.636345051651348,-5.092468286565655,0.28396360091038186,2.4661069574116774,0.17455486736631753
-13.0,4.539717014629643,-17.054338491779404,-21.594055506409056,6.278316188840483,13.116085204724975,-19.27587677424811,4.703920211311633,5.177938423932471,-5.966238635941252,0.5324024324911694,1.3167422335821322,-4.085132188905254
-12.0,4.291311639364379,-10.735887159758663,-15.027198799123074,3.169428696316657,9.635644471622477,-12.832206788696169,-2.6091597190044054,6.673569638121832,4.080443503206913,1.9610820610410458,-0.8942262555938729,-3.431734952188014
-11.0,0.8213625451600854,13.111110604952433,12.289748059792293,-6.932919605284884,-5.7523590333187675,12.669860040869427,-4.340402041954825,0.3678352848303872,5.419319719992415,0.03409084359710457,1.4836349421286847,0.8266517357234366
-10.0,-5.942850467192957,4.996650798989973,10.939501266182862,0.4361637055009875,-8.3770570438844,7.933296849789789,-0.19109653092868895,0.21562121146015434,3.4689221305610474,-0.8876997541257607,-2.6511591777156553,2.2707783159392236
-9.0,-2.4685588633649833,-11.710665035776247,-9.242106172411331,7.139312985626409,3.3724496867141056,-10.51829278634119,4.805922370189391,3.496691447498609,2.805208615589391,-5.607566472249694,-8.41544904078726,-5.850113620005966
-8.0,10.957893292502519,-7.367988193056835,-18.325881485559403,-1.8181551158766016,14.623872931348906,-12.818669790011363,2.521481963434305,-1.2886374579269493,-7.145005760933295,-6.614889761201037,-6.5341672095111125,-8.14338249114159
-7.0,-8.159916835906383,0.7778898529702456,8.93780668887666,3.670776981567307,-8.574263792488088,4.878499148517272,6.7704420947812345,5.517769551222299,1.4095253610033787,6.817032266858803,5.124321439549463,4.4933060180637785
-6.0,-7.528303706428421,2.4987184422568998,10.0270221486854,2.494540906865332,-8.81251885560356,6.2792820495697175,-0.6973611476938552,-2.769248018727445,-2.2407376662503697,4.102307336927593,5.721667822793195,6.050059385983878
-5.0,-5.079226821530445,4.226433234146745,9.305660055677285,0.4824164884414772,-7.157438008393314,6.78300762895233,-0.8838338116871036,-12.566487912259616,0.3697305149378118,0.27390403276351183,6.3140139992609035,10.01991076611837
-4.0,-3.251968648682244,19.742867282027618,22.99483593070992,-8.272327104544164,-13.094019436898954,21.31226084649505,-9.615396912358888,-17.375971547219493,-0.14690353641064047,4.240582155721606,8.057629839294698,9.698579324146483
-3.0,3.9586746950274003,14.179793979751521,10.221119284724237,-9.022463718926172,-3.102550531520842,12.230836715044164,-9.573937726587816,-10.161726267218059,-5.428681543495522,-0.004441599063262691,2.705853595577659,6.737025418617126
-2.0,13.537937300315267,4.855805759368377,-8.68213154094682,-9.234418387190146,11.064018509174966,-1.874084058641163,-8.962399941423389,7.201024527898925,-2.3958349196552047,-1.0702550069892882,-0.9185283707365377,-6.381864702250859
-1.0,12.588782766405622,-14.99365838100172,-27.582441147407415,1.1592129807534115,20.125300897607676,-21.32115471582948,8.72242595556803,26.568510680795534,9.773189345763594,-1.2182317037510129,-11.991883443775603,-20.20920733627015
0.0,-4.257383716699418,-22.50428947229532,-18.246905755596096,13.410943374730453,6.962680249623254,-20.406046334344392,16.30207837905315,16.419677046937124,8.264091228885992,1.4352578810198056,-6.966756065430457,-15.621588192059873
1.0,-12.25148425790746,-29.978508320862293,-17.72702406295504,21.140330044261407,2.709940958729033,-23.884776296027475,9.26345862377232,0.6689399159723486,-5.2559915210429065,-9.93495076267186,-9.443922297758098,-3.0653732353530527
2.0,-4.09656099940047,-16.93038033858276,-12.833819339182432,10.534942166028822,4.419426750309969,-14.83992044734908,1.2878143274268758,-2.3126518619940923,-7.826241317207333,-11.309990119744095,-5.236743176634505,0.9633656909510662
3.0,0.80851302295242,17.078627668956997,16.270114646004533,-9.003736564359588,-7.763236495790019,16.711133848835022,-4.708092878255877,-1.3519790090953379,3.0714081180515924,2.631989553602799,6.343109802154631,12.05573333438636
4.0,10.772673481676398,34.49676256428967,23.72408908261332,-22.618086415254158,-6.515340194646678,29.06427696889225,-12.886596566329057,-8.957815685356731,3.972679072515357,19.003066165945363,19.19071696270122,14.593530583045755
5.0,1.4731396911498726,42.80726171464026,41.334122023490586,-22.124529825209137,-19.898608942047062,42.101643196973335,-12.409909438999897,-19.73657777434518,-0.19917915731414082,15.736151921050102,18.504291374939523,16.590168623228028
6.0,-2.7405417160566206,13.539903142121613,16.2804448581787,-5.383689964023908,-9.483181116045019,14.942045667650309,-3.0845870547682095,-11.074639359274885,-2.38216237789496,3.6523373386599625,3.073759432350954,4.641204532266815
7.0,-9.906512965411729,-10.931265680142907,-1.024752714730646,10.35825641253939,-4.413774653761951,-6.022333436833186,6.390383231217471,-1.2364765972470488,2.2632000037482634,-6.027388035618934,-5.8602360811274234,-6.0092052270319325
8.0,-5.664823986761861,-40.890366970031245,-35.2255429832691,23.3002640759422,14.732940662312,-38.09944829327014,13.607541474056244,14.597476877661476,-0.6558225343175733,-19.691657872461395,-22.704499512008134,-17.014737998090993
9.0,-3.248911115619648,-46.36699444505501,-43.11808332943555,24.838012140642245,19.9730751045033,-44.70332736668456,12.728267708351872,14.49277182609023,-6.601056288839949,-23.332803380578117,-25.95650876738207,-21.570120704363934
10.0,2.1900012048464013,-1.3214472476113421,-3.511448452458385,-0.4729162554790598,2.818143840969311,-2.376717472357498,1.2676556702197277,8.480952453097036,-2.7792489347530878,-0.7836185889486451,3.891591765758289,-1.2910724380144671
11.0,3.9647310855162825,11.165259527162158,7.200528441644739,-7.513237817923745,-1.6446819780209188,9.143073205172746,-3.3536764777430594,-0.6713875597518824,-2.494680499695096,5.401355054897001,7.70628684643699,1.3598491807456077
12.0,7.364391992839151,23.968035519061637,16.603643526221738,-15.681903060957247,-4.565348856525748,20.244562414184024,-5.725992956745187,-0.667177963709803,7.4036822402600135,18.87298683958084,11.306033906158554,2.9279665698532717
13.0,10.508265757146958,29.264737845498317,18.75647208835177,-19.893633354863848,-4.150124595934723,24.04690457791326,-13.22800329738473,-6.642240163540129,9.198724128710039,22.301520419056928,16.068991861037695,12.080736407389267
14.0,4.536737766155965,-8.238835757238732,-12.775573523393582,1.8475735981187427,8.625605285467133,-10.471000184326186,-8.301463036828547,-5.943524677647568,-4.06046968794001,-4.508457785176416,0.8866014289972775,9.82849817846226
15.0,-2.0038554372802015,-4.2178351023816125,-2.213979665100462,3.104957729741364,0.14752130199223057,-3.257257810315994,-1.5001587710188184,-4.274532913375635,2.0722986046065603,-7.2988625723373275,-2.7361101313372473,6.1230980248685505
16.0,-9.129177036969573,3.1405607464787444,12.26973778344813,2.98022607727074,-10.740678463262462,7.7444398669585635,5.4604579640795885,-3.843875483160907,-0.04857010876741241,-2.0593644138298064,0.35333521677479585,3.0516975255014844
17.0,-3.680082168353989,15.009578357326959,18.689660525680186,-5.691113633384846,-11.149943648259335,16.811501520626422,3.7499836489131395,-0.6058022380189023,-0.6111607218224955,4.549250126966818,10.972429293119188,2.693851961071079
18.0,-11.470097933764556,-12.999111975824198,-1.5290140420606333,12.27313596973664,-4.935482688099637,-7.224043628534519,10.749300295788904,2.7091575806268,-5.665016074208457,-8.266993775786414,-7.434059820622856,-5.5436385538420385
19.0,0.36292726329861047,-12.197296313513808,-12.560223576812435,5.942746592743186,6.419849109605452,-12.420983055261942,6.837366360860718,6.010582047313955,0.6817954836526146,-6.662268760539382,-17.517645531480103,-13.394744643289055
20.0,14.22318004864627,-32.86196483642626,-47.08514488507146,9.3344975039706,30.69315400747569,-39.94329946641059,0.3524603145642149,17.923317086654976,0.31851243588811673,-5.7048235185339795,-17.82386628019282,-16.240546562302963
21.0,1.4667972209131435,-45.54378941814243,-47.010586639054445,22.046236454668133,24.198959160516488,-46.333379480927384,7.436457421623865,6.89834366398215,-7.5146007821216845,-21.151315900676202,-22.30568060129428,-20.755199846066617
22.0,-20.88644379249473,1.482931897282013,22.369375689777392,9.626418181774904,-21.67073539251283,11.941931525323891,2.4457042680262373,-17.336060569000864,-22.898072395175163,-24.934662630912634,-7.659806876362312,-0.5834158338406867
23.0,-21.3758183795123,86.00567961683645,107.38149799634795,-32.3128096509848,-64.34882363312943,96.70605863092182,-17.52653402446333,-40.15189531377949,-5.7637127206082,11.255744103733251,37.7095738428323,38.93144841618237
24.0,21.21664356893326,83.22016250641586,62.00351893748099,-52.214070184908664,-20.37133325469414,72.62619938866888,-25.603143756459968,-2.7627336983471036,41.313415855578356,64.2152550832088,51.17008003610695,30.27919095250047
25.0,47.33890150117304,14.567648792866908,-32.7712527083072,-30.94251254481035,40.069862279247175,-9.080341020236883,-8.250469923179082,36.36406650934182,50.84716885895586,71.9564093157895,33.00326765247127,4.1407204060594545
26.0,21.48374914097313,-45.236638515673704,-66.72038765664703,11.898101137620285,44.1120383919701,-55.946652473008996,0.6756587614214395,25.22830917728826,6.525113172575322,9.279531108354286,0.27851496188393954,-7.6634346897877155
27.0,-21.662602638822094,-79.99919536062839,-58.33659272180567,50.86697067429476,18.267575664198986,-69.20428708435209,21.31252226703504,2.9121336955613195,-41.80347707152633,-67.99372547282398,-55.80623425215338,-30.982723866141697
28.0,-37.45329827580407,-52.01392406263157,-14.560625786826563,44.70652672408123,-11.432478182211973,-33.31624870078568,21.171410943822792,-15.966583311881728,-44.84472734222721,-67.32674312630144,-43.05277521381112,-18.843915923494635
29.0,-17.584073840793156,-8.47615536949682,9.107918471297442,13.016566671351956,-13.322356833388561,0.2894672653953627,7.1507310302202765,-11.65037703979423,-14.130159830328608,-27.521477141466136,-16.64761230903609,-3.7069568015513568
30.0,-0.23118474237204367,30.023213145135834,30.254397887508794,-14.901193227931145,-15.20517350528842,30.11039740712014,1.7086760614732397,-13.79278593279294,5.2972176250378595,2.912545265798723,3.866301706219046,4.2880089468490965
31.0,5.478836963021921,39.85200092537886,34.37316396235731,-22.66932010935893,-14.472384232371109,37.158407052710565,-10.115977495543543,-5.626852057214039,15.92481867056123,19.840401786193304,13.823306731362274,18.485630255600416
32.0,9.823895553608248,34.56747756829569,24.743582014687163,-22.20548976032864,-7.470346651140213,29.69684238514853,-11.151475244086507,6.293871218030841,20.038433861984053,32.216068958395745,28.834021495798364,24.810627132597762
33.0,4.685592416040462,4.803599411824088,0.11800699578310514,-4.765735957543949,2.28357368705482,2.4992743954368244,-5.1588318476922534,5.116001206614382,7.038698431618034,24.801430201107287,18.607392891020307,2.440729964893359
34.0,11.665690526682333,-9.38484057388332,-21.050531100566065,-1.0966202586641955,16.36128780393806,-15.25904420781613,-3.0103073330081127,17.003443497513167,7.231612392650504,11.305694776785682,3.535605014477568,-14.145119603406357
35.0,3.1808517828383494,-6.422085208022548,-9.602936990861233,1.6513813797651835,6.3906239511653595,-8.054390658569774,2.5805105170320495,1.4429446276982922,-4.475779681498934,-0.9772750329074018,-6.798309606449623,-14.096091106352972
36.0,3.0119003650937053,-7.324592934118485,-10.336493299212348,2.09868002279321,6.66150262295106,-8.79516130480898,-2.4136018652883733,-3.797165090809434,-7.416034866460048,-11.370785587531202,-5.930514776468784,-5.932862174859802
37.0,-3.426647942550497,-20.26653263986629,-16.83988469731598,11.862751928695047,6.6780429520644455,-18.599858869462956,2.680410352600257,-0.640780156936704,-5.418471937767374,-17.545876377608465,-18.9568773418367,-11.12635139564431
38.0,-12.959763428055814,-6.545873045188113,6.413890382867594,9.768897901719114,-9.653471287906424,-0.038546424384112044,4.384893624688747,-5.967107640094892,-2.6159251742992087,-8.010920510320542,-7.846206435981047,3.45709701608572
39.0,-3.4220439516968124,1.0410960461372323,4.463139997834201,1.2102970585456454,-3.923437417852541,2.77510484495739,3.4559402134171906,-5.161230714335943,-5.26574288297706,-3.377940458305414,7.512488376174211,13.593344733122663
40.0,-2.0937727074467203,9.209992819286935,11.303765526734043,-3.611117877801955,-6.688545861719455,10.198961868292137,3.0059382466529994,-0.23700084116670705,1.580634204720333,3.587218478517058,9.564937671141328,11.243990363936572
41.0,-0.6570183304382939,16.64795419375828,17.304972524196977,-7.963343812525322,-8.97323290213546,16.999219048486914,-0.8453953954288518,-0.05297151338736278,8.965223539716895,9.599694113482656,9.409168285352491,12.920581650299475
42.0,7.508851126382338,7.951381874037237,0.44253074765509126,-7.771185558463724,3.465930348023373,4.2262997335126125,-3.08995721979439,2.6128779548482037,1.2657423826047016,0.3515055505597946,-0.7916428721260464,-1.7057698023395065
43.0,5.132563230837128,-8.605678543647624,-13.738241774484838,1.7783207391837679,9.455569388888565,-11.132483115023133,-6.425534711579766,-3.37424983048267,-3.9345856476611396,-5.163343090820369,-8.018887410429771,-11.54058832638771
44.0,7.90755943790057,-7.859980089131977,-15.76753952703281,-0.05829014508549546,11.86928003261146,-11.842063925083682,0.4443832199034441,5.861325174183043,1.0635147813520855,4.109196375964025,-2.72914853014528,-8.953202891365082
45.0,-6.8964528518869805,-3.2923891229197704,3.6040637289669224,5.139657574614063,-5.285104013573075,0.13588264454105214,1.9129605432069208,8.267879179863492,2.7184481172874286,1.4326921562939083,0.7801166740395984,-4.993422107144914
46.0,-11.184201667820714,-6.310074095560297,4.874127572260255,8.713120412156899,-7.974871091644459,-0.7351100326747599,3.2988897260523524,-1.7597077596344923,-2.686858923381195,-1.168028529854381,-5.71244050532006,-6.247188083795597
47.0,-2.7291365931847844,1.3804892916929838,4.10962588487776,0.7168612209409777,-3.4373627966974225,2.723981421333562,-0.3049462940060943,-5.46686862298709,-3.7953685814879723,1.841249356485814,-1.415494219670789,-1.6676979703678594
48.0,6.898929839079019,8.845503924717569,1.94657408563859,-7.9125849388119525,2.4593979069567005,5.443965455468956,-4.481633078723833,-4.431917820481054,-1.8712143024005248,-0.8458762586185304,3.197707981290365,6.898618875618106
49.0,4.435171347300684,2.652381536871271,-1.7827898104293514,-3.5115185262643913,3.0880314844128938,0.39121239013309594,5.034927887033497,-0.62928212643659,2.084849465353093,-2.458346190852934,4.25805264278098,6.264442894458868
50.0,3.939217837891783,-0.7788607143599524,-4.7180785522516615,-1.6341632003485889,4.299485531386856,-2.7253783065962693,0.6504710048917759,5.81287143807793,5.996634812839934,0.09078880924696708,3.4658623705485097,4.400617990984719
51.0,-4.04292866336977,1.4870379387721213,5.529966602141977,1.2951945565573808,-4.746768733515513,3.5236327964036223,-3.1270833081363385,-3.3048539819764513,3.3257143006707683,1.7407320821342214,3.7355097387637737,7.238417274984842
52.0,-9.243328619795234,-5.898975467369091,3.344353152426247,7.582736548411259,-6.26327209073618,-1.263850041360994,3.4593700864957584,-2.531897860354055,-3.877008262511036,-5.005321973189908,0.20312010852339765,3.7718905447282727
53.0,-0.46337992509848425,-2.079311835810534,-1.6159319107119692,1.2809945019569962,0.6002371987283444,-1.8290964177763749,2.8749144943919767,2.175003939452991,-4.125976280043297,0.43943301084860686,-1.2572775636368045,-2.6793784069074404
54.0,7.587368002667398,0.23611423767254425,-7.351253764994865,-3.899045853992725,7.410842860141262,-3.6071540145473295,-4.967173735609592,2.4732326034034164,-3.8101450543931845,0.1753428622304851,-4.552436731650767,-9.759783635847288
55.0,2.5630260285537485,-0.8600366978371585,-3.423062726390988,-0.9093700857196196,3.011882672947459,-2.177101485481356,-4.6030732506496195,1.5494456703011699,-0.5127536526798138,2.880103262529435,-5.892890863158191,-8.220351307393695
56.0,4.850186957126918,3.1326353766830892,-1.7175515804439243,-3.9583862397897858,3.3023004677710497,0.765598629359848,-2.5885766469321885,0.5291863206168173,1.8572897605676384,1.6394444008815545,-4.943122795141676,-4.424647159072631
57.0,-0.5333818063319244,10.119749315509562,10.653131121841385,-4.7464218428588945,-5.653978745801814,10.378912588650554,3.476837811577593,-1.6442728461628093,9.389242710290116,7.001603719404341,6.952002903100797,4.851464991114403
58.0,-3.380638377322042,-1.3615853463072347,2.0190530310147192,2.35126737722314,-2.6826835546587873,0.330429939377864,4.6193040805047225,0.4016293745777486,6.18469450520713,-1.8788752850105197,1.4400373321741418,2.893158794258587
59.0,-7.372102698540906,-2.8127697673472913,4.559332931193562,5.079969134799214,-5.949793668995474,0.8784970486222027,0.7432818480171073,-2.819330062865327,-1.7430783586848309,-4.681324901864696,3.5934155964832897,5.1269623803238344
60.0,-7.015593372014933,-7.4662759195821415,-0.4506825475672037,7.228946916242024,-3.2678345554951727,-3.9563765591732722,1.082626035822902,-3.737233297259815,-10.003312514716404,-2.5883372452218185,-1.8136422216489705,0.04983273622657247
61.0,-4.163180366231582,-9.695946910113621,-5.5327665438819595,6.910933552443057,0.6981918621421574,-7.621674627209947,-2.7996313528444716,1.9800115620582728,-13.978026739584303,-5.891949971547312,-0.7930394447854633,-2.21425240236018
62.0,13.506225201117868,5.488142475652593,-8.01808272546517,-9.527652149946654,10.77428606324701,-1.2861710776345152,2.103494110063619,4.496265640977083,3.592417892390996,-1.4675819567849102,-0.059925407678809994,3.0404225347078446
63.0,10.703096644440603,5.4812004065372655,-5.221896237903262,-8.05743609075078,7.894411686189024,0.09332562347048812,2.8187081113993138,0.16411633165754758,6.480770032171469,2.022977330976608,1.916957708043775,-1.3644016792917708
64.0,2.656778095014558,7.32332950461679,4.666551409602246,-4.966919261219091,-0.9956980747872306,6.024860312128398,-9.515545878039251,-2.4514938666415675,3.507061348553327,4.333711785442242,3.6480301856142976,3.5521520194371305
65.0,-3.2441711513775138,2.4677613173586455,5.711932468736132,0.40433060502223217,-4.469666052355119,4.113180727283764,-5.6581406599150945,-0.2896416389732005,6.664252391479818,7.860253860431045,-2.3698041304042907,-0.4085024134212939
66.0,-11.686035908925529,-6.823306465278663,4.862729443646842,9.268928443690022,-8.265227180310417,-0.9561435448066109,7.1191259949912755,3.0836935670013297,3.5440156139636136,1.7210549516933709,-3.6144313071808667,-5.0212553055643365
67.0,-6.04066345788627,-7.632437216250994,-1.591773758364723,6.852740230821586,-2.2123931252125706,-4.5807562996039,11.438190298163056,-2.3380106755172663,-7.141460703566099,-6.38672437276546,-4.979118197759057,-4.016487507540434
68.0,5.9038597537149995,8.735313802473856,2.8314540487588844,-7.37868106252812,1.5530208266017609,5.7464226548912025,-6.097572222361697,2.6608509554864845,0.05969626119414784,3.627573755961005,6.6337024954483255,3.9708223583644067
69.0,-4.209169884367575,-3.8936761057503033,0.31549377861730316,3.995450361829465,-2.239978649096778,-1.816445412464526,-0.292679904382664,0.7772876684113245,-0.914562117969508,-3.205340721316588,-2.0985730663106597,-0.44715496309138736
70.0,11.580967557059164,-4.660133465443826,-16.241101022502978,-3.4354447148939236,13.859468410388985,-10.472597944831808,-5.7688650307958165,-5.484187965119913,-7.599164372627176,-6.8342175876503966,-3.771024336456801,-4.26499076628791
71.0,-2.2395287491505522,-0.2622686364723943,1.9772601126781382,1.277843819356467,-2.156960565573052,0.8350807843022654,-0.03085719020378308,-1.7766603656280011,1.77376528273119,-1.9035698561176368,2.3085438994363185,2.9107050338288367
72.0,-3.919375906281292,6.732845090024296,10.652220996305536,-1.3768597847564912,-7.2547258534998535,8.743145500364687,3.487087837841656,0.6032176614949127,0.9034237547559552,3.0836334228264723,5.350943955026049,4.836609537727228
73.0,0.20313416358467795,5.814767974797713,5.611633811212993,-2.974521966165135,-2.6738832462246984,5.754849367600618,2.489901494199552,1.8020531088667748,0.4861324414543027,4.235026220254939,4.031268279128633,2.520364249579978
74.0,5.916672669338684,1.0580948179703356,-4.858577851368375,-3.5258580825211756,5.416483699495046,-1.9468945661298203,-1.9613411954848141,4.768356237280366,2.2880239131691766,-0.46109495469033934,-5.856634912434325,-2.905880167682442
75.0,0.34913769034038733,-2.0900560298602766,-2.439193720200668,0.8380280659091066,1.3424687024070872,-2.2401796419791484,-2.2158592257818563,-0.7820479343093125,1.2452534677999143,2.3709521912764093,-4.412274844829942,-1.8293667655905934
76.0,-3.5288996583209005,-3.7316016229772293,-0.2027019646563324,3.6028504345454304,-1.6381567340158076,-2.02533295509922,-0.794326403712989,-0.46708737046677107,4.186417606987937,5.492824016768747,5.572686436821866,1.7452573226621553
77.0,-2.1179115873156173,-6.948130793471604,-4.830219206155967,4.587599301662259,1.3783446767085157,-5.8676962290804955,2.1507563468718347,1.1647978002568093,3.340521793256713,-3.6217095539893895,-1.8591552197308716,-2.409086847012771
78.0,-1.7574118425081509,-0.6883687039514399,1.0690431385567438,1.199887484701649,-1.4734275006654218,0.21743577295062044,2.9550143303861915,-5.5690600105126595,-6.6891123226009785,-7.661873299595985,-1.0442067824281405,-3.0513865099815827
79.0,3.94458808378282,1.5318301884369905,-2.4127578953457984,-2.683263684086103,3.192908155456172,-0.4043375679124285,-3.8516076176364367,-2.780432046174278,-8.072256430826574,-1.1853622975333202,2.2322562549460057,1.722351105061904
80.0,-2.7087861528491586,-1.2376851915483176,1.4711009613008623,1.946922485341939,-2.0798817564346024,0.08416976858414071,3.1429359453452816,2.9192837641761153,-0.16830737160099485,-1.6773189250011298,-3.7045713110219713,-0.09760971370257776
81.0,-3.264047739280644,2.566895798971149,5.830943538251804,0.3185209912065312,-4.540232564143679,4.174744779772981,3.3279817497617605,6.886441288129133,6.741857035714086,5.422438897579021,0.7464835719468232,4.56351208449646
82.0,1.2632383994843641,6.529162619592805,5.26592422010844,-3.9304290119846694,-1.9942357656786305,5.877670418425216,-5.011192189368347,-0.5014851356795096,1.5461898372102127,6.310011742445193,2.465265080396825,-1.8017881762023982
83.0,3.854397651471094,4.992669321271979,1.1382716698008641,-4.382565851908192,1.3685881560224251,3.1234282913952662,-5.0340224526230015,-4.544722142518054,2.333133555077204,-0.48604222891699633,-1.6385600134684444,0.8819567152859207
84.0,4.481630028719638,2.863783481112174,-1.617846547607507,-3.6337665232162375,2.9888696663762975,0.5963792543466082,-0.3134196707020145,0.4351397192111537,0.2862177711440934,-0.8257857165176619,2.9868433968373935,1.9426723313316763
85.0,-2.6605774553351975,-13.111003111733718,-10.450425656398581,7.845740477880565,3.9237858764346414,-11.816254252105779,4.86503827814451,-1.762056808072545,-6.595792949933177,-9.951105985132084,-7.006509761894787,-4.376956783770188
86.0,-3.8540615813152255,-9.21628637033396,-5.36222478901877,6.574799498144497,0.7964899997150117,-7.2555093812177365,4.657298712957387,0.7345409114632268,0.4002825176271454,1.1433215013396194,0.44380818452867965,-4.515840595216048
87.0,3.799618072334531,9.943912503783258,6.144294431448726,-6.910066135420443,-1.1943562302649084,8.070743287963108,-2.432421676054004,-0.5275924387182861,-0.7189417158346192,6.512370801917077,10.216936384837465,3.2512093902770425
88.0,-1.0421037558185473,1.7180076138365257,2.7601113696551107,-0.2980672401087272,-1.9103244522031102,2.1845517384666935,-1.309160730512286,1.0115151860352576,-0.43678220269987433,-0.1381065335606282,1.2633909550946263,4.37051790989123
89.0,-6.014480566308338,-4.208013421448833,1.8064671448595488,5.06984573902657,-3.9107424100237402,-1.1730070840730327,0.6609098495039821,-1.2441801064736928,1.9553372131067026,-2.410620253298859,-5.9179418979082925,-1.2016585435744553
90.0,4.692481103436083,2.432750439277349,-2.259730664158691,-3.607940522743919,3.4791727807169446,0.12346539668409628,-3.7996746124506267,1.9632884665522707,2.4181370895995253,-2.6012534271795467,-3.9448072455896384,-3.0246075124274405
91.0,2.7253520229622197,7.846154197442288,5.120802174480064,-5.255975262800006,-1.1976191026173137,6.454858926297907,-0.9335669338959648,5.265318123427764,3.6531189937625514,4.341447664531826,-0.594934959753894,2.5988494850573813
92.0,-0.6981977543629689,-2.194850480384542,-1.496652726021611,1.4749699754234382,0.3907191165980396,-1.8598931139829387,1.7799399178450552,-5.199841196258049,-6.406377931822076,-2.1777130120067953,-2.012884680919346,-2.6780664037721698
93.0,1.6919659574895975,-4.134748565704018,-5.826714523193647,1.2522114934337523,3.738452732028242,-4.982106697089776,1.1789359153913965,-0.05424403505699482,1.6379268412691346,5.117211177108469,6.812708112426627,5.341400209333242
94.0,-1.1539051578312125,0.06011012554958217,1.2140152833807765,0.5049882304066249,-1.1395252150494137,0.6440912870141209,-0.3020709910418373,-0.5749871281664045,-2.227893366163906,-1.131459452244151,1.952070986532728,2.4107106623949974
95.0,-2.443990956550968,-2.2886136155335537,0.15537734101741263,2.411155329763999,-1.345608021683649,-1.0573134018469927,1.1689561448316526,1.309686236169106,2.783698133845461,-2.332580306139854,-2.557636205873328,-7.061943492653436
96.0,-8.089571127800765,-6.303748505784589,1.7858226220161857,7.1701018980517075,-4.912405558273327,-2.2540768094903334,3.714299261833456,0.4705160845190454,2.408047003120195,-2.628053643492118,-2.984359168805687,-5.203089448148297
97.0,-1.556720269256356,5.978433816718961,7.535154085975336,-2.2334015869089554,-4.523074420906002,6.751338679844576,4.5634197225479545,-0.8556921252245999,3.084694979279881,1.3388024831070053,1.3110740616332246,4.5679738260957246
98.0,4.500091428503513,-0.5640140307032233,-5.064105459206706,-1.9915281243034753,4.807214802409657,-2.8337074273580294,-6.050976182244216,-2.7928780157662736,-6.774958749333998,1.1604285682800817,-0.006108927868932468,-0.43688556344469265
99.0,9.43740877024609,6.59181740545926,-2.845591364786812,-7.965283786382069,6.093193096351882,1.8384645685715792,-8.581277495527281,-0.9248672457151521,-4.6661499111668405,-1.3905922523949241,0.8991149331507551,4.2080108294393055
100.0,5.232543722433768,2.221491970618657,-3.011051751815125,-3.765813783275473,4.079771027383683,-0.36319344944516296,-1.8514647209997377,0.6857177745557677,0.07802313618518797,1.8602274483374335,4.225608660184469,3.9662904368208616
101.0,1.5482258033036542,-0.7805453395923168,-2.328771142895995,-0.35413292176110933,1.9805760856199388,-1.5305695530135126,3.4484086789766666,1.9332527021092867,0.2330616984513616,-0.6861702108777252,-4.022887435376006,-4.2765751421232245
102.0,-7.527840693949804,-6.434648451719789,1.0931922422299776,7.002659462537289,-4.265142181802335,-2.648275966967008,3.5390178587575383,2.5507696702606584,3.083307577745157,-0.7609627389030578,-0.6038046762548797,-0.4882778086794888
103.0,-8.818825965726262,-1.7966571436063412,7.022168822119908,5.246399566742891,-7.952819406966308,2.638255646288127,4.790398106034714,0.08191489714235045,7.965881619064824,1.8346787876398365,1.3530158489980582,-1.0602357574707875
104.0,-5.604723357324789,-4.678383175617869,0.9263401817069483,5.16049865822052,-3.298285665956686,-1.924199238712405,2.7209023837360284,1.6460115378342695,0.0974472062029883,-4.464149837111311,-3.4839435304298267,-2.9461321705833017
105.0,8.127544059398117,7.139809939801912,-0.9877341195961759,-7.607821102149827,4.524469136130465,3.0320240635670945,-6.292535068050284,-3.253209925681656,-2.853462840747908,1.347467359457959,0.9071337925128325,-0.48595166332747974
106.0,7.561679315146231,7.52495623646286,-0.03672307868337854,-7.506839171873397,3.8461096505950594,3.7801720230244023,-1.5222391996157132,-1.801738483962921,-5.63626139747884,4.405307288689443,-0.45250048044549884,-1.0762238195128435
107.0,-2.410148879251344,-5.15496347726042,-2.7448145980091123,3.7518426879938582,0.21846915263454747,-3.9943522523870167,-0.003540609020896479,2.5942940074571337,0.8207499535846741,-0.573157244104842,0.6679079520748102,4.273567858668271
108.0,-3.6974671237527525,-4.459905375750772,-0.7624382519980477,4.057405644811511,-1.488135987108862,-2.5804543126464083,-1.1555053235172095,-1.9957405296078674,-3.9137790416940037,-2.6979599791944073,-0.5183527822526106,1.3696101736237818
109.0,0.2527577254979412,-3.30798594532327,-3.56074367082122,1.5113234016141828,1.8942933105389648,-3.407026582867203,0.507144169457385,-0.19358704720764708,2.8870061491702668,1.4994279981198109,2.1358475262702235,1.6690949317514505
110.0,4.742892997187485,6.644138354993118,1.901245357805645,-5.710082383352159,1.4151924712722186,4.298538381292046,0.8749869864026268,-0.9554521328963718,4.380675824728715,1.5280573909854653,4.521824891308566,3.50395499498681
111.0,-0.8984718856241327,3.9348748483902165,4.8333467340143725,-1.4607468533730534,-2.8685040436085973,4.332344206370356,2.748583282828447,2.2333435908030426,2.978500738941907,-0.6605555503504578,1.1092429281113463,-1.826321328111656
112.0,-6.215784429330204,-3.0472535933690303,3.168530835961203,4.603043112996143,-4.696946000040423,0.09107737575959707,2.5943749596100574,-0.38357736002727005,-1.449222498178857,-0.6575732854966982,-4.0663420264497985,-2.753309413112464
113.0,-0.8933937932194396,-1.5869695213984922,-0.6935757281790229,1.283291059174841,-0.11200142211615005,-1.183812811240089,-1.8602517752363656,-0.7582736132033394,-5.594614868716429,-5.8699134718427395,-5.408042011439463,-7.217379746775717
114.0,3.9381047481418587,-2.026382877646485,-5.964487625788312,-0.9963721930140785,4.928442547791884,-3.9553274861227226,-4.929909879724992,0.5645419283073067,-2.0590796143911034,-0.7211081961273047,-2.0457216555703677,-4.575655560772619
115.0,0.8144181436153568,-0.7373167729555365,-1.551734916570859,-0.08001456759585342,1.2273715461572239,-1.179114613969142,-0.4415552811778367,1.310155370032431,0.7996187219007136,5.377894786531844,3.0241344893139783,6.013055570267877
116.0,-1.246756089745777,-3.142652459371428,-1.8958963696256204,2.2355812658841265,0.3591386964295826,-2.4724419195356373,1.2986561889824837,0.4391242476430092,1.1696709418378999,0.24764032510828615,0.2075743144277351,1.8446576599264812
117.0,1.145103546082113,3.776906119023878,2.631802572941784,-2.41264032300655,-0.7933560587611935,3.1736827735057345,0.7174727285438605,-1.0456616006106865,2.420284060803907,5.3475457697033075,3.2569519667208136,7.123565885412381
118.0,6.879398788563473,11.25218100052525,4.372782211961788,-9.086766354553882,1.2810565855478726,7.782028202024705,0.680288412611876,0.12152035016473339,4.356118698289055,-1.1280737993177228,2.3525266225701627,3.7901426606689177
119.0,-4.653381416439396,-3.39595296069628,1.2574284557431232,4.012110421805481,-3.0027436301090207,-1.0211106189179016,-1.5176315577345552,-0.8346972870851153,1.8095268611078201,-1.7972354942909377,1.837899100375806,0.03673176646569076
120.0,-1.5388162673442407,-2.7635318432387237,-1.2247155758944759,2.1430574616870035,-0.11837870451936139,-2.024588201360869,1.3218429421547078,0.8490005783994525,-2.6222790808628997,-3.384886300875822,-2.7268760269136423,-6.1841960119832855
121.0,-3.0607654706653395,-3.480116968399058,-0.41935149773371516,3.26072433793793,-1.3516440722389476,-1.900723572399024,3.548439403090497,1.9181868381611815,-1.805985936119557,-0.13948469485550374,-2.8479393092118928,-9.208225277626852
122.0,-1.2506614847445463,-3.836752807226371,-2.5860913224818303,2.525944411400056,0.7244059234979086,-3.2400165538475463,1.7822631649858336,-1.599857626532028,-3.8282480966123,-1.4125995894677645,-2.1337655445386616,-5.322716139162186
123.0,2.4661454660142255,-3.187591879150575,-5.653737345164827,0.4086336102585394,4.044256570654232,-4.448251913343407,-5.170998438403947,-3.8348079050010484,-8.70175490891824,-2.0229111215918696,-1.0681515028228936,5.415351143263473
124.0,-0.9338343716361828,2.8805087608173237,3.814343132453474,-1.0194649379095404,-2.3877201235303525,3.398806450661585,-4.071489661963675,-4.408496868570269,-0.3844002237541213,3.0020387614492257,-0.3205940723928999,11.637593382685914
125.0,-1.827348000911331,6.419880263335601,8.247228264246903,-2.2777268345421153,-5.053964108954303,7.305191830101159,0.2703031582617461,3.2411943870469075,9.969407710121317,1.7131331513996917,3.5509353115619917,1.438451487843242
126.0,2.7304267515814367,1.1521796865209981,-1.5782470650604563,-1.9325734104586982,2.1302032427904516,-0.24357789256480622,6.325187825640643,5.997081093909779,8.21733560374889,2.8513193609759777,3.4376366941453123,-0.03535538253552728
127.0,-1.203210783168034,-4.5722351118656235,-3.3690243286975825,2.8928102661746147,1.1277312336386305,-3.925314767271076,1.5273001657445553,3.4944422349414146,-0.07954288979362723,-0.35172743957380814,-1.9410116154167847,-8.780158976876708
128.0,1.3074385678113918,0.8878381509124045,-0.4196004168989471,-1.0897861846269137,0.8202991032618052,0.19781390098638485,-3.715163811653431,3.0260080924597093,-1.5681772369790568,-2.1720197672510886,0.38288607883197495,-2.669227796981005
129.0,10.194400879551129,8.985748397791804,-1.208652481759259,-9.574439851720298,5.730838622134143,3.9287640388607286,-2.6432630671880246,-1.131201698596765,0.0017123873050297611,1.49468118416603,1.2512290505035446,1.2884266041268604
130.0,3.376143944512222,-1.962179751766842,-5.33832369627898,-0.7597995817810279,4.384768467586813,-3.6902155476789904,-1.1326575730985815,-8.874020271417425,-7.7193687763317484,-0.13384220380549283,-2.505546513359086,6.668815753040363
131.0,-13.220258051759547,-10.33567247005004,2.884585581709584,11.813906901860268,-8.022587872711352,-3.6878578482431776,3.220761320237304,-5.331743487906693,-3.7745318863386883,-5.8258199981335235,-3.8669678997843953,-4.287347577210584
132.0,-9.56394712205703,-1.3756725543272825,8.188274567729792,5.434422613435058,-8.920535047845243,3.442261899037418,3.240344818108171,-3.8678363136544953,-1.7467118103466834,1.0539668594801253,2.0222888045548513,3.7889499859925158
133.0,1.999580776838294,1.0085610530761606,-0.9910197237621485,-1.457120399369316,1.455010247377622,-0.03733061158409268,-0.10067947898498542,5.986283018854554,5.194418648332463,3.886985765749351,3.402175401908569,1.4323904871153736
134.0,7.353061061881534,3.4182498244967725,-3.934811237384813,-5.417699788794666,5.684035817129549,-0.309613736360589,-3.5456378534036452,5.660583900830263,1.5675892086752232,-0.6371963072859352,0.7133077703030295,-1.0192805456367586
135.0,-3.470627443022755,1.779518789272923,5.25014623229562,0.8105236706283256,-4.400833747016275,3.5358426610486586,-0.7721318907577637,1.7054293483336886,1.4303219292603435,-2.6155949158217466,-4.6164137214206775,-6.890894697452832
136.0,15.21604905558564,3.906165446184941,-11.309883609400721,-9.521389000264318,13.2964871340006,-3.6867177499473875,-1.7598135461207025,8.700017440098518,5.775028388114102,3.651825735032015,0.02740052157059014,-3.343021920471136
137.0,-3.0956472938878505,-4.912163066086766,-1.816515772198895,4.040329118188057,-0.61229521980112,-3.3525448283166477,4.210185749156047,-5.898338471552064,-1.8198389916976434,-1.5018810724251797,-1.2897211143472045,3.4911214784427846
138.0,-4.9495847913333435,0.7755571074288261,5.725141898762207,2.04322429914157,-5.3945628662858525,3.2626490301410582,-0.3003813020707833,-4.376919679800103,-1.253788931307891,2.8714404943864054,5.014271316089506,6.525729131330848
139.0,-10.70966289094075,-1.8691915852645193,8.840471305676258,6.32500240247443,-9.756836107548887,3.5023128770824554,-0.9046561994371698,-2.396014130458419,-4.69487511256448,0.10232630281631089,1.9927361356329738,2.1782902072320236
140.0,-3.761049034173169,3.84066078826186,7.601709822435046,-0.08078191799109957,-5.662829359695948,5.665966237318638,2.7859842219775914,-5.687573132336374,-2.1743995827655134,-3.2093442487442676,-0.013983094425829123,1.9819319736388008
141.0,8.47940526609347,1.1119204179926165,-7.367484848100865,-4.754919345064745,7.946231239224166,-3.097226380761681,-0.576004355965985,0.019243838446258543,-1.1174494093624836,-1.653237765129811,-1.4086791495193802,-3.4044715502696956
142.0,4.745979536675151,-7.059164628615893,-11.805144165291045,1.121662418957921,8.227012609564355,-9.396862576266395,-0.4305039012715441,7.218461745842906,4.2516846811926365,-0.6837142549697918,-4.38198619962783,-7.172318114418671
143.0,3.9901367330416315,-1.6971225354327584,-5.687259268474409,-1.1784783542599904,4.877991744544003,-3.734944350371246,-3.5771376200459706,4.396166656624466,1.6547018248806493,2.4753657693626456,-0.973158878147272,-2.106175941866311
144.0,0.4584111638293278,-0.10055777536450472,-0.5589689391938304,-0.12912116263221285,0.47821041206483006,-0.37621212058613085,-1.808471823906645,-1.985320045392891,0.48639152830608157,2.2771557931125863,0.840084468293257,-0.05672494008124618
145.0,-5.455958084948125,0.3308326163370735,5.786790701285226,2.536970956115654,-5.644610117689908,3.0842339591903607,2.4344010902686435,-3.4014525704747927,-3.4128105021641204,-1.0166705431071452,0.720700879221516,3.24379266069761
146.0,-1.7153726555787019,7.0403965532711705,8.755769208849916,-2.6057761617302955,-5.1756721077606285,7.915837358751568,3.254663635378155,0.743276013711299,4.322575726591866,-0.11671648719741823,1.27681328033215,4.82335448430095
147.0,0.1434128441491187,8.500097567990975,8.356684723841923,-4.3406358948539285,-4.124486353718371,8.440354591468347,-1.706238130253849,-0.6598242169703563,1.3098953000278257,-2.1535203538665035,1.131773173103824,1.6608383638695843
148.0,-1.0879733524722668,-2.663956146666759,-1.5759827941944407,1.8587446792876519,0.22383546315747793,-2.1099700538765593,-0.019837913050055722,2.0619025786410905,-2.8582065923561357,-0.6695327220989234,1.5678502622239934,2.7016669598553387
149.0,1.1494570236103492,-7.134405336933345,-8.283862360543706,2.974579083103092,4.691428764264906,-7.696645437991238,0.34907937734029587,0.19926907449995873,-3.716917089941963,1.0262441439041268,-0.7793728559165407,-3.3900479324494546
150.0,-1.001945194313829,-7.422300011712793,-6.420354817399013,4.191025124861129,2.7558616225374637,-6.981374025204245,0.3205957445757298,-1.3038866339982715,-1.4201485001549787,0.6591114719530639,-0.988779212391474,-4.43968332791799
151.0,-0.4118252286354953,0.62504393656606,1.0368691652014608,-0.0540540045009541,-0.6852509857984441,0.8579528095644058,0.738068671476132,-0.6383225337566625,-0.7738441896849986,1.0114921241832966,-1.3705352207703705,-4.250950928291545
152.0,3.535822999350941,3.580172910587547,0.04434991123652954,-3.590002731934471,1.6989334804151122,1.847672491840037,-1.0618873001561413,-0.8084660230873744,6.138490917030811,1.368009865168528,0.9170268478786143,1.787231226719003
153.0,3.449094416045436,2.8823007410204737,-0.5667936750250112,-3.1242472891844333,1.9554890922595831,1.121254950076675,-3.0229296511535004,1.1034587944353353,3.2780637679891473,0.02962785694377118,-0.8516484358485059,4.354048862670707
154.0,-3.351189182188427,2.4456311600896994,5.796820342278139,0.411533878120262,-4.550852099214554,4.088966183049521,0.5465282344728157,-0.088341783384002,-0.7769210646352926,-4.543502544095374,1.339125811122546,0.11054825047368677
155.0,-1.2767190662083383,0.34773880570912885,1.6244578719175138,0.4996389549982462,-1.4274134337595181,1.034045550571546,1.7929393068242012,0.40404344985095086,-2.60005002730418,1.455365668942488,-2.4976645098437054,0.07065880277007941
156.0,-4.796272597174548,-2.8967357737015615,1.8995368234730508,3.801829271215272,-3.3217145751774897,-0.5301748622673736,1.0162722229514765,-1.289812940963203,-3.356258024005651,2.83152739239842,2.156042025775442,-1.0693038448708467
157.0,-2.0526035911600236,-2.1532792340597697,-0.10067564289972075,2.1365827369417887,-0.9450471213583314,-1.081854803128606,1.5971066796412057,1.944865390512816,-0.330667473973143,-1.8798018976757571,-0.056383647464153586,2.2526530715112383
158.0,5.545663371277284,-5.002340399834252,-10.548003771111558,-0.2384942281514295,8.003335536929093,-7.811152971008856,0.38814752802172875,-0.4864054875924013,-0.6890003279162992,-2.5896432082185687,-3.707364415786439,-3.314704627175639
159.0,8.272369593301244,7.596909722899978,-0.6754598704013,-7.9811217536102586,4.4322909669600214,3.501623715754785,-4.529232245173782,-0.5115322699312533,5.66323280332975,3.1429963992258454,4.286621337094692,2.1244374374526602
160.0,0.6301932977408886,1.6956827098716616,1.0654894121307632,-1.2105618958090507,-0.18215644190456626,1.3419083901952233,0.5465882859733007,3.2710831805851948,2.002836889444106,0.19051401035755033,2.732188207213,0.416340832763507
161.0,-6.7907195218245295,-0.2540688925715322,6.5366506292530815,3.5529081404850578,-6.711563599447629,3.10321607450238,-0.3782016208998989,-4.600060365303322,-1.6286606930985044,0.11195063650682902,-2.574389874283206,-3.6291599572282682
162.0,-3.8682258986435,-0.06523194912655798,3.802993949517055,1.998159399905005,-3.8104474562130366,1.9117650084346465,0.08952166899174104,0.7811296711994755,-3.0150154964852587,-1.2113325512959143,-1.1663610114023866,2.7021316604463808
163.0,-3.3190756829286467,-1.1008913227184514,2.218184360210267,2.2444932395685937,-2.7478332133430685,0.6051505304512846,2.77250957636055,3.1580342608950924,-3.4523853002430327,0.6911767412212941,0.9112826586844973,1.9697643145407002
164.0,0.6326960709991891,-4.272381355767425,-4.905077426766659,1.7806880645115364,2.788581206182517,-4.616638544198679,0.3041617801879155,-2.877741107979258,-0.34164555412608344,-0.32236362319928763,-2.120322022575929,-1.237565005489219
165.0,6.053000475227202,-4.374644924404462,-10.427645399631771,-0.8721534211716689,8.262841439728742,-7.425067399929781,-0.5324728312643529,-1.1685957603793036,-0.3518603697261297,0.26040312167130264,0.5013442526921791,-2.3051485563484606
166.0,1.4281474996685626,3.597413158119396,2.1692656584506658,-2.4609755633644648,-0.4207537447942644,2.8620097051027,-0.8483676624775573,0.3078271994513951,3.5542835761867893,-0.6780310754256569,-1.8718788334655099,0.6068394339964951
167.0,6.9661150348631775,8.951423710996265,1.9853086761328786,-7.980877041849816,2.4478147699078123,5.526390808912577,-0.7982336976574711,-0.6986693555986365,3.5683641902607723,-2.4246367032049188,4.337319257396772,1.528227483627837
168.0,-5.124419874377582,3.0524703835277642,8.176890257905228,1.0170317394896227,-6.607240650335983,5.592654400746792,0.4508068983487037,3.453047485572297,5.0899670497247955,2.3388442869735577,-0.14628350977464466,-1.0732038277305924
169.0,-2.5099067919327993,3.003614632254917,5.513521424187786,-0.2641287272019852,-3.963088579388728,4.234060702276837,-1.4125912335732482,1.6984223965141203,-1.6325303736053647,2.418990041389643,1.6316124080611847,0.6675939016168856
170.0,-9.482636365146597,-15.276146228769363,-5.793509863622552,12.441679417710027,-1.8726457356703143,-10.561896062786136,0.6744347971691476,-4.923805230104962,-9.248670385691037,-1.5600059204081742,-5.385061224127001,-7.606925419249965
171.0,-2.96898501042142,-5.64622803217564,-2.677243021753984,4.291836272292626,-0.17538074261427983,-4.111658946441292,-0.25130041988108265,-0.29674611032976905,-5.563270618715459,-2.0782788885759493,-0.727734045033047,5.569516931475324
172.0,4.9974808718528445,0.7879479461106311,-4.209532925742085,-2.90743906431708,4.569823690545448,-1.6608818560541598,2.493089522526312,2.3808293552857327,4.714842696882646,1.105775364903182,-0.26844361044027976,2.6676685607104176
173.0,14.471314002655165,5.996043580300606,-8.475270422354585,-10.246968308936124,11.513097162349842,-1.2674681980333733,1.0160359747148155,4.273346896879397,7.7304207588790215,4.619511605362502,3.5628747794303823,2.72964183867928
174.0,3.0663331224315886,7.438634645273298,4.37230152284155,-5.2643776505154065,-0.6174414221462232,5.878960395683547,-0.6762387938312173,-0.5869648288213389,2.0178518387100546,-0.019961717880587537,3.598680504617731,3.234092801089371
175.0,-3.6704183328753537,0.4508340403108404,4.121252373186019,1.6771658026881746,-3.940528153229938,2.2605964892553994,-1.7447135788199462,-5.659190085126614,-3.7529854883359928,-5.349326464982056,-1.1324119114864508,-4.975892165213669
176.0,-7.983313446091384,-3.1986811979363226,4.78463224815492,5.578177229627202,-6.347776244410043,0.7683186680591123,1.5435880496534207,-1.3890569214978647,-5.432784943114456,-1.2342085155203244,-0.606596128145336,-5.485901887678503
177.0,-6.825618820289729,0.1235461509198692,6.949164971209494,3.333870912412596,-6.9245041698359495,3.5916183918946416,-4.44221994593394,0.4416098561949626,-0.22933229577350067,-0.7868178561434989,-0.7380882003626472,2.3752781977608994
178.0,1.025325396136017,0.8845725975119678,-0.1407527986240682,-0.9795930563364386,0.6320860688621575,0.3506567300700867,-1.5496181224236274,0.7100811662355611,0.2011381381561228,1.046656724198628,-0.8225481669530306,1.222008954164293
179.0,5.1636255609172155,-0.993648856188994,-6.157274417106134,-2.119324224018089,5.638247624007251,-3.514708700517928,1.8211540763302043,2.1345862764194976,2.2766937119505006,4.718572868297081,-2.5129716846720296,-2.084336078112985
180.0,0.015027324886558002,-2.0155686624288625,-2.030595987315232,1.0348030835027364,1.0064050351094966,-2.0379352600999914,5.412541512746949,0.30861517653601633,3.759233191417515,-0.9724945423465154,-3.60974510988336,1.8067769189247793
181.0,-0.0865315571326346,-3.26732942233017,-3.180797865197318,1.7038790498937633,1.5336715325519052,-3.237765328011342,2.665004218270804,0.2712852098903994,-0.4996470455961677,-2.6026349808164237,1.2543950491827158,-1.6828461215381312
182.0,3.4439656969687755,-0.42650935023730485,-3.870475047205958,-1.4850381467604632,3.6436372980385716,-2.1647333538398956,-4.8471991202235065,2.4296839344874464,2.711574729676322,1.758174985174454,3.2822160067072708,-1.3098428094702068
183.0,3.523243163182922,2.296418289953272,-1.2268248732297133,-2.962980673734688,2.4375965195378044,0.5118248185203064,-3.9217504227291107,-1.5166706784456516,-1.2270296632355673,0.18658181881184807,7.175353800345313,1.039259778045852
184.0,-5.886481519008692,0.9236016868180621,6.810083205826558,2.5135634051038283,-6.36859590106259,3.834150779122687,3.74412125899715,-3.290303236858686,-7.490411155457253,1.4437233197617743,-2.9059841334703838,4.012556795566713
185.0,-3.7625157198454606,-1.9597050809099938,1.8028106389351874,2.8239359406929405,-2.807712211403196,-0.04254287603004858,2.6045682929761576,-0.2837505668931244,-0.6043817897116317,-2.908830821354363,-6.246426143793641,0.9876146837584336
186.0,-1.1747848951704931,1.0952526462465924,2.270037541416813,0.091444823616609,-1.6734014000205826,1.7107809022139446,-0.8900617113598568,5.494705333269099,6.60011741269765,2.683265772045853,5.1622454786496474,0.8324978687851896
187.0,9.172844300659477,4.551204091886474,-4.6216402087730675,-6.8805906806299735,6.863283396532447,-0.010649134072413857,-5.4722704508079305,-3.6855814014062633,-4.339129344583783,-3.1124087529700377,-0.3622700542763713,0.2809939295466777
188.0,1.636079190384773,3.506414389267156,1.870335198882588,-2.584532045422147,-0.15448581584653232,2.71364039523239,-1.4791931607509663,-3.2834116592709877,-2.1794860499494746,-3.3526214762795163,-2.5575236957327117,-5.165463474422913
189.0,-7.359821214793499,-1.9723898513634937,5.387431363430374,4.654317447955632,-6.334453730167091,1.6574816742606742,5.189479602396246,4.204028062936676,5.983684037168888,3.4530043121277534,1.5961131217234323,-0.06940712009422345
190.0,-1.7910119349160403,-1.421007326742143,0.37000460817430825,1.5925291278140334,-1.042045318339965,-0.5714808639276998,4.187677904687084,-1.9962980302286757,1.959264059202995,2.1657318049366845,-3.312557163688216,-0.5480046574871313
191.0,0.460970898619703,-6.107381003081467,-6.5683519017009155,2.806191742863422,3.4753620944456722,-6.302046462724875,-0.14445874710778384,-0.5522247782883296,-1.7690619551109197,-0.8067869961665792,-1.657396023617669,-2.0821115434550665
192.0,3.5172356078815263,0.7159467667646946,-2.8012888411168606,-2.05891779831647,3.1226208669135387,-1.0840246264217095,-9.635117755829617,0.8203393769425479,-3.6842471450042624,1.464505824775899,5.295784838466204,-1.004866937658318
193.0,-1.8385173326754365,-2.7983130044363556,-0.9597956717612877,2.371975786141166,-0.3931851449005075,-1.8409602764392936,-2.0875488379774465,-0.5792824200775227,-2.373896027578727,-1.551844388618898,0.24320614230587223,0.9230575335010549
194.0,0.18527999060486441,-3.224991013449322,-3.4102710040545947,1.4898949745076744,1.7701315054036815,-3.2787189979231206,8.34216260216635,5.992587941866729,4.279920497533359,1.0828843078732027,-3.3143140880094712,6.873487140720373
195.0,4.647021845139587,13.652707577258496,9.005685732118517,-9.186417165542531,-2.1233335460101825,11.29098217798569,4.466612077510444,0.616227202333155,6.693772184580435,-0.36673285785861576,5.012075719078626,7.498757603999291
196.0,0.029999721787602684,1.9985388333609393,1.9685391115731656,-1.0598964872438335,-0.9883572585077627,2.0265220728820044,-4.0474699829667875,-6.423070112367793,-5.4888685058311175,-0.16747974893756473,0.37389887613928474,0.3234363464093257
197.0,-3.054479427303699,-4.22783049204657,-1.1733510647428833,3.663434432862772,-0.9583700732196949,-2.733582650725142,0.7785534664989714,-1.4343987865979813,-4.551777199713836,-4.782442899232643,-3.7028643835516344,-11.493058448945643
198.0,-3.613230489931222,-7.108891346249212,-3.4956608563178264,5.372917713949035,-0.07832362921568015,-5.332718487041017,-0.3039161631394325,1.1617209316154602,2.025315682383444,1.316012441686738,-2.00687114511664,-10.396887186654357
199.0,-3.7627679812276704,-3.3532311056558153,0.4095368755721882,3.562752098733817,-2.1102004702638255,-1.5001913395768676,1.7770098198618083,4.448561846684029,5.226830744524225,3.9406333972528467,2.4361241526292723,1.5581756324418459
