Time(ms),I,II,III,aVR,aVL,aVF,V1,V2,V3,V4,V5,V6
-200.0,11.685142767309095,7.713727576557623,-3.9714151907513973,-9.669374106898148,7.864893704759325,1.8993859259319876,-2.098123699601638,3.1259630357572457,6.539270494751676,8.731453551704082,12.568547630636214,6.4358151616103445
-199.0,-4.319889464565929,3.606996724620779,7.926886189186796,0.30611363008372283,-6.1748883218434,5.79042180568393,-1.0831796496879358,0.807682480115065,5.648454187886263,3.4395270725512805,6.754934283907805,-1.0149391630201299
-198.0,-5.304836652378851,-3.5242893243377065,1.780547328041166,4.443929686664417,-3.5214432174296233,-0.8531402531291916,1.9895556750136039,1.397538384610204,-2.0208111492397225,-4.991892927644129,-8.454954879148858,-1.7239755741547822
-197.0,-5.610006897932848,-9.603913716529302,-3.9939068185964923,7.5610098067243054,-0.7877395863173589,-6.863525987621693,6.518935413012698,5.6140889101157825,3.635444088090778,0.8889253068978371,-9.23015530915913,5.546134514616191
-196.0,-3.5062810719148216,-9.13628445344538,-5.630003381530631,6.359435257804204,1.0862995132067286,-7.373111465530692,4.923487993035437,1.6637220290091337,-1.3172115253930108,0.4258430450784847,-3.808545081472949,-3.084796137432522
-195.0,-0.9868924495444169,6.881392766622612,7.868285216166949,-2.9029136742144646,-4.395836518855125,7.381883062702794,-6.697758627469797,-8.555824976397332,-14.900314504835423,-10.057514015061138,-12.821353036888745,-4.107918988576157
-194.0,7.505131324518643,0.3735482373517054,-7.13158308716702,-3.968223360378644,7.278729912406009,-3.3731216133993707,-6.518045560254741,-3.545008932307653,-4.565823109232661,-7.202467972161863,-0.19261566637515903,-1.7797428134438142
-193.0,6.434907392236399,-5.854449195815677,-12.289356588052147,-0.3156779582527558,9.326844628388999,-9.064861465816394,-2.2852994819915065,0.1995848289205684,7.0269242362556295,0.5278761768632834,7.989673630437619,-1.6635443277987132
-192.0,0.20021139061466497,5.2386115308191465,5.038400140204438,-2.7443097643639005,-2.4547581235381832,5.148815236155555,3.047159674888329,2.327877202264842,7.564960157982705,8.248839313575957,12.425321432812428,5.441423731098306
-191.0,1.8620315916672596,12.539699912442885,10.677668320775634,-7.1490546788568095,-4.3693789885063055,11.6234975094981,3.4972799583508074,7.031048074331969,9.234050255929342,13.709892103628222,14.478252712346634,9.525952650718848
-190.0,-9.612955512422419,8.11556109920794,17.72851661163042,0.7184732001593332,-13.63888415999556,12.862483225009324,4.184692974521637,2.936924284938235,0.4752127356259761,1.4765451270021108,-0.7772072782576016,-0.9945605819136545
-189.0,1.2213727394806515,6.073190568747447,4.8518178292668885,-3.6801371890877883,-1.8674767772990224,5.484572057701328,-5.495259545831589,-5.560523645648506,-6.870077752323376,-6.151753981260884,-12.035323860552017,-4.804587117650716
-188.0,0.5679906453011352,-21.62151842100408,-22.1895090663051,10.572353483502049,11.403811787934355,-21.883052013199112,-0.6667553935180675,-0.8735998518287711,-3.0939676714285858,0.19229677870494033,-5.54856194988729,2.626998486050255
-187.0,-1.1049628543515317,-7.881701061033203,-6.776738206681552,4.541649789589413,2.864561091863349,-7.309108746546707,0.705882268362164,-0.5523359561791052,-4.165343047010035,-8.314258265305934,-10.454919837885143,-14.208543099290118
-186.0,-12.505409630303054,-18.95837613378102,-6.452966503477883,15.70660563805246,-2.989807094678464,-12.768818623326972,8.43158516068832,-0.8895233519443038,-4.162136835378898,-6.5931507672245555,-3.8912925124975652,-8.469781707750565
-185.0,-2.6621140064625415,-1.0801465329313071,1.5819674735312317,1.8517318281153021,-2.155102036364624,0.2612724822231369,2.121693974100493,-2.826008773904047,0.2730657204215243,0.02171341428372875,5.535836840297748,2.411461259557626
-184.0,19.15753736519128,28.724041469858644,9.566504104667315,-23.95549632366242,4.770096553179303,19.15164841599877,-6.370844708803093,0.29555792727450614,8.407579759774471,8.415044921572367,10.301807890809622,11.557653012577912
-183.0,1.3150987851084057,13.447994943255397,12.132896158146979,-7.3941002983036,-5.4306480229686285,12.79604716518984,-7.511199065188237,0.8423835007192471,3.9859623609374815,6.195065229405156,5.768936316498414,12.28278416307229
-182.0,8.35878694058186,8.664653347018188,0.30586640643635743,-8.524928445013238,4.00391125275235,4.494484495684626,-8.102848417207843,1.3948563756501828,-4.08412409824189,0.4722154269160903,1.1722515431779614,5.968861789098743
-181.0,6.057541862027506,1.044764289772833,-5.012777572254618,-3.4883952071474056,5.587554161390073,-1.9669094023772344,4.5699021409494875,6.017417528254908,1.0847740265587076,-0.841393199133041,-0.05292186476291105,-2.9371085324642174
-180.0,-9.009059588484519,-16.004171171375997,-6.9951115828914405,12.486805518331797,-1.0374915950993775,-11.471955971000536,5.12369794864425,-3.357576540528658,-0.7333075500038767,-4.450363766822571,-8.056914128428446,-9.795516389770821
-179.0,-10.794831195400292,-21.864184875415166,-11.069353680014853,16.305782476472604,0.18355953796717728,-16.506898536233575,4.937366236321301,1.8738188870658168,-0.36560557664269044,-2.9162850156553684,-1.79872679431256,-8.311735209607587
-178.0,-18.401800028938936,-18.359332066684445,0.042467962254522096,18.432035476396138,-9.252927078669584,-9.189534540841649,5.631764522707876,0.3842462922736447,-0.8911135474570513,-0.5778130175436567,-7.022275343519091,-7.3774398526356375
-177.0,-9.12964246712263,-9.610583967437966,-0.4809415003152919,9.3396355321379,-4.271574813174189,-5.071019827257158,3.8073442129947823,-7.240825365516504,-4.807099439884736,-8.244168145686752,-10.165157037819183,-4.8721873423474165
-176.0,24.799981979309877,38.191274676695656,13.3912926973858,-31.52916587714624,5.684318170695086,25.84748038544286,-2.651268010123319,2.158295748611294,3.9578983604621536,7.174654813473694,12.985522985133532,14.398448284292556
-175.0,14.541732428663687,26.03164285823565,11.48991042957191,-20.24455470652825,1.5102198019389128,18.738801096926572,-9.908410932233622,1.5217575121712879,2.853355030189037,7.110353670071843,10.218260836307774,13.272385311778745
-174.0,-2.5674354995611495,0.36729632665220535,2.9347318262132607,1.060407555191663,-2.7662944446885542,1.7075328025399692,-4.841983680855675,-5.914961837187791,-5.393137945598693,3.9647592690353735,9.074465015232711,1.7060186274859568
-173.0,1.4403447147783004,4.349559892225135,2.9092151774467823,-2.858645638385017,-0.7537678323656094,3.6070582375738285,1.634171622942676,4.027699400392098,5.775637629868666,7.363427446422913,9.044732157015462,1.9744390125658244
-172.0,3.7671428790424963,-13.393453737973491,-17.16059661701598,4.847234762749501,10.436861025573078,-15.298767593319058,-2.947785052209606,3.1256744866307553,1.7155681377152128,-8.2355652820158,-12.581713482508079,-13.07312860329446
-171.0,-5.8935071841674525,-21.643791736173547,-15.750284552006034,13.722617802452042,4.971179352173058,-18.717264609226934,-1.6050234082358719,4.046600916561453,1.6422296567655352,-9.268556312022838,-18.494134780565272,-12.579631092922693
-170.0,-23.044229475198264,-16.880907995608386,6.163321479589918,19.91643721630092,-14.568850257491578,-5.376413104079516,8.546934239165301,-1.2695579184975627,-4.073264606711165,-5.175751465907677,-10.41233978997798,-1.264794116641081
-169.0,-2.713886535408129,-2.3874764846899303,0.32641005071822793,2.5849385763163806,-1.4906867778044024,-0.9656750024061398,7.967789634988096,-5.49164746971113,-9.344149556603012,-4.057260755890612,0.3836195722060909,7.404043813493349
-168.0,10.760938250115224,19.13655636808128,8.375618117966058,-14.910779983233502,1.1401055785170575,13.746681035977682,-0.6001883446524063,-0.2794064515969876,1.0880447690406077,7.279473247310121,14.811717984609059,9.599336550174499
-167.0,10.182680886732161,13.412215220029314,3.2295343332971367,-11.832639976015535,3.5003637396851333,8.315765012039131,-2.631313848224635,-4.222211179552351,1.9778669701142915,5.523193297859092,11.631339517207465,4.998947231598916
-166.0,7.502451359586201,7.052988215898894,-0.4494631436873382,-7.227637000216372,3.9179327753000237,3.299381569506041,-0.3369968730723474,2.394132798239406,7.39981406844231,6.840016311504597,5.1578738476247725,-0.6005325189267059
-165.0,6.309262036825024,-1.8772837098249324,-8.186545746649998,-2.238721974602483,7.264123925176343,-5.034452843123723,-4.646182434306253,10.133059952889994,5.954285962889146,3.5652207585447777,-1.2215367493678277,-6.175155589267315
-164.0,-8.105857585033739,-11.951865479168251,-3.8460078941345346,10.009945225562804,-2.1192661394034507,-7.905178648554349,-6.539849884106699,-2.179732781690255,-5.036211553345787,-5.64333478558725,-11.26271215522351,-8.399040842931447
-163.0,-14.995098047638848,1.3115155373162475,16.3066135849551,6.823728110536411,-15.645460630494798,8.795973087367411,-0.9475364381347129,-5.754018310135327,-5.667352928676506,-9.063140343203846,-6.946171246134182,-1.3022158909005306
-162.0,-11.48001149064999,-2.0692768130065837,9.410734677643456,6.754711586914613,-10.44322896155445,3.6490996112172365,6.665676674607812,-2.4658788806502665,0.19060020274483014,-2.3212128666011704,-3.0013757038177973,6.5032607440283225
-161.0,3.996518168342324,-8.987373364473859,-12.983891532816099,2.550847255120737,8.492509867381816,-10.93669409461568,6.4886429684301445,2.88164159100731,-1.9096194958306876,-1.310701314733051,-2.0487013240776597,0.7744668104743524
-160.0,9.470692984255331,-3.8474403430741084,-13.31813332732942,-2.8383381472558353,11.40090534389178,-8.618574909341046,4.221507627862444,1.753756611099682,0.7219972013651841,-0.2895482923519077,4.843433806314426,-1.1281269301278887
-159.0,13.277338730628314,23.263693348239382,9.986354617611035,-18.220666207554334,1.6598833333635783,16.665115963214213,-7.981730567374674,-3.062921257303432,7.126151286624799,15.721387858834808,19.06360885324627,9.223238071451224
-158.0,6.958125660147725,15.972422706021993,9.014297045874212,-11.494796175163643,-1.0819213992331114,12.533283465658386,-6.608159418882602,0.5557484225798917,1.88612153781727,8.772727656074577,11.50813127529143,2.713156805360608
-157.0,-8.145395785929015,-12.272538179676395,-4.127142393747441,10.17999080870429,-1.9726140516620108,-8.237570759366639,3.5734944662965704,4.5309707328029125,-2.5046558945534123,-8.675616090744807,-10.667431346878804,-4.7628903244948875
-156.0,-6.054849604190854,-18.926646031598217,-12.87179642740737,12.541461194898641,3.3771990790271165,-15.936246343485323,-5.449051277678186,-0.10146537680468071,-8.297104934939652,-15.949664376514647,-24.47893696737037,-13.48419327490656
-155.0,-7.685154660645175,-13.666191859805089,-5.981037199159906,10.648324085330632,-0.7959260202694085,-9.861280749749028,6.9533866053192295,-2.722721645152867,-5.073780711829356,-6.157035384156654,-14.364926008589222,-5.568943077753268
-154.0,5.481136423329266,7.653454969515003,2.172318546185747,-6.594372437598335,1.6366798012159012,4.952181840180558,1.8522018266228883,-2.23140189457004,3.714701338190745,1.2882917322926062,4.286666444321913,-1.5777505636012372
-153.0,-7.016261466821851,4.064831269203042,11.081092736024926,1.448844440149419,-9.066304310042268,7.6103914390058325,5.7025812374120175,-2.1074610285572675,6.879387198496746,14.067972463227498,22.311518907309164,11.779799176986485
-152.0,4.028845436528999,14.184307668437278,10.155462231908302,-9.054051076962716,-3.0858976635716746,12.127768271401028,-1.168879484474852,6.796715226317124,9.564357328542384,13.914498122110963,20.60711104925044,18.679035848006027
-151.0,4.018209737170123,3.473192128882646,-0.5450176082874512,-3.6919858147444966,2.328401809251353,1.5014385794776377,-7.098437789126744,-3.645691610352177,-1.6285293126398939,-3.9136876936558034,-5.464674676170013,-0.9479728136245988
-150.0,5.597847931416634,-0.39121313751430975,-5.98906106893096,-2.6272749186911564,5.749227981860984,-3.1511135880905035,-2.2607791800836723,1.8409313733251302,-4.327160646918528,-11.8817070721034,-15.163905876291908,-11.113509830765278
-149.0,1.2800433433589729,-3.795438508895682,-5.075481852254724,1.2334943451431963,3.1991770600868805,-4.4737925060759105,-0.20943352597379583,3.411149816821644,-6.552321235632939,-5.080644251008799,-7.142884288176764,-5.152112059750886
-148.0,-9.347115121816493,-5.344568424704136,4.0025466971122725,7.319007195169509,-6.665275560287701,-0.7093465285242786,3.161816647902242,1.824331589632381,-3.0694222565075315,3.6268451765506367,2.2802379156342845,2.14923626782996
-147.0,2.62409226233098,-6.312772921972167,-8.936865184303231,1.8122879567128924,5.78110498510309,-7.664797550328553,-2.8686269763234566,-9.746472229574128,-4.4721323719642285,-2.9777412902276716,2.1919868230817015,-5.3560074231424
-146.0,-1.7222602441182935,1.867882949689311,3.5901431938075508,-0.03305150738378737,-2.6606035684546607,2.765349169014616,1.3712888024210037,-0.8436123560221152,5.4971805318912885,3.31363440894053,-0.1416907459778145,-4.361616474129611
-145.0,-7.7461207948608095,4.291175859459729,12.03729665432053,1.7600839012600966,-9.897041689557284,8.198740050049581,1.9895164686083446,1.6751694770608214,6.595796811430651,3.556196144503688,-1.3687199472717269,-0.4095247257602431
-144.0,-0.6675093211806888,3.273103572827134,3.9406128940078515,-1.2760948886333725,-2.306685406610118,3.641132698808383,6.518611069348372,3.975768284626961,5.598375565622465,0.9306855858524186,0.2775722503772018,9.421887351969215
-143.0,9.110835816044013,-3.749470464526061,-12.86030628057005,-2.73648138149057,10.988395270131738,-8.348085164383601,-3.701607503175153,-2.806558726325628,-3.444122837543146,1.535402507735033,2.8292774760647847,7.58771741194004
-142.0,10.296430090950352,0.2567560122516269,-10.039674078698688,-5.254846713771072,10.17794984558298,-4.854304337503129,-4.6496646356053475,-1.0544767766796772,-6.042662511976322,-9.007097841085521,-1.5593635453905437,-0.32296753470605655
-141.0,-0.13007075285203884,4.88553075630455,5.0156015091566015,-2.4332516001244198,-2.5553369398913244,4.909293912659139,2.135860488258883,3.97954805608437,0.016513635880099464,2.3050572677893353,4.549836466504391,0.5806314995887489
-140.0,-2.2973196352774288,-5.294388389571621,-2.997068754294164,3.823331966106645,0.29590729334253885,-4.189063650487329,-3.5568913646303018,3.3951761142066523,-1.0758458629927514,3.706240208485699,4.918280971997778,-9.032186444666815
-139.0,-6.613135940293068,-9.13553290260295,-2.52239696230987,7.908714157392472,-2.014048114722183,-5.797993539656728,-0.23332797943747186,-3.4431565086041704,-2.796803760353011,-0.06977125326627753,-1.9267939249416137,-4.663932589983697
-138.0,-3.020684266487499,5.3929982256194045,8.413682492106915,-1.221633745978762,-5.758843271922574,6.928632869932407,0.6337874398332282,-2.245938275606703,6.82454582735726,-0.5418920851497293,-10.046787114083427,2.4000137933490686
-137.0,-9.232314943562828,1.7761799488146115,11.00849489237738,3.7807761873452677,-10.078182793834916,6.4125129985663065,6.8244955864862975,0.41766703150889395,1.0438853639643142,-1.9744084940231597,-3.6519527248294192,-1.0707724824079246
-136.0,16.584815686377265,20.614466955469666,4.029651269092312,-18.617804836214923,6.324267158769728,12.26070983851329,0.7309300581453333,7.8394494234688725,6.191852953987044,8.480389618285997,7.775629785851727,10.550332109961953
-135.0,-6.31026883016875,-15.094509631089013,-8.784240800920388,10.688368507760586,1.208391650104613,-11.921203615582954,-3.9605571402020656,-6.671322298849342,-10.107888616833971,-8.710892954672035,-6.722046971181422,-5.56075772357778
-134.0,-7.768499418208203,-2.920439338935246,4.848060079272834,5.329394238028996,-6.3347663505787235,0.986571062476715,-0.1848466109602931,-8.630585601888095,-2.749498094995902,-0.7527201885226065,6.943473882702838,3.0927782297157114
-133.0,0.3706040711319461,1.1503169514885796,0.7797128803566187,-0.7818916159234872,-0.2302677208921602,0.9953953233867887,-4.9191780435722325,1.9046241630112055,1.5023497128969132,-0.09206715320142522,5.6957060157506465,-1.3278432824644106
-132.0,9.189200296387357,-3.699292311194643,-12.888492607581913,-2.697874759621406,11.013230278124652,-8.333292644791689,2.5743507365876765,7.4439276602826645,3.451017017777925,2.386038879973808,1.5135207821423786,-1.696564641032566
-131.0,11.826784395255345,-4.152556201677824,-15.979340596933014,-3.8803766877173174,13.956603974633058,-10.09712274396423,-0.27489623674261565,4.581983897634941,-0.8413683068308369,-1.1362470471537767,-6.420368565322203,-6.637519804505194
-130.0,0.5996705115099878,3.6793634334131244,3.0796929219033116,-2.114135007462573,-1.1851465618253219,3.432710310941547,-5.78724790810579,-4.334618119737339,0.036599228770013426,1.4867583413081906,-5.60735909889362,2.104358468453357
-129.0,-11.98650308083575,7.3953598259914495,19.381862906827354,2.314596703903999,-15.706205829770585,13.364890725717999,8.503856282557825,-2.30586572649372,1.5871295945395572,1.59839055945909,3.598238219950596,7.707920816531484
-128.0,-8.539688096985822,-1.0793379612264795,7.460350135759443,4.826976952219783,-8.020989778271574,3.164716742266987,3.9508215103648814,0.43200145196272777,-0.26792841234582143,-2.1827644919799765,-2.357707270928881,-0.7324289247622282
-127.0,5.382584618808135,-2.5170550227401494,-7.899639641548239,-1.4911694661348023,6.618721897345445,-5.160581553632917,4.098873472041209,1.8935372980232326,-1.0229630379540233,-1.3717327696423514,-1.9579020564689102,-3.2818359035450033
-126.0,5.622171599773399,-5.645764725241045,-11.267936325014452,0.03799014707189341,8.417682709928252,-8.49468300463338,-3.5816312171157008,-2.4746830676998153,-3.037538811184193,-0.6726279235787449,1.5760729409170484,-1.0589960789094968
-125.0,-11.451465771318368,5.046400446903926,16.497866218222242,3.2355098163984857,-13.931777600361496,10.806299183877599,-2.465301017248607,0.23077919101821487,1.2942820661116579,4.189060480056433,9.812994527646666,5.4665714219811035
-124.0,-2.1121914161021964,0.8772599774544837,2.9894513935566005,0.5774578966195741,-2.5187176601200596,1.8836911719312708,-5.583295331246855,-6.576477426618654,-2.6272917236396074,-3.6286397705853695,-3.2107144369417995,-5.113937268360214
-123.0,6.076122807461358,2.3029537136431157,-3.773169093818362,-4.226150063046788,4.866907543604386,-0.7084469876248596,-2.848010657369542,10.210361392632748,6.461294275471744,4.100307057202915,-2.0764815828525593,-3.4992546540425375
-122.0,15.009871941121132,-8.524631966287403,-23.53450390740865,-3.1999217035894705,19.284019412310048,-16.00256811534258,-3.773951419143853,1.5235560838168358,1.7224174831635688,1.3893915111630488,-1.107366798728993,-0.7418671994032575
-121.0,5.09789053100929,5.978838320208005,0.8809477891986628,-5.497556199067137,2.1149485458471133,3.4592156429753285,4.278709814019881,-1.0210410405168355,-0.687066491068616,-1.6958739702692918,-0.5549909578974597,6.995110815259109
-120.0,-7.2439946649950695,6.614252339637361,13.858247004632444,0.273574686702855,-10.545058211077306,10.189842098833417,7.880180938360411,-4.115731880667471,-0.5184494808298266,-1.1782428918139893,3.715324816157474,7.240696633513838
-119.0,-11.251169359349872,1.810129183914346,13.061298543264256,4.675673798130148,-12.145689784720817,7.391917653490399,1.2901171416567463,0.9293943375513365,0.6610398002716393,2.7965601390323,3.301613846542839,0.9005853511404931
-118.0,-7.1767876651104086,-14.71607889126631,-7.539291226155824,10.977813810320182,0.19991099106942123,-11.090830618114934,-1.2877366269827706,0.5350496105934043,-2.977001270438467,-3.7898221223977395,-4.719045519739107,-7.94733748213438
-117.0,-0.4844126184346389,-2.8252445100351187,-2.3408318916003874,1.6855044378997128,0.8777154770067601,-2.6231026057848106,-0.6909026837697163,-0.7301039075739262,-8.782792374283437,-7.046520429506035,-7.719718797029488,-11.013166788493955
-116.0,0.32624211211169496,-2.6562882316678658,-2.9825303437794695,1.1968448352178187,1.6913156544337333,-2.7778399669079916,-1.6168488423036218,-5.499560747281671,-2.9853205543450403,-6.418468100975583,-6.6463877396191755,-3.167197759184808
-115.0,12.662993484012825,14.476406963365893,1.8134134793531205,-13.614388985451097,5.388774977300802,8.191240249887267,-0.2171303169367138,0.708362628381529,6.46715747488139,5.617714817291471,4.761416275324384,9.06619394292454
-114.0,-0.3720426082495978,7.508723061659827,7.880765669909428,-3.6108592272534894,-4.081671730687406,7.668885673848137,0.32249821768137243,4.104518918587967,6.848581236725849,10.979025497678743,10.666938088529198,8.126809140985447
-113.0,4.201939664104096,5.4023309984603145,1.200391334356194,-4.764789270279788,1.465240228924707,3.2828150206381417,-2.025456043336388,3.0412406106193703,5.6276925196387815,10.7842668245788,9.799510273035857,7.396676258375718
-112.0,-4.28687792551667,-19.904235494067905,-15.617357568551242,12.132599951628123,5.626058655035519,-17.772860395450763,0.01683788972892586,1.5278449813894972,1.1107320978122264,1.5790172384313177,-0.8108175096920398,-6.432331488519274
-111.0,-1.0580887085172104,-11.911145761871012,-10.853057053353819,6.441577598809392,4.933224503781395,-11.390018459041272,-1.167187059397149,-0.13743397890914366,-2.8693307040416567,-8.086944046866952,-8.14100986371454,-8.777031942624912
-110.0,-0.08155766515310203,9.41352635579742,9.495084020950518,-4.710411477915068,-4.7548475878261645,9.4471751217444,3.413558128639475,-2.317732027795517,-3.607867568133284,-7.897830436116529,-7.1721896228631365,-4.008993303716201
-109.0,-6.127187779355892,9.439263301792227,15.566451081148124,-1.622005126985965,-10.81321386749729,12.57144303834219,-0.3588793247886901,-1.7882368927552237,-7.34705670223148,-9.50999926381084,-3.5926318824201235,2.936534614732182
-108.0,2.945702585222639,1.129947312736375,-1.815755272486271,-2.002249035179723,2.3378254073750018,-0.35989312520749106,0.9822476316698208,-4.945274242851366,-4.255186843830874,-4.992326869655196,-1.5398327742763547,1.4154714185198984
-107.0,3.291297309887688,-6.155879205217737,-9.447176515105454,1.4710432027849476,6.329654456604922,-7.8286002349421135,0.30503014833803277,2.8809159592759186,-0.47176142029231083,0.32208631196561743,-0.10228972266342909,-2.804550443179433
-106.0,0.1873365671701852,-4.248317625611351,-4.435654192781587,1.994097432192776,2.354021144741613,-4.381239475110753,1.1149024020271148,5.505284199894593,9.15040564753397,10.850489799888525,7.606132874250124,5.550638715598825
-105.0,3.2783815578393503,6.290002204803546,3.0116206469641478,-4.818213267974565,0.10005833261022956,4.677829947400095,-4.423336679956875,-1.2786465981590251,6.268445117420082,14.167869733354275,6.9680616289676705,2.8568331320982145
-104.0,2.9325710644883185,10.323583553615158,7.391012489126819,-6.662210823165445,-2.259969356092374,8.873660727704989,-4.24364791167761,-1.8479643910102104,0.13646393085811326,5.90626683897639,4.770263367605837,8.63230495294867
-103.0,-12.61699013215641,-2.040971708219024,10.576018423937398,7.370797223258586,-11.545934088331547,4.2768883931091235,6.851319746053971,2.2241415407619964,0.5823124051540891,-2.438823901075175,0.8918886448622441,2.1469319692547564
-102.0,-5.5560206173142594,-8.254262057546956,-2.6982414402326853,6.94237225568911,-1.3758569804339171,-5.469224064646191,-1.8495087228954699,-9.414024579694502,-4.867746386286016,-10.533989681619367,-9.929718524500421,-10.477224054256803
-101.0,-3.0918741136977226,-10.620939391205198,-7.529065277507481,6.8101013808687005,2.1943419238217747,-9.065672897336112,4.519995249843405,9.131184962152961,-2.687483855212958,-7.589243316133602,-5.738051671150504,-12.536733884521354
-100.0,19.60092053616538,10.312003238927023,-9.288917297238356,-14.927321277464578,14.419682814881416,0.4482473425467077,-6.629689154007648,-1.1035620452520034,-1.5781651785665232,-1.4450771889595728,1.2940368103425,-0.8419199612277968
-99.0,0.8683186556226268,0.9396671950140307,0.07134853939137908,-0.9541495748235578,0.3685923538942566,0.5297349386955084,2.236221129358729,-0.20751861486523326,0.7894135388775234,0.4409450434878397,2.878842806010712,1.0766838862571968
-98.0,-6.783040187390925,-5.242356816159593,1.5406833712313142,6.043975644356612,-4.121487054847368,-1.8163722944034972,1.7099819809014873,-0.6578523563196261,-2.8380657511319693,-2.8179396915947224,-3.0775179848824905,5.012060436172446
-97.0,0.47215776208637195,0.07663368461160192,-0.39552407747477103,-0.2377915431059996,0.38450882563867506,-0.19309731450255385,-1.0931081760241308,-0.886618653744325,1.7458653320775006,3.437163389101357,0.27813514661977967,8.842686031428128
-96.0,3.205679131252113,1.243209669023811,-1.9624694622282801,-2.2602784957489868,2.6026747324531603,-0.38326227146238834,2.678054370267325,2.588989989328545,3.6497690021463542,3.8117078357135705,-1.7108860270855193,5.839151981044295
-95.0,-1.343227550938149,7.291161433635062,8.634388984573238,-2.9260786318102916,-4.977829137046453,8.026247450127299,-1.3760178895633532,-0.8806815952347343,1.566883423000517,3.4280303148998703,-0.2801476596057628,-4.478798650662645
-94.0,-1.94692091455661,8.239538052896526,10.186458967453154,-3.1757036117798036,-6.057710921873424,9.203301981211451,-0.421730831449329,0.4926211214414117,-1.4950041866416612,0.48065629519835396,1.2312370911447166,-5.600111087752302
-93.0,2.835477343425413,-4.507062467096095,-7.342539810521512,0.8033253344781162,5.102493185662807,-5.932670750259584,-3.6040563776634684,-2.9741902065612553,-0.8549071884562873,-1.9234742171962604,1.5240610603283773,-10.94665617015064
-92.0,-3.9011708676596832,-10.366828594811723,-6.465657727152057,7.094686080616893,1.305713414710828,-8.426491117102989,0.8475951473861738,-2.095331855792022,1.0256969255808877,4.220932152322128,11.092279349345432,-0.8594533817078425
-91.0,-3.5695290803568613,-5.146496780492186,-1.5769677001353726,4.389312714603351,-1.038707503483618,-3.378045302403681,-0.8447334354499945,2.3547459504187875,3.7943155777108974,2.448279396322856,5.723220669711416,11.803906830577962
-90.0,-4.670740267694068,-2.789085526248632,1.8816547414454021,3.755073174632225,-3.3062318923440586,-0.4781339438225136,2.968490853303678,2.763238991978952,-0.5133756495083315,-1.1286816831359223,-2.4778596244108257,8.455421086069743
-89.0,-0.054996646168278374,3.4319830868895616,3.4869797330578116,-1.6647474983479165,-1.7133442544228221,3.5060900320397814,4.876375477541406,5.135699959560566,-5.0166535916964,-9.435819551955205,-13.791071866490102,-2.2416879591726553
-88.0,2.8907843061365455,8.301961898887285,5.41117759275075,-5.5682701276754205,-1.2776724898283573,6.819472637005891,1.1973953501941321,-3.1615273644703707,-2.081858038185918,-3.737611117263725,-9.31489896301363,-4.295885581673696
-87.0,12.494363561449273,6.376020267731404,-6.118343293717832,-9.476681285185322,9.286997504831316,0.16969658254788955,-10.226900583559333,-7.481208198829418,-0.9578346941424738,-1.012328295324859,2.02500343250938,-0.731456649682857
-86.0,10.575387570015552,0.14957486321931945,-10.425812706796217,-5.392492969564335,10.475273024541309,-5.094123524888271,-5.442063321042957,-2.9576633444643337,-1.440245786559111,1.01737825886786,5.607247443927337,-1.3976594840576082
-85.0,-9.483867285468042,-6.696289696120099,2.787577589347983,8.070826253858682,-6.089757437898053,-1.9838399999563043,4.811449846930731,7.138473264806615,6.348757327665039,6.95087767416174,4.800056895595053,-0.5684891440833364
-84.0,-3.564789955794309,-7.038119168850887,-3.473329213056528,5.368267884837698,-0.08450830795930608,-5.280374303767906,10.151689272819592,9.205088815821847,5.41208590839913,6.972659557269239,1.9065712093507168,-4.765614469769468
-83.0,-14.165106651577162,-2.6055703617957633,11.559536289781425,8.375388683340379,-12.824569952200523,4.454583972240993,2.2102531244203694,-6.379043622751156,-3.8645858537608992,-3.782415384946988,-5.351355489982343,-3.7634761276808097
-82.0,-0.5030509143853736,9.074891632290758,9.577942546676168,-4.299988794923604,-5.000301786657868,9.302944415505793,-3.947041027578837,-7.779990250538811,-3.6512661783328997,-0.21187559688526605,2.9461707749382136,5.601404240186297
-81.0,7.653040589637789,10.533576654383445,2.88053606474571,-9.117109742429363,2.354058162523542,6.758852308902179,-6.08118353491738,0.004818054104073433,-4.0747677410601115,-5.397651797849791,0.02706438314067472,6.034038632498557
-80.0,3.6354259088864977,-4.804483591939729,-8.43990950082619,0.6259310073684361,6.013784173251644,-6.653019716402023,-0.8808270575083248,1.8661613137152182,-0.09789895600956555,-5.819003451753636,-5.494669395478326,-2.4553307265182127
-79.0,-2.8138141356309045,-8.64509258488052,-5.831278449249559,5.677630941291434,1.492731105317918,-7.192420425597277,3.14060135845335,3.4828998782651315,4.952361876417734,2.8694784013413543,-0.5546486698713702,1.91878812891119
-78.0,8.380016069302552,-0.2794279955438448,-8.65944406484631,-4.035372308040175,8.50916369307307,-4.501688622229082,-2.777777639703461,1.7069169660462387,7.195846861671953,10.823590151457283,10.953135297015969,3.89368119356611
-77.0,-5.914037689996042,-9.250959005740617,-3.3369213157445055,7.590922880103572,-1.2186391977106803,-6.244062310277999,4.927468392859539,1.2946934643830987,-0.6355380177085506,3.6558175278907727,7.97895096924309,-1.0001791951962244
-76.0,2.9608327192007398,6.246790932038923,3.2859582128382407,-4.594634324263167,-0.17376286274706831,4.741965142664929,-0.8139489823121235,3.0762349807916225,3.0502006238316715,2.091858564715899,-1.123843794819419,-1.2885849089263415
-75.0,6.290388799919007,11.180457683586265,4.890068883667311,-8.718482708163181,0.6829152618772829,8.014180139489262,-7.145608274642621,-4.616551252846682,-11.246709539811855,-12.614034168739039,-17.1414745200452,-8.131585280211292
-74.0,-9.958238109008006,-2.569130852358799,7.389107256649188,6.293085993050877,-8.699349003970685,2.389144512010902,3.4099115154773023,-6.426353868488134,-10.668010256016071,-10.236144752288023,-12.184840877070656,-3.243157672918562
-73.0,-14.371899346798031,-1.0469980480139844,13.324901298784003,7.673529146223452,-13.882840211201408,6.1931162980203,2.6760529145087153,-2.21943602613773,1.6251950144314407,-1.5689932398831559,3.0055433096035404,2.618582938661601
-72.0,10.77386907910534,15.906884729654001,5.133015650548579,-13.36582220712,2.8580021728565983,10.48817610774425,-1.285293569396996,1.1164460825631846,7.392292702651403,6.9248374288665895,10.63455214387392,6.88168300882296
-71.0,5.786849077541813,-14.75763971924924,-20.544488796791146,4.464676513180533,13.200380015542923,-17.69163878154196,3.451062463962737,4.841552508529286,7.940937845540478,7.03694467492444,6.11847167232212,1.5301750224719104
-70.0,2.6242017064008127,-10.856848800501938,-13.481050506902815,4.172551527620273,8.08886307942108,-12.138620668431782,2.4763635158275266,6.39171362272433,3.3107548996336496,2.503149046158753,1.2738097636957484,-5.923231091821953
-69.0,-5.961841947537704,-12.480783723053293,-6.518941775515597,9.191825738505354,0.24088802570437728,-9.47399759526833,2.496257598201515,0.6978451219957691,-0.6450527793883638,4.089614893972014,-1.1448516545466791,-2.143311481332922
-68.0,-6.328951467281358,0.6451449082114427,6.974096375492808,2.8032341294063983,-6.6831756662034545,3.835825792066037,1.8950185216891868,1.9742782754822819,0.44044778452719924,4.179662613702191,3.785641249258165,5.063854525657499
-67.0,13.090358962180211,16.321083537628937,3.230724575448713,-14.673573608156559,4.903005694022781,9.7284226449572,-15.337866417963216,-7.100399776118072,-8.18459651192366,-5.6413727042625466,-0.8906701574418525,1.76047043273171
-66.0,3.4920158470997102,20.534099090361835,17.042083243262066,-11.98483894829047,-6.721073738998967,18.827676378721307,-7.169218211548292,-8.00761217712813,-6.285378381490338,-9.544052868374477,-5.3788051148802705,2.2010680628732975
-65.0,-13.011217851469931,-2.403771873187658,10.607445978282225,7.736826652971416,-11.835507267440804,4.072005702917809,7.966534882935933,-2.7172298987793537,-0.07232472033454895,-7.906960954694,-7.099776523772292,-2.2413342432605963
-64.0,5.150016909881289,-5.149806578509362,-10.299823488390656,-0.04440287797539577,7.773119765619479,-7.746500465556016,2.322316127871979,8.560433855608874,4.213043913048685,3.179068519359107,1.4382651677993703,-2.677546887001449
-63.0,3.8220314512082494,0.15650461961155404,-3.665526831596657,-1.948299372555483,3.7070344148206793,-1.7708081105387103,1.441446951738695,-0.17501357571155918,4.779434847819509,9.151214235389444,10.59768476443193,1.4639950145170086
-62.0,1.2930992285511165,-1.3677815050743307,-2.6608807336253824,0.004440823963551832,1.933866868712553,-1.9499898569364094,6.542029770506536,5.353897460762328,6.138559015301462,9.752993833642044,3.5225179352218854,4.960647348963024
-61.0,-9.149244975373026,-26.83369721373896,-17.68445223836583,17.95966707281018,4.298412261234823,-22.275175258066295,-0.4449453880782803,-0.9989152098238896,-7.232536200618133,-8.12580059823203,-12.83980318969201,-9.087101327714986
-60.0,-5.903379811917831,-7.97084637973283,-2.067466567814895,6.902207922870955,-1.8890263774991913,-5.040205513177116,1.6204052368867117,2.616599493074097,-5.819354556878189,-10.179108479887072,-11.35238553543384,-4.691632665933841
-59.0,-7.362801328830164,10.581165043999043,17.943966372829316,-1.5713088089872724,-12.622834941205351,14.312681992956836,-1.74778503938075,-4.485186405112145,-2.572634681177053,-5.583876927438569,-2.4999632466978605,4.480173988884213
-58.0,5.884106739045987,24.36215890297696,18.478052163931096,-15.091866286579197,-6.340490122640777,21.38225873649416,-2.09754060756422,-7.144712768026546,6.84892606857945,11.872587302265124,15.666583013056703,5.8047164578599695
-57.0,21.794089564727066,12.82405060425472,-8.97003896047225,-17.283064886838442,15.345130628144307,1.8798311640943322,-11.509957930047852,-1.0459989095380657,8.856574783356272,13.353965499067796,17.433169155509148,0.9498985969209048
-56.0,15.904842441943583,-1.4755573710883976,-17.380399813031953,-7.191627417835338,16.69151850232697,-9.403929559405707,-0.33690753739958446,7.2910105763472455,-0.8721262642370573,1.3274915591434873,2.414155551635588,-5.806079624773367
-55.0,-19.239845104653778,-30.631859805386124,-11.392014700732403,24.879270046097176,-3.9474223109292925,-20.99176364541851,8.477397197767829,4.215124836474854,-6.153624120282173,-13.361648083837242,-12.52096899044756,-9.474326451605735
-54.0,-11.538965418635122,-2.270665358523738,9.268300060111269,6.848994143987175,-10.422444118453752,3.5198513209863496,4.610521244924796,0.9758763047514587,-2.2702313676928636,-3.8443461320551133,-7.0904159827612006,6.2306064668220245
-53.0,-3.47269056883329,11.878250933747491,15.350941502580637,-4.177714406243868,-9.349474110508496,13.641020907302922,-0.7162568031757686,-10.1151257589333,-8.711570553853473,-6.954046866019137,-8.903585360459825,13.245496102093734
-52.0,-4.885088899691354,2.7417570660499835,7.626845965741284,1.1005177018287204,-6.2726945394441485,5.140415591038126,0.5363946702908043,-2.125905439075007,3.2057299978784144,2.3068549189531757,-1.678403415731081,6.523148791012416
-51.0,6.79882581043025,4.142673889533683,-2.6561519208965256,-5.436064253228292,4.707580357408526,0.7086900931896025,-3.6615033260788032,8.88948298819484,10.762782111512287,12.624673894715466,14.148191981497286,1.7275858474495882
-50.0,0.4700053586509281,-16.369528476014395,-16.839533834665215,7.913518346931839,8.629175200873178,-16.552197695425065,0.02064435268269449,3.160540815803752,2.4222045645510395,2.3871655966417418,1.3619595853480266,-17.036403797031475
-49.0,-4.421173852904859,-1.7895279601859748,2.6316458927189936,3.078046745773348,-3.480423245890779,0.4003915877185573,-0.9568731835974846,0.7515894562970391,-0.4963754543738519,-0.2567472260438364,0.6273651827062015,-7.288929998999429
-48.0,12.957954882936296,15.891151142681334,2.9331962597450776,-14.364677231517724,4.972579845134214,9.39464666406332,-0.6464016009229824,-3.822331915691504,-5.1866852788337665,-1.324235750472829,0.7419664082691293,0.9984841792330013
-47.0,20.642445482894672,22.242825357620518,1.600379874725816,-21.455591423310725,9.554942815388282,11.905271983679723,-0.38604297302846297,-5.360939179887767,0.9877056838120666,-3.5369143440956385,0.981446296423807,2.635971380651523
-46.0,-10.348159829426294,-18.389167308650677,-8.041007479224467,14.357327879069866,-1.1998727080272413,-13.152368901950815,6.6516130659614765,-4.399607180459352,-8.266093283047375,-10.592373867690794,-12.808458670080785,-5.4768034832052095
-45.0,-9.867072595462815,-10.091244265234174,-0.22417166977149017,9.964236717358338,-4.786086936276933,-5.173508685945336,-2.027218194212427,2.2184955077282793,-2.0605889904095274,-4.793073176649891,-8.528044679959555,6.5285431114923185
-44.0,-21.64301060119866,-14.277488587242068,7.365522013956491,17.936998828593033,-14.462006853040418,-3.47145387077227,-4.054221839838194,0.8344757082741441,1.385953658351711,2.5063023528114763,5.8934120608100695,7.515656386088647
-43.0,0.6625290104697275,2.616033702947406,1.9535046924776216,-1.5949578066884147,-0.672629532161487,2.2691396334147473,-2.4434801959564574,6.0330825574442395,8.037761254503668,13.68249511146063,15.803456702172808,6.600194198119343
-42.0,-2.386326632376528,13.703546444143814,16.08987307652033,-5.704207453156981,-9.25565146288435,14.95809892324862,4.624044796068657,0.8182403883695799,6.338412387669846,12.351094063343815,11.419496846534031,0.616617545286378
-41.0,26.085500200633952,15.068395486792891,-11.017104713841023,-20.55203336930136,18.54147055172244,2.0039099712445996,-2.097822686204876,3.871698694398465,4.390787439994499,3.5592425060688564,-2.4179093126392033,-11.02005836065301
-40.0,14.344231499164508,-2.5278772367652937,-16.872108735929785,-5.886524366837586,15.602882435688215,-9.729198484655278,1.8679270430921235,3.3085919366238747,-5.868813301585867,-9.90821916335935,-15.564769964525695,-7.29079792565935
-39.0,-9.915076202336005,-7.6171323490689,2.297943853267104,8.789942691030623,-6.110648490085656,-2.698717390997088,2.56260261640017,-1.6294882540092912,-5.218465979418461,-7.279856995235355,-4.053343272356224,5.3152476767044785
-38.0,-6.188938694390147,-11.780204372802652,-5.591265678412535,8.936061530036389,-0.30460124749112705,-8.656669672622279,-8.849652437680247,-13.422106887355024,-5.52345455141792,-11.378546759767548,-5.562742415458747,-0.17099400870760054
-37.0,-10.169729255223883,-8.337940362399504,1.8317888928243349,9.292245521427333,-5.931283565615504,-3.2327852794292378,5.163907214777423,-5.381274324496018,-3.948653772014639,-7.427109656888653,-0.496632337244423,4.985949490447658
-36.0,-8.341347547214095,3.108829875566566,11.450177422780591,2.5830881269869153,-9.909767839507035,7.294948606767239,6.167190614944334,-2.3253901521940885,-1.6675522698420147,1.628315849098917,0.8772520219387396,-1.243268017287575
-35.0,-3.67111667168907,13.180618730556477,16.851735402245453,-4.783934655598294,-10.281061578471396,15.031730207223672,4.451338233069981,10.769363950265644,10.566134672141443,14.331630191707681,10.867862353300945,-3.50412011233907
-34.0,14.143670573887285,7.002891287904561,-7.140779285982851,-10.523900114193243,10.616345721108491,-0.12751951527207694,-6.290869936822961,7.446877752126891,4.645100522375702,10.965699638780478,7.739299229091423,-3.3077988203028137
-33.0,9.537669966537464,5.959368603697918,-3.5783013628396216,-7.781935719885842,6.525895963543211,1.218158908327971,-6.360124897412947,6.794945814554926,5.172457674663102,11.390673097418944,7.134812426881811,7.660707290747912
-32.0,6.857374018136554,-4.406665281627199,-11.264039299763748,-1.1866243529745035,9.102279182601412,-7.799771083320232,-8.461338111376936,-8.521649940608686,-7.729495382514538,-12.449055424536294,-15.039936153509219,-2.6332164943766103
-31.0,-9.780984988948187,-13.820176991600967,-4.039192002652687,11.753169043226588,-2.832117724339433,-8.966617490833015,3.5666055211372454,-5.464542883927164,-6.870545805937454,-16.33439150529066,-12.02568555069732,-2.066131408449367
-30.0,-2.5706960818260995,7.859535158759016,10.430231240585325,-2.61959194141318,-6.540227354325449,9.11102169924222,4.75402111773682,-1.5464805403183561,4.7074867298346765,2.4753185953629124,7.167167875379352,8.762767013447103
-29.0,7.367776337358262,9.411654912002916,2.043878574644939,-8.369393109932602,2.7040581975936995,5.7723327277808165,5.161359755644503,4.706738969513446,5.9363479952084175,10.104785355350792,9.557155654096798,3.361295972559918
-28.0,-4.183292777638482,-15.546880586435632,-11.363587808796925,9.883270516074985,3.558759049178515,-13.492135940464234,1.610580219320756,-0.5495478165694176,-4.8998768314776004,-1.2657897599017773,2.973130287688839,-10.37044123873201
-27.0,-14.64663680759668,-21.41588353004665,-6.769246722449908,17.97061304118341,-3.9637916073104105,-14.054032557176335,1.2325207391057598,-0.6982572928151676,-6.23333945243947,-12.97769763848598,-10.744948557437493,-11.121465801265993
-26.0,-9.446304490701351,1.1706494793566744,10.616953970057931,4.157269929633733,-10.050392447108539,5.851560322769638,2.098223915948352,-1.8571952052964151,-0.703824100823359,1.3055922694717945,-9.513620703518708,-0.36391076042998094
-25.0,15.28894855009441,26.985832957539916,11.6968844074453,-21.11578302068521,1.8616258283127682,19.378400950841378,-5.133431046003274,0.3428985789977762,4.821504492631524,9.580400162603073,5.84863209117459,8.85827365262533
-24.0,11.742685724283799,16.851741998688656,5.1090562744046295,-14.351738858937212,3.3078830043512175,11.02071236665481,-6.138382824807504,4.961501924194948,7.019840518618863,7.413994912425144,12.150733680826411,11.525850196850142
-23.0,-12.832199173637964,-11.535633976194488,1.2965651974433379,12.210973577863067,-7.071158125364998,-5.152880621391973,3.8969099680196626,-3.4542715790090073,-0.3116916515120316,-2.884357371392116,-0.12156336974330095,2.8646322756215445
-22.0,2.829861631846363,-10.701785144806033,-13.531646776652437,3.9657221601214596,8.17341050225452,-12.144702809082743,1.1688609179935021,0.8147029410514224,-6.178628967919155,-4.9252325682777744,-4.601405048031715,-2.1589169119878466
-21.0,13.491042240790998,-2.380583363994732,-15.871625604785702,-5.523521109192008,14.670335673612946,-9.149947866860419,-8.21109646822909,-3.921908263285037,-5.099111686055451,-4.234923770896526,-7.796946457340182,-9.908063312275337
-20.0,-0.14810078714476882,4.555294546230422,4.703395333375251,-2.250248483702074,-2.4433049232737085,4.686304030467065,4.468351952612371,1.8400420007173512,3.8175566747713217,2.901940330036297,3.0107007254155036,-6.335926231979411
-19.0,-0.5877211569256859,5.5041392704092225,6.0918604273350105,-2.5066004424483337,-3.2872720287732364,5.776045229464337,2.115090971598736,2.4943833250850624,-1.7818108121044294,-2.5902456047414373,0.3592993691717392,-2.5621773859780355
-18.0,-11.423894942651861,-6.292348742912155,5.131546199739871,8.884690617922063,-8.313503257559695,-0.6043265916766978,1.5769114922742706,0.964805505390872,5.315872009751189,1.5476645401746123,5.070457063912492,4.397317105993793
-17.0,-8.535650350078612,-7.50494826034798,1.0307020897308519,8.041852643763765,-4.74919666814257,-3.185485053469844,-0.012245743911659224,-1.0156041676138383,2.4049247663802102,2.8040561441166316,2.903433363027651,4.060815374752064
-16.0,5.723469514313691,14.985598669033836,9.262129154720355,-10.337950038948765,-1.8211067833376267,12.092835875761457,0.8964164349280652,-1.3093519889797105,3.619362399649326,5.832619729122179,2.567817970026444,9.850904752791436
-15.0,-3.9239472663615036,-6.404678687443606,-2.4807314210820586,5.177267721528796,-0.6984608198267908,-4.399341733878541,1.300234133837563,-1.0859181154520408,-9.121400920272382,-5.030558260013272,-9.166532051046293,-2.079618563993855
-14.0,5.838244784169582,-8.181969687267639,-14.02021447143734,1.10482367298822,9.952491519288074,-11.14107135124982,-1.5138365741446425,3.7799962870097774,-1.362224087416684,-4.601868265009632,-3.4722393141687675,-4.86601016714347
-13.0,2.6804345408714783,-2.277239174176964,-4.957673715048654,-0.1880354601122649,3.7676918850739156,-3.6619179135233884,2.1555196551228826,1.8663767475905977,3.3477248689344457,0.9303798529968876,1.4037225210413942,-3.0418375235556256
-12.0,-3.032669777749481,0.530266405030566,3.5629361827799224,1.2699936251962658,-3.263088518839374,2.0770666741056694,-7.2847339166130105,-7.708123596632552,-4.45039743583697,-3.4385519870424144,-0.7462587523733983,-4.477499055025365
-11.0,11.353142672040937,20.681043466166006,9.327900794125126,-15.990024703293281,1.0561771936284456,15.032296494606813,-0.7627189107640526,1.8032524660182532,2.4168944207679206,5.993747770406855,7.639299539037814,6.07874272326453
-10.0,3.941746201748263,7.681675237129633,3.7399290353814276,-5.853189956096556,0.07383162486693073,5.737261668945245,-0.011047117074215018,0.22627611778695805,4.848836335819371,4.597363761720908,0.946302019419643,2.8112378971761176
-9.0,-15.256129040749677,-18.347156511076225,-3.0910274703266256,16.849196866378165,-6.104384796064093,-10.772048435254433,3.992670924589186,-0.031058160545354152,-5.141629406222891,-7.458912082066458,-9.937097761418183,-3.0522095013062485
-8.0,-4.915430679260886,-13.264157750135272,-8.348727070874505,9.066784598967615,1.6958775385165943,-10.781702974063023,7.002002949043866,0.8070393336249976,0.5203830140589809,-0.3939858680739352,-0.599656887344119,-4.5583823885950725
-7.0,8.891358601559796,7.907827827264146,-0.9835307742956401,-8.418416096425815,4.913555240403142,3.4843655992530493,-1.4770847271135952,4.58464174047721,4.16737163297048,4.36881687100449,7.730910015603984,2.0019841778627003
-6.0,-8.482208281905265,6.49191224889229,14.974120530797647,0.9754728404398925,-11.679431918714458,10.672029232014244,-7.317573051645313,-3.922121574906954,-0.29960442368584883,1.1605441703752104,7.834913306932318,4.888031445371185
-5.0,-3.0097877279000573,1.8377197600589108,4.8475074879591435,0.63936924207816,-3.8873434548712367,3.354548658834883,0.5607009345984606,0.6099738564862422,-4.867481100402517,-1.453840141510855,-2.9052042939317166,2.9905036040100885
-4.0,11.40893181917636,-1.9130175050904072,-13.32194932426675,-4.782690770699419,12.320777165264946,-7.611190735764247,0.9381682533456944,0.7481604669361511,3.1934845310988678,-2.9587523639399196,-7.54419658547508,-4.419166495093297
-3.0,3.462390341553065,-8.757690592794157,-12.220080934347328,2.6809085388220066,7.869224211774029,-10.485995167851884,-5.556653590329908,-3.812855498082005,-1.1317582347756412,-1.0347763790168016,-4.316585248794803,-1.5714009476354305
-2.0,12.71776908434798,9.470611521375346,-3.2471575629727605,-11.149381678096095,7.92706676196828,3.1151913446076316,1.5357665698974372,-0.007343764342159664,2.1343754780630557,4.251537462770187,-0.30906787514822964,1.3689283620144383
-1.0,-15.122112974560878,-4.578093271697492,10.544019702863341,9.867320105240712,-12.81284362396508,2.9916089469629563,7.035037853616156,2.6890822696195658,-1.8666464163749323,-1.6638034002653632,4.031144388962237,-1.8505535296612852
0.0,-3.5706316151742934,7.308410246772105,10.879041861946389,-1.8531523657357742,-7.206291272368686,9.111281325949802,3.5719476150761866,2.9494255318912916,-0.46920089697317113,-0.14995643664270875,5.9907720598828815,0.7834670707975447
1.0,-0.07192840114414256,0.7096429468827226,0.7815713480268522,-0.29954641190147935,-0.40852494978110254,0.7735986404616648,-2.9810383749884446,-0.29970009753310034,-2.519746401958306,-2.2901974523036532,-2.884682620262767,-3.505898092572984
2.0,-9.528672195261754,-17.45772874415639,-7.929056548894655,13.519841391464658,-0.8594845087961214,-12.734927413115546,-2.58570301911318,-4.727047323871936,-3.9919039108998646,-1.2557402271189035,-3.102816122389928,-1.7038755725080268
3.0,1.3334485282548338,-9.8302855274347,-11.163734055689558,4.204964189598684,6.269352805753691,-10.532722382563065,0.24326752477549984,-3.951368353512491,0.8359248028189574,-3.6082404159667623,-10.209890630915124,-0.38553530155531435
4.0,6.077179312606817,24.150906278356487,18.073726965749614,-15.150263650405973,-5.97549781434796,21.07824573149162,-2.459539758287528,5.690228091350992,15.293261989764325,12.95946018867766,12.671053741379367,13.338164287551496
5.0,7.118496203638388,17.847605378943832,10.729109175305409,-12.436851802710759,-1.780899869980538,14.331272600942974,3.618705232666545,3.860836237263932,3.8748120142584765,5.872619220452071,8.309387159631,5.613168872728947
6.0,6.46807706090488,1.2259658092430445,-5.242111251661925,-3.880395104432198,5.801205736003306,-1.9686433759105766,-0.5397486917006826,1.4863035912003832,-4.960277998233492,-4.654555965455147,1.6639555262242833,-2.4410013871260605
7.0,-11.568878866497295,-18.883117241979257,-7.314238375482063,15.266463982371272,-2.103755840419214,-13.062845193103136,-5.6418629153402104,-8.687043673930864,-13.485503945329926,-9.406310839210564,-4.79306108260699,-11.59225866633936
8.0,1.2755474610796282,-13.8908160161483,-15.166363477227861,6.261804042971682,8.241478370136058,-14.574341413285822,-1.3655646067787839,-0.22480221341651374,-4.616866649049372,-3.7315971502668654,-5.838428410795093,-11.202822099696746
9.0,0.31070402657464413,-10.37226949641476,-10.682973522989258,5.055515902777533,5.434644280921406,-10.575336038910553,6.508712771710756,3.4201748068694062,1.420174713789513,-1.205456807751259,-9.058632724076503,0.38260837163903716
10.0,5.114273851834289,7.638142678125722,2.523868826291512,-6.358309840720258,1.3083936094496718,5.110706937530332,2.535414569460734,3.599013636983129,6.425153116130637,3.695625048914178,-3.3492527968165398,7.779088770741537
11.0,-6.407037796074502,7.3748862753316455,13.781924071406138,-0.4699590869677972,-10.082303627117113,10.60720907142309,-2.661300333198539,-0.6030995879164021,6.107470433522465,3.100470356230312,0.932182151122394,7.1038300491492405
12.0,0.4429719120850679,10.933505250981336,10.49053333889622,-5.7531803714093455,-5.009057511158515,10.661597871666672,-1.6407905388756845,-0.3712111579617386,3.817413683696351,4.096704268219513,9.17855331360875,6.542733260454745
13.0,-7.6451565991472705,7.866230440430629,15.511387039577773,-0.09295328024942062,-11.557454391504386,11.717128321945225,4.465063217073108,-5.636769848253087,-4.918976517920063,-1.4816853317363265,5.920509398858308,-5.437960580968901
14.0,-0.7974137186689583,-3.031415112716182,-2.2340013940473327,1.9391713986509864,0.7473264058538844,-2.6040162375146663,-0.15772715016261363,-2.077691446094578,-4.706938741079883,-2.100336775608471,4.963192360041738,-5.6920083696227985
15.0,13.606366888515069,9.030539114908617,-4.575827773606633,-11.284294428338836,9.049370654143598,2.1777279836149983,-5.146127398684237,1.8792993114401741,0.5934968598003891,2.4281765537586066,9.601733856289417,0.524252001199712
16.0,1.5052280097832682,-14.41900477483228,-15.92423278461574,6.422307186313905,8.678507288880315,-15.142513203113596,-3.8252006966538854,2.006523057810616,-1.9256898252186396,-0.6826546784000848,-5.977246780003476,-2.188164036936895
17.0,1.485919997500437,-11.126648937591295,-12.612568935091897,4.794726732460569,7.014820687462971,-11.841420452973352,-0.1241113470282027,2.2037135164144144,3.6714506201689545,0.16106072973873053,-13.730314239124084,4.859955346262298
18.0,0.619288804394948,-4.230858991861386,-4.8501477962563415,1.7867574455041875,2.7773380330688267,-4.592947754839316,8.23190525818228,6.51788644058837,1.0980863556612088,-2.79573068954709,-14.12761550050071,-0.44310698239125923
19.0,-7.975420244321858,-2.616293335482104,5.35912690883999,5.359267935791349,-6.6286355475720775,1.3954926411719188,0.20463700001618967,-2.0864824684674126,-1.9073128200605445,-1.9711673853252918,-4.434983055016708,-3.161748772572513
20.0,-10.71864425941834,0.07649155220608117,10.79513581162476,5.30655648350092,-10.723011566005368,5.37991828975697,5.931251985513332,2.882904090983218,5.658220349982839,6.313070560666215,12.239715495887527,3.3551443442738744
21.0,-3.8906804652034723,6.626373406536913,10.517053871740547,-1.3839428661590691,-7.253082075964371,8.59607921415219,-0.273030541960805,-4.645680797166589,-1.5804982465145243,-3.478895628844717,11.82042492536311,-2.8190274776673316
22.0,10.437283607992942,15.490122076379187,5.052838468386184,-12.983081449164317,2.639875433102607,10.301417836413425,-13.091340680717924,-13.884200889093693,-9.26134293934176,-4.240234254226187,4.841318950551129,2.961012963411555
23.0,4.30391109846065,7.908706386630821,3.6047952881699814,-6.0511615897529305,0.37460599511968873,5.796428114252274,-5.929752906373717,-4.796689162939347,-2.8276456332211417,0.3321008505078836,-0.6149876638291003,1.3706989176628825
24.0,2.446402892260646,-9.312905257259668,-11.759308149520558,3.4052089287082135,7.1287157883498296,-10.562788782004285,0.013092775772104659,5.903527483628988,4.326788075538134,-1.3137541839501972,-6.52640576006204,-6.29050985216573
25.0,7.785167596233348,-5.118148261730441,-12.90331585796391,-1.3656131831456868,10.373109892676155,-9.025174484827485,10.287153268007831,10.015947107810394,3.7253622915582976,4.878441249504335,-6.860455418515668,-0.7672735649067519
26.0,-4.921626523870455,-2.3118533510379624,2.609773172832492,3.660073753934352,-3.8108981123182826,0.1434901122213894,9.229955068870446,7.5203251079300415,5.125411142088753,6.077030222004381,3.766184727082183,7.576411531865
27.0,-5.025658593638753,-5.106019933226563,-0.08036133958774005,5.027904504553943,-2.4337283801866114,-2.5952323532022485,2.1252587529544096,3.7283970213995925,1.7360536274299037,0.9154829954744947,3.5388364602281173,-0.7942804429382324
28.0,5.184729267980921,8.550084269682763,3.3653550017018783,-6.8286796594453705,0.8748138845851603,5.95296238634171,-3.740811524850336,1.57371829167943,0.35139580135928383,1.3403760627472083,7.448969429405479,2.092280589838452
29.0,-6.778209758319359,-3.9646426849859555,2.8135670733333478,5.407778402019428,-4.826991763167035,-0.5878500987353075,-11.545725620870776,-12.523949827264161,-6.763668625749992,-7.7278701463063575,-4.810779151170529,-5.470468410125636
30.0,-7.410372549511166,-4.821172191596959,2.5892003579142,6.069949555968036,-4.949779218040042,-1.1379350535037904,-8.436745981652198,-8.105350764671373,-3.5805152066104684,-2.811207470469348,-8.389847397354083,-6.053039485310231
31.0,5.821411782885352,5.236657159056634,-0.5847546238286117,-5.579652733162988,3.1755395199246506,2.374281212952643,3.5258602153869454,-1.3666893528746344,2.906961323075389,-0.3048962033078122,-5.1030510400214855,-0.9673691589019309
32.0,-1.2417181764087286,1.6020885899190347,2.8438067663279547,-0.15773147531119402,-1.9910831247459129,2.2665938293251946,11.671948272310448,3.2073252832542485,-0.29747728357736936,-0.5858606039463876,-1.7826638152075545,3.1155806137159763
33.0,-4.766948452028469,-7.845851431843213,-3.078902979814618,6.323504064507791,-0.8709794871509065,-5.497191447949731,3.192325268395634,3.486300416890694,-5.279668878657624,-4.018919278577007,0.20717997210200378,8.60434155691043
34.0,11.748115034390501,13.08020268735633,1.33208765296577,-12.400706323682932,5.181020710399905,7.176152217703548,0.8311775264712828,3.3287596383022073,2.0993052109964627,3.8557060629679336,7.979747980376883,11.407010496484748
35.0,1.4302812870527788,1.221892021556143,-0.2083892654967786,-1.3137633866859781,0.7922184893091342,0.48440138474794514,0.13749249281957568,0.21896874002687738,1.7213572346086454,4.958948457852896,10.471204736768449,-4.861461506148337
36.0,-7.868205380868585,-12.40482702029469,-4.536621639426181,10.150103035800653,-1.6145019244280268,-8.406253937849243,-6.796259704045439,-0.43499940716734287,1.3773207953387159,0.5354242814444681,1.7241279261753437,-15.715978878906828
37.0,9.729753136355132,-2.1758122895595524,-11.905565425914672,-3.8394681599721334,10.867942091338202,-7.048991408331904,-8.76473909271795,-3.9617053426632376,5.279030498211792,-0.1769073216103364,-1.7953040719747144,-2.7036516395283927
38.0,4.463789487485146,2.0084129356725455,-2.455376551812522,-3.2171673052584246,3.4287168476247043,-0.23002105642205395,0.9350901540594547,1.1917559514246143,0.5235018357635477,2.3118546141632264,-6.515567647725944,1.6643639139757727
39.0,-9.625041916560214,2.6674998241473418,12.292541740707708,3.4991629787863907,-10.994094457872777,7.469865258830712,7.542237569694465,6.308071455312145,2.3576293581678733,2.276865395181534,-6.028513832284816,3.589333064873317
40.0,-8.75378829702738,-0.6472323780877879,8.106555918939726,4.720431620648356,-8.471964434763212,3.71076052461611,5.491600025445395,1.903649030729984,-3.9920405749968904,-2.8773792178328907,-2.465201147138969,-0.051157201553791776
41.0,-3.1195661069231955,9.736938388199667,12.856504495122902,-3.3698964705730514,-7.958726854305525,11.265698183814871,3.8743109119461394,0.33189218944482235,-3.087801932963172,-1.8023095973414356,7.314085903478553,3.5501489570617415
42.0,1.4278074242820304,4.6026264797015255,3.174819055419403,-3.001234873263772,-0.8515111274664315,3.92371803401322,-1.3891818331068788,-9.112099259433172,-5.135232976762959,-5.3270479305538085,2.845702659496566,5.735867365078592
43.0,7.357656243518317,-2.388469711988169,-9.746125955506637,-2.474131590882613,8.568251983381991,-6.042827994289855,-8.477627623581284,-4.62453870665557,-1.8040279677027002,-4.260624828638173,-4.052672484334959,3.867068930613232
44.0,18.025942005855036,-2.341018045076689,-20.3669600509319,-7.834259717014696,19.20936260380072,-11.33598865632016,-9.937273939314613,-4.041415171030477,1.1939087956814878,3.1550602362060793,1.7900291577075311,-4.8772210594343015
45.0,-8.389443097509337,-17.726842709369567,-9.337399611860329,13.066059257585975,0.48512747056607175,-13.516191418592731,5.842179404891919,6.753738056930285,4.401242550466396,7.21958121375558,0.31498157219022005,-12.096440674794797
46.0,-4.694663818325015,-2.152517513153178,2.542146305171843,3.4330955238679453,-3.6871229649275854,0.1333583473816935,1.452076442274533,3.4868876292392907,3.300223038571957,1.681277515539338,-5.228357780023812,-5.203587095244063
47.0,4.2459667738572575,19.240162790570785,14.994196016713635,-11.73090356173089,-5.365382125766341,17.137762719438335,2.9583665394496874,9.334247466577958,4.892620514930589,2.407065700241107,2.4512549411819653,7.5922080209983385
48.0,-12.550712463810118,-7.478761010355283,5.071951453455043,9.950822878101723,-8.804131545448678,-1.2575980993544746,6.79405642211104,0.6855888660145535,-1.901859984948318,-9.02012109854359,-3.1832404102710607,2.3407722283881327
49.0,-9.872504161277542,-6.623158475122537,3.2493456861552463,8.264634779582195,-6.55471591688674,-1.6582781990540267,-2.7102143911517516,-9.232799831006194,-5.602334820322851,-4.941038782066972,-2.2408541375531805,1.92305401366625
50.0,-0.4032492509140737,-0.02395473816123661,0.3792945127530247,0.231610181279013,-0.38435092892363487,0.21036067174970707,-2.7195286330207655,-4.048576951376479,-6.384414598109871,-2.7777924542447296,-0.7176542239174857,0.20616478047512699
51.0,4.252275042082012,4.442213076520007,0.1899380344380508,-4.328209394190228,2.0414521642168406,2.35272865956501,1.695406107837309,1.6640286165335447,3.427321704264455,11.198199252951483,14.427803988323348,10.32177444056866
52.0,22.884598900280093,17.471871457158397,-5.4127274431217955,-20.236214247448473,14.165247839852515,5.990968136349721,-5.900230332583384,1.3179555992434033,7.471513267958203,12.582705918072595,12.965279753705884,8.612967544394959
53.0,7.26755509818908,-1.013822698859732,-8.281377797048982,-3.102912042980747,7.721053695490572,-4.683691322468905,1.6980381075290794,0.006743642278530304,3.182100983445345,1.0344385619262129,-2.8205309243597565,-9.680266614736412
54.0,-5.137425395094639,-9.943454337906775,-4.806028942812276,7.569199442448692,-0.13024110322670612,-7.3307764815807115,3.999564832893122,0.28963186913532524,-7.483185662898382,-12.613987507664337,-18.14225806862818,-22.84125283804904
55.0,-13.369266064142298,-2.1697408236660785,11.199525240476142,7.8040986057717046,-12.317582548577407,4.480604330396683,3.043879470263753,2.8694244467973444,-3.2062619937950574,-13.743011000679001,-15.385967577582539,-7.69563915596117
56.0,-12.649631329380135,-6.3437757322311725,6.305855597148921,9.458221935289668,-9.42348143526986,-0.05258433395203177,0.20029719436392757,-3.3141333997210323,-2.2033152777659866,-1.1252825509704198,-0.35601247571086336,3.4771091469658915
57.0,1.207170984071654,-4.300236068197005,-5.507407052268667,1.512305031051886,3.338940210285384,-4.856776748844975,-12.734674741512524,-6.5879537520105,-0.07401784253956734,5.462587418146313,-1.3681310799402784,7.320250246592423
58.0,9.828613144473913,6.591785518312063,-3.236827626161798,-8.242315183424912,6.5172986040100644,1.7282418407124425,-7.076899430807089,3.0432711155748366,5.015034734581883,11.580893411035968,18.50507074953693,16.797661641503915
59.0,-0.35544023289672744,11.009982881119013,11.365423114015854,-5.280621948643876,-5.876069806481118,11.164783217006036,12.845385654293759,9.506129237483732,9.96840305044673,11.688643321519356,20.336068961286546,20.80962770061994
60.0,0.099494386707081,-4.2025194300122575,-4.302013816719214,2.096620887537755,2.1825671924667795,-4.270108363155893,5.82958294056757,0.8388132442857121,-1.0286617452069544,-2.6207578306118657,1.3708153392685816,-3.6127292687430117
61.0,6.416958636505833,-5.538380615471188,-11.955339251976946,-0.47549369946444386,9.24308617997082,-8.761189712282995,5.220907083940473,2.9834214992864805,-4.14314988263056,-11.033725841581626,-13.332813184565683,-19.788984381281583
62.0,6.28832944773503,-2.0250845395309436,-8.313413987266015,-2.0924108020834327,7.27554018206086,-5.182644115586929,-2.791213563244929,-3.2701512835950424,-10.032831545968026,-19.12531662822142,-19.52107706024646,-18.862811357306605
63.0,-0.346408552717167,0.7130835304112195,1.0594920831282404,-0.22686677279288708,-0.6522581808159615,0.8712804716323639,-6.01137969654235,-5.366898839784416,-0.0032290645683756836,0.342347852122618,-6.968456069862638,-4.105699873568888
64.0,-17.611926596956415,-2.460230434476,15.15169616248026,9.988238591856028,-16.411673080461284,6.4062973408600605,-6.182656490059594,-8.416680111270619,3.6874171620040936,12.459340059067982,6.287184762825862,8.672355037778791
65.0,-11.427174216780553,0.7246831438222601,12.151857360602747,5.378261256596925,-11.820349542030307,6.416749022822202,-1.914060127689746,-5.278816956786725,-0.8220920853220575,9.551787930113376,9.427847082104517,9.134011272648685
66.0,17.46113739665823,19.756237134556148,2.295099737897959,-18.58428419558819,7.552169561044615,11.001864888741956,4.340021348208781,7.549716477622853,3.2205154161396727,6.330379780246028,8.238010159422306,12.78312539765431
67.0,-6.576188674613857,-8.291747480917618,-1.715558806303638,7.457460680551122,-2.380987649767304,-4.949340449823487,7.985094163082011,6.546665035267392,-0.5658747590315505,-6.667204020209387,0.7641129544249541,-2.171549177485513
68.0,6.84756060791405,-1.19558150036438,-8.043142108278312,-2.802158050266979,7.4193223004456925,-4.642892292465389,-0.014703685799054789,5.088730956051769,3.9583182528734455,-2.5350860199291323,-1.1366538466022538,-8.133208614640631
69.0,5.510843476927585,-13.875451616277784,-19.386295093205252,4.127763285089047,12.506631290832587,-16.6525623714149,-2.025620105884461,-0.4928000666536412,0.3552009058838732,-3.3478265943629486,-1.2849087822294267,-9.873922981920561
70.0,0.06138294160842328,5.442889818288501,5.38150687668009,-2.728811995695728,-2.674438669088061,5.39253166473125,-1.162227176148397,2.1675410179987846,2.8688890404817027,3.9252293463508243,2.1407528232979436,8.515037555574125
71.0,11.796792709391154,15.175036329403198,3.378243620011959,-13.5440609238157,4.200348768728844,9.337332965212916,-7.252320759532321,-2.044575529740924,-3.511924183389643,-2.876951371673502,-5.1285111344788525,6.437889523666162
72.0,-5.728318342774033,-6.067800031502585,-0.33948168872868756,5.914709049632638,-2.7007908176036644,-3.2207701698240987,-3.163934658324204,-11.328831474721591,-6.549858510695144,-4.122522377659882,-10.837958536198334,-7.89268309319387
73.0,-18.762443012925267,-20.73234485103157,-1.9699018381063933,19.760413745836257,-8.404338570823043,-11.367900016169465,1.979953391793414,-2.8574607903028877,-8.279196987683004,-5.709222815479943,-7.686891263422504,-7.005232450993809
74.0,-9.603777319484559,6.704614329376469,16.308391648860994,1.4610095807145127,-12.97005901742305,11.489968197474841,5.653007443497207,8.56316742273724,6.55690413939021,6.175694017566021,10.484402509846724,9.084091584384733
75.0,3.5559178923059793,6.179848919896276,2.6239310275903014,-4.855073575056888,0.4434888420054355,4.386156423781081,10.14535717927409,2.2548505075247127,8.652199907615405,5.864512205183086,13.188319730277492,5.481591138456107
76.0,3.858059852692019,4.941222666825537,1.0831628141335585,-4.382884300106144,1.4351795036296617,3.077100930836366,5.19596343042582,3.0220362730479184,0.4651844768027473,1.5665927697115212,3.6939895835931305,-2.197436536299518
77.0,9.688083718411036,2.7574405532297774,-6.930643165181203,-6.201105016356059,8.27254669996527,-2.097484451397365,-8.008028801578718,-4.059448550132053,-1.458599722887254,-3.04578320868391,-4.317375962032117,-1.3143008437296868
78.0,2.5330006547392907,-12.329296808598926,-14.862297463338152,4.844907229974067,8.73818354139149,-13.603439698183234,-2.0505150383312216,-3.68248652636508,-0.9035856713784726,-2.3886494638568756,-8.759282920029248,-2.8948899849662437
79.0,19.520693087984235,1.8143975539304416,-17.70629553405372,-10.719284625487504,18.656999655019355,-7.9514189859331195,-11.60000066824334,4.537830953835525,-0.5241599067335898,2.6645445518453594,-5.353145316091182,-4.538890436742375
80.0,-2.274880784913022,6.731096803604936,9.005977588518004,-2.201801334459756,-5.670025407736125,7.862780592131922,-4.845308312964139,-2.8904068102111826,-0.9502882603126662,1.8820789321144824,4.184349325686059,-1.6278851875710325
81.0,-16.601175359154745,6.364185951719408,22.965361310874158,5.143440850279743,-19.807069089633725,14.655409193361391,1.715335466631756,-0.45081008732694056,-4.150548402913908,-0.532228040310292,7.560377667650331,-2.4601212421876677
82.0,-9.276257780659622,3.287530709385694,12.563788490045287,3.0194388202478244,-10.94002862403189,7.909373003549195,2.788273108798846,0.27984723324214633,0.7861235737587693,-0.05626237306974802,8.022920020365204,9.576639277286876
83.0,-8.312759969836726,-9.743688957346185,-1.4309289875095184,8.977807099518026,-3.459914436525275,-5.534215683900371,8.120913563878197,-1.181695800451675,0.7607173137428548,-5.17241020377299,-8.228364852339755,4.203294193840906
84.0,1.6387546968102789,0.006992214542932196,-1.6317624822674346,-0.7878829600228698,1.6152336676554826,-0.8484208102538924,13.258645541225459,0.5326593007438916,7.240636212669624,4.5443032775431025,-1.880632863567965,8.981102300724723
85.0,1.770009460755554,-10.022401871329517,-11.792411332085159,4.16987345251695,6.838475401029499,-10.874450315734585,-1.4334129785735819,-0.25401052613851605,-3.84266550493069,-5.6074754810519325,-9.595140247657582,-6.848360661281557
86.0,9.200392707286145,-1.4741911175191782,-10.674583824805383,-3.890071373410305,9.994141663259853,-6.127830315692389,-6.0298889536670215,4.470613146249628,0.15434742932225753,-3.143442274839345,-1.7047221128573185,-3.849086802731667
87.0,5.5985733373168465,-1.3858388461544187,-6.984412183471266,-2.1287032838287225,6.269716707736568,-4.164273150465787,-7.349480196660068,5.807088358751178,-1.1711907473820788,3.045908535170824,0.7661410993571769,-9.00260386732425
88.0,0.896563896794718,3.7015230165969957,2.8049591198023514,-2.3221860488951305,-0.9758813155973303,3.2732930345729714,-6.141337541250184,-2.113832141399265,-0.8797246028054827,2.0953798847166034,4.947732668952971,-8.760704813946866
89.0,9.14784170395215,19.010987479363123,9.863145775411066,-14.109029760955698,-0.38108422787954677,14.459661852534852,-3.1951978780634196,-4.731785908614688,0.10216023165104149,6.389873054397869,11.011184782524005,4.245892899233132
90.0,2.296092449625313,13.532312082968858,11.236219633343559,-7.875614430524314,-4.498068489691397,12.332967152163821,1.5538799571477562,-5.193441746047056,2.956191165068788,4.763311798718945,6.770912396907644,13.674477951099382
91.0,-13.471963088359923,-10.051173125103954,3.4207899632559027,11.788232818397624,-8.402685313135361,-3.2820231086107228,12.207757499932464,-3.483051070498492,-0.9740860284681543,-3.4739852315362603,-4.847315170698273,6.200635382785427
92.0,-19.65270060338917,-28.794481787858647,-9.14178118446961,24.239712981329113,-5.298434555663642,-19.008575468956153,8.017495001528113,0.8221965052460221,-7.508128408550663,-10.387403668394825,-13.63967087465649,-3.7502443579096676
93.0,1.9868260705752459,-9.082971775066726,-11.069797845642118,3.5570371629255035,6.557491487497293,-10.034585314117967,-1.7925517756159683,7.978796352572826,4.275461499615542,1.0347021123027567,-2.2198004282743593,0.052159945405606756
94.0,0.5939605667323493,3.371755476503047,2.7777949097706145,-2.0554177644519718,-1.0662454424287429,3.039163743107496,-3.4994993944406585,1.7996351698049446,6.461604638795368,2.1835864663592974,3.0048064081830432,-8.365913289833752
95.0,23.971291435873233,18.850585812678418,-5.120705623194817,-21.402981975580435,14.571842176507966,6.907309445899329,-13.189510490154415,1.8956428561678202,-1.5274434150032294,4.510856438891137,7.0274804905980695,-2.3376948314614525
96.0,4.726013417493947,10.16913281251957,5.443119395025697,-7.433782234966186,-0.40836676477689693,7.7673803791905165,-7.599529538895516,-3.838809691017077,-3.660763379530254,-4.699171069449111,-1.7346081226050045,-3.3696189460412853
97.0,1.4210401826076442,16.187171939749803,14.766131757142274,-8.781493545177318,-6.639229792790246,15.513558107621892,7.368525511664982,-0.4594443861084905,4.07043526017925,0.13404016722777523,1.1199301760322202,9.913016525326881
98.0,-9.174888557690771,-7.710353405772883,1.464535151918005,8.475303427810335,-5.361142203890283,-3.167501949657562,5.555684809674571,-3.2061063213568386,-5.341476604141812,-5.445240000926795,-9.79606323359947,-1.4867289676189204
99.0,-13.286200300919152,-25.42101937478666,-12.134819073867432,19.316638695404198,-0.614448864604503,-18.74504826811614,9.341873425430748,0.8728849029601227,-2.934189898868496,3.9002544986036782,1.4103766760658831,2.4938996766604227
100.0,-7.374984455191871,-5.507597399598048,1.867387055593821,6.410276226110575,-4.57985892549816,-1.8649422374621114,2.1214591681157087,-3.2539738683610864,1.560348397709254,6.080066160421685,7.483134579825364,2.96498621017887
101.0,-5.053843508219338,0.686142625937264,5.739986134156515,2.2330032503644928,-5.354973039114982,3.2506185706735193,-0.5373373023870939,7.5439181879384165,4.226208286077378,2.6125641180269157,2.4262970159565893,-0.9799301871393097
102.0,7.71924883727434,5.590402706156025,-2.1288461311184355,-6.687645743104802,4.887763345355106,1.7739805564814888,-5.77811833597216,1.444794333053844,6.569785034645252,1.580452243071035,4.073095119887906,-3.744207962620579
103.0,10.834540145201276,-1.0845511840438808,-11.919091329245237,-4.91440619935063,11.419904512638606,-6.531150275039851,-7.9360024780412814,-2.3418235478419236,-3.4156056842899343,-3.5204859649124067,-3.3956019699082334,-5.787372470726366
104.0,16.584951207429356,7.554299001794353,-9.030652205634983,-12.038059976970608,12.772582379127922,-0.7625695181178717,-5.966940581026764,-3.160930974411445,-5.533431681784192,-8.69233257100616,-9.021610487288545,-2.7896928509666745
105.0,7.722875917001028,11.562341356636727,3.8394654396358003,-9.617746177179667,1.906314679346199,7.678584258199906,2.7121163819644223,-2.948552948990817,-3.677995845559743,-8.230871819493316,-7.079583516540224,3.149566934828556
106.0,-2.034134708886931,2.4631801428113667,4.497314851698418,-0.19386637885862568,-3.2233677212003227,3.5351912895241004,8.132355644422853,5.150175920369149,0.06739363717355573,3.277212648086448,-0.9868525722503896,6.824611043422214
107.0,-29.06772825075319,-13.826705733204694,15.24102251754857,21.466299277756693,-22.192462320944603,0.6787254747388154,6.270225729519459,1.6596205160976212,5.118059442777734,14.314878542278555,13.76647492959539,2.8660145758353774
108.0,-7.174442057042693,2.009993269312748,9.184435326355462,2.522696616433956,-8.140797691352716,5.562369963769813,-1.3770282707877493,-2.5598730998751913,4.9331081777941685,10.298684306104626,12.313631161258575,-2.438753552100412
109.0,-5.0732686974339245,5.785433992065354,10.858702689499285,-0.33618898743745174,-7.929343346334166,8.35956552323745,-0.7100777357016149,-1.1669496628548786,4.298906504017359,-0.3210441643133617,6.242737176526923,3.3230502827941106
110.0,6.6502980080060645,-18.13758631285711,-24.787884320863192,5.685378569717274,15.675245164352514,-21.430066151093257,-11.0501082389179,-2.4723013079255587,-11.829553817992135,-17.72163698138967,-15.852746464856855,-9.08554275210962
111.0,13.385639650984297,0.659500476089069,-12.726139174895275,-7.001266351094724,13.01079705703097,-6.081835572020139,1.8367489321640815,4.045810497611746,-2.1683385744580503,-10.580063890488708,-12.495100674199913,-0.45866412075188423
112.0,9.212869074942772,2.2751766037909245,-6.937692471151905,-5.720777738941591,8.108569520996332,-2.301253621088943,1.6496614203843112,-1.4668103488340323,-1.4800514247921315,2.7183263282311794,-5.77680058979097,0.10705913563512848
113.0,0.24390697384759807,7.588765761851824,7.344858788004196,-3.8893237264744025,-3.5161611243231174,7.497801198263007,7.370479386482157,3.634682029028075,9.05870716150039,15.3502116703018,7.449908176323364,7.386071402829771
114.0,-0.20680095412674637,5.361622797737768,5.5684237518645014,-2.5449553831107723,-2.929216563519487,5.418196137299403,0.7833598949260887,2.602932126955341,3.1957616593189275,5.696313274299524,5.243553892857535,-0.35316480739036304
115.0,-6.615691846917106,-3.017575280986164,3.5981165659309378,4.7763648083419525,-5.06509256770942,0.2434093907067112,-1.1945502641179373,-0.767657779260707,-4.650130312432915,-9.567400430153132,-2.1680464467999743,-5.850518802887328
116.0,-9.512534864429124,-5.1321865071920705,4.380348357237064,7.287211248430122,-6.977347482840205,-0.34522464028077504,-0.24564643453883206,-7.515798606952605,-4.817175402105873,-8.182174561194515,0.6656190890831364,-4.9593752938018385
117.0,4.8027196886123935,8.7375485901654,3.9348289015530233,-6.80218792578489,0.409541088350851,6.364974925641086,-8.59275543624848,-1.1692440041130192,0.46362129073772884,0.6308185430168587,7.573782308696493,3.2703800694118126
118.0,-1.9731573681436145,-9.563556006201619,-7.59039863805798,5.8158264310828915,2.86878810775776,-8.55018381512361,-0.18507426099856783,0.33956436865454176,-3.6267862445042143,-1.8025195033973136,-1.1817892827490193,2.538890465985685
119.0,-2.0888791724435007,-10.123360570174865,-8.034481397731334,6.152449303795228,2.958191438782621,-9.132600769364613,3.3354502648160445,0.6847878515528465,6.596512262397354,13.893550791681403,2.2361644819271955,3.22248281969166
120.0,2.7054521151992317,14.441150075577276,11.735697960378067,-8.608109939526493,-4.52850939474503,13.111964414354018,-1.3281289163683994,4.518493118217563,9.134271095727607,16.779971204619816,10.451116590806365,9.236326036381241
121.0,3.9245617635679153,13.016860167568712,9.092298404000767,-8.508621154044246,-2.5990962587259996,11.076453674765812,2.713248750611309,1.5476976044772308,-0.5328554195876003,-2.2398507626432664,-2.736330388944846,1.9405251147641263
122.0,2.0165675851007596,-3.9395646277472585,-5.956132212848089,0.9987976899731805,3.9666868830398196,-5.006789349286265,5.544407467724985,2.652304688180336,-4.888042780020041,-18.06608169203163,-17.492636464942706,-13.704906405135231
123.0,4.007108402581402,-4.036049074504931,-8.043157477086407,0.04787947720012019,6.0783641341657475,-6.022204183646662,1.0241577170129719,-1.2144117861965995,-6.809131701565422,-14.372358144280048,-12.370656143294157,-9.358377597948987
124.0,-0.9216554296951389,-7.2748360232128455,-6.353180593517736,4.0487636395815745,2.68446769858268,-6.798945907349192,-8.343877997979572,-5.839814781011664,-5.232828579174234,-9.602101261177694,-6.121141694997561,0.2487036833437033
125.0,-7.608283635895885,-9.87026254413941,-2.261978908243532,8.764507260024931,-2.630038578329438,-6.052701876681223,1.7575367578681704,-5.732621230740632,-0.2614171217983814,3.669576507121854,6.437597853441538,4.499986884476768
126.0,-5.93495201473174,-3.456435130279408,2.478516884452332,4.639058441699654,-4.244416728559734,-0.4758983578625886,0.42824166432476707,5.031015848561028,3.255133033417189,13.817947749633808,17.782358965729127,7.77007458139908
127.0,0.9932819541634279,0.6107761436383128,-0.3825058105251351,-0.7809442432024318,0.6506756735125041,0.04978902300218779,-2.4046354755364012,0.5250554718795692,7.264620324164272,17.749947044812394,13.606946756089437,3.005876183496385
128.0,1.683391783308197,15.468971928073906,13.78558014476567,-8.552939882717897,-6.007048250949726,14.6448941692596,3.771030126979281,7.327594998833863,11.739674338584576,13.17345962335862,7.8406571886089695,2.3644590522805085
129.0,5.700613515616606,12.148546065892635,6.447932550276005,-8.89560689129961,-0.3261469359059852,9.320764341911557,0.47285251010267126,-1.0703810489249492,-1.8140962665744595,-9.313255512219197,-8.889689326616683,-6.1850841939884695
130.0,7.899734423998997,2.935987466911736,-4.9637469570872765,-5.459108775174185,6.403384589204417,-0.9854416288596655,-1.500836558654163,-2.9986681429204185,-12.285848969941936,-17.383529101674615,-13.637248317752377,-5.256801907463588
131.0,1.9125814695156418,-9.087307144435005,-10.99988861395066,3.634303773212463,6.428666998233369,-10.088241989192406,-2.882616026874902,-2.8911463428749378,-9.253482951105632,-14.316757289288242,-14.32286124910042,-1.808047525228477
132.0,-8.703330943749977,-12.274374828134837,-3.5710438843848653,10.46497960793161,-2.595871074582747,-7.884776127964033,-0.6994350219030155,-5.7054336359139874,0.6447529127966014,-1.112944103294648,-2.792621314054365,2.3672076959801354
133.0,-3.432959628137064,-3.1457898382488585,0.28716978988821706,3.2698875927134514,-1.815933132326978,-1.4695867547890478,2.367865615819748,2.7728617340450525,4.966649607470181,10.794043315111145,10.615660634788435,7.921883371510465
134.0,-7.7047829134697885,-2.761782659454183,4.94300025401564,5.213739282311707,-6.364934984247928,1.1256018890503694,3.2609476358006146,4.829029362763179,6.768404911823591,8.158360666105741,6.798427271277489,-2.6205509722508724
135.0,-1.1237561409021186,6.4880311896838485,7.611787330586023,-2.7056249029252646,-4.336418096451892,6.999025974028445,2.271783556001254,8.043148780328202,6.448833315973346,4.012181122205624,6.251945316404395,-1.811548528353772
136.0,6.4898307243420135,4.133991685729974,-2.355839038611966,-5.262856037734701,4.449188317099977,0.90768924498092,0.06271371962287386,-0.13040521153185303,-1.0662409241596094,2.313882209205759,-0.06984552713872993,-2.084175606063238
137.0,6.46203805104213,3.2835364497334663,-3.1785016013086036,-4.830367737025579,4.843444535680969,0.062037298616034464,-6.0320780383951975,-12.1659162413392,-10.258801975481676,-9.650191436056483,-5.8641759697067775,-4.461522047542579
138.0,5.595346815253576,6.263581551779767,0.6682347365262382,-5.971650565756823,2.4063091778459724,3.4688707846981157,-2.843519065636705,-3.51847385235635,-3.502516679379996,-2.3568562262066646,-2.6733673993889653,2.6410177789210416
139.0,0.6329172118100423,-5.5355751769093295,-6.168492388719354,2.483049010273733,3.4214415168500736,-5.851372626604312,-1.6289313955123927,2.082261988976272,-0.43380354247305153,-3.007693698150536,-6.356912831029401,4.131122543230145
140.0,-8.628458504600946,-3.9740036600611193,4.654454844539838,6.2498957431047,-6.699628565862759,0.3433798488394104,4.574403254496113,3.160003180154071,1.0864614767782714,1.434927511767337,-1.6549205621070282,8.147516185961207
141.0,1.6681916137659982,-2.28954736954435,-3.9577389833103425,0.3337808244391516,2.834242588110738,-3.1139700561796606,3.66147082017032,6.356688968311635,6.410509607554051,8.394772851938427,9.584198348454192,-0.30161405131347907
142.0,-11.333687381787357,-5.269919984301781,6.06376739748557,8.320587093785287,-8.67539673249108,0.41538319376555854,1.6560028538846132,0.6471759440265661,5.990827634248915,5.255481753800344,12.810007105707848,-5.218086081147227
143.0,5.659580289172515,8.647472037122043,2.987891747949507,-7.216987140587994,1.3626984567628728,5.766366694819353,-4.28892469680593,-0.15021707582345378,1.1453311017562813,-0.2635519905061736,2.8046556514549366,-5.560644365264787
144.0,4.111460593977519,-1.6466832804827565,-5.758143874460293,-1.2182725458733912,4.9659251067578785,-3.667426096629488,1.2340073917664252,-2.9348660049106083,-5.928250836755167,-9.010689152571668,-9.651370673280738,-4.204184684597481
145.0,-3.171171694700216,-6.186206881900235,-3.015035187200006,4.69549643877729,-0.12212915818878001,-4.63881797721325,2.080732763420176,-3.159421197121368,-7.046022946837521,-8.563576225193856,-11.421257162384022,-1.3191449311994843
146.0,0.41046845708018376,8.040595522618872,7.630127065538712,-4.201427371815431,-3.6524948126152754,7.801310937785075,-0.140501847438268,-4.0301092594354495,0.3931555036156471,0.30600741909296847,-4.462706961516355,6.339605628750122
147.0,8.909521585745093,12.589087097187859,3.679565511442764,-10.714008335021832,2.649648220642349,8.18295563769651,-5.445065124625195,-0.3803033053284015,0.951517352888938,5.61564085058367,1.0330530412899104,4.516612866043378
148.0,-3.265169766506678,-10.605779872704309,-7.340610106197685,6.904899668805029,1.9900442430681415,-8.919881070598324,-0.4158361057809483,0.7679761898167883,1.4598027336217765,3.4191361256073116,3.513841386948976,-3.9620371100719165
149.0,-1.2964508228975156,-8.303599979164122,-7.007149156266702,4.781015147170778,2.8822707196312765,-7.67537634889381,-1.2117844687338413,8.986926604294627,3.6278750690598542,-0.22888908739595415,2.184368843394406,0.4465808791429331
150.0,-5.71876820229887,-0.9969364576411248,4.721831744657636,3.3464219400952646,-5.196299395380392,1.8474887751242766,1.8963504163192042,2.3505430858187295,-0.24526646890013737,-1.7715736550822005,-0.3410205262891255,-0.1351203524154173
151.0,-0.3755302216362839,-4.517370707478715,-4.141840485842528,2.43726592510648,1.9064827650322738,-4.341657541966386,0.8288837375118461,-2.918545731663468,-4.451111582225894,0.08673096575869632,1.8105060506866968,-3.8283673130114346
152.0,5.744859504423513,12.64466219176531,6.899802687341742,-9.206661113594818,-0.5528257652219883,9.759485638662802,3.621937670828164,-3.312337609832334,2.611838311423573,9.689083981072038,11.057107476047857,9.087800256506949
153.0,12.249911003898761,17.752945309800733,5.503034305901962,-14.940469159581546,3.3213334217362718,11.610483445302817,-1.9946292106748351,-3.0429640139986653,3.429527324852145,4.974838156780972,8.956751069933448,8.257068465281362
154.0,-8.863227810114118,-12.19571782688715,-3.3324900167730274,10.505036412792837,-2.8163737784698544,-7.710908347727234,2.8272148080342987,-0.6799144300831785,-0.8789354624451321,-10.6764740114569,-6.175111102069757,-7.413827969636838
155.0,-11.475502246796857,-20.345137911983496,-8.869635665186596,15.880668093312499,-1.276014375203635,-14.64252298524232,2.286501603453196,3.5299688048495454,-0.7064252865524333,-7.5363971531180125,-15.38373840912059,-7.944960901595181
156.0,-9.346988948235454,-0.33778960998093943,9.00919933825455,4.888989442487738,-9.154031049835691,4.370397517705495,-1.4192923897178025,1.2179497293255968,1.0771360990683285,-2.7051377640018863,-9.30778766748945,-1.9735905506045963
157.0,0.7083453194489109,2.8217340397721107,2.113388720323219,-1.796902770474483,-0.6826913291497387,2.417302192171322,-4.194115415052628,-0.9823975528524564,-7.89547339322012,-3.5747191249947403,-4.607352231453045,-7.2099821065655005
158.0,12.864246433449459,9.683755623520362,-3.1804908099291236,-11.225147645256264,8.037608944883777,3.2780826330387205,-2.7582794384325586,0.7393519573302847,2.5808477172914097,4.312569304172962,7.096045345799329,3.109587234222819
159.0,14.083919155843382,10.254067844491313,-3.8298513113521393,-12.197089578359769,8.889551552887845,3.2411616531281418,-3.442409687310456,0.4368729412734268,-2.440910924386507,7.909550426793652,10.842646779611723,10.836132509571325
160.0,7.630131652704541,7.419292614990336,-0.2108390377142646,-7.553029511772827,3.9299862170775484,3.5611508982580355,2.095720172215136,-2.295866184996343,8.529883820160764,10.022689386955138,13.205091353396872,8.312501823813971
161.0,-11.594163457075922,-8.155070015948514,3.4390934411273637,9.921741146985628,-7.506085711816756,-2.313291933547212,4.7744075143492335,-0.09365099102636332,0.8472271306305053,-0.27073181637130617,0.9812675769124057,-3.4876693979195226
162.0,-15.18791498380249,-12.271956823874987,2.9159581599275377,13.692202480049346,-9.03673903737717,-4.702840076545252,5.443447261047096,0.30084961174129904,-3.666597219008851,-11.12144422647479,-10.813052453654327,-6.564630089578921
163.0,-0.001357906030269973,-1.6628031347256025,-1.6614452286952708,0.7871400712157399,0.8533897957491998,-1.6798084741711365,-3.5773960355413497,-0.7097053018227897,-3.602080288732721,-6.627303519536888,-10.511417636577768,-6.9474925758307275
164.0,1.4099070724108502,-12.514904860194664,-13.924811932605497,5.5805568510284225,7.622510832735103,-13.234195664062316,-0.33242086210955946,2.820784026106248,2.3894457880146938,1.3017411095260947,-6.295552952329979,-4.350231023708149
165.0,4.7707897930578795,10.47531675820263,5.704526965144682,-7.596952294271996,-0.4218844064854912,8.152954386484287,-3.492597002282058,2.036905597368795,3.837610694643128,7.649197286120735,7.597331030971343,9.926126947670202
166.0,5.08001794236101,15.876005955233973,10.795988012872876,-10.449114672447365,-2.88230524098988,13.314215734288322,-4.136866845937172,-4.522590194055499,-1.336925172193514,5.74307035718003,14.529749619529955,13.76060804162196
167.0,-0.21391029760174618,-1.4870420544308818,-1.2731317568291844,0.8858576968331766,0.511278571878297,-1.411607857103582,4.4832362480061985,-0.5253146698732454,-4.105661916517963,-4.0310071625044,-2.287890590331121,-3.7371761912438153
168.0,-3.635456232382838,-9.8880873951871,-6.252631162804247,6.725825371216726,1.2918155133160039,-8.034645390157813,2.6537673047016996,0.5929614724386376,-0.8504660845377818,-10.735816890429664,-13.332336227236375,-12.211710697119416
169.0,-3.5375793859654046,-5.509926343006049,-1.9723469570405734,4.492995154160152,-0.7234297641774149,-3.794900113824213,0.6985456159679109,-0.4472372898709269,-0.785447581381799,-4.072715154333644,-3.5364189569742615,-5.099992733008224
170.0,-12.06794196595964,-2.1343685181929244,9.93357344776679,7.07132382818684,-11.02647983734264,3.9173690769886926,3.5447777082882617,-2.512496549729839,1.0691564200907728,7.257956231444848,4.589670973585404,0.5029157437000982
171.0,26.628669532298822,34.40606290254425,7.777393370245485,-30.550415758582513,9.391942478802191,21.107899581687526,-4.31658304696809,11.967781550192694,14.20080299597264,16.64767168001677,15.707304803302252,10.93856041066025
172.0,-4.81011156847153,-10.651382131082139,-5.841270562610617,7.771222688510656,0.5525746718488813,-8.225379780269995,-4.195191957327521,-5.533572165585046,-7.284083435461488,-3.2711941136278853,-1.3012032981352988,-2.7369483196332878
173.0,-0.8521688539302981,-15.61110518032324,-14.758936326393009,8.26784554307983,6.9837964044669905,-15.153956044899116,0.5565349090447855,-1.6927379117912353,-5.55016517333854,-9.66491124401571,-5.913447107907812,2.3246423871790682
174.0,-8.41561249815345,-16.005601593144345,-7.589989094990977,12.245708375886844,-0.4650875169479485,-11.832555266673435,0.533036104574409,-2.9924669226303573,-7.167026684179605,-10.428658776037,-9.632341811884992,-1.750820155293918
175.0,0.16355520369693188,7.2007209246599135,7.037165720962933,-3.7234016964194883,-3.4109273048573763,7.096772735242794,1.2153717105339257,-2.7063457929730586,2.618192256157491,-0.5177142469831715,-4.315881376879362,-1.6286955304192152
176.0,3.8792171466156247,10.126247862830285,6.247030716214697,-6.960991441885957,-1.2337874740480528,8.174101574293816,1.785525871864445,4.0031966141379645,6.433706195898456,9.808300364694372,6.718327041031237,-0.5540863334755699
177.0,1.5463704807085212,6.214729214797808,4.668358734089408,-3.914107427099541,-1.5257791879691898,5.434386269546675,-3.0939470629038652,1.918754984072662,5.375642119898075,10.126515627438668,6.912020551125899,-0.35623904541347073
178.0,-8.502920287083247,-2.292746106590739,6.2101741804926975,5.364573325257142,-7.312440086094001,1.95282557095297,3.0813365881972645,-0.22971097018738873,-2.8292076881210333,-1.7478553882189507,2.1097666417748915,-0.4636308185507516
179.0,2.189797596784107,3.134333052892385,0.9445354561083947,-2.6990697151950824,0.5980352374978424,2.110517785422086,-0.6244198794422068,0.06499262875058986,-0.6710805746373143,-1.7497150604163632,0.8219858880793538,4.022609161634659
180.0,1.7604668095920195,-5.88198254261617,-7.642449352208184,2.095634578913257,4.686349175969055,-6.773464313017964,1.5805084681070587,2.197650554659006,-2.2454480930598217,-3.8916156798795623,-2.5422588126076735,0.9595370592141356
181.0,-0.18140959636109777,-2.9289554383468785,-2.7475458419858745,1.5822078775361241,1.2753578998250603,-2.853956767804844,-2.17014553671357,-6.04005493671893,-1.2626844638595962,-4.79065575011893,-5.425834551618555,0.7798354224256703
182.0,6.865001070562137,4.217366815452368,-2.6476342551098786,-5.520747607865785,4.753071030586426,0.7643953584431911,0.010947699894107377,2.9350029049304704,-0.5057407591451475,1.0405232023882833,-2.418595885091623,-4.025620144617328
183.0,-5.108889157337441,-5.650350548353236,-0.5414613910158348,5.396079759621571,-2.285416280783234,-3.1210076073862796,1.3179336499829766,1.1118560303764267,-0.2592191426526113,-4.187909503907741,1.3237390437494196,-3.3562788816982776
184.0,-1.2384476874492973,-2.564149218024254,-1.325701530574949,1.8377199215015978,0.04118491916060729,-1.895297654775007,0.7275445825561884,2.116263311973152,-0.22451935935777279,0.4303078049277772,0.13123277805476685,0.3098547048987821
185.0,10.637017045803166,5.723642677412887,-4.913374368390279,-8.164678388417979,7.770448929976752,0.3730204277622138,-9.261018973557405,-4.1095385635156365,-0.887397714350348,2.415711559473997,-1.0149986111621674,-2.1551547110782283
186.0,-6.0840478836023015,1.810073556399571,7.894121440001829,2.153599018833631,-6.9186800862657805,4.8968869870486955,7.743247172684712,-1.0401532815947299,4.838096798560028,8.637603262375716,4.7565172313877495,3.861609115055439
187.0,0.8991049964885773,4.679864600553438,3.7807596040648046,-2.7724697942566596,-1.4544183128226624,4.195302758375323,-3.2008439636850445,-1.6483687560878488,-0.18481284945680354,-0.18377588150467083,1.233191606365955,1.371514211167228
188.0,-8.31189644607926,-1.5092698670498308,6.802626579029381,4.848324740031699,-7.578340324536064,2.6894606644279424,3.8173462010600323,2.5634263877523074,1.0417593875860405,0.4717820267327658,2.670217137011571,7.751455011089
189.0,-1.4510156119462607,-2.7640208552487224,-1.3130052433024773,2.1229922081064743,-0.09985398629537601,-2.0760678430674306,1.098133466198179,2.7172707441317114,1.3885238324626188,-0.3977415285407069,-1.3498283462836373,0.33584174734835237
190.0,0.45306499742330997,-6.910592583301005,-7.363657580724316,3.2437557782475275,3.866679906768924,-7.177216740808798,1.157524832675774,-1.0815931532878824,-4.796028161280937,-8.318890492931674,-4.057407779876894,-9.64002338667861
191.0,2.316559329800397,5.071395714907878,2.754836385107481,-3.677794510378988,-0.19144412402575428,3.948576267012129,-1.3503427688407375,2.4052256028162327,-0.14634637234387649,0.682958816517063,2.1725327560127043,-2.5400920551258634
192.0,3.362902800722845,-3.4048194755756738,-6.7677222762985,0.04070643403707663,5.088090770745036,-5.053916293376529,-2.9047870315720465,-0.6590366453386146,-4.674640244502552,0.7134935912563474,-2.6335606102240257,-0.7181124379759085
193.0,4.0287385662357345,1.754110680119768,-2.2746278861159466,-2.9445419977258998,3.176153414027957,-0.30886516320923585,-1.536430118138859,-2.0138839310040892,2.824080267832193,-3.010633763834531,-0.6986774826636818,1.9557394417693401
194.0,-3.281963864977588,3.9447281713574736,7.226692036335086,-0.29834475813458194,-5.22137757663433,5.614955999195091,0.4411502186114995,-4.427999902901796,0.26555860439125656,-1.0526307404536202,-3.240583542886504,3.9818640456572947
195.0,2.686733528121387,3.788212423881033,1.1014788957596218,-3.275577003020377,0.760014165721242,2.4743313568177587,0.8799102204241698,2.3264047808254498,3.415560225915656,7.448149661690325,2.5228976713900626,2.108184275048795
196.0,-0.23091743116455143,-1.4304839677564702,-1.1995665365919783,0.8775975294977194,0.46595422047743673,-1.3635883885268694,-0.02024438500358039,4.496065212144112,7.831379230833996,8.136738295047568,2.486958386170766,-1.1999133449654782
197.0,-5.053034751764969,-7.411752183749385,-2.3587174319844717,6.203883238786409,-1.354128843336703,-4.854710771612842,4.019037509739527,-3.5361654950876633,-2.0010907783395115,-0.5947694889095723,1.291707802891973,-0.29852944484407773
198.0,-2.592637249436572,-7.296589567199138,-4.703952317762613,4.9940493411225,1.0544189139558777,-6.0490662193878535,0.43533829970225435,-1.8020985857672143,-10.811518263523517,-12.092097969116663,-1.7733465021009305,-5.054060184472469
199.0,0.22171526644557016,0.8207499515147574,0.5990346850691839,-0.5560292354221845,-0.190787752087753,0.7384022019486554,-1.3751648640017442,6.242872104407795,-0.7182173964986269,-0.6936543690632746,4.818768163991293,2.559455752005211
