Time(ms),I,II,III,aVR,aVL,aVF,V1,V2,V3,V4,V5,V6
-200.0,2.8278558882487346,-0.6699739590929585,-3.497829847341563,-1.0903362284220406,3.154147151956902,-2.0633113975389197,-0.5720841339910026,0.2690215677373977,2.29958329665644,1.4051820552923748,0.8425975964616579,2.9307805889945757
-199.0,-2.0899620158334096,-3.338745328988105,-1.2487833131545927,2.7061997054503277,-0.4265100684191747,-2.282109039370019,-0.15938722229583413,-1.6032709941145857,-2.157505875133275,0.4725894037297824,1.3004825419942505,-0.3232905188707229
-198.0,2.908353387270233,-3.5049166122506,-6.4132699995208045,0.2891861987667925,4.6567119666860615,-4.952258741314159,1.2859418057076966,1.186454096418056,0.19398924096331494,-0.5153771538958366,0.7502941927172623,1.5590131349630514
-197.0,-2.4284118512461026,3.985414067868802,6.413825919114791,-0.7926674139263488,-4.424923819259339,5.206895129860193,-2.6137874190138466,0.7483705044630478,-3.311876125367142,-2.4234308301634497,-2.3474368940693076,-0.5371610852302461
-196.0,-0.031927945529707236,-1.0534229411627987,-1.0214949956333048,0.5992652394693194,0.4894640382751032,-1.103502006162613,-2.51754002910242,-1.8660047363885417,-1.194278932482864,-1.8742686813272396,-0.5251306193107954,-2.2714698995232783
-195.0,0.4984207933658368,1.298019281656559,0.7995984882905282,-0.92960422751539,-0.15926543921021863,1.0704707568823006,-0.42972376522373046,-1.3653897135972588,1.068009736954178,0.8901445968805897,-1.4750559721161585,0.022030983749171007
-194.0,-0.9415248325749241,5.302115355796151,6.24364018837103,-2.1418680119947027,-3.527652315261705,5.804711235311972,3.993299132735583,1.4019110472208378,2.8872235544264715,0.5700916295134635,0.5263575396758369,3.876967051943163
-193.0,0.610928094584006,-2.0482917104219953,-2.659219805005929,0.6706727640579231,1.6143779441460993,-2.313251452128781,2.3819948877901975,1.1819558500298484,2.684507221110085,3.3025865625603674,0.8641235732972798,-2.723354606217005
-192.0,1.6194101393372364,-0.6793380457780132,-2.2987481851150964,-0.4453228361173799,1.9299392574513112,-1.5226383236293723,-3.6366095332149295,0.5928162716158181,0.22991618820892268,0.32930603107169465,-1.090357402107934,-2.7283492238601728
-191.0,1.8505938757257456,-2.871944134120266,-4.722538009845851,0.5310902528767595,3.2479415657979986,-3.831710231121157,0.3939933493564167,-2.006603095024723,-2.376944192285118,2.1915725841304923,4.457010646545289,2.8920364980153463
-190.0,-2.547145012180711,0.058614945546416886,2.6057599577272454,1.1833760727993523,-2.5458549506898556,1.2915536204159643,-0.26168413487467734,1.3503417739459231,-2.5190086490806736,-4.3544190127853355,-1.5039924651228394,0.0005448791834419264
-189.0,-2.484997344739925,-3.633460938906622,-1.1484635941666985,3.0764051192436517,-0.6460156742548016,-2.362201293552379,-0.5020000348369892,-1.8318338418970046,-2.663482687284421,-4.430095020121027,-0.46451803024961297,-2.388532347514371
-188.0,-1.9107637799904043,2.3160504679938354,4.226814247984112,-0.18409523751426315,-3.052728209561764,3.2908876710287567,3.2367068332435185,0.3846225993894386,-1.6961005848415653,-0.6567666785532107,-3.773322488964474,-0.3884967860971605
-187.0,3.271731542692974,-0.9790786840365384,-4.25081022672971,-1.1243382526612864,3.773653012159304,-2.601689101733759,-3.678585483666021,-0.20457895700968193,2.319118647109374,0.8330215606421005,-0.48008605343768695,0.2595743410598222
-186.0,2.7777497698230027,1.223994040484274,-1.553755729338894,-2.052559075070937,2.0979530316402784,-0.1531268165475308,0.12846115218331755,2.065081454645338,6.49507719960014,6.040391181505065,2.9644448428239176,4.911260674477255
-185.0,-1.8212545411591559,8.452341675604744,10.273596216763856,-3.282748456619104,-6.036259746358252,9.377442521209234,1.0233287670781153,1.2093096395574796,6.642069135261157,4.944616342304206,2.980890444643774,4.50111667817072
-184.0,1.2964000344820874,0.2182131038185373,-1.0781869306634877,-0.7194838927797219,1.1996628418769122,-0.41076886443318594,1.385934129104819,-0.22852385474347803,-3.1967369864982276,-2.8813663566688015,-1.1921599767223092,-3.1018734042281686
-183.0,-0.8948721530605784,-7.2084889229231655,-6.313616769862521,4.013725377149885,2.723278805140479,-6.816579248770491,-0.2536769828412476,-2.640356759221518,-8.400426836976603,-4.287023475963207,-2.4897981254841604,-3.6183481493917045
-182.0,1.3709991047827865,-0.761034048466597,-2.1320331532492967,-0.342837777870983,1.7665756738895615,-1.5007305336665313,-3.2593717822716486,-3.495193994628547,-6.806350016456641,-4.082664586795724,-1.1432596704297844,-7.096607187940034
-181.0,-1.3047413006265456,0.8589139697571724,2.1636552703837895,0.2611658299245916,-1.7191010289804967,1.5342999132804835,0.8988687293748224,1.5532429592329504,2.9215870211447355,1.376075100315675,3.6783060388358546,2.7907306902639006
-180.0,-3.6974469213209815,-0.14422225815617484,3.553224663164862,1.8760586494932885,-3.690522324764392,1.7246157815492422,0.2394826645541048,3.330986539842851,5.686351519693819,2.177827894605595,-1.2461732885264625,1.5045785811757448
-179.0,-1.515228172471761,0.7413750406057553,2.2566032130775335,0.41661955323710365,-1.875258646726581,1.517085204300403,1.4189540534354825,-0.7900600693087254,1.1487785134561617,-0.4626926200512742,-2.715450621274202,2.5801895087144517
-178.0,4.475556870014836,0.30388729573659967,-4.171669574278268,-2.3628967705057287,4.331004070633229,-1.9152138588365366,-0.726758434215133,0.739066364423954,-0.40788953888706647,2.5551648223180634,0.9289325655992908,2.151977969455559
-177.0,0.3308940532932614,-3.9244390356389145,-4.255333088932263,1.8227033940681836,2.2984414430571762,-4.067705297659353,2.620748019494257,1.9502448837300657,2.7210929438811595,1.6815174257645205,3.577775713431313,-0.747865749221118
-176.0,2.140268780648032,-0.39198791440627534,-2.532256695054378,-0.9263558135674631,2.3422437335645885,-1.5133892030020235,1.529513298392825,-1.5528942342468353,0.16248837021477902,-0.43569970648258893,1.127983635265976,-0.3556683832542391
-175.0,-0.5817883321558575,3.3837306010002806,3.965518933156087,-1.3734669384766045,-2.263476487649789,3.7073428303432,-2.832775489494376,0.7242839286288396,-4.004323200349753,-2.9280566524826175,-2.0254791568532395,-3.097912651380487
-174.0,-0.9573793665663719,2.3543326028382165,3.311711969404597,-0.7494846838345901,-2.116857677270164,2.790566909140405,-2.967603259491413,-2.1002220576785993,-1.6695762518399975,-1.9070966432454186,-2.8547008395274895,1.8968338413676649
-173.0,-2.1028118101547477,2.11643308974846,4.2192448999032335,0.01997630406158618,-3.212509152356196,3.1267607891967177,-1.0106532428954962,-3.7589154266979734,-0.25245092619125753,0.9364526444212595,-1.3788983326526623,0.8052367803611099
-172.0,-1.6295830475221869,-5.285729702629314,-3.6561466551070563,3.4826937864181975,1.0503290411251656,-4.433443553867091,0.4451160448800192,-0.012980160138364338,1.1587299306602117,0.5535221390960923,-0.6544578579696655,-0.09747846755068912
-171.0,2.5737400204694296,0.9936616075050893,-1.5800784129642422,-1.838901247806566,2.0432179367309584,-0.2561421968441613,1.4679576847431905,3.2765132271857613,1.7397838283777627,0.7834205926805555,4.359058962958251,-0.05026932862128353
-170.0,2.4327425422925093,0.2507284856434304,-2.1820140566490247,-1.3181822766159432,2.35713072777292,-0.9281028542585474,4.3931571059969805,4.23217004899613,3.1540387184136347,-0.9953630716129782,0.25476729463773595,-3.125219341272381
-169.0,-1.892016606041371,-0.7011943795709878,1.1908222264703876,1.3224955091679638,-1.5698093739195191,0.20544493150965848,0.20180368015369687,-1.115398161237318,-2.9297472825188513,1.6526734726872556,1.2553042491706377,1.3345029291215276
-168.0,0.03486677785241152,3.421673667080997,3.386806889228594,-1.697665121962062,-1.7076211627548237,3.367872951795142,-3.790984673580674,-0.75474678855842,-7.31076103065583,-0.8748940168067778,1.0043048056177242,2.1787489657458
-167.0,-1.3184062318133458,-1.4882574564860365,-0.16985122467263736,1.3614865499429134,-0.53313310906947,-0.8617679110146771,-1.8731898623150627,-2.5798671560550726,2.840858085139743,1.204300799644745,-0.4464025875647538,-0.49555149043500724
-166.0,-1.2799483021142057,-2.8489817116522667,-1.569033409538008,2.029237170165569,0.1000964700640325,-2.1591938790542926,1.754156073092729,-0.9431316876320084,6.752086847421773,0.5465873125927116,-4.732524375361593,-0.4169786280200019
-165.0,0.2600396003709886,-1.0045970049758293,-1.2646366053468365,0.42155085720021324,0.7907671894419147,-1.0814698512690155,0.24260516000830137,0.5519381565707584,1.959758111992835,0.7871020661817147,-4.07435088165033,-2.655337338798164
-164.0,4.954519316108666,3.727596397480231,-1.226922918628572,-4.366343921386239,3.115490235754676,1.2269080336248193,-1.4249492034132056,-0.5504708950468455,-3.424593888249351,-1.6351115849133795,0.9323745504984828,1.8605297868132622
-163.0,0.5341568761850537,0.18215872004949496,-0.3519981561357466,-0.3809174063406606,0.4666439231683678,-0.10805598458286536,0.7758305706044784,2.1253416472242184,-1.6850295353101332,-3.840845019637064,5.801447728711456,2.9189076214817584
-162.0,-3.1255075671205583,-1.8832384903806294,1.2422690767398024,2.561505850856097,-2.2385108428554354,-0.34552280015284575,3.5801671370815926,2.6386585592498335,-0.8318596791030124,0.547450580739798,4.5449947829814255,-2.0706578036336767
-161.0,-4.212189090425195,-3.0377447121759866,1.174444378249204,3.603467705980993,-2.667963652974244,-0.9603391883221766,-1.0518280471086061,-0.4335169867054729,-1.195985126470707,1.0713989923229095,-2.5531144981231946,-1.7891988549248925
-160.0,2.4011946019380765,1.9677785169187185,-0.433416085019263,-2.206688871924354,1.364978379435306,0.8129378723846399,1.3435993675096056,-1.610394114353501,0.19628147909899257,2.7997929296455606,-1.3873496074791434,0.33501792598977453
-159.0,2.1748964417879826,3.8023666524138178,1.627470210625953,-2.9335941189698547,0.3009479631909464,2.7568776535137687,-4.181212535843905,-2.3148123725737935,-1.1293989085403315,-2.13486241649803,-1.9038424853297988,1.1127207668929286
-158.0,-0.5273428821184675,-0.24394505357859675,0.28339782853997253,0.35961268558141124,-0.37699810359549857,-0.019815297486921235,-2.867654677318124,-2.3246003428587807,2.3334415439366376,1.7462429336476804,-0.8031029359747917,2.0417886969679357
-157.0,0.6833162857209522,-0.2853651725670179,-0.968681458287873,-0.22788308157521975,0.7779252301292512,-0.589913881686261,1.4044464748329961,0.8541283777215107,3.8115774944100926,1.2397850927920384,-0.806122762118712,3.2260373617078195
-156.0,-1.5375681523106453,-0.2431380798652878,1.2944300724454096,0.8586719084935323,-1.3813096027732803,0.48148805099777914,0.7022535415271052,3.4224573288045828,0.4439797392517093,-1.1207421109633406,1.9918611492983915,-3.9381182645260253
-155.0,3.7245529219064775,0.061499067360763826,-3.6630538545457116,-1.8477123931136044,3.734066088033735,-1.7702076666607485,2.299095632835348,2.2906110125283483,-2.4706567726861657,-1.03018894761875,-0.3230245114319976,-5.637276092548827
-154.0,-2.5103248828919558,-1.1134360928697997,1.3968887900221045,1.8571614319101624,-1.9858342644696096,0.08760504305259531,2.733633337378163,-0.5714858405166963,-2.2746439095288853,-0.8398316783648327,0.4946868956703142,-0.5492851705277331
-153.0,-2.921195895114989,-3.7219285326219183,-0.8007326375070452,3.289776436506844,-1.0867588675973114,-2.2439419731684973,0.5181581417696778,0.9267468437993502,-1.3717473395695057,-0.35084174483803077,1.2206804832300637,2.489041866037352
-152.0,-0.08771978320645157,-1.351201312188448,-1.2634815289821284,0.6901880459315268,0.5654098998272983,-1.2969894966649331,-1.297596721735815,-4.667228853959095,1.0451313821880106,0.07913802124799252,-1.2372130131260124,2.629773726919824
-151.0,0.9782921404748716,1.2164004732977334,0.23810833282278104,-1.0460041951377392,0.4282552960136975,0.732564322491891,-3.6662245007044496,-1.6786963693896533,1.6288317816433489,1.2788878666815473,-0.5764901088345213,1.495186362082439
-150.0,2.701480131347026,5.18186004120383,2.4803799098567705,-3.9693576430398387,0.08976383599533752,3.8347103404940994,-1.1561337679171833,2.2104588740461777,1.855567757648203,1.158723263092885,1.4083315547762876,3.8362994671124753
-149.0,-0.717505693043601,2.7741045342541453,3.4916102272977625,-1.059329514063899,-2.12712896785306,3.138352506026163,1.3089741517775475,1.0232145038488083,-0.33129347439126366,-0.10212972786914021,-1.3904493684908505,-3.6117074024140425
-148.0,2.797342573523176,2.52854339028001,-0.2687991832431398,-2.6215867951576657,1.5865224753639378,1.1400445020580814,0.7737985092778044,0.6950585984442843,-1.6968961904041344,-0.6827543914117163,1.8787829531755955,-3.5669238310883413
-147.0,-2.164149695147125,-6.274776532239175,-4.110626837091987,4.173712078073121,0.9448701511447433,-5.176718357758908,1.0986495960361864,0.4406239048383712,0.00024049198084019618,-0.7306418321128221,-2.226370901432621,-1.022368004146438
-146.0,-3.495376648860917,-6.083791822276429,-2.588415173415439,4.813893447897139,-0.48477544677895223,-4.393627828641092,-1.9279103636074875,-0.6699366163500843,-2.651514056113604,-2.6726027262680425,0.06914642481533795,0.7748764268221597
-145.0,-0.748966290933903,-0.2429971670065858,0.5059691239273618,0.5129729456046745,-0.582430039530605,0.1563872389572616,0.8891561153616477,-0.7386014276883657,-0.291773034471808,1.8336360952894626,-0.6401749006381344,1.765275017704233
-144.0,0.3904646174213924,5.02592694119428,4.635462323772894,-2.6959688356843774,-2.15789623775829,4.779083440841033,0.24046033591271032,-2.138265782867353,2.1047085068491875,0.49860971109896357,2.4300128426526526,2.213311175406225
-143.0,5.88390224981301,4.704946372715675,-1.1789558770973727,-5.284030376928076,3.5738627630788598,1.7920069772265512,-1.212700551423405,1.7001619324387967,2.76436609815505,1.9041574483209986,1.2247101251007702,-3.640598575162638
-142.0,0.70697549560263,2.654040100452537,1.947064604849878,-1.7480972409282636,-0.6566863994648724,2.3323643269192758,1.502189892655866,0.43005953855614043,-0.43599796193737417,-1.1021710718322653,-2.7226616132384627,0.5773110471194389
-141.0,-2.7963267454127476,-8.245862005377276,-5.449535259964554,5.534896099460408,1.3686857124461853,-6.811518574806352,0.8536034008448925,2.83040778341733,0.8709349830237618,0.2230090154657023,2.2209845599423135,3.2827169905099853
-140.0,-2.9839965636464845,-2.5922097414838343,0.3917868221626306,2.8055594871984786,-1.7245321049586941,-1.1373552545228376,2.9954189100099553,-0.5247867686219787,-0.7130773387341204,1.8747649810700122,-1.8488406060822822,-0.076632576605417
-139.0,1.0684654296259024,3.7008584387552896,2.632393009129319,-2.363465037514171,-0.818562892684102,3.134462334328242,-2.5269191488337786,-2.583597161825994,-2.4203594284860217,-3.2318086291917423,-1.376289162331883,-1.6118933039016243
-138.0,-1.2646239985601868,-0.9484562167160941,0.31616778184404093,1.1305940984786518,-0.7480350498544988,-0.2668385953757666,-0.5764268975040612,-0.7044660525994595,-1.4401353505337142,0.6492000033696601,-0.15376801516657101,-3.2877682954281893
-137.0,1.3683544177213425,-1.678708892936201,-3.047063310657569,0.10165282023512295,2.2506076136957374,-2.393185033989681,-2.878804290776137,-0.5357338024601005,0.28357011946348853,-0.9062492603588653,0.6570550619857903,0.6211580470732976
-136.0,-1.0859405760102927,0.46664291192130036,1.5525834879316485,0.33414448260214397,-1.3543118268486878,0.9746580669054938,-0.042453870949749506,3.388530221743502,3.1704795905888123,2.528854947350956,2.3111697740588397,4.027570719415511
-135.0,1.8769149750091771,4.791307355664097,2.91439238065506,-3.3902609817435563,-0.5530669460029889,3.889190574484044,-2.029751394497448,-1.6469373639354423,-0.2504262473043837,-1.3098867955517877,0.22352185727448837,-0.4279942841859645
-134.0,3.6051409627355158,3.639428600786847,0.03428763805149171,-3.601088531335147,1.8300198650265465,1.864875727967893,0.8057039975672395,-2.145121455019317,-1.2844846731320754,-0.4503538070274489,-1.2770523679798014,-2.6715287857058794
-133.0,-2.0898969480205816,-2.592735095172946,-0.5028381471523068,2.363612238539365,-0.8284527411725064,-1.605477544832132,4.6318614762849135,2.829404768023223,-1.1032624058343665,-2.818745950867986,-0.7837837506913576,-1.2317592339211991
-132.0,-1.2032429700836347,-0.5628003717948324,0.640442598288762,0.9103946240034249,-0.8798980002192014,0.05611334827193604,4.400221366795154,1.7807265750534451,2.128451580359363,1.025527025215205,0.18525834032357535,2.369353849917961
-131.0,-1.4983674188049076,-3.58587291980602,-2.0875055010012242,2.4999425628682856,0.2548396308874027,-2.819153873860397,-4.862860756561886,-1.9904072773368837,-1.5944506537649215,3.945765068860209,-1.0777634792585,-0.5530470397420156
-130.0,0.6680994384100685,-1.0018782731573244,-1.669977711567535,0.2153161137395765,1.2044170615943208,-1.3146557608279894,-3.997502362237423,-2.524317572488802,0.6489372227914959,1.3675668980980988,1.1362283648942333,-1.5123582507685716
-129.0,0.7314607340496707,0.06248202275399872,-0.6689787112957564,-0.4155134004779714,0.6530353811091609,-0.27646282642106174,0.8680580132271127,-0.5045087729266611,0.7300507563941344,-1.1973203252231261,2.2113921563994596,3.199300043171551
-128.0,-1.4552965600505066,-3.5919934910520532,-2.136696931001543,2.513688162885889,0.36896134447971973,-2.9112601695826905,4.5278487700343515,2.2335527747449104,-0.7775017397447127,-4.039568552595961,-0.49183121035646915,1.9481607797051101
-127.0,-1.6424526355105227,-0.8628077434539353,0.7796448920566263,1.2456135477017307,-1.1849368727430978,-0.08565652056421186,0.8806415790097915,2.5139122739191766,0.8425974151508746,-0.1222815181350767,0.753423014124152,1.6775212700548157
-126.0,5.452790782388875,4.6996183796013025,-0.7531724027875233,-5.0868084868718695,3.0497788380183994,2.0081281842603786,-3.601565688928101,-0.26089997777424756,1.4114839208692154,3.875488823203277,-3.458154563590687,-2.997552978841955
-125.0,-3.064591792450281,4.9747584418421065,8.039350234292419,-0.9747382448569843,-5.525319667882442,6.461957653355813,0.7685077917875043,-0.7833221365814236,-0.904636142840648,-0.744064203807971,-0.7007106323659265,-5.8534324081199145
-124.0,-2.422457104589221,2.955728784296598,5.378185888885848,-0.21932693250370483,-3.871182649608036,4.199891121438883,-1.0573288640277303,0.2497224674733446,-1.2734872745208023,-1.9948762177163106,-1.5776148083966477,-0.5894703325697868
-123.0,4.7984589135608475,-1.3115770959309867,-6.110036009491812,-1.785849929979801,5.407942143741662,-3.6763009874395136,-1.7266415748420512,-3.6280359984885577,-3.4172626999185174,1.4621776989056903,4.5144589190653885,1.8805411839601
-122.0,-1.118105191797628,-2.3751158056182837,-1.2570106138206025,1.776082874392781,0.1053708273245264,-1.7772202216129087,-1.4319584561313565,-0.4981267159881282,2.930533934781703,-1.5682545187023567,1.2926983641580403,3.75550344382463
-121.0,0.007817076835989922,-2.9228963441418156,-2.930713420977802,1.4862656459414183,1.429579639433444,-2.9607560676394944,3.660954594088348,2.7787479044318406,1.0481783267068976,1.2407375030780776,-0.12674275925914147,2.575819817175993
-120.0,0.7412107971210986,-1.617432232517665,-2.358643029638794,0.3936610824061635,1.591652387880098,-2.016631991726255,1.4517367378720618,-1.687823237634489,-0.2307352975894108,-0.7483438140813913,-2.197081350471668,-3.5444317673081556
-119.0,0.13811251577100847,4.032153984572325,3.894041468801266,-2.040549050611945,-1.9126151307255292,3.937087587355455,0.5019894510345191,1.0440929372150056,-0.44632132152246795,1.199432436337804,-0.44787473537230993,0.8689327627349155
-118.0,-2.9361784625125593,-5.987363872827278,-3.0511854103147757,4.439743132796243,0.02530862499396047,-4.467798967609692,1.0149267231287358,3.949649275985239,1.105247712941029,-0.5877996245815305,-1.8826465460810413,-1.7544454971403542
-117.0,-1.5554918383551084,-4.637238889127828,-3.081747050772758,3.085140413314373,0.8124093650686646,-3.891366386774271,-0.7168801188732427,0.0615986252908054,1.108497547024865,-0.11981556572704719,2.439780099472573,1.4739049033566032
-116.0,-0.8902324762868183,1.7726182987391488,2.6628507750259023,-0.44552019841727664,-1.7246060997965065,2.179806105090067,-1.8205086694173054,-2.219772795657368,-1.1341815192279454,1.9425768800213046,0.8530244152557702,-0.5565091265232706
-115.0,4.563952303563774,6.935060207172601,2.371107903608791,-5.752115262090656,1.071248504985453,4.688833415148236,-5.178463499062166,-2.6778193083260966,-1.1395778979803353,-0.27326969963552505,0.5892108062921256,-2.451187322489556
-114.0,2.0503690347247634,5.751760633278918,3.7013915985541743,-3.9069166884419397,-0.8511649833902066,4.760156046913121,0.954272788448189,-3.5390213700717195,-2.2739914854938,-4.275298973349158,-1.8531020139917647,-0.5693017065404725
-113.0,-3.1836672513358018,-0.720662539757595,2.463004711578272,1.9395030044695685,-2.852104871551144,0.9059873832099048,6.564357020721014,3.7770056922055657,1.5898039044851915,2.552596526889013,-0.24355400008461092,7.609724049988184
-112.0,-1.9898498223087362,1.6245958308248378,3.6144456531336457,0.2402479826977072,-2.8360114531415976,2.5790572883054,-0.9617777332943818,1.9135233609229392,0.38361689364264123,-0.9850759410361076,-0.6735585368900454,-0.4392793571961411
-111.0,0.8396024357042295,-3.9642384505768806,-4.803840886281035,1.5327968672563412,2.861264053493043,-4.421097609488197,-0.9921897560732542,-0.2181884621847352,1.510183576763574,1.1200549988856272,1.5888943147114318,-3.730049681300314
-110.0,1.8399319574460073,-5.231047000181979,-7.07097895762797,1.7376125259175357,4.491403899017464,-6.108338517765712,0.7831890906678665,1.304745529938205,0.988461288143918,1.5722929857056622,0.982612767200453,-2.900610234161993
-109.0,2.521742803271248,-3.10184274797384,-5.623585551245103,0.24797542456974764,4.107993963816584,-4.401596545294455,-2.28531625375777,0.04504720554769748,0.3070370807717149,1.2538522683768667,-1.9731003688921076,-1.1017130126733192
-108.0,-0.9500114204146628,0.3420565692808357,1.2920679896954597,0.25864627950959185,-1.1622807110071238,0.8505690320543757,-0.6215762728109744,0.831112811373308,-1.5669498894890275,-3.0558648791720096,1.0633763639649543,-0.8552333914620074
-107.0,0.8020064302155433,3.631539234554707,2.8295328043390686,-2.184121378532637,-1.0514819490174507,3.1772096961400162,-0.2354585782733365,-2.0421876894737903,-1.508601704410626,-2.2807645148965734,0.7686009543675,6.256734013681785
-106.0,-1.5942915678800489,2.168154970925392,3.762446538805338,-0.2521715762104775,-2.6344916514796015,2.9837504385677383,0.8772340845490649,-3.2959077942420136,-1.160275530622437,1.3385597123695763,-1.139731933497292,0.5658868912761297
-105.0,-2.870473502744176,3.3118248416163745,6.182298344360486,-0.25956687502237896,-4.560816710711947,4.762448377157953,0.5631196793617657,0.31519151870047146,0.7940018504848916,1.1580977404611559,1.6861271045228148,-0.26297618912249576
-104.0,-3.349826838726157,-3.7164819267753884,-0.3666550880492796,3.580645442710943,-1.4500235904367587,-2.0236994795553995,3.341613107725124,-0.41441003667135734,0.5472153201434211,1.2061785536043457,-1.4710555669299539,-0.6413616639491714
-103.0,-0.3198447743809369,-1.7940561871011826,-1.4742114127201853,1.0347909617294269,0.5344861494321338,-1.6085725050597959,-1.3315019128418335,-0.4658406147205112,-0.5272524099876386,-1.9792207010474774,-3.0961455572990864,-2.447572653522328
-102.0,0.7801726119027943,1.1402609564179556,0.36008834451523786,-0.9732129257032328,0.23948438480494172,0.707505513881044,-0.1144874282905084,4.931857913202844,1.34511586919566,1.565392449044739,-0.3013503696673576,0.40426831054556733
-101.0,6.435768806454696,0.11378826214420096,-6.321980544310441,-3.2798523680654665,6.3243273529389175,-3.058350691143148,-1.8462848209799423,3.647914273993295,2.0275767579278994,-0.6810902501021545,1.4834593345113303,-2.5378170281716548
-100.0,5.381510569281636,-0.8872060048670272,-6.268716574148651,-2.246392331916608,5.848014167542196,-3.6058090431627026,-3.7653516372946774,-1.7245737668096044,0.006038207466570689,1.1957790536808748,3.693551081083869,3.506338526219955
-99.0,-0.31959291138202106,4.646250092063683,4.965843003445709,-2.1591008067185147,-2.6154604849991583,4.776646258474392,0.802205700308489,-2.453315127842928,-0.25331026525502837,1.4915404827016634,3.841606220440555,1.5312977187964587
-98.0,-5.4535723734492185,-2.403657122492528,3.0499152509566776,3.9340951929859838,-4.214424243178732,0.28566891622135926,2.4034222655380364,-0.991388631255044,-2.056933891703296,-2.612086896960921,-4.182901947430112,-1.35923195065155
-97.0,-5.2488697615594955,-2.1402016402645323,3.1086681212949063,3.6993723928454396,-4.206366580151646,0.5136020195585428,2.7801686258347416,-3.250924654098061,-0.9195399960378636,-3.7282697037048473,-3.4378537100423348,-1.369657946943919
-96.0,-1.9414828156913075,-1.5698575687054461,0.37162524698578325,1.7582471048081616,-1.1700042011314187,-0.5814047220867385,2.188646472082924,-0.2333819692171164,1.3693794237965518,2.7048128340763657,-0.7660717939295192,-1.7948497902717928
-95.0,2.277295610271531,2.3109181045749123,0.03362249430332409,-2.2952100212904156,1.118954996368205,1.1825958197644377,-2.521248510700777,0.9352221878872486,-1.6250687386896732,1.8773572716819107,1.7917462364993242,0.3663275849358897
-94.0,4.312125360650121,1.7516274087248322,-2.5604979519252815,-3.0378627294987246,3.4373555182163282,-0.39487615902638307,-4.015113862395588,1.940475612911686,0.4246540187753316,-0.6016846704743546,2.139250629133406,6.533733456343588
-93.0,3.0648997207653386,-0.1756321466221864,-3.240531867387432,-1.4563185738079492,3.1497868334724637,-1.69282635966037,-0.6347959708650242,1.3122140225129613,-1.0589130049547828,-2.4114093393179146,-3.6359853067072017,-1.5548548833300861
-92.0,-3.1868710893266003,-3.132578757259993,0.05429233206673456,3.1421307122935898,-1.6344333629317158,-1.5142122353077037,3.018466841733462,2.0046660192024106,0.6630558143268609,0.12416373952717241,1.5210293437484679,-1.1610320323429784
-91.0,-0.3075369420655493,-0.3937782166597875,-0.08624127459413405,0.40637131271535354,-0.1395166967488882,-0.2838754703039098,1.604175369773761,-0.6412643468426178,0.5870304016485103,2.6786100745346406,1.7156103580636706,-3.1257729094133637
-90.0,-2.0899722146027266,4.280685982324467,6.370658196927185,-1.122894852731803,-4.195701862713704,5.2886907826230605,-0.8991499085664008,-1.5534271176092174,3.1280181730733028,2.6571217622104846,1.1524010812449226,-0.7719283246792532
-89.0,1.425896020866111,2.287140147367357,0.8612441265011435,-1.8876114611980206,0.30498643341681686,1.5393537521766374,-3.0332702942718583,-0.48905530790976437,1.7626328499633421,0.007719801766263412,0.36360616288192266,0.33944562394310457
-88.0,-0.6075428904147813,-6.622751448671581,-6.015208558256914,3.6596339541017056,2.719997830046512,-6.277211064810191,1.051375564882104,-0.8218385176387819,-0.9230531541306715,-1.589255292486545,-2.6359440036150454,-2.3849885351209377
-87.0,-1.2685998231840048,-2.093247964907912,-0.824648141723918,1.7216408617975274,-0.20666170886107182,-1.4215737995902484,3.0011215861904272,-0.6332618834831703,-4.138478890757327,-3.4141987835037497,-0.3036238716542057,3.1012162001764167
-86.0,3.003926664100554,-1.1824522194669431,-4.186378883567445,-0.9541357852480998,3.535042723151947,-2.651192268353907,0.5779888390072102,-0.5496213591181086,-1.4963371196512383,-1.3578315126821605,-1.1797753358749392,3.7919981470502355
-85.0,-0.36599794210343684,5.022882136527333,5.388880078630802,-2.3792036272559614,-2.8535004967435325,5.158403464213654,-0.42995891262024555,1.1223348544025482,1.4569270495956363,0.8901649362444896,0.05191405881583261,2.3080206814895843
-84.0,1.0239046662123648,6.120921059692289,5.097016393479886,-3.553094166854062,-2.0860135987684716,5.562674078531644,-4.1251736314615,1.564536447620939,-0.9227432740178207,-2.231830057659166,0.46882934684640154,-0.2843897010519386
-83.0,2.235323391247354,1.2060982355204342,-1.029225155727019,-1.7095657169672447,1.665978324482806,0.12508336149698618,0.10444495060578185,-0.16467586415972768,-2.7926397367363527,2.808467903112132,-0.315990858254667,-4.850347005899201
-82.0,-3.8073478322020797,-3.6892565535059747,0.11809127869602232,3.754102223882505,-1.9255677045116584,-1.7427890069860166,0.7314945165285854,-0.19072268440696477,3.4342168479261077,5.318947443616703,1.7853913902897105,-4.736449003108744
-81.0,-0.7137721090542348,0.8669032139921682,1.5806753230464117,-0.07134911629858598,-1.185767963052622,1.1941469884321914,-0.6785542509534523,0.39210168707272547,5.524469889527166,1.6106190526969977,2.6513461416705786,1.1403484117755593
-80.0,-5.910574751419092,-6.191036861191142,-0.280462109771912,6.060902090996809,-2.8503231769176844,-3.2610830936572253,3.050264921499592,-0.8462025393867292,2.518967225880176,-1.5495036639226987,0.7901674674092581,5.995414517314148
-79.0,2.7199114532555155,-8.191603649122902,-10.911515102378209,2.755377877794102,6.862861696106494,-9.49783809972994,1.1635329327659645,-0.8709899375582854,-3.762298245149485,-4.326359014505904,-4.037713487372271,-0.9013157092544053
-78.0,5.923935652841696,2.975292499799221,-2.948643153042225,-4.497153561216973,4.486888762365295,-0.016586500713601904,-1.030990717921115,-0.13162211455450867,-7.827064022821879,-4.851483543850027,-1.912837640720232,-1.2051323924929649
-77.0,1.0371142774413595,3.9691573027528806,2.9320430253116805,-2.4610334844204846,-0.9736920532528917,3.4107539019781132,0.2349198788464495,2.025282790779125,0.7300646190691316,-0.3706781190826858,-1.017466664007675,0.005063210047933232
-76.0,-1.760408275587844,6.742005539964966,8.5024138155528,-2.5201896755584756,-5.15871901119312,7.647740106355067,1.299904930879019,-0.037818665580557576,2.6687190317934673,5.691865639968537,3.1278064012178484,0.024930181957620288
-75.0,-2.000909367136817,2.592546077160247,4.593455444296891,-0.3234585845288913,-3.329341862078636,3.6045134506257233,-2.6662593508957135,-2.6527603400135398,2.5009752964376144,4.150568023704428,1.2081064070225005,-1.496930045949354
-74.0,2.942204190810787,1.813637531200528,-1.1285666596105113,-2.3310177846186733,2.073998149616082,0.3426526595254682,-4.651634853655432,1.1728091350305732,-0.543695001994587,-1.4265723393426344,0.8095216548699589,-0.5349450808537151
-73.0,-0.29562504873308637,-4.722616397758286,-4.426991349025403,2.4680598597949626,2.016580481835376,-4.580597591829963,0.8416234874131294,0.6526494890623419,1.59648330019947,0.06502442435036423,0.5843282251990879,3.569036062117289
-72.0,-1.0838620087853768,-5.526904195716095,-4.443042186930788,3.3307970558972846,1.7022494338965362,-4.989513742830056,3.5687079296148783,2.1884288696386602,0.11892611579075141,-1.5092067660658752,-3.11349097757276,-0.2607875276904703
-71.0,-4.054838985345221,-1.632333944546164,2.422505040799036,2.856012891917948,-3.218390778741318,0.39895745996372156,0.8912493182150507,-2.5972255752968376,-2.434264888642378,-7.053662893908145,-2.6551791061813823,1.0815131522802781
-70.0,-1.3261735210771408,-0.26494680418152505,1.0612267168956668,0.796496968294685,-1.170036951254632,0.41576997480341116,0.9566138171392702,-1.726818665679101,-2.854722897513704,0.13704219863986378,0.3899438207091104,-3.1161441583995595
-69.0,2.9028854484637865,1.43553760728115,-1.467347841182537,-2.176516292770019,2.216993792065428,0.01754534956134237,1.5138883342254372,1.0741598593091362,-1.5102535286415757,3.9294781273109023,2.4545516725661223,-0.8650284216892643
-68.0,3.117216285657875,5.331777617965276,2.2145613323075635,-4.235586198568326,0.41479260567334,3.7418361117571677,-1.4235364718070866,1.495312352790867,4.394411894846435,5.795336018396971,1.3582548503013792,-0.5841841515239189
-67.0,-0.7155064914191693,1.1620531558869418,1.8775596473063016,-0.23299632723334618,-1.32399524587988,1.497213441972325,-1.3822603285539654,1.8738445708141547,3.2721042810117487,-0.026708876585422203,0.9584068931485192,2.6182421060445575
-66.0,2.107922772646136,-0.7636581883253253,-2.8715809609713228,-0.6752099258047498,2.467386465422514,-1.8384160926276043,-2.7545735912641622,-1.732127561630368,1.3931244882839242,-0.5774787365022683,1.045113626070605,1.0954251446055083
-65.0,-2.2901081723613217,-2.6230586037620887,-0.33295043140071034,2.4647921845783243,-1.0009280542410437,-1.5034893541439036,-0.884104660057683,-1.751145568180555,-2.933579640678409,-3.641680777672917,0.5330964034370764,-0.6447760411423991
-64.0,-2.2549346787268396,0.21438571746310586,2.46932039618988,1.0427740884603611,-2.3102133429760072,1.3862324990908497,1.2496555435830392,-2.7331108568028544,-2.434380453843384,0.02503788713331101,-5.126851545388942,-2.1925433504002454
-63.0,1.6630486314862212,-0.877990496378854,-2.541039127865195,-0.35536221892166164,2.146567916714497,-1.6751498323537386,3.3801935432776204,1.7698603658385526,-2.9863236287824613,-4.136731291409257,-4.016485564650726,0.45757200748822235
-62.0,-1.6538419004318514,-1.4278124103310454,0.22602949010066523,1.5111576494217274,-0.9827045717384228,-0.5749913270321017,0.6436807156599247,2.2105395530910625,-0.09906019282563161,-0.7437685041549382,1.88143785582953,-1.5009149505503752
-61.0,1.9059244106892606,-1.0510116050172311,-2.956936015706594,-0.45064241955740497,2.459067124633038,-2.0621492867878732,1.183698687323869,2.2802723772784788,4.208604937302342,4.596766021531281,3.2455895605626113,0.3593191868914112
-60.0,1.3101139339290662,-1.6584712501912595,-2.968585184120367,0.15086887233611318,2.0809727386721697,-2.294650128566468,-1.5451892439089188,1.722820151105988,2.1141173466481504,2.326754409661822,3.4714473879077254,3.0015168091761857
-59.0,-0.06218077365157637,5.155295046849064,5.217475820500637,-2.575705198336356,-2.625042419059206,5.128242553756605,-0.9852319383468666,-2.9815216593567837,-0.2521032825243166,0.5441503419300395,2.3611561383545787,4.5266288096421805
-58.0,-2.8220638199938786,3.479199933195914,6.301263753189819,-0.28784786688721753,-4.550365556253805,4.915451587191394,-5.275823897211828,-2.5900486505181712,-2.382492804678294,-0.8888612893157304,-3.098463943192119,-1.1137069903726786
-57.0,-0.05056895720991461,0.42597761165393977,0.4765465688638879,-0.15552550615835065,-0.2534839120300951,0.4831425039953585,1.6789975638695829,1.0988570333219632,0.38365521731339447,0.08226158949781948,-3.379766922135104,-2.716185435774333
-56.0,3.016453411217549,1.1425359529473351,-1.873917458270205,-2.0527181775675447,2.456045988589816,-0.32636678418913845,0.31421319004890336,-1.0344313423382694,-0.7319006369530305,-1.4772611965224534,-2.5966435230139973,-4.735428838385749
-55.0,-3.1677107026672418,-5.987301126445887,-2.819590423778654,4.524599371398048,-0.1610722786597636,-4.436300688511698,3.966158898233784,-0.9984567601713243,-0.17213907626860347,0.2913866698134919,2.851145130258528,-3.2329889393675084
-54.0,-2.1293524998441185,-2.98497097343748,-0.8556184735933603,2.5862703380030427,-0.700008920912089,-1.9490739864378654,2.0584363477232834,0.09994921443746485,2.9382543728037964,0.4306363649045625,1.620196326029019,0.5590059165616408
-53.0,1.9134341703925182,-2.1245317633668357,-4.037965933759332,0.06199025045611384,2.993747708535082,-3.1094147621948505,1.4675020097419416,0.9052013642821056,-1.6432777650213626,-2.591497447774017,-0.17877180690178784,4.322509908209096
-52.0,3.640096195013234,3.560818399905496,-0.07927779510771593,-3.5581259168104205,1.8797197404713413,1.7885933180998812,-4.156543533717311,1.0781844456855336,-3.7754912572391373,-2.6462323602047033,-1.9046176978732476,2.5019921600594928
-51.0,2.2274268779418973,2.386941402394685,0.15951452445280534,-2.336931612793279,1.055627100550947,1.237192898565592,-2.4705798321585286,3.8460544483879757,1.3722168365905394,0.242537458515101,-0.6062953641859066,2.27646427084974
-50.0,-2.2787139876642826,0.3908079396359274,2.6695219273002193,0.9194388874628749,-2.5295982091528586,1.5668425849715417,-1.3828388838792274,-0.7518652452161103,1.301439235740588,1.2855510386018392,0.5416993890861815,0.4257754453024686
-49.0,-2.9075570089368417,-1.198911152088269,1.7086458568485834,2.110859745652683,-2.282965509570248,0.2857521356210513,1.0939900570436598,-1.9721637983580658,3.1345908457994924,4.576329792780619,2.4112374826821985,-0.5815141273374547
-48.0,0.18176486495913013,4.964599395958123,4.782834530999066,-2.592814064962645,-2.273116878092548,4.820868107570405,1.5514505182676361,-2.286265826230891,-1.8700816483183356,3.8784978748025516,2.3414073652279925,-1.2404261808646546
-47.0,-0.180559134452553,-1.524313375824758,-1.343754241372113,0.8324509877466275,0.5328507073691557,-1.4122917310088976,0.7207703851335165,-0.7166814535713719,-0.5222211451810597,0.24420936430118134,1.4374141718732,-6.182596347677022
-46.0,0.960110952312335,-3.548729231329817,-4.5088401836420795,1.3509266545548988,2.766981498082375,-4.01053192069545,1.9730286509060702,2.225160303928731,2.500223873322523,-1.4659086062272548,-2.2258282928452746,2.360986231219032
-45.0,-1.1861447288240385,-2.5900049705540447,-1.4038602417299861,1.862154032259528,0.14325417071737667,-2.0601395721168925,0.40432876481472046,0.024239907294097973,-2.3535694082663907,-5.233240770543248,-3.6581017636075206,4.079497098469868
-44.0,1.1908551269047718,0.10294230379505342,-1.0879128231097908,-0.6777722250622926,1.0959053546245283,-0.4782793611037921,-1.2491734376597534,0.9595444561349487,-1.0745347419513305,-2.9650174386420636,-3.710313316705767,-3.1370713636016414
-43.0,1.2085559841944704,4.331136631827532,3.122580647632865,-2.8059050803303363,-1.0005918765735669,3.7420239776150996,-2.9567469150195085,-2.6288842926244804,-3.9221042779972386,-2.8165509769550487,0.5947037856350754,-0.4034859047969048
-42.0,-1.3413144770267307,-1.3685902030674348,-0.027275726040905335,1.3934167794649959,-0.6222848157984183,-0.6787242287043048,-1.8257128140008605,0.2734453113865314,3.238995351959293,2.0051897454368612,1.8134579760287752,-1.1880389058094922
-41.0,-1.4600499637189213,-0.7193919186351916,0.7406580450836205,1.1258208350680687,-1.0653213911102661,0.037115443324616026,2.408696144971912,1.66342371430679,2.335247411479405,2.8422413514003075,2.8428308499121915,-0.6110732411060643
-40.0,1.8794215136750823,1.7411073413675031,-0.13831417230749382,-1.7746206444651378,0.9672239010839161,0.7589186856983493,1.5332754538655529,-1.9132853984224307,0.4847677421627461,4.786881354993062,0.786433877509435,-1.0101754345605403
-39.0,0.025066790511201864,4.117232101036738,4.092165310525761,-2.1137403794725356,-1.9920602652212924,4.073128720021676,1.1747161927586491,1.7643991544998896,0.47841461162407695,2.8280776079221037,0.16144387440051444,4.393965143649704
-38.0,-1.284201788271963,-4.160524382634406,-2.8763225943621906,2.679840937298238,0.765250014137214,-3.4608888309958568,-0.6545043423351562,1.0247090264335432,1.2396785680786142,-1.5658929891545084,1.9550666002536459,6.4768285902746365
-37.0,2.1650583376558643,-2.920086942551058,-5.085145280206771,0.41229546268221595,3.6017935417609124,-4.015567474962539,-0.3204442375757386,0.15012327060072608,-3.709698985658879,-4.668973500256877,-1.0558291857072253,0.8405613483410368
-36.0,1.5805262056396805,-3.600813546283196,-5.181339751922878,0.9631093530842596,3.443348573270799,-4.398953919365069,0.6107355543923576,-0.42672224200648123,-2.8777213924480556,-3.2052146220274036,-2.2705098150883503,-3.361264174098159
-35.0,-4.316629866890904,1.728313659580016,6.044943526470766,1.3220964410580685,-5.192446979005158,3.8801843772590994,-1.097456567452687,-1.0572234829494047,1.8954276370689964,1.8504352671146653,0.1819571048492481,-8.338018317340621
-34.0,1.6375726632443153,3.2341584941036547,1.596585830859175,-2.41099395241134,0.009772184761137837,2.407005187458043,-2.265649125806966,-0.2746977674956884,1.0974615958623062,0.1503840447971448,-2.2073414551900785,-2.319603044401225
-33.0,0.45802168488242956,2.778751242434006,2.320729557551466,-1.5946297151470659,-0.9453631768875408,2.537004030248478,-0.842554997105794,-0.5604646056085304,-0.4603733307461535,-0.4665440794447673,0.299107038430363,2.8364154585097054
-32.0,-1.3669873594366102,1.0632716621824956,2.4302590216190683,0.09825429776064643,-1.9192608321558644,1.8071779717428824,2.6432385136385665,0.1788228104701361,2.7475361869918906,2.6631501026318296,0.916551052782716,2.69633722350673
-31.0,-0.05952879614394721,-2.1891415096490814,-2.1296127135051504,1.1531196016812357,1.0066341133737238,-2.1834068439536196,3.118526742772482,0.2285926631795076,0.7056426439686384,1.7823504725053598,0.24484514000013302,0.4482460083556221
-30.0,0.38458518988558144,2.809503950524282,2.4249187606386764,-1.642004424585401,-0.9759488422067537,2.588219986178959,-2.505327460482139,-1.606286271313302,-1.0923204808830898,1.080618286495898,0.05001449986843798,1.6899984127754168
-29.0,1.53397840817876,1.877251861219233,0.34327345304045176,-1.666669594517258,0.6373076186157945,1.1562752255657192,-1.697596846326565,0.3413785563462596,-1.0968444367132588,-0.08524961775475914,2.0791221879407713,3.1072970722644895
-28.0,-2.4574853486998482,-0.7229973739774163,1.7344879747224697,1.6332272171904751,-2.1305987438732954,0.470743609566864,-0.8405134249824152,2.412851402916828,0.9188179710526818,-1.8669321473263667,2.645503243883013,-0.18160793277627185
-27.0,0.7555002731435873,-3.2106831151664625,-3.9661833883099336,1.1937873064811202,2.4101726054597705,-3.6240771199006563,1.5273463764283703,-0.2883314858009033,-3.145081961359885,-4.428697068839996,-1.0960171700792607,-2.319321454053865
-26.0,1.1746997116462519,-8.610737827651175,-9.785437539297273,3.6838510134608846,5.455929588311594,-9.154029791699333,0.8527995117513282,-1.0296279113861326,-2.4406698329475427,-1.2810151177502163,-4.854127024836384,-3.196047346839605
-25.0,-1.2929664242421928,-3.0761723383349637,-1.7832059140926297,2.148490070139173,0.22318640739053852,-2.3834242957070533,2.5142972694757884,2.357609845390123,3.323644360397256,0.3192865646758591,-1.9562089480059979,-3.725310446498049
-24.0,2.8405090062797487,-3.6822683975753616,-6.5227774038550415,0.46173994660977513,4.6568508218268905,-5.132247880726943,3.0224890920195753,1.6099576852228044,0.9271998968058586,-0.07128418462535269,-1.8874690640992295,-4.39698858236797
-23.0,-1.0306217788940044,4.038104137203186,5.0687259160971445,-1.4627733682957786,-3.0822905605173605,4.5261555240182805,-2.0919201086975594,-0.8236099403748811,0.8126935653963223,-0.3535490579013696,-1.691308818677435,1.6847532684605038
-22.0,1.2270125033324648,6.655408314707305,5.428395811374736,-3.9759213528176156,-2.065181301937033,6.016242497987465,-4.681011097621911,1.854336831365566,-0.21399922948319117,5.029265226193242,3.646726534239422,2.429028277263509
-21.0,0.13526246374103967,12.17470985427629,12.039447390535164,-6.105277532802806,-5.926717358918482,12.160939972358882,-3.9618502583098305,-2.423387288236545,2.05426820852562,6.1023601597213135,8.152669181248138,11.137614205726
-20.0,-2.3381040292736546,7.441292683550489,9.779396712824122,-2.574112084058819,-6.039990833183571,8.586031594330654,-0.7849927538167427,-4.8735338139227995,-0.2927606677223116,1.5626223613364165,6.064658135806324,10.772501720521655
-19.0,-6.910681268324297,-0.10625308225629948,6.804428186068041,3.490894783878137,-6.840220644895586,3.3260490591910123,2.2604921959919637,-5.44713510647578,-1.3756824873692672,-4.184643399236843,-0.16821518139896469,0.33142073152450746
-18.0,1.7093883638758305,-9.100715707878116,-10.810104071753802,3.6793416333669633,6.202033470311497,-9.897027504065237,3.1150526968611825,-1.3706821485412286,-5.198905210310539,-5.838639406404922,-8.13470181915516,-13.360907507540064
-17.0,1.436268700847998,-9.429815829227906,-10.866084530075696,3.9770427890816165,6.179625243982144,-10.164103844002994,3.3993764963612056,2.985021379978473,0.4354725322510373,-5.715385565202924,-6.81972067260443,-9.774420243253113
-16.0,3.3103555303661105,-1.7088560689738284,-5.019211599339801,-0.7493008694636187,4.123574482360944,-3.374924526025641,1.0572409588808531,5.634516291119163,3.983302695164869,3.6723278210208825,0.5543487202361659,-2.0859837719978485
-15.0,6.590106033959382,0.6022355247804052,-5.9878705091790465,-3.6335245911752256,6.335372103831231,-2.6983283989764533,-2.547304434989549,8.357517361751452,4.6830555102117,10.121516194070917,6.606410253704151,2.1770588324034215
-14.0,2.341314332890927,-12.991703735120218,-15.333018068011418,5.356277595152116,8.81197757635865,-14.16337663082727,-0.276541575298747,5.395178292638258,0.4737038125564781,-0.0065372718788268,-2.182586377516439,-0.7628730154723007
-13.0,-6.384645969155601,2.557239563647159,8.941885532802415,1.936306451974071,-7.683726703363877,5.751422721861876,-1.021005155837159,-6.706070813562956,-4.35171454079776,-5.820038991143258,-3.599665236753,0.6003155425937257
-12.0,-2.9269361362135817,14.887675299679199,17.814611435892537,-6.041662269724641,-10.310436899897393,16.353965577608214,-2.9565152063897773,-7.240293775318055,-4.056972083613097,-4.359230688892522,-1.5276949303004241,5.416048722329908
-11.0,5.0079886731126395,9.387759137261419,4.379770464148702,-7.181535505640352,0.2952517303924047,6.885783941634379,-3.835128815795435,0.49310530162320365,1.8679500835318272,-0.6509491188528931,4.173546065809598,4.574625807547494
-10.0,3.714987385329665,-5.905750462155359,-9.620737847484982,1.1144772258725073,6.646584303922959,-7.763306142438973,2.0673043654289813,5.166745136791603,-2.9400896137429413,-3.9358617929297908,-5.761429678814194,-1.7074213524514326
-9.0,-11.131306190856586,-18.695862223919356,-7.5645560330626616,14.938392973585369,-1.8082450323585846,-13.132960063444802,11.865366246340766,3.442457519537672,2.1876899244887067,-5.044403252192241,-7.215855473666817,-7.184437240503282
-8.0,-8.954506655781557,5.339421854109817,14.29392850989161,1.760802813530776,-11.574093573686083,9.811296593105885,4.391782668291853,-8.955948602403543,2.9121504419620416,11.44227590367111,9.77225729623162,4.798639141292739
-7.0,-11.223278226773301,11.70118949037883,22.92446771715247,-0.19985989286089456,-17.105438731167585,17.30533316956239,-2.8912661965309585,-15.905137469153924,-4.2289547885566945,6.072814213285973,12.125999591169867,8.793252757268277
-6.0,8.688540862916199,11.21847732796066,2.5299364650445924,-9.987440705762024,3.125027753756541,6.865099202759556,-10.583222661241718,-5.576677483993951,-0.5595660983366635,5.549834462511893,8.407105898712842,9.587255117408969
-5.0,24.628315998720463,1.414096342085241,-23.21421965663544,-13.051302383911647,23.888423994225544,-10.832147932331305,-8.832135944622456,16.00389626713412,8.598095951041751,7.1290054842097454,1.8154400952892968,-7.275290469847599
-4.0,17.5362882768229,-0.5666508355881925,-18.10293911241171,-8.43398085228074,17.788233296509247,-9.34861681618667,-3.178721765151488,22.675927025101853,10.929131922465524,-0.5914425732807906,-7.667436940135094,-13.956865442896044
-3.0,-9.146773560740842,-10.596178462662525,-1.4494049019224189,9.844787197453753,-3.7993248896695846,-6.042035779326605,7.029705523032404,-0.5229740858032947,-6.250560981342442,-11.639902249650858,-13.914551839155216,-12.268881207541279
-2.0,-24.206214677544715,-24.368090414612187,-0.16187573706791425,24.340161862695634,-12.050055375266522,-12.292555461205584,13.426292718966534,-11.024446475507538,-15.69207334553549,-20.336670622174434,-16.444743362470433,-3.5728443652438093
-1.0,-9.08997910455472,-5.494080297472237,3.5958988070826834,7.267314973604705,-6.292141511518686,-0.9870557237707955,4.7444364323055375,-8.101300070136134,-10.400893804480717,-8.494327966241082,-0.00859758969040314,8.702390805214984
0.0,11.690644729455903,7.5398509557510245,-4.150793773703798,-9.638867229165205,7.890264724618461,1.724995471250839,-5.214410875569837,1.972759906546159,5.608829880660413,14.122474980847922,14.369894367952254,11.711943293408137
1.0,12.765547303924686,10.585353066215472,-2.180194237707739,-11.698082744373062,7.437243689149485,4.225471485778093,-7.833295411141853,8.280234415627897,8.17670330216734,5.991515151539932,-1.9865000795035819,1.0482408049588745
2.0,-3.039547587269409,11.919130684250936,14.958678271521473,-4.382956585345354,-8.963110333125524,13.458994458588489,-5.8319194021226215,-5.899192714063724,5.888630599149957,6.770747965827914,5.68123713696695,2.7106591310256025
3.0,-5.746664900131625,16.219471940390857,21.96613684052247,-5.257977766611348,-13.906548689900497,19.115312547477664,0.6067450704786008,-4.215957418949631,8.747971957981889,11.079116032926176,12.282242561331453,8.723486052195021
4.0,-17.203464110486255,0.33983771242767524,17.543301822912493,8.41008705513364,-17.35033689014463,8.891617638083064,9.515071488632085,-8.01999692562832,-2.8913882616457283,-2.1920839759365776,5.959757032071654,6.042060844155258
5.0,4.603139640602747,-4.301543686182875,-8.904683326787532,-0.09455908604949181,6.7749965291165495,-6.566707411711991,0.606909603161339,3.7256736326745696,-2.092596024929666,-0.8322744519295675,1.8904807332931641,-8.590481871170507
6.0,12.343898797201334,-3.998896570176229,-16.342795367378837,-4.196484713968893,14.366641842173822,-10.206956814590285,-3.1445519285337182,8.35631163714501,-2.9302046815481235,-0.40139060626618184,-2.3092300972430504,-12.317375156636627
7.0,15.116727026775004,0.9631132029755474,-14.153613823799526,-8.065835373026456,14.663918017808301,-6.628316851807211,-7.417597906049866,3.9278308536460567,-4.5014682482711255,-4.001897457276223,-8.864686730540482,-8.329757584840724
8.0,-6.942321435697815,-13.177522311121429,-6.235200875423197,10.032258867463971,-0.39689682497876433,-9.661211866299302,7.0230901101159855,1.1334108407204506,2.7267212577386064,-6.433340883371327,-17.077100628214648,-6.2230497007368415
9.0,-4.525088647914189,-26.297812065395348,-21.772723417480574,15.461908318494315,8.586197996056569,-24.072054902479977,2.3980505643971792,2.0647402192222746,-8.328094008198178,-9.496481163868925,-17.686066682834525,-8.586720050590257
10.0,-14.091067974165338,-16.904244271118042,-2.8131762969523137,15.470649544398297,-5.673100117067314,-9.82097633772122,5.138648468706144,-6.429981397318098,-6.8630734657480055,-12.157839539069709,-8.002713226007677,4.195959727341923
11.0,3.4945019230048837,-0.5055874261748432,-4.000089349179891,-1.439390767676902,3.7930765529471007,-2.2188558042542557,-1.2482937166967984,-0.7644911937697065,-3.558284565115636,-5.933594277567229,11.967472263337616,20.45893039797813
12.0,13.614745764188736,15.890782118685083,2.276036354496357,-14.771926356177143,5.7149417540193514,9.036265550428555,-4.379894937864893,2.7468991448158624,5.752520720023997,7.420341695775667,21.432526614512575,12.051891946063174
13.0,1.2374157415562541,12.264868821097636,11.027453079542186,-6.766209657768092,-4.928686322127121,11.676970905835056,0.7083017031514469,6.147363403197945,13.537561473206374,13.715622361140692,10.839873240180568,-1.001321524985869
14.0,-6.467226081655637,22.9617215600693,29.428947641726527,-8.260475199369893,-17.903182350559206,26.148001958113145,1.8716574296797766,-2.190701310915502,14.143119447059878,20.784653487800558,12.245957499566657,-2.275507515457606
15.0,-29.310492746210294,54.37629027941428,83.68678302562553,-12.547895931765938,-56.532214228870835,69.06481824031104,-4.071668016633209,-34.06477874097445,-5.518402339804455,9.663077782734788,10.408880180205067,16.74584513894668
16.0,-10.326439918443986,31.779722317008112,42.10616223545256,-10.668680556891466,-26.249225418825624,36.900697400401654,-5.53356478362469,-14.482087235496044,-1.6030682980344855,11.925461123447565,1.72010173302529,3.2724685938157068
17.0,34.44213153188008,-58.10226468850431,-92.54439622038464,11.800117312173299,63.46148541428765,-75.28198956020833,-2.8256326803725385,36.95966531312842,4.949519348824197,-3.306048204337632,-28.585597951546344,-40.704544687858885
18.0,44.23623169400135,-76.03008354612085,-120.26631524012261,15.85600042330935,82.3001795394775,-98.1791034137259,-3.0848235013908365,33.76518550262684,-13.896673479065296,-34.66348089504769,-37.93033646077803,-33.81336502586902
19.0,4.134349381262648,-12.324061672470634,-16.4584110537337,4.121937396069576,10.348099229469938,-14.335727350655851,1.9338414061564642,-5.008085847320174,-25.034079785241055,-34.356828966055076,2.939144870095884,15.918819467686358
20.0,-37.87481481472727,17.312275145160488,55.18708995988737,10.299816243489374,-46.55484602957743,36.23404723636993,14.692798618154313,-19.53905922958753,-2.977200362481769,-7.660555599744107,14.609070081530387,31.415063809469274
21.0,-30.985160161817987,21.350606575939544,52.335766737757,4.830802616834203,-41.68214629043359,36.83344592398979,7.862970473516693,-15.067734235100078,16.056179964984906,19.984551579216443,12.901264300595983,16.696981326608743
22.0,14.232435838708057,27.495379176002032,13.262943337293422,-20.851610600491,0.462853259994624,20.37212200296961,-13.651085769162174,7.101329639552093,28.11415467223984,48.9395376488397,23.651888601175585,-2.062242396401844
23.0,14.911327921638936,16.97120033132672,2.059872409687756,-16.005849602902366,6.478911417818509,9.50737050551735,-8.495249136425421,4.680650713596384,15.030644400886692,23.82633015120441,9.090922736264801,-5.017888408144836
24.0,1.5678667961567179,-14.10009958475267,-15.667966380908938,6.283966399219832,8.585188543119722,-14.896557023692814,2.9538982776142113,4.192728993643657,-10.760388160053665,-16.099370990586618,-11.58742317696388,-7.546363808981863
25.0,-11.653507763372481,-22.596836858394568,-10.94332909502134,17.147126115498132,-0.3972788293181564,-16.78851302223224,11.206924108254679,-1.8655201354963236,-17.41411820655934,-33.035266442743406,-21.370466349923145,-5.0080722153411275
26.0,-3.0158726625963057,-27.98760450168637,-24.971731839089333,15.52704580421582,11.004871534187647,-26.42469825172174,6.8525302731368125,0.44242924888488244,-17.489458650757424,-26.98915898955572,-19.56728843541639,-17.21142662335244
27.0,-3.1064161915626975,6.3224355471886815,9.428851738751568,-1.65954312502958,-6.248047713216474,7.848671752954099,-0.7104245632277735,-3.104983050758757,0.9930190672274444,3.475872934086592,5.90354547358814,-0.7126206761699816
28.0,-1.7233241665960604,21.97427267624046,23.697596842836447,-10.097828638415798,-12.694130230407485,22.887031629927915,-5.863566405935269,-12.756855128996431,-2.6211113913213975,3.881249596590008,-1.7125292994835082,7.903363273632926
29.0,-3.095109858084969,22.343125041781473,25.43823489986625,-9.675497193539499,-14.248895747443896,23.863759094910098,-3.8482698167810803,-9.232757453046213,1.2896686236141361,5.054978398460179,7.970805587740385,17.62567333396321
30.0,12.379855783402572,12.093428959427257,-0.28642682397538444,-12.209444920910265,6.277555499392131,5.876647221064966,-5.384858099393856,5.147643683760623,8.935432480115104,14.077213495617366,12.605778850682423,12.541487905912145
31.0,23.770971818150663,-5.779364543682356,-29.55033636183286,-8.96724374765554,26.691417418792465,-17.61567093942672,-9.844657171298886,19.396563604662965,10.057090057238888,17.282697223590702,17.02499863817684,-0.5067668380512824
32.0,12.259347490293216,-16.41851178258579,-28.677859272878898,2.111464260175637,20.4283705317176,-22.58438329726699,-2.3366550152020196,12.445293197540979,7.9045361881450695,4.809866844315904,3.677049164305555,-8.836168385038757
33.0,-13.292973990193529,-21.636591096336975,-8.343617106143334,17.422928672276157,-2.4300720443466446,-15.036262101588042,7.478600207783259,0.7141130763682089,-0.21500049191459425,-5.515349995305312,-14.859650956134372,-18.662731454783035
34.0,-21.63331002154839,-11.618458051112666,10.014851970435732,16.589876495946488,-15.855050017075222,-0.780143940762791,10.361969782278965,-6.238856500148865,-7.041812543423601,-12.67660942207199,-12.105094714096387,-7.023373281837316
35.0,-15.176078902488808,5.27316500741167,20.44924390990039,4.999899609982595,-17.76517180939287,12.874420769568012,6.828632234415795,-13.021697039726941,-8.615467472056093,-11.573480820478355,-9.809042409416048,2.700355887050894
36.0,-7.5539117981110095,22.820502064348766,30.374413862459658,-7.658746046112806,-18.99900995367166,26.608043858594925,4.59066274119077,-5.444901227523516,0.04915503414760636,-1.6202777837395317,1.0791335056546192,8.613789437348705
37.0,10.669608137239653,14.851106832818049,4.181498695578339,-12.782087774931108,3.2031581343231785,9.531944510696968,-5.006963220768572,-0.9265285875500879,3.1605295361381844,7.765718380884628,11.063517249440999,6.741354008383292
38.0,17.926630344616335,1.5243735751358347,-16.402256769480488,-9.665908755453518,17.195062664147358,-7.410941424998384,-6.669406995925885,4.625365639708966,-0.7663099586821557,6.31784294716849,8.748797178655504,2.9321903735740085
39.0,5.500196551945567,-12.085426647348267,-17.585623199293714,3.2749396513118327,11.56642083241994,-14.86922903656314,-2.0205818629460914,4.882471768327729,1.6625766905060675,-1.5765995105785109,0.028393631706110867,0.9596355743292722
40.0,0.16305766114027076,-11.96297486853652,-12.126032529676621,5.882661327314988,6.1619650988127574,-12.060503579899994,-2.58663155302907,2.612639696428193,-2.761271592082826,-6.397811911788322,-8.115676989091146,-1.222495847540403
41.0,-1.9927173823248725,-2.4343669717348693,-0.44164958940984356,2.1954675257383602,-0.7629113595862504,-1.4398533894593868,-3.133048145521278,0.1480335743857104,-1.2748566232381822,2.762921317931136,-0.3765122755100072,-2.17728229302493
42.0,-3.043242550040655,1.7531643754007362,4.796406925441438,0.7038188821739713,-3.9895639715302207,3.280319497185121,-5.236102204347457,-3.971232224926863,-1.1149837301291914,2.7826761304606293,0.6503630345966613,-1.822868172867934
43.0,-4.9336493317459444,5.949347559649533,10.882996891395406,-0.5305610506937526,-7.9017500299163155,8.42080561644061,3.570365861476291,-5.855133139640833,3.1803192446159128,-2.0623572354537316,1.1710823253988025,0.5531429169646267
44.0,-5.27767197437457,5.878766833862343,11.156438808236745,-0.32623373905219694,-8.211336397321887,8.513499547405921,9.333697383669048,-0.16816012696519378,2.7464026815463853,0.5436802053077171,-2.677737377250275,-3.3000093165926456
45.0,-0.5123388676061049,-4.7170476741167535,-4.204708806510801,2.586752222536985,1.8533464433214943,-4.479388280431169,5.846135220718915,7.463964719259438,0.4800778927268414,0.2886209404926781,0.3414970422372875,-4.774850162088423
46.0,1.7609090635522522,-4.870357266992357,-6.631266330544653,1.6050589585560768,4.20751381954136,-5.7073169375486135,3.7685167733882827,7.608820861011404,1.3154382463637972,1.1799157837935594,1.0537153210478998,-4.475431920709596
47.0,5.513572096901402,-1.2443684178121417,-6.757940514713473,-2.1610154681463922,6.1540984342094704,-4.051767898601372,-4.695384166754826,-0.5183576926457385,-2.88797560700465,-1.146588181760191,0.3286293844129027,4.173041742277879
48.0,0.7229467126481417,5.410227577650289,4.687280865002231,-3.0099463419582513,-1.9552758341870344,5.0661823832934685,-6.988287207126052,-5.898543196413953,-1.1004870897108066,-0.6428467789761851,3.7969002009864288,9.912929579826667
49.0,1.2893069675672317,5.818957948012737,4.529650980445598,-3.570853159261665,-1.663352837312806,5.187691121338112,-6.541746845967514,-5.4305555021893035,0.3519760143973074,2.385490148536374,-0.8734905735545793,7.487377934099249
50.0,0.9983518763929797,1.3996127442507602,0.40126086785784154,-1.2111347745003531,0.2628685611240593,0.9166974076744747,0.839020094166365,-3.1763272817908317,1.4307974360961158,2.0289152320988855,-1.5970762084645957,-0.0734225145934495
51.0,-2.0304499263322415,-2.204238162448383,-0.17378823611612415,2.107148290204177,-0.9582202029215157,-1.1645352529983013,2.3755465739123887,1.2937908796092468,-1.8682611067341757,-5.057192067506098,-4.973390147391706,-8.496138078681108
52.0,-1.1138748708929913,-4.137258787665756,-3.0233839167728034,2.613890283019355,1.0079197349585538,-3.6238989734942324,4.94996142061221,2.6375181390101883,-1.202001451951752,-1.0986148282711528,2.1962832017049436,-6.32115196740312
53.0,-5.407783869952169,-2.8199849219354713,2.5877989480166232,4.097881025010286,-3.941336207938203,-0.14969995681210202,4.378261594390141,2.956934725131403,0.9994913723461223,-0.0407622532719204,2.6861185028203995,1.66241234710417
54.0,0.7001714708046016,-8.484726038597383,-9.184897509402074,3.8708832935512403,4.92257856729335,-8.782951313795673,-2.4720665097973438,4.023960412615008,0.011408358838902899,2.230588683992695,0.4881751702251793,-1.3891085983737932
55.0,4.566052534611354,0.9540012826836661,-3.6120512519277503,-2.7070066227181266,4.069943339425873,-1.353655158718146,-5.175429437904592,0.03992779277307479,-0.8633866839836108,-0.995553458002141,-3.3148200397410292,-1.612857311477892
56.0,4.492979691236788,11.212517082092923,6.719537390856125,-7.8016335392762155,-1.1337850440127704,8.939437190098657,-0.5596301026672181,-3.3422908986463216,3.4681296497313356,1.7775062263611834,2.195396086284714,4.2086045830636065
57.0,-1.4873965823864324,4.740338415095013,6.22773499748148,-1.6536651251015213,-3.8820396836100812,5.531341612106788,-0.8925348533845303,-3.2817771134552234,-0.9902270968107805,0.14108621587507142,1.8823849120590137,5.011174665587207
58.0,-4.610558344216284,1.1045164768876954,5.715074821104048,1.7271410563604102,-5.114568717247259,3.372359806608054,2.4914368184287667,-2.160102455862943,-1.868048383769247,-2.391227048506839,0.7579953716170189,1.4426017671187714
59.0,-4.292549408920678,-5.0014318458457545,-0.7088824369250308,4.621239440220595,-1.8291519331989703,-2.8194658702078024,6.26084289334316,3.9970776361254194,0.4861516112397679,1.3357990744631782,-0.8160348050695618,-1.7485937809691563
60.0,0.9534709031180575,-1.3093745063293913,-2.262845409447422,0.22830816269483645,1.6435821861084916,-1.7548862306459445,-0.7904657708469296,-0.13123047495675144,1.6742785444224841,3.375658528815519,-3.4076502564661992,-3.516773127561568
61.0,1.4238436892340505,-6.316532193762783,-7.740375882996833,2.412208280921408,4.61375140038081,-7.079253971746537,-1.2555793125643198,1.6899504713884836,-0.26144157520560013,-0.6941595601069287,-2.3021979854715946,-1.1723888171845092
62.0,5.030182206028471,0.7831528158442231,-4.247029390184271,-2.9485140949185187,4.590859518363804,-1.706390401507396,-3.59331544855416,1.9460941215596637,1.3580074321803441,-1.6162382315384884,0.9978320459684826,2.520744739778794
63.0,3.4428153575436724,0.9012102333550421,-2.541605124188672,-2.14262820864088,2.9473135532811225,-0.8750552961743814,-3.3616783034553053,-3.5323941264780747,-2.9678637023188497,-2.824747241119601,-0.061091280158084404,-3.7276255343143103
64.0,-0.394327888153321,0.4793566790446917,0.8736845671979647,-0.018188705982820963,-0.5940475819249944,0.6999367503842222,-0.28388963007614665,-0.7345368236224085,-0.2657579866153068,-2.901622452731864,1.1817544401645184,-4.323966231872076
65.0,-2.409217626200688,6.4530757106154795,8.86229333681614,-1.998860956814673,-5.587308813785789,7.682710204060856,0.3043168525329546,-0.908683862367192,-0.7262153783363026,2.2168150759749414,3.956364449182097,4.652012666017777
66.0,-3.821263858106068,5.034450584485116,8.855714442591191,-0.5812024693570604,-6.359489939620699,6.895923358039777,2.1049556547225223,-0.5585219125594019,-0.3863777093079122,5.155036676469112,4.524011402465922,5.180747765805661
67.0,-2.4286324027433994,-2.375242614923243,0.05338978782020831,2.3528152583524107,-1.2539600667545816,-1.1236529318176083,3.6239007884983154,3.236093670326732,2.905321454686479,2.5967462831966825,-3.497462702211764,3.2753192138672445
68.0,-3.9836605621010346,-9.925704735798387,-5.942044173697298,6.909384148191097,0.9710155312745763,-7.886834934196052,3.1799085865013668,0.464790810839965,1.3748820687497671,-4.624034573228832,-3.0187837670596664,-3.5525885183098027
69.0,4.408286676635287,-3.039665756516089,-7.447952433151325,-0.6494591793843267,5.9200998664364155,-5.265895236854997,0.5503842300249489,-0.6919694348260743,-2.277613341950894,-4.289694014298015,-3.2200525827098483,-3.427148034772462
70.0,4.856760073103493,3.446371932722507,-1.4103881403809453,-4.118768884109797,3.1208944434363617,1.0026021156012797,-5.669035718628345,-0.5130068063153372,-2.3287417894666005,1.868376319825109,-0.965347648880561,-1.4979758980097522
71.0,3.169414255109722,2.9368204376991396,-0.23259381741057594,-3.104470028209776,1.758585865621598,1.3382125484462235,-5.503245247343586,-0.33036217797415196,1.443887361581116,2.7627364499241502,0.19039961201636602,-0.7622728825994851
72.0,0.39789711814147477,1.5536423201519138,1.1557452020103969,-0.9561023595277895,-0.41053006719593177,1.3363199207444454,1.7312576204381886,0.17636072782219447,2.3475391550331945,1.430109103288859,1.1124780978746138,2.7335252848212193
73.0,-4.781291281194161,0.6960719872652326,5.4773632684593405,2.0537230222529477,-5.1710417848403125,3.0591152184402355,3.698775740916478,1.6002167882207108,2.7110674036690585,-0.3858881395289451,4.258737152923333,1.3257169691599966
74.0,-1.925798696032789,2.1776989272077727,4.1034976232405365,-0.12266387677731794,-2.9852873701272498,3.180530993719445,4.474660478547149,-2.873368569408049,-2.4291647901016438,-1.8763438819898655,0.7711988041819144,-0.9655233890269705
75.0,-1.7475337475297474,-1.3513170553324612,0.3962166921972936,1.5468575772145903,-1.0464114430673659,-0.4475419649291248,-3.541882484509764,1.0714444652716717,-1.4465873687807984,-1.2117605844169774,0.32378319024021396,2.2763659540716894
76.0,1.165117998020544,-2.5190635257682783,-3.684181523788796,0.6712962115800497,2.450135807386199,-3.0776500368709443,-1.5457909605804563,0.5470357314265958,-2.246336656882695,0.7383648152256668,0.9161784437050838,1.635171768377279
77.0,1.1225735099186096,-2.893600562018829,-4.016174071937394,0.879766853676808,2.5189341068334072,-3.510647256681114,-1.3424150004506592,-0.2763618305529798,-2.598512905580932,-0.0391667004610749,-1.8598590950828007,-3.02540126717152
78.0,3.335370833592469,-0.9403425545114688,-4.2757133881039,-1.2004182100653733,3.8375415415292005,-2.581316656539996,-0.13514666555698052,-0.9698846735580939,1.3312310267537746,-1.2667384761503069,-3.308939492628887,-4.386016622406858
79.0,-0.575748187870067,1.184301773445628,1.7600499613157061,-0.3019356200912122,-1.212092273723762,1.4271220847622728,3.568381438504619,0.8064713451597736,4.955545191006584,3.526165730744993,-4.302578077382471,-1.8358811602474006
80.0,-1.9359378839572243,3.3445837367753084,5.280521620732518,-0.6952188347941849,-3.573571933880453,4.354531557687543,0.9765883960571711,0.14850939189777973,0.8014399318882406,-2.46882500612437,1.194595037609279,-0.9273312467504488
81.0,-3.1016498417609597,0.9580311274829487,4.059680969243878,1.0880118010726652,-3.62736238349751,2.4796260903052576,-0.6667318783083745,0.16885548869572614,0.6192635399533901,0.6041941399160469,4.1380493641415725,7.710819599492309
82.0,0.4464229524561083,-1.3028269791940423,-1.7492499316501924,0.45061886482737556,1.1253651159935836,-1.4715167207817856,-2.2874357271827757,1.439836983634742,-3.066123747262889,0.3884019903415608,2.5855371425246245,2.179740268231526
83.0,3.3474717593937897,-0.1677850655560103,-3.5152568249498324,-1.641655379421423,3.453874518291953,-1.8645619403154925,0.3205325636001216,-1.7741073228426427,0.27417802778504474,0.6367810533322782,-0.5439642539924914,1.9402323687481033
84.0,1.16341113855275,-1.8410941758916421,-3.004505314444409,0.289884634356275,2.1024985164212016,-2.4489183472935476,-0.6097418577859767,-0.6994626682248142,0.21249378976433586,-1.6358174780726864,-2.3259230846306194,-2.2700194903323947
85.0,0.8950457037278227,0.6928057868510051,-0.20223991687682363,-0.7620207066911184,0.4867681422888468,0.21239991231870303,-0.380160088630122,3.250040809977185,-1.783490939079753,-0.39589218466149156,0.45094278369938956,-3.243421443708967
86.0,-1.3622885257123254,2.2097422294567632,3.5720307551690955,-0.3891380172554899,-2.448871324326683,2.9278020886758975,0.19540104103039824,-4.339326722094532,-0.962329187927123,1.946959298857639,3.1520052666857525,-1.3322054969936201
87.0,-2.543928438113465,1.0915275490751524,3.6354559871886294,0.7649129241156194,-3.0667162644811166,2.391202454645456,1.9754401260092054,0.6237398336321602,1.4158536532860029,1.031381227904809,-0.43478347737448403,-2.1934999677504425
88.0,0.5570832712110729,3.0898780028418362,2.5327947316307737,-1.8581697849287546,-1.0361580247177646,2.8313071327829578,-0.6205137133282281,1.0175955390386824,1.9678889925789065,0.35837449792287224,0.18282264079062804,1.5954819925444108
89.0,-0.11963795890715723,-1.4895385363222713,-1.3699005774151056,0.7751633462856038,0.6645503204829641,-1.4937255528942228,-2.676971101197265,-0.5857659617882774,-0.7889860660159654,-2.822122113126361,-2.5858349190118735,2.4989769824948933
90.0,-0.23073464305074554,-9.733951999649545,-9.503217356598805,5.035052810700558,4.684116451643805,-9.606270925283313,3.4443730711674223,1.1722424793441701,-0.3609243251933104,-0.7596813696871185,-5.771626517249608,-2.0749013010193003
91.0,0.2771683185731151,-4.291293232886769,-4.5684615514599205,1.9811217378491701,2.397558462408822,-4.4175291007455515,1.1449859140918348,2.2683011269554076,0.03907643465124597,-2.9005156531658702,-0.6905383305276012,-1.4200869443893276
92.0,2.178548539360313,6.1086101801047015,3.9300616407443028,-4.172979061003406,-0.9000499936616857,5.0334434603043405,-0.6330911695780067,-1.2614313358808673,-0.2419892287959194,2.983888248515096,5.077270233685198,2.796837173159611
93.0,-0.15725027136752412,3.943466104414676,4.100716375782084,-1.9283956119261125,-2.157363645249749,4.038754762189457,-2.8030784817099867,-2.2684612341635018,-1.5003269339870824,1.5800857520780829,3.4143196364447856,2.715322196088624
94.0,-2.734618126027023,3.587238575158542,6.321856701185459,-0.3890146244056365,-4.564239297954585,4.89498118700309,0.9378915366004472,0.7049894371912045,3.430742402893182,3.815380162087702,2.4821615628974674,0.6076109361696135
95.0,-0.6201241991855977,4.803450048777298,5.423574247962837,-2.058595594475277,-2.987222515533529,5.134744561079808,-0.7206801994234691,-0.15130023613399204,0.7116399508167813,-0.9027393598148794,-3.63837281748819,-1.3227016640794433
96.0,0.06290410953818931,-4.151622376618812,-4.2145264861570055,2.076348316581533,2.168035831421193,-4.160148205349954,1.9141053144139386,-1.735129024296179,-0.8133207341418649,-2.444013512893946,0.4858164078335654,-2.083412931869847
97.0,4.633415212839388,-7.669129943329205,-12.302545156168556,1.4727877694897495,8.496892235978336,-10.039782292415321,-2.200388310626865,2.557236539442341,-1.192304595265485,-2.1572767267287674,-1.6617677208061372,-0.9496841912727325
98.0,0.5514981789700828,0.8696504667692588,0.3181522877992222,-0.6741626527185909,0.1499518949926486,0.6213561510786771,0.3360991631577285,1.7008192823285708,-2.991274335557903,-1.2863504547861664,0.6445636000566977,-0.31746302630891443
99.0,-2.3857460592301525,-0.5822443606995158,1.8035016985306722,1.4432818569621482,-2.133154476052037,0.6416848840754954,1.3419022593674645,-1.6387438424152105,0.23496313784177802,0.1669229941734569,-1.4514058833614703,1.4620784996365648
100.0,2.201959209324621,1.2750396516319686,-0.9269195576926497,-1.780148056953327,1.5323068367440713,0.20919741979888817,0.31546960015977754,-1.5081787055402398,-1.7679009208306673,0.7259410061019045,-1.9978460494175934,-1.5703639616926008
101.0,-5.627552395392388,2.7588422705594833,8.386394665951862,1.4679238754020423,-7.035730820273329,5.5326226264933265,-0.7800986282078792,0.1565664586675698,4.263716668076987,3.017015383887454,2.4246127946290494,0.421484364724477
102.0,-2.6298018136790287,0.7447138188164912,3.374515632495506,0.9713792096914367,-3.031340566693402,2.0219505199887124,1.2296365404726644,0.6254292720479786,3.7977057186323417,2.332723920033388,-0.29034026649685885,1.3049598082586105
103.0,0.7367071133969079,-2.080641512125525,-2.8173486255224303,0.6183046833268746,1.8233340455547018,-2.4856819698871164,0.05256615389417152,-0.0007481968955466434,-1.3273403395226824,-2.552802042966901,-0.8756370873969093,-0.04093523916227171
104.0,4.13668616677114,0.1912950134462697,-3.9453911533248482,-2.1396637195233423,4.083051245109843,-1.8345244466706427,0.13813106040835924,3.2602562926150167,-0.6333274236799741,0.0799780767605709,3.164440941965667,-0.7879960137198637
105.0,4.758953872978643,1.2257012402815952,-3.5332526326970224,-2.9648760809654564,4.184278079175279,-1.1100716029868878,-3.2791437257305858,-2.393443777343359,-3.9197058207214965,-2.052422353742266,1.0288994773515263,-0.2355536697669076
106.0,-0.4391434939866259,-2.594310260355287,-2.15516676636864,1.5504708790721315,0.8145610725406458,-2.4070907601615756,-1.4788678040812053,-1.2143890808184383,-0.058157510071889185,-1.2197382447337262,0.9076048633815308,0.7652390473886803
107.0,-0.41521543374163616,1.23621335807186,1.6514287918135133,-0.4482357631387437,-1.07899733928866,1.494184721305506,1.420013122973149,-0.6947166573270849,2.4530871358592403,1.2314252846357387,-2.8649055636058343,1.3778622392087505
108.0,-3.65449182062351,3.4154640771864244,7.069955897809952,0.08716786048430492,-5.33116514501863,5.218348158385349,3.043362013365719,-1.0051385928260854,-0.8515320126420235,1.4974254464365677,-3.3907003165412943,1.2982313770942202
109.0,-2.1139612664697682,-2.7115161085743154,-0.5975548421045294,2.4602985603696244,-0.8076784869963025,-1.6763152770490732,2.216464988887264,2.1399947624809252,-0.019961814754138885,0.06440725445795625,0.47789222510070006,0.3843251348363352
110.0,-2.131391895699065,-0.9421190886146175,1.1892728070844663,1.5016395819551316,-1.632053521049778,0.10205711918862342,-1.0748082440102955,1.517305919606342,-0.6428591827247665,0.10166212241378436,2.790714302875042,-3.8757817829162953
111.0,-0.29680241012778485,-1.9385047670641633,-1.6417023569363691,1.074629820286574,0.7011534817661476,-1.8133423549425949,-1.0961966589257828,-0.7178610805934239,1.9347215815713883,-0.5894553833552778,0.9102781973584089,-1.7204011854454517
112.0,4.198892731937249,2.9450417274885456,-1.253851004448706,-3.5454193326869414,2.757025551060756,0.8989012484684105,-2.3637460982718466,-0.311732945237699,1.946406120466143,0.1874178741133663,0.060717468172993616,2.3833674498841315
113.0,5.201975441459758,1.018444934320729,-4.183530507139037,-3.090818323268291,4.647423017110067,-1.6087541817778002,-2.5642164934606786,-1.4643813539430235,-6.1043532364413,-2.3107510943548135,-2.2909156350171287,-0.6098296647917243
114.0,1.015747271820561,-3.6659647681456535,-4.681712039966216,1.3418939461465307,2.8844799257362466,-4.119238402285168,2.907747479695594,3.0454912854073664,3.2649353227871254,1.655901590184775,-0.8668350443935553,-1.5192576167252738
115.0,-4.79969497706971,-1.2311639987628,3.5685309783069186,3.0348547662362315,-4.226329511559822,1.1495824238826464,2.026447995167132,-0.6936245951030552,0.21075933272748387,0.868208750821948,1.1679799013468946,1.1444679720589772
116.0,-2.223664341126483,4.445432651261222,6.66909699238772,-1.0849548597851473,-4.489658554626354,5.54502033262014,-0.5306521366753469,-0.7356921632320712,1.159711857846647,1.5745287417343399,1.4541284402262518,3.59169166009583
117.0,-0.3171564186526732,5.466774592810882,5.7839310114635625,-2.6200105204573054,-3.017231682600635,5.619723761878896,0.18612116384478006,-2.0679838747937227,-0.15996023767396794,-0.8492754408281226,-0.824742059141391,0.1263248689139067
118.0,-0.5238382979287993,-2.670144589891988,-2.1463062919631843,1.5577388926442841,0.8427078518871218,-2.409636311042922,0.2445265508965872,-1.7014213860080223,-2.764120884542362,-2.027820103660163,0.8464850445152531,-0.8398266754249512
119.0,-4.087360859814739,-7.943103238821328,-3.85574237900659,5.978674870201894,-0.08448771943116629,-5.9005747126763755,-0.0810448398823328,3.1252768029755256,1.7809534381400125,-1.1555186671571542,-0.3337836072427961,-2.780752054062301
120.0,5.165848560545003,-2.3641117680512145,-7.529960328596217,-1.3591277067423495,6.302678036278147,-4.952450965719569,-0.8412100217398621,2.297352896529201,0.7227955860919837,0.1177729549489045,-0.06353598827665308,-3.4035490423651904
121.0,6.179382013263994,5.924488788805752,-0.25489322445823825,-6.0124490852014105,3.1762011826505043,2.821076168745908,-3.009042535641991,-1.559569956634859,-1.278867333597856,3.1794568983589806,-2.44597079895886,0.937829934240469
122.0,-1.0251040412352128,1.9050562302341338,2.9301602714693535,-0.40292234397656435,-1.9345193759658188,2.4715582421939355,0.5060190670481683,-0.20075335545708872,-1.8513291696120757,-0.5035588149236891,2.554350895563938,7.019454091142121
123.0,-3.7327857630163956,1.724168901844053,5.456954664860463,0.9611199104623713,-4.547041400606087,3.55360465737519,3.8886145432711334,0.3936194802365958,0.9467789446414709,-0.762710766867108,0.06451008370216665,2.663447422670792
124.0,-0.2589555406095201,-1.8552026146506124,-1.5962470740410772,1.0137442752425772,0.6401669668463881,-1.6953799416740338,0.9801644661572679,-0.8983354561145517,0.856313610539093,-1.6700596729057122,-1.4967963241676403,-3.9625908563515333
125.0,-2.2003849768090897,1.818683074878463,4.01906805168756,0.2273986931297779,-3.1392581734204765,2.8614000975927643,-1.199098172366495,-0.7825211196003187,3.6822700006628524,2.3983610518262344,2.4933187698288566,-4.601121060144239
126.0,-0.000819674203362375,-3.544259439057381,-3.543439764854025,1.732484747336368,1.737061494704081,-3.527902915300178,-1.4962720103154727,-0.03663505035250281,-1.2435722418139508,1.1033332170346148,-2.0969703635040164,-2.7911786349437104
127.0,2.2884840963624473,-3.9426237858932036,-6.231107882255668,0.8685204443903104,4.297065304301733,-5.071708275157384,-1.4371161637155234,0.10890015383988388,-3.726750299232456,-1.9058974209004447,-0.42950095084852496,2.082662781373686
128.0,0.07279954241548081,-1.2162216285593455,-1.2890211709748414,0.6158902795947496,0.7106030856408532,-1.2337973793497183,0.6410817045923275,1.731438188568724,0.23776263113446405,-0.13759287289946553,-0.36119293933203184,4.052561911488759
129.0,-0.6441113868622569,4.067772168180559,4.711883555042812,-1.744514473332047,-2.732543359782266,4.415670804215878,1.5757720908699837,0.5877892956186114,1.261098833623101,-0.7593905835471381,-0.17203534329368153,1.5212712009773162
130.0,-0.3147193627481102,6.377325802559327,6.692045165307436,-3.063610578887795,-3.48077611533172,6.490265891380063,0.46287934080945015,0.2829478588343348,1.7820089496535831,0.46294252735975616,2.910637887621363,1.3067313892639034
131.0,1.9965496020890587,3.1806175476192124,1.1840679455301362,-2.622106732194139,0.4316208834873687,2.1458029249306536,0.0615515380940721,-3.781791430440039,-2.67504099404176,-0.6880868180088806,-0.9953202111671822,-2.127058142341694
132.0,-0.6883851378691117,-5.974071785611878,-5.285686647742804,3.3743326108918645,2.330081056720662,-5.582024554188848,-1.8782329461793048,0.6548191854840186,-0.6723873004276708,0.4096522762497475,1.6710523478776333,-0.43026627250914506
133.0,-0.09556044014476675,-4.215244685103287,-4.11968424495856,2.196653440178043,1.9717186341611068,-4.195757914523311,-1.126315011447558,0.8298485582501665,2.2114223902780945,-0.6243581185543345,1.3693806911027393,-4.4744549928116
134.0,-0.38916028927394797,-0.820674968063654,-0.4315146787897124,0.5669245669324952,-0.01402243682758142,-0.5760518999156368,0.7266577901722122,1.4737959611830354,0.5414974841026073,3.7392583415517744,-0.8864271789030052,1.5750769251446588
135.0,-0.026160220139846313,-0.09674597325583911,-0.07058575311596937,0.0247927609506694,0.06695072102178638,-0.1151362918914951,2.8570361372122006,0.5401326043938941,1.9473293298518757,1.436776262260444,-5.552961323909199,1.217879008997563
136.0,-2.9202596659355837,-1.562169379264396,1.3580902866712385,2.28602741425164,-2.1766394139998266,-0.13755328701515812,1.4013393194983248,-0.563068997074935,-3.405852957709786,-2.4494222054082058,-5.5382093887100075,-1.0495430238799384
137.0,-0.18014592240112992,2.12152702942571,2.3016729518268972,-0.9230793624999307,-1.2066873888633958,2.250756593929844,-3.1501392684382985,-1.6870957919195608,-1.0395232893495285,-3.570213553845142,4.753160352519908,1.250504678689431
138.0,6.074628642173803,7.804169754932662,1.7295411127589104,-6.9694936569918875,2.119777909628131,4.803067731568626,-4.049906837550957,-0.3020510139128202,-0.011006147897395069,0.029643011776142814,4.04003218924211,1.9564325176002417
139.0,-0.4744586757777256,1.0845469680618924,1.5590056438396385,-0.3374898820216652,-0.9970938118104833,1.2783089413516053,5.269814787507448,0.16283536656487346,1.2625300653791947,0.8471081582981708,3.628674020056334,-0.673836450806386
140.0,-1.2194922863217315,-3.230305602327177,-2.010813316005461,2.186043661119004,0.41349218776985774,-2.6624832946191197,0.3371629631118567,0.385368815197655,0.47512289638085947,-0.801964808877668,-0.4866128049670069,-0.4059398607369643
141.0,-3.08559583333889,-3.7036962999302148,-0.6181004665913539,3.424818790163452,-1.211948574956593,-2.1200813796040734,-1.5956459684061368,2.1288797969003848,-0.2816078509329297,2.0106002679575576,1.4664915512733323,-1.7921146605110425
142.0,-0.6943391459165176,-1.867188645870113,-1.1728494999536039,1.299814873301343,0.2700976299082944,-1.4733375950489256,-0.6151358906679147,-1.392418771068402,-0.24942751662516693,0.02577865505118071,-5.457472688593086,-0.7877856316963467
143.0,1.2900270884879106,-2.718762201554009,-4.008789290041902,0.723186447092244,2.6132363208037686,-3.389219492290836,1.1391184342348049,-1.1106836752665858,-0.520624492826661,0.9412001210611828,-1.9994862422278517,3.3054328479455655
144.0,2.6331992808603717,3.5788491980811807,0.9456499172208508,-3.1047675798779504,0.8189188860679854,2.2427765753933864,-0.5116402943760526,2.392872730226755,0.6666957620391503,3.2441315493656573,-0.6726436999644556,0.4771215308670003
145.0,-1.4896360397831943,-0.27097626315035916,1.218659776632868,0.8773931508124297,-1.3707368404723974,0.45843058373880763,1.302145577319045,0.33441938613879024,3.213051524801848,-1.0516487763953213,2.0667313895865136,-1.265054859558062
146.0,-2.266701301789726,5.117993198113944,7.3846944999036745,-1.4297146989122151,-4.838346230495523,6.237419522781813,-0.056963746618703404,-3.604524935155018,-2.0432631128994387,-3.2839664198783565,0.6417338600829053,-0.05957056658484161
147.0,2.2526258778336627,0.10766591492708422,-2.1449599629065976,-1.1834750137348848,2.2647589647273834,-0.9548436223480667,-2.672114098233018,-0.4928119008761267,-1.9067719533566925,-3.0341718637897457,3.31879618053776,-0.5523227390286487
148.0,3.5421438805405656,-0.12540184037123325,-3.667545720911831,-1.710381296372674,3.5891821610460997,-1.9143106263723346,-0.9557262854074368,2.598183470605924,1.625747706810306,0.49326304586155456,-0.1171596077641266,2.43575651059252
149.0,0.5952210046393578,-0.3388983902379684,-0.9341193948773552,-0.12928387607591296,0.7451030658990938,-0.6581544789454083,0.9402176250465208,-0.09211950427857518,-1.6231601195273335,3.1526484552597456,-2.4655580016971173,-1.2072526189156005
150.0,-5.987382925161768,-7.789167957267715,-1.8017850321059694,6.8872217903801864,-2.1158240257321372,-4.820821453457546,4.360411576400924,2.873281237065017,1.84844587938381,0.6944770171211492,-2.2551175571978126,-3.6165726832751797
151.0,-3.838102311503679,-3.78984916541986,0.04825314608379261,3.8124737301062597,-1.889675878916191,-1.820085845803309,0.830638910736482,-2.2496430157275062,-1.9702626850739735,-3.1403318351290954,-2.3302071105768336,-5.13220904361415
152.0,6.650844720547148,11.575694092764621,4.924849372217454,-9.114923279085234,0.8366432044450365,8.221078860447653,-5.586457401243465,-2.7228760202090476,-3.0003863985099324,2.169389766043657,3.490198826693854,6.211975747517917
153.0,-2.6567257729878584,2.5450246961082237,5.201750469096083,0.05530797246333918,-3.877777340029266,3.9233141959613005,0.9463064543902999,-1.378305215363541,2.266034689795069,0.44117379860987815,2.6020929293424095,3.9427018721380507
154.0,1.5853290022389293,-6.168636148655821,-7.753965150894724,2.294168460957681,4.640287531542939,-6.9887547656349405,2.247264025237965,2.414838082235473,1.4952765618306052,0.22461349787657908,-1.046430641775609,1.073310277790461
155.0,2.1331027685741977,1.125941201758778,-1.0071615668153844,-1.6219762554338157,1.536640342865826,0.033550313750488,-2.984884744874641,1.355121230114277,2.76639891694267,-1.4553419128418736,-0.249476225579578,-1.5241882590483442
156.0,-1.0279112587140251,-1.4925287476047053,-0.4646174888906469,1.2739915180835029,-0.3212254350826167,-1.0031804712931036,1.93457484422488,1.725939456189271,1.1096410793874862,1.6977778677298632,0.6512976976796641,-2.378329315611568
157.0,-1.7247055879870687,1.0094250299276242,2.734130617914722,0.377440785510524,-2.197019091274075,1.9264451211796252,-0.6290247076734464,-0.8884736060420937,-2.25949886733751,-0.8533959206346885,0.16187138241980703,-1.2315043764923201
158.0,2.9780653448461885,3.0696465715758863,0.09158122672971492,-3.0784472925179327,1.4700520819457579,1.5562268539548074,1.1353068013511072,-0.7879696154487426,-1.7234932388501178,0.43912690460949355,0.21394579055518337,2.4992787819514213
159.0,-2.768274456913577,-3.1856828806321538,-0.4174084237185921,3.0029411170747373,-1.1515011802318624,-1.748440243224493,-0.6736589043013833,0.43375068607353207,-0.33853227601072033,0.9519303166998341,-1.5896357156951,-0.7067024000214516
160.0,-3.311656944007307,-2.7507867219411906,0.5608702220660738,2.9778611700504416,-1.9120446039431995,-1.12298706847858,-0.4414835651859339,-2.239230472964446,1.9678309699048926,-1.6505176232900198,-1.1611292990085147,1.2885682024725034
161.0,3.316703609720559,-0.6202542668559688,-3.9369578765765767,-1.324579734933964,3.5750522591656733,-2.3101651366376887,1.9164503056169857,-0.3157694935405704,-2.8451368023498764,-1.8401032200029293,-1.88872403792605,-1.1068314872745786
162.0,0.8243133409288359,1.7595162918044776,0.9352029508756241,-1.2695293909500258,-0.10333109300072563,1.3115130271904247,-0.7506813268659674,1.1508386651020424,-0.1898421281438727,1.3609911087578457,3.624255376615692,-1.3640597313003537
163.0,1.5683496403661676,4.347815731550582,2.7794660911844256,-2.9351941368134615,-0.5709232210550459,3.602282292628837,0.3590435825465501,2.3003204351333304,-0.7726986017512119,-0.6777893690174017,-1.9495583430504224,-3.2881755822537917
164.0,0.3979690604575403,1.5122576780623702,1.1142886176048619,-0.9296633996759132,-0.3206744123413945,1.348463702062706,-3.199488058607384,-3.2272460709114847,1.9868527756708891,-0.11141911065435828,2.5458021044938013,1.2941730301344228
165.0,-3.90463861313061,-1.8959524387371203,2.00868617439351,2.8508999086769364,-2.9963470626691855,0.0892070055289742,0.5368339227830359,0.31904851872305956,0.6389676357002316,1.78197292167745,0.7255348020176875,4.238782606614249
166.0,1.6579779390207166,-0.673785238700414,-2.3317631777211285,-0.537461122717809,2.034149994699665,-1.5503190272497105,1.7082945836918484,1.2847437327473645,1.4587949465836674,3.028626883700049,-2.04282593240393,1.2838657452475881
167.0,-0.23121766018518294,1.454438717228714,1.685656377413885,-0.5751255993810279,-0.9990368963612241,1.5208367898138042,-1.0240714509901334,-2.1246135552369116,0.5917296542148132,-3.8117311467611876,-2.4736395229566006,-0.3115664218907199
168.0,-0.9595059438130259,-5.943632468150293,-4.984126524337292,3.4897319812922207,2.0481228659578874,-5.4366062746484864,1.3429075794827228,3.930330229477888,-0.8280582501769397,-0.7809064412809985,1.5558937602046865,2.31993489348001
169.0,-0.022979405896045184,-3.049586495952366,-3.02660709005632,1.4960839053403503,1.4556308260451387,-3.013734090086317,0.21909561689088142,-1.980335990908381,-2.127165260044481,-0.09512381630593836,1.5491581619270558,-5.512902480856862
170.0,-1.4523762301816288,1.9201068556084377,3.372483085790072,-0.19558332483316815,-2.383539155365698,2.6675703889581297,0.2636042189523795,0.6248817706863015,0.47065611100391,1.4067885166091105,2.98174496156632,-4.947607012026166
171.0,5.182887713316321,6.1359647749490795,0.9530770616327802,-5.699832145703148,2.1402724700445,3.4845378602650743,-1.8666639924188173,-0.1558006412871793,0.555710156210733,2.4526288830290413,1.431653365500055,1.504468768621959
172.0,0.6245557266563935,-1.2614659990567856,-1.8860217257131784,0.2795857262157053,1.199104264340844,-1.5561036446826613,3.003913103858106,2.026148409519009,-0.4395851734841479,-1.5217888987436423,-3.748907609052843,3.307701507744556
173.0,-3.6102767904024144,1.6238289785649096,5.234105768967313,1.0370390292564977,-4.401273174711328,3.4475054482549585,-0.21586154487884784,-2.004539790564192,0.9692240341332482,-0.6847755648873592,-4.552275671623779,2.440201056365316
174.0,-0.8010157447000665,2.43100419708267,3.232019941782704,-0.764659571342823,-1.9958860941904257,2.853270214214721,-2.4544874003884667,-2.2218197570592553,-0.547479140799297,-0.8465497319299127,1.6361864283168068,4.965036884098739
175.0,0.30819687792148565,-3.8445923369989385,-4.152789214920492,1.7479624371673437,2.2521566446911137,-4.050295727444505,-1.9142118981913532,-1.496520637405197,-2.6303134366957477,-2.8126531842481786,-1.3111413799546097,-1.3310638077092518
176.0,1.999586162904703,-1.8276674924446077,-3.827253655349361,-0.09827479723072297,2.8584862949635546,-2.7933411819586027,0.5229832807153331,-0.35439704371195224,-0.5000753348599161,-1.6383103648241688,-0.4547823840879047,-5.718838183511836
177.0,-2.1013533258789323,-2.575335835174619,-0.47398250929567975,2.3314545505834636,-0.7867472255923991,-1.5616066747620885,2.5313594150281102,2.9210532335230113,2.542551534305697,2.5620617764351197,3.8522990127968737,-1.4426301827777546
178.0,-2.3184794424762134,0.7563040151088762,3.0747834575851836,0.775528625619385,-2.7443090385401194,1.9646878932114917,-0.038428900803613386,1.2859752255994037,0.03990715305330128,6.382719483275063,2.5265367612665495,-1.3210398943312096
179.0,2.4721090300587525,1.2553782450160726,-1.2167307850425457,-1.8722897953743227,1.8808033122457124,-0.004397482767382832,0.15149357568033117,4.185172089396605,1.1866653767341933,1.314275106594374,1.7461869187034038,-0.05537228408685835
180.0,4.342125968195451,3.5550617210918287,-0.7870642471035266,-3.9631126591686816,2.6074562453390855,1.3636623033628616,-0.49868624304085646,-2.796469113109819,2.6161346541745356,-0.08755363294916962,-0.04389984812166825,1.5991928001226254
181.0,0.8049521524061944,1.7198358896789046,0.9148837372727308,-1.2834785708576766,-0.08369148231608248,1.375905010210857,-0.9646984606616058,-0.3778101086439323,3.28016973938498,-3.5944911118905543,-3.053454272344176,2.1865298486379716
182.0,-4.1833149959562945,-1.718879771763635,2.464435224192599,3.004050676803571,-3.345760905834446,0.3492697562549739,0.7748338719212593,-2.6979056186633334,-4.836811965769067,-4.598832680432151,-5.529071046339453,4.257658529702864
183.0,-0.5960806198554132,-1.8699819377160076,-1.273901317860695,1.284542977071944,0.32223116480025493,-1.6015330566825243,1.7679422788217491,-1.7337088836544527,-6.746796197212372,-4.493463941336657,-1.9191416259645222,-2.444561306849103
184.0,-0.27017913122232995,-3.2307993989927084,-2.9606202677704734,1.7248656229343928,1.4096079326217326,-3.132598568686776,-0.9986268770759644,0.02891435540861942,-0.36505896358757317,2.1122001163730726,0.5800018625374231,-2.2717783697734095
185.0,-4.098733976298778,-0.7442664581293792,3.354467518169325,2.3989437245288636,-3.742394110672358,1.3406143482918245,-0.9507244755439969,3.30471668144999,2.428555969831291,3.9544910848805737,5.207380532060067,-1.3473348862916112
186.0,1.552296232992623,2.230635149865404,0.6783389168727288,-1.9115476263848454,0.4158724905846841,1.4866375744611189,-0.9410696918812149,-1.4416505914059958,0.7321571688341397,3.6053488012994293,5.456154214076328,0.8619817717131656
187.0,3.7776189079026388,6.134087380283609,2.356468472380987,-4.975470601073861,0.6811275434234931,4.278131540390137,-0.6192320341867019,1.3470842494706035,3.7998631399146165,4.1925795063845985,2.4291798863735425,-0.039520433807128885
188.0,2.833604881722464,-2.83317288490287,-5.666777766625261,-0.021612834221952593,4.290003155002449,-4.291408765959435,1.6849273336482637,-0.054222908487687405,1.2371144936985288,-2.1906521653650666,-4.293881152623957,2.575926630713001
189.0,0.213601738943904,-3.623397262816991,-3.836999001760764,1.7589550868521868,1.9782571311697634,-3.76489757733611,1.3893747879702611,1.445412844908062,0.5246408836182715,-4.191160760512587,-5.028912625782519,-2.120362892051851
190.0,-3.746932806932465,0.2709209489429705,4.017853755875611,1.788186309880773,-3.8549822674713257,2.195455298258708,1.8228610108798846,-1.169899112511729,-2.7581184741608507,-1.9082855335554831,-5.167072428941154,-0.6531422295263668
191.0,-1.1606093985250385,2.2537458142521487,3.414355212777334,-0.5791656575080193,-2.259135043170767,2.811946231577608,-2.4660558122339338,-1.5888927710113585,-1.6997029283784975,-1.8409138969209824,3.1372526911413856,1.1515918266128287
192.0,0.34671595612241224,-0.26378446539970285,-0.6105004215220733,-0.07851463330405317,0.5129362544889575,-0.45604349292224133,-3.484315396846966,0.3398875124872346,0.1675162824162031,1.1718753792686747,3.1675810074300514,-0.08011755718906693
193.0,1.9723500960827691,0.779640708867398,-1.1927093872155061,-1.3397859316471687,1.5473543251655393,-0.22460806308438713,-0.2630880107479512,0.21703027912493011,-0.9566021040981536,3.1710546902918546,1.113701186740796,-0.8487317116565586
194.0,-1.0163328126562288,-0.2751215746809012,0.7412112379750447,0.5962616566650956,-0.9041095442110062,0.2928690356783353,2.6870246494093597,-0.8170762632755452,1.4557632232541353,0.9424986081667188,3.275315149485566,2.137371293332213
195.0,-0.35916726379591973,-1.0151265511493213,-0.6559592873536412,0.7082785497901163,0.1309420529581136,-0.8560935617779846,0.5060332702583177,1.7002547884925432,-0.005288129368172911,0.13304844259101234,0.4124108268836182,1.4121366635823325
196.0,0.9432520296015467,0.6007512344903696,-0.34250079511125797,-0.7594424160755069,0.6297404796475018,0.10680386970632111,1.2979056493574683,-0.5361045516186047,-0.7445922180050091,-1.4946981000032884,-0.719008672980328,-3.1400536694135357
197.0,-3.668843140126418,-1.9031711159367282,1.7656720241897537,2.7906956387176303,-2.6513375116488684,-0.014142315481850284,1.2064963838621843,-0.43115378469174825,1.6103948964642176,-2.4259997417752404,-7.031716977362516,-5.413315967096208
198.0,2.7442970696528337,1.8496568271320695,-0.8946402425206317,-2.298389998594831,1.8033655382606153,0.45113880834239184,0.18689690159973482,1.0283808937984165,1.3438059424347566,0.39625562429666217,-2.6237314682565476,2.7539998515644366
199.0,1.8360802175231918,-1.2625251938509177,-3.098605411373957,-0.29176436580533627,2.4452522404733186,-2.2100165350131595,-3.9037938269845363,-1.288591639118708,-1.9708935037643918,1.6389204794756187,2.582854718590263,1.2155475915874225
