Time(ms),I,II,III,aVR,aVL,aVF,V1,V2,V3,V4,V5,V6
-200.0,-12.552376736424115,-19.734388329812013,-7.182011593388204,16.18230119653631,-2.70270294673994,-13.502118974453083,2.9029133504202,-4.363675933318655,-9.72150551003082,-9.229898595227947,-11.518368200534827,-12.18936407468186
-199.0,-4.430433004805898,2.83929501157922,7.269728016384814,0.8263593844398738,-5.795024278910592,5.0995570731572695,-0.8968528854304366,-1.3478888858917542,-1.7602995185713985,-0.27251139826717985,-2.0031371664357405,-2.4086030610954685
-198.0,9.195155073382388,16.791163685658844,7.596008612276325,-12.966972891781857,0.7707570834461617,12.166819197994759,-8.129293865855763,0.5131005460144786,3.1233368219981936,13.96106143771455,6.770484600879074,8.236250341954179
-197.0,-0.5668804003483849,5.6386333257046015,6.205513726053079,-2.5896833705914073,-3.3391708816462966,5.897314002072399,-3.7881011051602975,0.9609753338020917,1.959739292617392,2.508533777040646,5.819654436936623,1.3698818315461896
-196.0,-0.07179675021970633,8.66599211717137,8.73778886739128,-4.271298802138648,-4.436991590305704,8.674027191874497,-0.4648397950545067,-2.1119157773057284,-4.683943092029753,-8.917070600319144,-0.36208453762723813,2.4097373584595116
-195.0,-0.3648205062218566,2.6448012682323716,3.009621774454434,-1.1915946400356083,-1.718075496995621,2.871188622094592,3.5681034514739536,-0.6358764889750477,0.6198158187707381,-1.122732213210925,0.57493917431457,-2.007886959421953
-194.0,-0.42589676861394954,-7.262474607314279,-6.836577838700268,3.8719675669821076,3.2553660335258807,-7.014025083417204,1.676874461305352,-2.060472473053623,-3.2797176658608476,-2.537712196828413,-7.109360666695999,-6.250408260285992
-193.0,6.004489261826151,0.29382600431041883,-5.710663257515805,-3.1218310925264507,5.830770629369451,-2.7593525060460884,0.6258642279468392,-0.037784662599335536,0.8077913243577918,2.5994502417110725,2.260831597143847,6.161014343302698
-192.0,-3.754318868562427,-4.2423090830769725,-0.48799021451464064,3.9457846060047466,-1.658893063805877,-2.3424424321071236,-2.7633942873568964,-0.3497108778171787,1.7689701346358886,-0.15402032924243592,0.28009607262596925,-0.32292445545491844
-191.0,-6.1606974829787715,4.0718457494989275,10.232543232477635,1.0698507211164539,-8.143495255576564,7.17323185300775,0.0946449970653448,-0.15285242651801312,3.1336394432438492,6.535888668055077,4.936498647551861,5.086920299699408
-190.0,2.9126440557381494,-4.582950217248016,-7.4955942729861285,0.8611220852432901,5.177946827526208,-6.095300016876253,1.992581329651001,1.3931037428276234,2.7546079365651597,-0.07393965255678436,0.806075333556002,1.6341759809574143
-189.0,0.0011498411751409976,4.670156626222537,4.669006785047467,-2.3859101575520594,-2.360699596829453,4.696492147325487,0.1482805006404886,5.287373563146577,0.953562826230606,-2.4273171614960276,-0.9698814615763675,0.5930361996253322
-188.0,1.5909241102869145,-10.497000290283935,-12.087924400570756,4.485955795683725,6.8913951369251905,-11.26020222333278,1.37721331827909,3.3037190539994836,-3.317786298835396,-3.0147877370253813,-3.591392027096228,-6.31247940764002
-187.0,0.9269886121806333,-13.66309949194746,-14.590088104128032,6.406421606305546,7.732786743199396,-14.168076201835678,5.465560123646499,0.10767139120392755,-0.7704219771494278,-0.5850762988317666,-0.7511876593301716,-3.799107716520724
-186.0,8.020236033135921,10.988226206776545,2.9679901736406475,-9.53957015700151,2.5024976499812377,7.018757170050193,-4.4341841885404465,-4.164144904394314,0.9020557085381962,0.9988822853127545,2.5890633304547945,-0.5799276222844605
-185.0,-4.7815016252021625,11.982350199623786,16.76385182482592,-3.632562817936654,-10.714710336368725,14.336076746993584,-3.784896517985043,-5.580375943627908,-6.414111866504776,-3.588654543681537,-7.22627871262411,-3.424143140739016
-184.0,-9.756116855818355,12.008009395611946,21.764126251430184,-1.0788008053724312,-15.778081072418612,16.84797526680258,-6.4788161236401685,-8.782068710449007,-5.374837444610664,-1.5216588168803764,-4.757922947148821,-1.3931700210021252
-183.0,-1.8369695116305058,-14.912008952773466,-13.075039441143094,8.340974814112144,5.603061853435733,-13.955184292628827,5.183838683629382,5.047157975517253,5.440059905542002,4.643900655059639,5.951022878572486,4.516766787503636
-182.0,-3.193222952718907,-6.535472835879867,-3.342249883161042,4.827739646601739,0.059121342218908524,-4.902924101886029,0.2683375819001279,4.317984392520398,4.822619954314911,6.112099040908441,8.732213695378896,8.508573977444232
-181.0,11.915144027353954,12.47779315057425,0.5626491232203179,-12.156792422920141,5.659944413833505,6.475737487613272,3.1274445745219044,7.390892918785859,6.623009510097159,2.5766861976726414,8.620719772671459,7.0456920486118815
-180.0,11.578257395827112,10.972500155729909,-0.6057572400970654,-11.235971032381023,6.152403924573905,5.2167560007342875,-1.806470955601746,4.34053243929712,1.7772565304989696,0.5495731378675197,-0.14431851867115109,0.6237975728529563
-179.0,-1.4168638753588985,-7.400116208528001,-5.983252333168933,4.371650824189756,2.2621637613502146,-6.6590594960083935,0.1782610634720253,-5.846920308698486,-3.5589022449079364,-7.397403182349264,-10.916749570565388,-10.339015321048805
-178.0,-7.938746018014211,-18.48239937472037,-10.543653356706033,13.257026730621293,1.2784920677476364,-14.56070277448481,1.1950242419322945,-7.510085747319974,-10.815110516737656,-8.86361792352994,-10.284163533475592,-10.07714092687375
-177.0,-12.13915693238365,-17.444605388608377,-5.305448456224588,14.764452224157123,-3.3651401881999936,-11.425535267502147,5.249102302262507,-2.338622456161726,-0.0911190135461899,-4.742695814193171,-7.239007898946609,-5.315583359364284
-176.0,-7.223587382508186,10.790001746403902,18.01358912891221,-1.8073433933227836,-12.648893845416852,14.426318532063485,-2.6759132760188713,3.215004204301733,5.289418244751596,5.7889509393276235,10.019017944222227,8.988370878820817
-175.0,10.729985352559304,21.001645381060147,10.27166002850087,-15.889426358102108,0.19539659045576663,15.657771397199792,-1.4415520590077842,6.5165107093839625,-0.07546997439635028,9.678074103560757,8.490613673594906,7.755331020740504
-174.0,11.26823591464521,1.3072084778590138,-9.96102743678631,-6.23477245348389,10.656201920892126,-4.307457647151679,-3.4351259688859996,0.11092355433576451,-3.127012180366489,1.656358357960797,1.6689851065182904,-0.07392750477342691
-173.0,2.0864150281772886,-2.290403568902809,-4.376818597080298,0.07255793761944496,3.1915356472441783,-3.3131411495225023,-0.6535661629804215,1.2061236481814106,4.352782800545268,3.026145171419725,0.8713554366679528,3.19210697069538
-172.0,-0.09361255980449412,-1.837531801728402,-1.7439192419241833,0.9329873329380618,0.8619258018432947,-1.8452121803697037,-0.6785242793453369,-4.3255904945557955,4.9719939083594715,1.0002970630845227,-0.15351473319112496,-2.054284899128062
-171.0,-4.901596535404345,-1.51982042647836,3.3817761089257248,3.2559937057202513,-4.105533845808209,0.9611201366001065,0.19517618206664045,-5.165051744506967,-4.972322199423916,-6.486554281892612,-4.6408805344803366,-7.397201792395636
-170.0,-6.676718023979741,6.8454019716375285,13.522119995617215,-0.03681171939691019,-10.141409401894665,10.14200068763094,-1.6685855674857564,-2.482142896493737,-1.948227067998734,-4.866663607173397,-2.158324793025072,-0.7462491483478955
-169.0,-6.120887876119541,7.4189419543249056,13.539829830444598,-0.6753245510576895,-9.870771300531306,10.522998762494387,2.6281234954207,-0.8980375659794956,-0.020924250168719016,0.4497009079820886,3.6471097249628426,7.744865157969744
-168.0,5.254172612734136,-12.195155375206378,-17.449327987940283,3.4502756516031625,11.392344481271659,-14.852038745622123,2.8874042335082826,8.947091911575525,0.7229238155930994,-2.7483104500621303,-4.88903338184475,0.33618480149444085
-167.0,6.637944404577723,-17.050266721105416,-23.68821112568287,5.1913372863352745,15.127531763343846,-20.31704238480169,3.792203602065138,8.112136765438628,1.9460128962189849,2.0182364784589817,-2.8111840665011223,-7.257831604173873
-166.0,-2.1784188142707714,-6.476553165014083,-4.298134350743139,4.315991977903061,1.1054632913880216,-5.4131878001464315,1.2406977676564073,-0.3689194411892984,-1.097591235762242,1.6582036244634422,2.4449409461163025,-4.446329241656327
-165.0,8.289753064463413,11.564942065682391,3.2751890012190294,-9.938039265937945,2.5541155763305654,7.3925124349994515,-2.543342389563427,-4.808112128171458,-2.3780489616129623,3.8057632429391584,6.813124479803736,5.964053269886616
-164.0,-9.534877156586827,-0.3230227230411806,9.211854433545646,4.99561965775959,-9.40640966193066,4.413494716491528,-2.1765209616373333,-6.9936064703246625,1.8456201142843724,-3.3126791677036254,-3.8280749308493753,-2.171566386673161
-163.0,-5.817505672096457,10.300145896004988,16.117651568101376,-2.2562711851230848,-11.004880523115347,13.252912040073086,-1.2034813446245467,-2.5356615389635655,0.5826142438586757,2.285162282396594,0.9883003663684947,6.809579011459866
-162.0,11.253454595846637,14.629570957783994,3.376116361937127,-12.960131368854254,3.8943382929953554,9.043766182005424,-5.661579148809315,0.8892370429235728,1.6529780018049567,0.7669479310804636,2.0450628567778075,4.045621424261186
-161.0,-7.028394279816845,-4.762462760945534,2.2659315188711027,5.8728658964506835,-4.620783434550951,-1.2878454946702158,0.6240973775509635,2.2849446884312217,0.028941061061930284,1.9727914559029838,-0.415704851820847,-2.31452074959128
-160.0,2.4295636727644707,-4.268595652130331,-6.698159324894883,0.9719035987105129,4.583804248573178,-5.444754799278533,-0.24982739858569958,2.610118490801489,-4.048914059233277,-4.278433125569154,-3.7934633731622824,-5.135604486409372
-159.0,-0.28539191344942616,-6.645486960804431,-6.3600950473549345,3.435847638752982,3.054765096622664,-6.542872240258778,5.653216839714791,1.5526271846091881,0.43404863685323103,-0.3317796704791496,2.161031771079948,-2.842165785848967
-158.0,7.977412398491026,-3.5856092207925885,-11.563021619283525,-2.2276921571159862,9.789855584817989,-7.614331777447873,1.1119090278046944,0.31346749433427523,-2.1021790134627927,-1.5044940845619044,-7.103766031271834,-3.1862112858434557
-157.0,0.14844107242143645,4.506074648356407,4.357633575935038,-2.2810567917099585,-2.079078580933464,4.470528473160202,-0.010136062728339557,-1.0311855329726665,-0.21082018711639278,-1.4814579914950579,2.014349598282788,4.868944042169517
-156.0,-10.974856132138676,-9.42706867563505,1.5477874565037069,10.169266062800366,-6.307624244222824,-3.9008191183015257,-0.028332021405450852,-1.0202030449594337,5.570027112339735,3.803078609695928,10.223369744224446,3.7198780952376613
-155.0,-7.55902291146705,4.418672873255203,11.977695784722306,1.6194179019559822,-9.80964372677713,8.159150108922072,1.5954819854668583,0.11931937296261408,5.473643881857676,6.741608685534525,3.921189913047192,5.010022224831479
-154.0,4.628612031021631,3.6135425631256237,-1.015069467896037,-4.14784516874332,2.8603385765008627,1.2622402552888516,-1.4062163810968535,0.6007929206556122,-1.8441483235812806,-2.464642912224327,-6.483653290345622,-4.923436742639405
-153.0,6.177128562070578,-9.323368555276264,-15.500497117346956,1.5485203683903763,10.79516855263114,-12.36703186801759,-0.024769616292378727,2.5829116206411724,-6.030661784237873,-7.240366958181054,-12.133701047144827,-12.305310191100945
-152.0,6.964108985916656,9.496299197086104,2.532190211169312,-8.175525736030322,2.2444173045184583,6.06279474476498,-2.051941899496408,-0.9126774106260186,0.19662351663869826,-1.2776098668947307,4.458579119767088,6.898557047794584
-151.0,1.8563806324793632,8.193381079785823,6.337000447306365,-5.050637305050877,-2.2196347981779296,7.238074691437735,-4.979992666027521,-4.4615204536854,-2.7149869432406484,0.2735126879936407,4.204563808088175,8.809586136608303
-150.0,-7.625565857720839,-5.742142392660184,1.88342346506077,6.654447204919858,-4.740529220522791,-1.9550276582661494,3.1252401924097724,-4.986291831480479,-4.702009549088593,-2.6148231623017058,-4.591672517405495,-8.207834512105723
-149.0,-7.412093184856104,-5.4341406757650645,1.9779525090912973,6.389177946882397,-4.685042128247051,-1.7543971042195041,1.2140273580790757,2.1346568532504575,3.5980254850291726,5.731518680865658,2.040778559096184,-0.48656834461839327
-148.0,-0.9976336448962808,4.083239509386803,5.080873154283326,-1.5019025456687514,-3.1084045964726226,4.553579596906623,-0.30508551171598763,5.119816346945484,8.926856631428972,8.119208319851799,6.823646586475582,7.9803635319439445
-147.0,10.498911134385466,0.6951306853681203,-9.803780449017294,-5.558243948325534,10.16435968752687,-4.506483075818129,1.8395527179017361,4.092507168907265,0.7199113442785725,-0.5884074519688589,5.298376358791138,1.0256319678312058
-146.0,4.117149595185071,5.311870399041073,1.1947208038558106,-4.675915046761007,1.4810608124553943,3.2996675988142408,1.9157316148547006,2.576617867361319,-0.5023929039108535,-0.19565415199338465,-1.2075280497851995,-5.474631569795972
-145.0,-4.280160462831665,-3.526061079900229,0.7540993829311482,3.863770573537649,-2.48801201931597,-1.4185432144284422,-2.744619810867133,-5.932068178370757,-6.905551555943288,-9.077975590322822,-9.778502206001757,-2.650937125266368
-144.0,-4.201061711555925,-4.965192563275904,-0.7641308517202212,4.5442019427744125,-1.7580034212994824,-2.818229036904452,4.350569174948232,-2.9222730038308526,-0.5381225425483183,-3.289870202410879,-3.977297275147899,0.801670451845335
-143.0,0.11199567101303343,-5.609321114283785,-5.721316785296981,2.708871612801513,2.9647096050303454,-5.698496865731703,-1.2029905783442243,-0.9595537725788628,3.3351042983580235,0.28972269386480454,-2.6236758816645565,-2.253384342746782
-142.0,-6.179188954701088,-7.897156443345887,-1.717967488644732,7.075229509803743,-2.2557684507812517,-4.843903809062804,-4.074785682217886,0.8393307422224299,-1.6212387362364922,1.2929560009999101,1.4933597282787665,-4.066503694744032
-141.0,5.142584992217319,9.154542710353464,4.0119577181363555,-7.113230727390084,0.5410134164515443,6.54150212586516,-4.347703577415594,1.0981767629945396,-1.2906405954111337,3.4241313889918708,9.000754339732394,7.434367229540282
-140.0,5.652873313501149,9.333497658428573,3.6806243449276685,-7.536741541351033,0.9578013737997215,6.5379627470025135,-0.28542524115101564,2.6227265656627177,0.4363350076373142,3.8400069681689635,2.9693895378285875,4.805320894275836
-139.0,-5.337462097499548,4.60972594560733,9.947188043107145,0.40121688835672753,-7.599726771500665,7.304929064443372,7.544094908019703,3.0787952991717447,4.917367956090512,2.7352334217322056,-0.42929114213967345,3.140898431461648
-138.0,3.14667347940902,-4.839054715671857,-7.9857281950807435,0.8875033967440042,5.599123624606653,-6.3867113340880515,4.993943375309732,-2.332680880557221,-0.978956724012187,-2.378573375612027,-5.7050289933047535,-8.160112020625773
-137.0,1.05955562374899,2.6191013673818273,1.559545743632801,-1.8725265983622577,-0.3051646052121679,2.118375623696067,-2.675293132075885,-4.308000284571669,-0.16442545661282745,-2.2480799029571177,1.0861313565982647,-2.4563595204821844
-136.0,2.578940526143746,0.5949565542107376,-1.9839839719330898,-1.6174915240754613,2.2978109998816114,-0.737875789823224,-7.684255610536223,-3.982856723579637,-5.802535181487295,-4.520306681139798,-1.2027763316631073,1.4596069107584682
-135.0,-3.6943047243216713,-10.360385977345246,-6.666081253023665,6.996611807291221,1.4980928514763299,-8.54965069721537,-2.2518732825955907,1.21875837264254,-1.6027808791328613,0.2985640603503765,4.13231637170719,5.043755538255434
-134.0,-6.828821559661949,-5.430536950619641,1.3982846090422658,6.174592287370876,-4.102356711350358,-1.9687129602942468,5.640386623975244,7.882157613583104,7.925428506870718,2.87817593653204,-3.495289945636196,-4.696379555217881
-133.0,6.301908449218619,10.164004403844169,3.8620959546255156,-8.271745732371055,1.2325009024594498,6.983279757455664,0.2119863413661356,1.904942824230785,1.0588414410614289,-0.3642553121864205,-3.1259345116740995,-4.27726396738657
-132.0,1.2204556572328094,3.8440957593548664,2.6236401021220033,-2.4975666743219453,-0.765052368766009,3.201798457549171,-2.216381223902766,-8.208183756698938,-3.2084674597158873,-0.8815654807471518,1.6142731448325522,8.615701134829893
-131.0,-0.9359827211986613,-4.811562192598566,-3.8755794714000236,2.9041500555367494,1.488077089746378,-4.3021959094000195,4.641553038957458,3.917901285971947,-0.5940386176238223,1.8933146343222371,1.6716302244530978,-1.6104472542416062
-130.0,0.8195450520310732,-5.0123272576794085,-5.831872309710626,2.123745939434716,3.3467137312635042,-5.3874723726991505,4.272210376140922,4.796970528641745,1.3581301773778482,1.0765788350609005,1.190173254231984,-2.6895198177530633
-129.0,-9.590201330754685,-6.346754951379454,3.2434463793751105,7.915023213464896,-6.3933886688676855,-1.6023281789071293,-0.9669748524215489,-3.975965082595195,-2.0161433566165385,-1.3557650107306003,-3.5785836202176244,-4.520013795789449
-128.0,2.4477364263921753,8.441816836415313,5.994080410023101,-5.499830098680306,-1.8259792957246603,7.240912535469706,-9.365507554535956,-3.852770984750078,-0.49756686713914433,-0.2661105759749288,2.8415891786342566,4.365086413616861
-127.0,6.28357207135367,6.840164127652213,0.5565920562985869,-6.539388604914285,2.8926143100273207,3.7183372352349275,-4.874146012314714,-1.9056269713161973,-2.8565173697434814,-0.5771476095485463,1.1962303825533334,1.5700234338844206
-126.0,-1.7517739415746414,-1.3046058699236083,0.44716807165117145,1.550274850150441,-1.1446578583207168,-0.48827122980766946,5.200233169624008,-1.0306158090478106,3.8848803356639863,-1.3330748323466,-0.6356575432459792,4.785535198094584
-125.0,6.865355974036983,4.425263528064546,-2.440092445972279,-5.622276432807876,4.692233927720764,1.012983180671693,6.715853760130425,6.912802453006499,2.244574280101203,3.400126413071253,1.5216345726544407,-0.34823762590622254
-124.0,11.744108333588107,10.259641586032753,-1.4844667475552507,-10.976530358641849,6.660860566082265,4.410525726281955,-1.4067338542559122,1.9070326630333168,1.7126710063948618,1.9143791264422263,0.6763580697445426,-2.3451787897541676
-123.0,-18.760309016102703,-18.488105906827407,0.27220310927522506,18.57376833244342,-9.541348174916006,-9.082036231932054,-2.415755083045508,-4.349376054297526,-3.7693765392803167,-2.4556902459223933,-6.076162490218509,-7.972114456891299
-122.0,-15.449244727363812,-13.653609822687995,1.7956349046756188,14.582230349425839,-8.641867118265264,-5.979449813502134,1.6725820198524373,-1.1203790680763368,1.2785289943896783,-1.1526711683795403,-0.41031759466687623,0.5806592923942158
-121.0,9.872148878665596,7.9055573911638835,-1.9665914875019763,-8.935705738267194,5.9030559806092775,2.9986662963303408,2.0500776811191193,3.2521016852333364,0.13059220995823762,1.7474624941609789,3.6152029330216067,3.7071266589149365
-120.0,6.8123491737857265,6.764010614091534,-0.048338559694435096,-6.756759849909615,3.414317686323828,3.3073244742032273,-3.293676653328642,1.7240095288274564,0.20430746537527195,-0.9591774965391178,5.26970447952108,5.6120925245981725
-119.0,8.333733798972862,0.2799581738897121,-8.053775625083222,-4.355505788541204,8.175818200035323,-3.8611574624087566,-5.746037686567476,1.0957895567629294,-4.345545876930145,-6.0856415222549725,-4.431748970688108,-3.593141036138075
-118.0,-7.550975053634651,-8.148779752319605,-0.5978046986848986,7.87904892042439,-3.418889071617431,-4.350756182586046,3.7008931385938193,-4.945629941693216,-1.7551510318886752,-2.3907048430643862,-7.32012648297002,-5.790817188820069
-117.0,1.9724832589936052,7.4271412344659336,5.454657975472448,-4.67001116656492,-1.6871204717897594,6.460482582972928,3.22170596018629,-0.8963602488041216,2.1320737583417304,4.6193397482070075,1.5487284212510422,2.3754036857578247
-116.0,-4.478179328212421,14.488169681878015,18.9663490100906,-4.972634576021237,-11.751609201482374,16.666253388674576,2.4478732629998294,-0.8799813194985189,3.2181134201494555,8.003706680195863,10.798031005957924,8.970899034475483
-115.0,-0.9194786733150067,-3.9542949447112044,-3.0348162713960916,2.3944012833644477,1.0221698678421829,-3.4769848477173895,-3.438354678633097,-5.389892716962264,-0.5893808042040853,0.8924700104710301,-4.887534125581933,-4.904038542961452
-114.0,-5.172729452592516,-10.577782804911507,-5.40505335231892,7.836790729214408,0.07241649447424794,-7.972154131250461,-1.6092069537039104,4.362802627381479,-0.5788635661649971,0.19823518506508997,-3.938096316618729,0.12089869317791924
-113.0,7.72611699201509,-5.233302095574242,-12.959419087589355,-1.203238207203282,10.367907291505981,-9.073693849133765,-2.6975496492159996,3.6746183543644078,1.412765173641204,-4.756900606595575,-1.6275638735849898,-5.6520218945822585
-112.0,4.339520044314991,-0.8328180312420583,-5.172338075557136,-1.7879428260694423,4.7711378238432145,-3.05400464320605,5.052926404226016,6.0271513401717165,3.265607862817017,-1.2418969688197543,6.426299381470875,0.8530259398468769
-111.0,-0.42995743998077707,7.382100721330987,7.812058161311583,-3.4329110125468953,-4.113725461120465,7.629717942168186,4.469058845444202,3.147013157504026,2.094072075916937,-0.34755572343285124,3.47331673728314,5.3074792220578475
-110.0,-1.0933980270023724,-2.2877910426407553,-1.1943930156385703,1.6524729282492676,0.05358375466340726,-1.7817770811391815,-1.675627421341624,-5.121350410703968,-3.3067216172174927,0.9323045514544879,-0.10292144876853271,4.367442092781417
-109.0,1.254634660949443,-4.944643750585465,-6.19927841153502,1.8822892940464664,3.730278737044256,-5.5287661372986445,-5.69373604562837,-3.4544547110666874,-6.831214044429773,-4.720505681390044,-6.7991363360162165,-6.745444355147368
-108.0,-5.58625062256275,6.402166280723314,11.98841690328607,-0.45286507151718886,-8.779881150852432,9.164257032814907,-1.8154099275752822,-6.3972231616753295,-3.825478750880846,-0.93206904924878,-3.9230991437219394,-5.715969399718274
-107.0,-4.127316086570282,9.59455476110145,13.721870847671891,-2.7028375143572605,-8.910601215424837,11.709533955389515,0.16518405794805613,-2.687529999047538,2.681335718905872,4.341680648466657,4.598035698029035,2.20674055950241
-106.0,-2.2856633574449186,-4.424888203713133,-2.1392248462679966,3.383503189231548,-0.13082999577588428,-3.3070883588138003,3.055983450314874,3.207255485811798,4.075271612362521,1.2632385165301487,-0.9161564218122371,1.7869004316547272
-105.0,3.174158536646744,-9.707218841209862,-12.881377377856436,3.213762707578717,8.055206544986659,-11.318289358299825,1.5357222272711564,8.26472802538266,4.516490899717505,1.6507394518816687,2.364218546398431,5.1761912949968405
-104.0,5.736526355392452,3.000139979579486,-2.7363863758129368,-4.344611025726317,4.189850741612534,0.10771639901812602,-0.16699260569062035,1.6761292740574003,-0.08768082625705009,2.886896656100636,3.646885964412899,3.6165908862732685
-103.0,7.108520810663311,5.444057787307503,-1.6644630233558768,-6.2550199439653404,4.4215980413264635,1.943423890038765,1.4090982886667969,-3.8876793039998545,-0.028529497380209934,-3.01779323904522,-1.6968483462154968,-3.2954135417804733
-102.0,-6.60083842231498,-8.036142578343354,-1.4353041560284618,7.2585494993697175,-2.5464577852966896,-4.762173219730264,-1.7616193466497405,-4.854117953073468,-7.429728529716716,-5.611238952983858,-7.768884739016874,-8.342177085619554
-101.0,0.7770327638472341,-1.7494301613147136,-2.526462925162029,0.5031048495699872,1.6872165629964035,-2.0871978249386145,2.2080878124616,6.458510361476186,-0.13498806258726948,0.46270384024118805,1.9606497292007308,1.513546090074041
-100.0,-5.816527361799206,4.596123860374447,10.412651222173608,0.6264797335078625,-8.161267619345075,7.474360143500203,-1.2491925364046272,0.9455277658794576,6.697872013420206,3.900265823569516,0.5397052088128189,0.9183682793866991
-99.0,7.589078768536707,6.854141319052519,-0.7349374494842467,-7.2042019460654965,4.109184585725242,3.0266630334055513,-6.2870811513655855,-2.7644408880312477,0.8250362725890477,3.114085211827609,1.6619794367386769,0.9065689963979309
-98.0,2.8108388467438887,3.6421967882187047,0.8313579414747592,-3.20627944732633,1.007557137508214,2.2786256444151416,-1.090835953588965,-3.2343153677255407,-1.4972701139006719,-1.2527460305256979,4.877662085134284,2.6592097702311337
-97.0,-14.046443209575882,-7.39770857478214,6.648734634793748,10.667491030105529,-10.337875671174121,-0.4160117990627574,6.425029328050379,1.224409538625436,-2.043326204636592,-0.2442284348356037,1.6633509949892284,-0.0662377973044519
-96.0,2.798140510583349,-3.8143614866775444,-6.61250199726081,0.5364615547556442,4.709615892066792,-5.180525730631959,2.5571902578803334,2.5536275693558466,-1.6267645435841669,-4.828851184274696,-6.112259991616193,0.9291700245303861
-95.0,0.020782843667097484,-11.639691017429406,-11.660473861096404,5.762828292782411,5.844611374516611,-11.698721022627101,2.86437360557895,0.30422441301068104,-2.72838143821833,-0.770506573572993,-0.8459548209325756,-0.786165234399237
-94.0,-1.4142522937929838,6.27320086937881,7.687453163171853,-2.394278520906421,-4.540900601554927,7.010099883147287,-1.2347032796539306,-2.789137351585875,3.0761777802951054,0.978449264142055,2.963460479510668,2.0711748914104304
-93.0,11.416800151328768,15.28748474614018,3.8706845948113955,-13.31453395429842,3.7945810238244,9.611062384149408,-8.068124527056353,-1.9620910693468678,2.4090698676903646,3.8792528228067478,2.063738908181394,4.246416028772735
-92.0,-4.279433715239065,-2.544466657578873,1.7349670576600702,3.3727405930838428,-3.049771404593101,-0.3690336770842997,-6.2726778432810635,0.988532706962459,-1.9385039628236105,-1.4410815248412638,-5.490902073136599,-10.116812120383369
-91.0,-4.799439247863022,-3.714969724347155,1.084469523515734,4.21958695439038,-2.8917476061452656,-1.3548066860888426,5.832736361791906,0.42558690847074754,1.4622909519656206,-3.6638483797742767,-3.90266686894133,-7.501841699519609
-90.0,13.892657305206754,9.210091574631367,-4.682565730575481,-11.508987381619292,9.268655575655563,2.225682611220263,3.923118817913797,4.397062880403867,3.7832798973748156,6.699470124289972,5.514576631818577,4.383456688755567
-89.0,-6.364321084706525,-14.741345541385888,-8.37702445667936,10.595942445099142,0.9898651370010194,-11.598558053236225,6.817785930490168,2.438598585357414,-4.372479578391257,-4.380360700495001,-4.169804284745892,-0.4732012460594497
-88.0,-1.8652527867302289,-6.35486613089772,-4.48961334416737,4.074247020653394,1.2904840262539368,-5.386325894892591,-1.2613752264081328,-2.4332216864582934,-2.509818535119019,0.9559524183680563,1.2009730946385062,3.16313661925685
-87.0,-4.261397604994668,11.758948346799922,16.020345951794766,-3.785975955777414,-10.173580504903377,13.921488367275153,-3.5578309267538275,-0.6956228715979715,2.997496992018059,5.862856172560284,9.367110305956114,12.951939337404344
-86.0,-6.490796454919236,-2.0836233342721444,4.407173120647242,4.326174365072908,-5.4160287330176775,1.190536741204057,-1.8075047451256703,-3.7234820686426824,2.470988168238764,0.3304670455220732,-0.7259169244371311,2.6780758744325146
-85.0,-5.142467652072895,-8.622677015123955,-3.4802093630509834,6.839540159206819,-0.8091126098085533,-6.102702660896426,-3.4393179024161995,-5.388587626441377,-6.757190394083205,-13.285517176742456,-10.312884242069362,-12.999588176810756
-84.0,10.353041564649269,10.698536068568306,0.3454945039190038,-10.493052063428596,5.0200938417465935,5.549790724798813,-5.218441864545612,0.3333154341973841,1.760495108177122,4.494380412314113,3.2036982265237315,-1.1323745163806276
-83.0,9.807181817722888,12.59665697833529,2.7894751606123136,-11.170933980683715,3.525562854901296,7.721697863484176,4.868954408818054,11.413291300068993,5.815881764058619,8.513580429460431,12.565444626864993,2.9441849698118396
-82.0,0.8635236810104345,-18.198590052897003,-19.06211373390755,8.619881288641363,9.98445419284179,-18.680068082855062,9.386845060199686,3.4681530003860717,-0.07163033198419555,-6.366585027966929,-9.502183814721882,-9.724884074243041
-81.0,3.526899687277151,6.245041935259728,2.7181422479825175,-4.85277871707167,0.353705619418327,4.431420040006693,-2.0106904209636465,-6.226957129431415,-2.2752676800016056,0.09310203126930888,-1.6961379776336605,7.440841710390279
-80.0,-3.2275510429018968,2.8665278887222003,6.0940789316241055,0.13865590725211296,-4.706508818452434,4.508032883086245,-2.1352239486727225,-3.9431290310683456,-5.381650848405845,-1.352829857167282,-4.83699210090069,2.3717330403286425
-79.0,-14.320276739837578,-12.713193086789925,1.607083653047793,13.558221748788029,-7.92867936648762,-5.52559738292441,-2.9876441177577684,-1.645051531026403,-3.564709864472924,-3.057676168176816,-4.775298083739612,-7.874382586494935
-78.0,-13.791178361816893,-2.759387348409413,11.031791013407647,8.242609181522667,-12.455942315823194,4.164669844651568,-0.11872422978445463,-1.0304477176246825,-0.2367494961869786,1.893767697956826,1.826780306975461,6.6465946108997205
-77.0,24.775473077793897,19.533974747139634,-5.241498330654185,-22.104949476326375,15.041279603397697,7.1768280037022585,-2.5090501513320156,6.778152732969111,13.021932191104474,10.553911751712297,16.23258630267276,6.709903816990062
-76.0,6.871096076795587,2.290891010005896,-4.580205066789733,-4.607825674768783,5.75832917753897,-1.1906138796388523,3.1907429820519537,3.5410478619730315,5.092392705335413,-0.8650745306401637,3.510199222612213,-1.346099232396102
-75.0,-16.316040479640357,-14.221181014876148,2.0948594647640935,15.242161123992704,-9.170244411857531,-6.108042428244951,2.0749945490722794,-7.1553598867557096,-5.131989840217346,-6.603150262163525,-8.85547161844282,-7.036769644209009
-74.0,1.776969719047635,-7.575129461594213,-9.352099180642018,2.871609133872967,5.52585149563426,-8.430324236062837,2.4604356450908638,4.051106577625519,-4.712556335123549,-2.462859036427902,-5.425606881617426,-4.642100392725464
-73.0,-3.7466613301591836,1.3754083610544106,5.122069691213451,1.2352330221397303,-4.467536976906356,3.201655518021183,1.5689860418805375,0.06257661843449847,-3.9284937702777576,0.1284590939471224,-2.033497111734927,2.43812946940004
-72.0,3.5074996417364126,7.703264320925957,4.195764679189546,-5.55735813322512,-0.29462045279430926,5.979980979900439,-8.10127274435151,-5.118045699480174,-4.094962757257138,-1.0907559909796751,0.4962316198578094,1.9817325625060838
-71.0,13.967474462589383,6.5878422133125465,-7.379632249276714,-10.309502431577108,10.644908299095981,-0.3647057330721637,-3.091814397627712,-4.63747459283645,4.414415302570944,2.0243689581424382,3.3088950315307963,0.41914313145373816
-70.0,-2.2785934351774033,1.188074309736649,3.4666677449142225,0.5127410812598923,-2.90456325491626,2.3618460177445275,2.2371973774892284,3.2081903831231533,2.256812864096098,2.118422118044192,1.739370480971577,5.730249497299475
-69.0,-8.099174682530116,1.2658592880754962,9.365033970605712,3.3837543043883436,-8.691511465628704,5.27637744889366,3.7162183529857122,6.200741916659038,-1.073566378209231,-0.7412668580081636,-1.8653358429740599,-1.5549942118696718
-68.0,4.426210077701584,2.9971606432864983,-1.4290494344151594,-3.6659776039058283,2.882427286012802,0.7504568321775418,3.504053296469433,3.759228582355157,8.360739569374601,7.232476090038553,7.1629931661978015,5.61191389242375
-67.0,-2.1747484616683623,-2.068808753686071,0.10593970798211921,2.167663824087737,-1.112155179872789,-0.9324482202560183,1.511904201601985,1.5537065994180606,5.440310115830856,5.7699226971161774,6.718224800070557,-0.4244360047861424
-66.0,-9.535048698662044,-24.671880683810656,-15.136831985148758,17.071138685708405,2.8273450360356325,-19.93322986827381,-2.5542215307210476,-4.774880807596635,-7.904162682436255,-14.846501578871068,-20.689704628753145,-23.512421684326934
-65.0,-10.629053777354658,-3.1155304452995622,7.513523332055087,6.840831455319282,-9.042328758874971,2.167880814712177,-4.566499323742616,-5.160655307247742,-8.782039171629098,-7.906616959804422,-0.07052627179699034,3.2181346431370255
-64.0,13.196124981828852,10.418398119260047,-2.777726862568685,-11.837590110826795,7.942985815364397,3.86358497403648,-6.14628523024872,-4.0543530340882645,-7.502009941636183,-2.9693542830879696,1.5737269240469582,8.914599943499283
-63.0,10.878761407041392,9.523689795085032,-1.3550716119561614,-10.151509545840355,6.080160238738223,4.044025463084079,1.876502162346942,0.9210014670442344,1.5758265441888377,5.6566697329740805,3.0392777215284714,7.595687003226381
-62.0,2.963231072313074,0.8967863148671071,-2.066444757445832,-1.8791523672250285,2.5629718491664724,-0.5497742200461442,7.878577393887535,2.506622421611663,7.22371530371715,5.330948750905572,1.9036024276829142,1.8970920503605688
-61.0,-10.02953017170753,-0.49999298681503257,9.52953718489251,5.237220714851517,-9.807085189514476,4.548845178595548,6.726862743086924,5.018085260478779,10.611917756207452,13.523209499166988,7.690039418959625,-1.7263602486422536
-60.0,2.4629772958355938,13.21468416898777,10.751706873152116,-7.867529144260584,-4.094377780681963,11.939901780539197,0.03175626389539232,4.74049030988035,7.69968396043899,5.634614454254267,9.34531556361073,-2.1678902312209236
-59.0,6.7654700873082785,9.21197945081749,2.446509363509115,-8.020392734192487,2.1251363323889834,5.867364883613172,-9.303500338754489,-2.9739216198111915,-5.932965512812743,-6.76057779499458,-9.179244513849696,-2.579138179312573
-58.0,-6.1580635782742155,-16.262100929871906,-10.104037351597723,11.25292259744955,1.929800401173369,-13.221314689827055,-5.428263942664332,-5.289456031574472,-11.865846299851178,-13.457478141147854,-12.685395275302385,-4.4805755739701105
-57.0,-4.252207578058831,-15.616828330572435,-11.364620752513588,9.894449093619123,3.5818051223317577,-13.528223154393665,2.6458983790716095,0.17728624236878998,-3.5799593453884073,-9.36580898427052,-2.8819606756178198,-0.014145250130933373
-56.0,0.5649473485655743,-6.2003876833136395,-6.765335031879178,2.853989121705177,3.682293122114428,-6.443179975102448,-0.8024365009447636,0.6124111282897917,1.5964318784717628,-0.002793319917171466,1.3510123834290098,5.000702912327488
-55.0,-4.802625536980578,2.6180121208226024,7.4206376578031765,1.1291857469873876,-6.099047488057463,5.055204888405068,2.8141331573340267,1.9789462228918293,3.424738216615692,7.473260289277266,8.953195810039924,9.192205773211933
-54.0,-8.301779286999954,-3.112667584477799,5.189111702522104,5.669350322851464,-6.732192566066368,0.9899734417252812,8.278411368544035,-1.634000001333984,2.2956309208514263,6.755378544835541,0.020505222147972013,-6.12241049922195
-53.0,6.904736935938772,-0.8089803815452585,-7.713717317484081,-3.0790253351999985,7.249625617333476,-4.236822147629272,1.25330636969613,0.9867190624939838,-3.0536652546154412,-0.5532713529700368,-4.952256241475596,-12.23366420277262
-52.0,12.02779844098871,20.555446401645078,8.52764796065634,-16.235984865043935,1.7790292720186185,14.56067365909359,-7.877059055339778,-2.6281338707447657,-1.3406875518373826,1.7040452301334787,3.880370557148229,-1.4540149552853219
-51.0,9.568781422400921,11.09535076749689,1.5265693450959876,-10.347548642670152,4.0615189786128525,6.247800259123548,-5.988963351092749,0.3123901152299532,2.9582368650139297,-1.6733144389742338,0.6180675881677751,2.19246720703205
-50.0,-3.056313012062093,10.080957038630586,13.137270050692738,-3.522076209673244,-8.124664949343709,11.624297867410311,-0.9185443218762774,1.4949336861438083,3.5928591438704185,3.4167375746151682,4.677315694609505,13.483228772926068
-49.0,-0.702544242233091,-4.139446188736398,-3.436901946503267,2.4142355866017513,1.3463868763601674,-3.7693424087293383,7.538581797037839,3.56976356426589,4.446825782960707,3.7761953652213327,4.531629873494798,11.33863548962909
-48.0,-3.077484127648378,-10.366166650295654,-7.288682522647251,6.715412108763802,2.087006817275747,-8.80076442037212,0.010872625408427705,-3.0403038918573517,-2.7283448002097406,-5.240521688634623,-6.719562375165206,-5.078870055767017
-47.0,-26.618872314079162,-34.273770445385196,-7.654898131305985,30.438522613214293,-9.424743321728254,-21.005433533338035,4.736924737441586,-0.2876561481846588,-4.203126018008889,-4.137132639106183,-9.081686124908792,-10.416727256044037
-46.0,-4.456468514483067,-12.712669305631156,-8.25620079114806,8.574940492591475,1.8713623799837125,-10.434787774992692,1.6482750810665778,1.0046025492819317,-2.220087863976798,-6.057532390155661,-0.528825448270692,-10.51328108415434
-45.0,21.548430290936427,23.804393334055526,2.2559630431190554,-22.608567565780906,9.608579057929138,13.011258681011784,-6.499880126074062,0.9017998833205603,0.2553905546787023,1.0416330941106653,3.014680990541118,-2.520549986003104
-44.0,5.924641934213994,13.11463820007189,7.189996265857843,-9.531094433631317,-0.6006423227677344,10.139103585352707,-4.527943880917579,-3.751575858725065,-2.9869674269121473,-2.7206896832671035,1.0240426287089286,4.380965695043384
-43.0,8.219067553758265,6.149999830079858,-2.0690677236785042,-7.196518929556738,5.169022522562864,2.0268492092840784,-3.4613084129419427,-0.2343063871527029,-1.2602637886762846,6.257309360919562,1.074176925246085,5.124853519593655
-42.0,5.704946704519932,10.584753754637008,4.879807050116945,-8.158475047946629,0.43342760560102,7.712137268970584,0.8870639281503145,-0.11164309270471896,3.711417138322422,4.16799820299699,4.226623199783412,6.048215610873966
-41.0,-16.524694834791184,-12.023734705870478,4.50096012892058,14.257036966121921,-10.571889629423222,-3.713796966054101,8.247073185776502,3.4059635184839347,6.203438201299004,1.8614154968887475,-2.4599802085317664,1.1653988855922233
-40.0,-8.724598297119117,-2.2808347996747385,6.443763497444279,5.480138349382782,-7.5635813824461735,2.037520848292466,3.6101297291217205,0.5959219099343562,-0.12291525706367779,3.2852566121791433,3.225146785424188,2.8047700491642487
-39.0,0.07203001515996288,-7.041032084325928,-7.113062099485847,3.534397992242474,3.6150306580520173,-7.053903848486071,1.3395884526952733,3.4526072508620325,-0.4640932997472017,-3.2322196511527106,-0.6012370813299601,-2.3158833257505225
-38.0,4.6589297365987035,-3.977302093974079,-8.636231830572648,-0.3754087813993916,6.593309719825962,-6.292064626625699,-4.293316883888349,-5.192143074486806,-2.981741964340785,-4.809975405713258,-4.248232838064008,-6.5616632378375055
-37.0,8.066725502846612,3.6239891129316932,-4.442736389914842,-5.805245298668617,6.280982623382451,-0.3992094220818547,-6.064617457538046,-5.1890677095581195,-4.069139864803864,-1.8297567040212375,-4.1465323124196685,-4.387886448020771
-36.0,-11.532902429148816,1.0081314177578542,12.541033846906657,5.30060953096846,-12.00895396597587,6.783305296223743,2.5280704295843046,-0.3450223126593981,0.25245640677087566,5.299458063693608,4.63441708421937,3.1765009498866568
-35.0,-1.3795941877778621,-5.182624123093451,-3.803029935315641,3.240612502522137,1.1632601727918814,-4.4841700552306545,1.2688416531779636,1.202994438181143,-1.828720512929479,-7.381148167140978,-4.350301649489963,-4.298442986152473
-34.0,6.10564573495951,11.074002953874274,4.968357218914705,-8.628844857781257,0.6022143621724629,7.950757580229939,0.45043805584229324,7.992144865034976,9.503576946387026,7.760915854847799,9.812202191316148,9.511232913436455
-33.0,28.18499078082484,17.930845049759196,-10.254145731065655,-23.094190227879704,19.17873413532785,3.845474927129828,-6.262491685398751,5.478011952448977,2.539878522292474,1.666767693260518,1.6631721611820032,-0.9333320090633004
-32.0,-16.4909491506781,-16.452148620573546,0.03880053010457196,16.518295489537493,-8.222179780177832,-8.200805812481224,2.462759920578872,-3.117131302957331,-3.834734527519166,-5.548375665750822,-5.439029941107499,-6.81968489638526
-31.0,-14.038871692738832,-7.288591678277806,6.750280014461045,10.716518244879957,-10.348054912825871,-0.26274974098486537,3.334933361482974,-4.156807430858885,-3.1645198163247854,-2.1322291821647927,-0.3127775512596638,4.961413691369701
-30.0,-12.061484566678569,-6.483192198028915,5.5782923686496915,9.253810227552716,-8.851022674581381,-0.4418217085178515,4.9986160398823705,-3.376919289896852,-2.0515993736877745,-2.940103507181616,-3.1914673504266062,7.536497147986955
-29.0,1.8218839100297233,-2.9830120407712672,-4.80489595080096,0.5695703192581298,3.2792302647699563,-3.874573301423787,2.4520599897065054,-2.0064603679713238,-2.578635910377136,-1.6335386747020513,-2.3398510037755513,-0.029390742209453258
-28.0,7.554580002839942,-2.8254273304803763,-10.380007333320286,-2.36984942893503,8.925857628083365,-6.570888534273379,-6.204076826656108,-3.2967643690420476,-1.5638613955545717,4.748182335881622,-4.353032750355741,-8.925596918551953
-27.0,8.168053379896516,4.269590937454478,-3.8984624424420504,-6.221992190395218,6.060592404861166,0.15239361972749155,-1.5035503662382603,0.09071301402386389,3.1038930197256835,7.604747523516151,4.091964150456412,-7.291627634016212
-26.0,12.982104126631144,32.57265694973399,19.590552823102822,-22.783017844290782,-3.286730706628761,26.060367546709884,-4.505885533855655,4.785515284982725,6.981430926365009,7.711775095543822,12.531429113066672,5.954139603183604
-25.0,6.546235609197692,3.3484243329978565,-3.197811276199901,-4.959699904067585,4.882896681136926,0.06147436086008362,-3.324825649522846,3.4958884106973573,-1.0505732793407994,-3.1218416728917737,0.7262014112375983,0.8666174659416896
-24.0,-14.641176313076828,-12.763454676706992,1.8777216363697227,13.680414929024632,-8.249849893968458,-5.455225487922349,3.8084120676346567,-0.4535589724861393,-1.3189712069723454,-3.424152992871303,5.938324277502579,8.406490886397389
-23.0,-11.737447393238195,-11.106559517358086,0.6308878758799765,11.468602591418001,-6.1701147533500045,-5.175692499745632,1.7480945905123075,-2.207592327716394,-1.336451352400949,-4.854957867019758,-8.970912851244334,1.5869746063676882
-22.0,-12.195665617302744,-14.952166310682497,-2.7565006933798823,13.611486978723523,-4.77556595796089,-8.879352879072629,8.321939336759442,4.905139838306153,0.3925862151092683,-8.887152645239048,-12.652865938642597,-7.123072120162585
-21.0,-1.1430110169444232,-10.283318020017697,-9.140307003073351,5.6654244691388875,4.031590620459902,-9.747096312010394,6.367596066822354,6.6056080950187965,5.462343826322397,-2.0142579719685574,-4.399777052922122,-6.525922934173961
-20.0,23.849773439076085,13.518946389197769,-10.330827049878327,-18.656997225711955,17.131663336527417,1.6278280163753442,-5.58263940241668,-3.364353875547703,-3.062131164614817,-4.260020573112006,-4.420744234010872,-9.550479468988405
-19.0,3.389273433617179,0.8542151575260792,-2.5350582760910156,-2.173905956131792,2.928852372436096,-0.8138466996886318,-2.4213204594573217,0.3807894507605498,-3.3636773688457757,4.792270294187374,4.656549017823528,0.5885536080217317
-18.0,-8.3946487096486,5.537972669788687,13.932621379437407,1.4568944892028703,-11.198241220005144,9.679455986840665,-6.242600612928264,-6.057602136127818,-4.135970026719622,9.821068284257649,12.242149095990559,10.684615979370836
-17.0,4.888720637436942,13.392960475341393,8.504239837904613,-9.1863985338165,-1.8479585645363206,10.971285602743865,-7.142652763801976,-10.157756191538002,-3.5830204330228934,7.908514965569695,9.394711967973132,12.505201652342404
-16.0,6.0556923202382436,5.935435269446449,-0.12025705079163718,-5.955313744438139,3.1195122848026617,2.9323972209451994,-3.6909630368249347,-6.774401793665179,1.9398071460951938,4.089454875061692,2.857536792938354,7.317077838216068
-15.0,-4.62124566741342,10.228383187168419,14.849628854581992,-2.7546656618245473,-9.708761629673988,12.566570976798136,1.443810228107723,2.32777676630057,6.290646012317288,3.6254915892754047,3.488482450616399,3.188567685887014
-14.0,-11.048344438677677,-1.3266099754692808,9.721734463208547,6.166244431768929,-10.358340835306294,4.1480958683464015,7.630550022051346,6.142314708279341,8.624624111938749,1.0082710079062234,4.528144843789623,1.1819764661848238
-13.0,0.29809135491330707,-14.835955256720379,-15.134046611633583,7.2541050934266815,7.74838533182675,-15.034684833549726,6.580575163129051,7.9925385945979635,0.046328364779304465,-8.821563896164468,-10.020209637050282,-11.322335650339975
-12.0,-2.8150795617981204,-31.23823549154598,-28.423155929747857,17.014062479744936,12.767268857904622,-29.803457720871528,9.848573207725481,7.265081696264695,-8.782491617408853,-22.256970024621445,-25.061769733435188,-25.90523736484299
-11.0,-9.425391557726446,-15.768662729790831,-6.343271172064483,12.581551134555072,-1.5671349998161972,-11.030771453861018,5.392970471282111,-0.24064137720516987,-7.61039923212868,-12.1114212119858,-14.545749075089077,-12.893280657422727
-10.0,1.2243686700689058,-4.307714534783367,-5.532083204852431,1.518729562421015,3.3607260571242294,-4.895206399423086,-7.411020776655621,-4.118299912679882,-9.191845476922932,-5.208738684777152,-9.338230923216562,-3.7196592492848755
-9.0,26.153587937468046,23.950718290248947,-2.2028696472192557,-25.00659741369825,14.165081873504471,10.822141778407307,-10.881764019353476,4.409357500557244,9.980436297007945,13.03312767420788,13.894366183291432,14.199304442100072
-8.0,20.828531578373976,31.661843383090165,10.83331180471611,-26.210271552950623,5.062835407151188,21.279724979411576,-10.21714723655118,6.436291621847298,16.78746095106993,21.767335858523644,23.367879772533083,22.324707132477442
-7.0,-17.792593567040512,30.278324560161074,48.07091812720162,-6.295529883595979,-32.94942637402002,39.213767334294374,-1.6345946598568553,-8.71198378565311,10.495695214730564,30.08278920910338,39.335004102973684,32.30563824306462
-6.0,-14.535249297033868,-10.397651778427234,4.1375975186068175,12.486997058915101,-9.360092798454778,-3.162717683730822,4.11641748228633,-5.04499948419813,0.11021931756007985,2.112625876206188,2.2844992201733856,-4.0170169737444485
-5.0,-9.908609339422988,-22.766219591975418,-12.857610252551982,16.35634761163799,1.4452080429638068,-17.839757115577186,8.211868405145395,-8.993775657413497,-8.931309011747432,-12.569845613771436,-17.01354280757545,-20.40458595219526
-4.0,-0.034711939646209444,-4.999328590375395,-4.964616650728686,2.4594422121497015,2.5110543839540505,-5.008313069070498,4.410335168365224,-6.5280987958754535,-9.000230398137438,-10.086578019294855,-12.422866395503164,-11.546461462678689
-3.0,-4.401427439840367,1.701523047670337,6.102950487511089,1.376649809751223,-5.206184233055343,3.9526458763974475,-1.769645263717349,-5.034855053508466,-11.834814092399043,-7.789551450420623,-6.758525399793127,7.0223732978676345
-2.0,2.778212518001927,-20.16330296538064,-22.941515483382602,8.727160179789871,12.830106198311515,-21.58539415931913,-5.901035831609482,2.6155247490795794,-19.718850437574396,-25.900017897392896,-19.722728340323087,-6.840309113999886
-1.0,6.067531745304783,-37.534552791942545,-43.602084537247784,15.69854843886718,24.810005343376297,-40.52846832131582,-0.6365579073032563,13.270293704585779,-9.55818624085909,-31.798696953768,-29.13169024969709,-24.3199431513051
0.0,31.291702842452526,6.396353163483324,-24.89534967896988,-18.869863492181228,28.07417850511323,-9.215468850675668,3.4219162387248288,22.833718578431597,18.965572729438684,-2.439509468554091,-8.811520041162026,-9.746356401613188
1.0,1.5307639726680655,14.182380099077161,12.65161612640851,-7.795937881020857,-5.5750601060259415,13.367658184956541,9.60442957120136,7.3110589233078365,26.173466355950953,25.96883268151013,16.438786511688086,1.8457516544335637
2.0,-21.617947079018798,45.388224746829586,67.00617182584823,-11.89820843751772,-44.244760395900855,56.14533518749329,4.048147455254435,-18.010970090678764,8.616376670387206,41.36953335998852,43.329119500619285,34.93644805237606
3.0,-23.957609347246674,30.778386215213963,54.73599556246063,-3.4220378078952023,-39.35705601251293,42.78440432810575,-6.927647405989314,-22.67994742076708,-1.1621819962680924,34.14302588683377,36.11172930200867,28.533997385306137
4.0,-10.272122347659172,-12.56910471784909,-2.296982370189639,11.40639291305527,-3.9989150108799123,-7.4022154598913446,-7.107844052393229,-1.8070085141130292,-7.745268459235964,1.0665963446774072,1.0533918675088447,0.6401487207667138
5.0,35.104419181350565,-8.977501365253051,-44.081920546603236,-13.083822572376969,39.5782779814764,-26.492241509233146,-12.599608148613129,19.18862254695881,15.118395687471768,-9.866400710734275,-8.021207096078516,-14.930959212179168
6.0,22.718897617572388,-4.670583797327637,-27.38948141489956,-8.974330118745272,25.033389238773328,-16.062854888807635,-10.89359621093045,21.008278262404364,18.339262831284593,-10.359676891410462,-5.15519395861039,-3.279211073670716
7.0,-11.706817878763308,-30.21206347180891,-18.505245593045224,20.92109944846691,3.4493222470765197,-24.383178106648867,13.338218916344118,-7.807220644906394,-19.071063116227542,-29.78918561740628,-31.205332226836553,-19.845853095079498
8.0,-20.70758552688655,-12.108235171366388,8.599350355520414,16.439546875348157,-14.691200532317122,-1.7730154220255834,14.308568006861591,-21.748804332998187,-35.286021437676,-30.640642119286607,-28.197030083300305,-8.732489781186155
9.0,-14.192648587030966,-3.772802751536739,10.419845835494337,9.007340052543176,-12.27478874794038,3.3855170759418876,9.654565803116641,-15.617366995746107,-26.464520683816026,-12.961669514436094,-10.714640024706018,0.7791345788444648
10.0,5.587880320344375,10.817449460224495,5.229569139880054,-8.261459324974304,0.2013871870198054,8.003503871290938,-1.687593103976882,1.199466716399602,2.8570740768613607,15.144896702220606,8.479788917937453,1.5373716890958935
11.0,-0.33993113897451366,2.0139237332532147,2.353854872227455,-0.8190821284021066,-1.4114267418779511,2.1557154046584746,-2.6536350799786637,9.800765670254396,22.326985425042338,24.3403013826018,19.960746077109597,5.1607336496991385
12.0,5.801895972170163,5.722797611871647,-0.07909836029893746,-5.7437847229454455,2.9489704542936,2.8606692734743415,-2.2929044939627463,15.883923980019702,19.910850501009055,19.188313647054343,15.451755042425084,10.957999555745156
13.0,16.990995335520264,16.565697208617273,-0.42529812690330004,-16.835276225605256,8.714332068485017,8.017316590279854,-5.034377880836193,9.724086425298442,14.224822211632016,6.203018792921952,10.7252842110254,6.2263855179623615
14.0,5.200875579044203,2.4049418487923777,-2.7959337302519214,-3.775630372646626,4.00672232419948,-0.18074254813296875,-4.162819803394402,0.7392801628213421,1.7656730826121994,-3.5496951535110313,0.08648080930815816,-3.817214889560284
15.0,-10.6232455743407,-9.523647619818115,1.0995979545228134,10.107366951486346,-5.846303092202476,-4.203603229708726,-4.482392318747932,-12.553494556249685,-18.294879036821637,-16.849827847210396,-8.505085875819269,-6.869790926410305
16.0,0.09805338613818826,6.164061775802269,6.066008389664494,-3.0910418187449338,-2.958216628166404,6.12386915286229,-2.3553846374150997,-7.625009148941833,-4.385988814781227,-1.8590070767307196,-4.443461513537641,1.0869823348798597
17.0,3.9790598905832573,8.612318029751385,4.633258139168397,-6.330973797204202,-0.3674713153905471,6.639039998456022,-3.4894688714700783,-3.04660129057514,1.2306290727454812,4.523407081679482,-1.28313784254118,4.442625755429766
18.0,-12.071092450788328,-13.379720078022542,-1.3086276272342743,12.68928280222568,-5.409464897565045,-7.315145363735579,8.541936916921188,-2.6017442535419484,0.18508711108396714,2.8927715701899697,-0.5777222473496888,-0.5695406145955308
19.0,-3.5986807327289734,-4.673126454857108,-1.074445722128405,4.094385438637827,-1.2023134857630426,-2.908441895728905,10.060957320903803,5.6920964784941965,7.304136142552447,3.717988700569591,5.732461452895825,1.0824854460828512
20.0,-3.752241081393128,-14.794502199452578,-11.042261118059596,9.302157951496511,3.6308142999005693,-12.93913800788087,5.215807203985658,4.808222456397857,-3.125167633694238,-8.667427051639695,-8.13207621486114,-9.680121926080002
21.0,2.691911228841355,6.509999705218758,3.8180884763775476,-4.5808574422831185,-0.5776260915464473,5.153330834593438,-0.624235528402338,2.588439608234677,-3.4177477631878594,-3.96267078799558,-4.485252569288282,-0.6044794642969267
22.0,5.307517496458885,2.65716886181148,-2.650348634647127,-3.9682074846890045,3.9597179568998504,-0.0022967101248945188,-5.0629877849961975,2.836113091310412,-2.286766245512,-0.4406780526753522,0.034255326430957744,1.24418429352919
23.0,7.42228637241198,6.879095317896394,-0.5431910545153886,-7.137873128139279,3.9564068007071027,3.1625834751978106,-9.124028658264248,-3.4246297662700282,-2.4831193077995146,0.6145076901533314,0.9739764115500511,1.9777747758446922
24.0,9.840495890446347,5.870011673067161,-3.970484217379046,-7.838927584112252,6.950787224014495,1.020160306448063,-4.84542888541221,-3.990074395847379,-1.3055320621813726,-0.24489850705387228,0.19603965970728288,2.51474458787958
25.0,-3.9409122294238292,-3.1433237668799494,0.797588462543867,3.486564993176339,-2.328987774267743,-1.1859765150244885,3.3243581200562033,-0.8665345079182578,2.565127617543955,7.686349578059286,6.013427548676747,3.1631941800998216
26.0,-14.682318537252455,-6.988554231265098,7.693764305987215,10.86646153507773,-11.228492249641484,0.33420829542896624,7.9665439055529035,1.4496857399319536,5.272055993306257,0.9461935087864974,4.0491483386380525,-1.5072306268913414
27.0,-4.60330182738456,1.9733206095533635,6.576622436937679,1.2736164809072,-5.550912018287854,4.251579810414453,1.5119303898411056,2.9171063103536614,4.549923341360175,0.20497082638911168,0.23131633597189927,-0.4357447238830633
28.0,-0.7619351042326716,4.063180725439567,4.82511582967206,-1.6101207984681318,-2.831068558051976,4.416603249888413,1.8352751129708844,-0.7725455325543278,1.7361147672015256,-1.3825944502987855,-0.23212057036462685,-4.0507105906200636
29.0,7.552824887561902,-0.38368482069024024,-7.936509708252237,-3.623649978301123,7.70917922902531,-4.111866552820819,-2.6168742218019663,-1.158846999805545,-3.432260012362942,-5.7324092070131085,-4.507468624802476,-4.051394459166841
30.0,7.936487763453684,3.20502326382932,-4.731464499624396,-5.5356320985521705,6.378166896558557,-0.7167538996406675,-10.662173748578773,-7.304245253931385,-6.835976508517939,-2.659326603189533,0.31078807689452237,12.674526735217182
31.0,-2.6654001121602393,-0.7602541130005382,1.9051459991597506,1.7406741515862405,-2.320286100599663,0.5392794993201369,-3.911368475571297,-3.4127937721726225,-6.219943108296526,3.4542883454164355,-2.366426716738984,1.1909802573934205
32.0,4.357888213577822,-1.5377035940007588,-5.895591807578418,-1.469534713863859,5.168984299980696,-3.750309679890146,4.982539251901655,8.727337767238526,4.153741469392598,8.574618011964425,-0.9862663559796361,-4.262207173155323
33.0,-6.227450799557872,-2.405022154971678,3.8224286445864886,4.3274745445280685,-5.063461662582199,0.6746388713400573,7.290764736488892,7.435535583979277,6.91833597486653,4.128759295590126,2.7603443110288097,-3.255619557855172
34.0,-3.373760152695084,-0.4554692869658976,2.9182908657295394,1.9200142963231974,-3.108059164515416,1.2758916515696406,9.722756065297835,5.146593231998816,1.7118636390567312,-4.012387465547931,1.4113690677434392,-1.9843516307825615
35.0,-5.968708118102057,-7.683308322982018,-1.7146002048796687,6.829244506500707,-2.091710647794591,-4.654136325980856,3.277330745655997,-2.592202843610246,3.558319099336699,-5.298609503699737,-0.3470647252781407,-1.4593116168148261
36.0,-5.441035226185582,-13.567831743229071,-8.126796517043426,9.509906629028155,1.296176190933958,-10.880140287403904,-6.20566660679821,-8.210725351164252,-7.969390104230879,-15.398715561855589,-9.738107284692024,-8.868815891021608
37.0,20.297451629157056,23.911358846934085,3.613907217776819,-22.092565817300127,8.291023761770845,13.731563304049178,-11.837219073943103,-6.562275154440131,-2.646070891640857,4.550192069680156,4.79513637682032,10.56954156600519
38.0,15.02892494165996,20.650858856205343,5.621933914545099,-17.81879728540143,4.727234228632874,13.18606892505808,-11.07649689628086,-0.45321313279910136,-0.12656409001961189,9.345891827635784,6.57664540699113,12.335196406258394
39.0,-23.430831997562827,-21.024433681575903,2.4063983159866824,22.180272645175414,-12.898282867903575,-9.336356727037712,8.392633888793622,1.500133550121825,3.641667532260124,5.109597071282332,1.6698847944518427,-5.312210791014653
40.0,-11.914154665264705,-9.565291348914855,2.34886331634988,10.701773919867236,-7.112578772156878,-3.6344131099085044,4.0713174311217415,1.5844752640015058,-3.49953020369503,-3.7638967655211815,-4.264582208174799,-4.0118157975012725
41.0,-5.39533756799698,-2.0342242762638403,3.3611132917334157,3.7625419137548937,-4.358034915317086,0.7164540648036626,6.611623589572606,1.5129911652977621,-4.7094783692991005,-0.9377301987534159,0.47170571039820697,-3.8898173731385675
42.0,19.955875272816918,10.467064222590274,-9.488811050226275,-15.160232059433248,14.66760993690629,0.4633338199901502,3.762369843583338,8.418796905346925,11.030157037411595,4.217435782012028,2.537999447912196,-0.762594925331546
43.0,22.489879136181777,12.276659302953295,-10.213219833228276,-17.411248822083415,16.381252216367102,1.0056853269128077,-2.950137870661211,4.119309731556417,11.311941959075877,3.1074229474866177,1.8562705080489363,6.266348873479069
44.0,-15.729339136607441,-12.056751311825826,3.672587824781636,13.860871896711624,-9.743423484194404,-4.139466589954203,-4.672226773108647,-5.718415813904703,-10.080972919495137,-7.821913826817501,-8.342252759929957,-3.057475863913032
45.0,-13.85995851449249,-10.741669289564719,3.118289224927598,12.261770011093214,-8.446261616797964,-3.837583440884763,-2.085661330458166,-8.21313086811965,-11.933195212552448,-6.995422566100013,-4.81297680723663,1.7470415601443545
46.0,5.921294616056754,11.597377453947336,5.676082837890318,-8.727376084087858,0.09250368516305851,8.611394917752193,-1.1307991496620255,1.2836948603776808,0.7339541893664974,5.281078577024582,6.076341998884539,1.477540083111754
47.0,-5.535212733326774,1.911611493644398,7.446824226970924,1.8371843251383964,-6.438015608082099,4.733235800289916,1.449327593978996,0.06445347980401817,7.523738891173682,6.683432626810135,4.991871511379871,0.5574890632171012
48.0,2.0921076048924503,-4.506157993896633,-6.598265598789177,1.2285512408431718,4.32187216022367,-5.576745869152889,1.9161837634330956,1.0055031227570492,1.0424948565898111,0.3913381405926373,-0.9578536233355393,-7.871458132093144
49.0,-10.967454659939154,-8.92300533727587,2.0444493226633376,9.966156466256722,-6.528949754942884,-3.464492137287585,3.8256204542463825,-5.307850538223841,-1.3557233896272027,-1.3580734425576042,-1.343808248166826,-3.3578375681316173
50.0,13.6935278888511,9.216381710407262,-4.477146178443713,-11.510548956022324,9.060822569518368,2.421316394420753,-1.2578886702476195,4.501351412811072,0.12508078582938442,-3.1707327971275086,-0.6086423404130096,5.077453939852202
51.0,15.647644888625702,2.1202389088229237,-13.527405979802685,-8.935390542106834,14.639186123062084,-5.733506199675202,-6.113133785361422,2.7159027948852197,-2.7476634237136865,-7.077759816043153,-4.394995872433681,3.9815731963820666
52.0,-8.923936696098943,0.688599525818649,9.612536221917615,4.15011859067873,-9.297930228624018,5.117371710906169,-2.4341669092280744,3.544685355492732,1.2735749759232644,0.3128464164600404,4.387752271296282,5.540741469272431
53.0,3.390301881942352,5.689794422999194,2.299492541056788,-4.502241410389274,0.592736535391722,4.037574777354786,-0.16420199733436358,3.482553636478367,3.976736078069652,3.6518962808076885,4.141207491109375,1.1903703500677119
54.0,-2.951773915725339,0.3202919469936729,3.2720658627189154,1.3582602333134237,-3.1436674500098594,1.7595363133724387,5.738596076974896,-5.094077854967392,-2.957177342537615,-0.39055323648778906,-2.2432067599100716,-8.408439208596489
55.0,-16.539171164424356,-13.2244392775925,3.3147318868318534,14.84867800507323,-9.957569387331393,-4.911022517689289,8.075763118951215,-4.138546206500331,0.2425927293754041,5.009352507174743,-1.6627007048938605,-4.078100275521036
56.0,-15.631821512287264,-9.817562530210608,5.814258982076665,12.692332210237215,-10.672602056673135,-2.0324014370006562,4.240115405118466,-4.684288701810484,-0.4347594490861242,10.103362950207986,0.2943490871684873,0.5367058785755212
57.0,21.697243020415616,9.451142101354272,-12.246100919061405,-15.608037496038676,16.946338219883483,-1.343983044853218,-10.557268503578513,3.549476955799352,0.6432566495553723,-4.002546799503294,-2.004140226694617,3.3062374888105976
58.0,10.109280591640212,3.348405342133102,-6.760875249507233,-6.6864830424600985,8.412744845251675,-1.7265208095468325,-2.8203368830108158,1.943743154011849,-4.461267467389265,-10.524798038797588,-6.041767016604622,-0.2763972801629564
59.0,5.866472802713823,2.4219981015140117,-3.4444747011999217,-4.182263943663285,4.714174365068327,-0.5289835891968513,-3.605718682660573,0.5455687339537636,0.6952157122566074,-2.8329987548459776,3.017911459484843,1.2293165843934695
60.0,-0.900350211337563,4.687081940757208,5.58743215209477,-1.8515173646304257,-3.263103915392563,5.118526280831983,-6.268766874138541,1.880608266865142,3.3649230847364584,1.3134734606494458,4.937930303814541,0.6136898192572953
61.0,-15.16638530397631,-3.942500694852294,11.223884609124074,9.60096779095074,-13.215492883109535,3.6177360562621113,7.683954909713951,-0.5548518775439715,5.857197949043755,2.9973950899427395,4.1215831720893785,1.1025446337775315
62.0,1.9785516275242214,6.4524732400197164,4.473921612495674,-4.240307854563354,-1.271285907245546,5.513191719431041,8.532861045402212,3.0422645835340134,2.4348896998429757,9.506198526658142,9.101813919320247,4.572036003074914
63.0,0.26129955900443136,-5.233797812865143,-5.495097371869225,2.469528461700534,2.9284316446466767,-5.398166121625621,0.4346532971407715,-0.07289048246706886,-4.649634123204123,-2.4629700157346557,-8.126606724753332,-4.8889772084078
64.0,-2.4813176935817474,-0.7918082424182766,1.6895094511638264,1.6260611410774555,-2.1196394539730194,0.49194513512049864,-3.683041973834645,-10.618856377323683,-12.704314609325674,-9.891281804915357,-13.259130617298954,-5.249908367054335
65.0,10.05912711762036,0.22749221626838523,-9.831634901351835,-5.1512457645307865,9.984487923228128,-4.835554796750041,-4.730677573115413,0.09474020708679332,-1.638880372802256,-0.41956420451315735,-1.5658336681644176,0.7133961652313459
66.0,-5.906798397700772,-11.918380219889883,-6.011581822189399,8.903207180756949,0.008638693037030798,-8.913907281911523,2.8913148604558954,4.78441673214736,4.557545452102611,-1.0600382169775717,2.052915180233108,-3.0943281467976287
67.0,-5.320614269877999,-2.4028213988971787,2.917792870980364,3.848025449851015,-4.086273547830161,0.2373624449095031,1.1393470517051405,5.146062092625406,9.731265184057456,4.159166573135683,4.6883950641302174,-0.8673805203918142
68.0,6.244537211616292,11.01927935566365,4.774742144046986,-8.571940542861743,0.6893600473858412,7.883562871430705,-0.3894297668816859,1.0230674308033314,5.905563415921377,-1.213597054756249,7.1931244764621916,9.200957174580823
69.0,0.3356577745347753,4.634904700849295,4.299246926314403,-2.5078115372931067,-1.9461859636408827,4.457030041915993,-0.590607172239977,-3.5181478936606787,-7.544019033614793,3.577860563164381,0.2824340373633838,3.842005262341289
70.0,-4.122948530804518,1.5006768620707902,5.623625392875397,1.2875369196281077,-4.833978118741306,3.5509110390324095,1.895033401257685,-2.2164425284477884,-1.5464846326032893,5.568790065563651,0.3055043578508676,1.7296616120499742
71.0,3.435831195155897,4.427614420015905,0.9917832248601801,-3.874835690659941,1.1863679359784431,2.692789072315783,-1.3283924944753438,-0.8696875642806572,0.7391382629123462,3.545828136132732,-0.788292558284493,1.0768133379255191
72.0,-2.4388065668714223,-5.798454789950222,-3.3596482230786417,4.100297866609804,0.42741772378568654,-4.526023518430378,-3.01797834371878,2.122147221017853,-4.381005671534554,-4.413627851672737,-3.1253678449144484,-5.104717736433534
73.0,8.887699368115527,-7.633073755120309,-16.520773123235664,-0.641950486384816,12.750811010732068,-12.112730077345887,-2.5192063658616246,-0.7271332449270523,-1.4562872937530507,-13.120134991658357,-8.292221844373216,-11.808749271075476
74.0,0.23133858155443776,-6.220204784169178,-6.45154336572346,2.9821547347841024,3.308455568764941,-6.302640650141438,2.177882830934436,-0.7703370438435556,3.2215556523370914,-3.87803850906559,-2.983686615153215,-9.383744884061715
75.0,-10.746099541013876,3.005059024909253,13.751158565923149,3.8585382946260425,-12.283023408213852,8.402934404201973,2.7985278832918024,4.412791442213064,5.222814385682176,9.475234956999099,7.5679161715874805,9.007330813670592
76.0,-2.084978731936995,3.7805305151820714,5.865509247119017,-0.8612437421718393,-3.9314452777035376,4.762139782955754,2.372991104305007,-1.5736388133743662,-2.0180553973372968,1.2762067458434112,3.181294854410411,5.948410865670866
77.0,6.297618897439607,9.982191346707257,3.684572449267624,-8.07687578947842,1.3518013608321873,6.845431097781114,3.503142848105369,1.68237528165289,-0.16407402802802967,2.817363396094848,4.555435297173184,13.506195430966539
78.0,-2.1523147729576872,-0.368498732074261,1.7838160408835009,1.2428299459888894,-1.9976894585254823,0.7146661111478552,0.3667387467559279,-5.113085002983197,-6.009261121904319,-0.6891117130795599,-2.0176149043679636,2.9567867179872165
79.0,-3.1950399132457585,-2.2159023203921113,0.9791375928537671,2.6871859302516112,-2.111207147038289,-0.6157359116982604,-7.120489122108385,-4.411901191736645,-3.617117349366649,0.2269785141204114,-4.16957538579135,-10.67512037350874
80.0,11.564978104066332,10.198166726099284,-1.3668113779669597,-10.899372427926801,6.4474408328447295,4.41487903904912,-6.3498864228948815,2.3592451867014455,12.483948232459344,10.5734395962898,6.626819666483077,0.6267107425406389
81.0,2.6305317951558993,-9.429350090060717,-12.059881885216639,3.4613930810954816,7.409534469410445,-10.747463636579129,0.38038790792190236,3.3281499778711323,1.0273878128322842,-7.133217686106975,-2.4774605608226983,-9.579267065169116
82.0,-13.460538747173374,-12.50128418701257,0.9592545601606695,12.964658592696923,-7.223472065480582,-5.773959731202304,4.360245543214903,6.573193058379923,-2.3625385150220337,-10.816858498373685,-1.952377577768214,-2.098798664046405
83.0,-2.865930694645452,-10.197548337759256,-7.331617643113896,6.514448845324225,2.216123872008741,-8.76524756214959,5.30380695000796,-0.6158572839879577,-4.489487780307467,-7.28417722312228,-12.457775370009129,-2.3355579483918274
84.0,-5.4848418713488805,1.4488894373029284,6.933731308651932,1.9976423660643925,-6.232791195519283,4.1953937864302615,5.2118974117064685,-4.3178566835228915,-1.2301731917196168,5.773467733610595,3.087883368167086,8.624630645135278
85.0,20.884290487061985,21.12623770427723,0.24194721721553947,-21.030187139013332,10.28885884415648,10.69500407870893,-6.824774672727597,-3.385636127428609,0.20888218043629858,8.232171638023644,6.90040306368268,9.662814143092957
86.0,-5.271240219869267,3.8002032364086062,9.071443456278216,0.784453671640696,-7.1332627086080285,6.454788456864643,-0.8770104937976861,0.8128540775779731,3.5394548869407476,6.150799573577246,7.466963896255994,2.2022337063675996
87.0,6.394526035504476,-3.801500629612491,-10.196026665116728,-1.3301092984662914,8.327893646368434,-7.050385810005134,-1.6603594375918727,2.501605081988928,-1.3745001049095933,-5.295140354937718,-5.3502238306863745,-12.319828482028136
88.0,-8.949415958792986,-7.153452020735109,1.7959639380578047,8.094705150998175,-5.3411600646745825,-2.644386200146373,-4.159257214084089,-0.38303396323431793,-5.377950923836304,-6.141976795913338,-3.8413359474591084,-10.124341431527485
89.0,-0.6612959705929988,7.118170741950538,7.7794667125431225,-3.185489238581483,-4.264286010400678,7.410053006885498,2.47234617912674,-0.3451906273579619,4.4254104462636725,0.8847294926971836,4.076533115119409,7.358935601283494
90.0,-7.6001166666698,5.860226165368216,13.460342832037517,0.8340336456766466,-10.567637639758788,9.704102400615161,7.142113985933416,-1.3114282111418212,5.195976478991724,8.238856449034488,3.1092676427231973,11.749418557951874
91.0,3.6272372952680048,-5.864478019182859,-9.49171531445115,1.0812119713165675,6.608682557725911,-7.710788653143891,-2.9625048837808095,-2.173527655561136,2.40988945404606,5.943952982682337,-1.3747155335509038,1.711783819789666
92.0,5.743374473719976,-6.125723594908415,-11.869098068628348,0.14998540162491025,8.784200021758021,-8.950304938707017,-3.250558925337822,-0.06015874752866007,-6.805635567774151,-6.459436004644008,-1.8526982892716997,-7.727605409353948
93.0,2.660427259205989,-2.1149289944638885,-4.775356253669493,-0.24088970180398023,3.701774804042625,-3.476474598269828,-0.29351645176300645,3.2174140611136863,-2.3758321073265205,-4.898465249102607,0.43042630954665295,-3.9653253506207204
94.0,-6.762487572099813,-5.943607611755559,0.8188799603447658,6.378716695630194,-3.8031550661055435,-2.593664608270806,3.4451889507643996,3.7146669983365315,1.5294923433641707,-5.154128057227594,-2.2711193027589727,-0.45017456955077906
95.0,-0.22283452351895816,1.5385970358267733,1.7614315593461911,-0.6371456177675259,-0.9248227399617279,1.69764297828966,6.646707035460923,3.3316851970446955,2.5847544012180923,-2.9786121244060677,-5.8288114628771694,-0.04583984542072683
96.0,3.6226067515692306,9.293831805311658,5.671225053742576,-6.439869301874356,-1.037578961714276,7.45207356226984,-7.489393715383269,-3.989467219206384,-0.6928187853922279,2.3770696978903465,1.290461924892853,1.6466862050184636
97.0,-2.9882827392390965,-1.4369243069332471,1.5513584323057072,2.1528746327017982,-2.2880041387194696,0.10682992279850367,-2.7915427955411496,-4.230998819655953,-6.475179771622438,4.867923133085024,-0.16342522788659153,0.5843433969747385
98.0,-6.463516051479099,-8.86322862271173,-2.399712571232979,7.686007934841356,-2.058071840494561,-5.658647873963042,-1.0672099081831967,-3.7491698518052106,1.2881702624074698,2.24430925879245,1.484724012604775,2.5637157075359083
99.0,21.964131760972943,17.109683137642335,-4.854448623330969,-19.586869169634458,13.451373630913416,6.10298849885444,-0.9720997894003736,2.192745018950918,5.624106790656123,3.6736134429537732,7.376079576346032,2.3239995767227883
100.0,-4.2691540336308345,5.060826807719322,9.329980841349945,-0.3589054637223583,-6.847964442296828,7.1739589206178795,2.8578155590961978,0.9267370254830631,1.271521650479865,4.604840863784021,9.313238523169192,0.6955997720346232
101.0,-10.306473022601827,-9.806189002996451,0.5002840196053604,10.102580590049598,-5.384156954245225,-4.591695918854226,2.819226075331393,2.2921270096695068,0.8941098380701877,-8.37796844352565,-3.2967102336645797,-5.717612674425376
102.0,-2.7868830689291553,2.227220434823754,5.014103503753073,0.2565697867082406,-3.8898555415747307,3.607897772808575,4.0509069795496755,3.2229362709035385,1.8770616549007149,-2.898546596258308,-7.583380112667813,1.2706071431173775
103.0,-2.8300024654544136,-9.554004286292635,-6.724001820838114,6.17626289741273,1.9531125270138368,-8.146602664989828,-2.5325246426554555,-1.6435486958553933,-4.231353748038945,-1.3312973952016436,-9.329494583937965,-2.700162778051932
104.0,-0.26947414481207455,-1.47951728438865,-1.2100431395765154,0.8629032765780744,0.47657654973683305,-1.3475242354236308,2.525648072271725,-1.7270102523875965,-3.153620400538488,3.0776082708917354,-1.644636041283495,0.7374302610450215
105.0,7.984499496795285,-4.208403893824732,-12.192903390619982,-1.9000672646761179,10.099534860791286,-8.19982139794477,-5.842094057188682,0.23710365123205168,-1.7841729402339825,2.2869954137590254,3.2447406609649407,-2.627809213384311
106.0,1.2006392250714732,9.130543538795461,7.929904313724003,-5.104284308675467,-3.4247679142136356,8.532451259225471,-3.807598727654968,-1.1835999403021769,1.5268648186119869,0.8160833196029809,8.905365563091372,6.9446873000846665
107.0,0.4563886883299033,3.8514744697458685,3.395085781415991,-2.181325557933754,-1.4412376770120023,3.624173973283494,-2.6538736491608823,-2.5654516121114748,-0.6823993538245055,-0.8849202796839157,0.6250209508366407,2.5494392951219758
108.0,4.905043866862122,-0.9475764365022337,-5.852620303364265,-2.019287827067633,5.416573188222635,-3.403259961467688,3.947800905826443,3.9824141306150618,6.087460631814076,-4.511941969570013,-2.9976394303002727,-7.07726292444979
109.0,-6.3019696650366885,0.7604758643725134,7.062445529409346,2.7945824094927474,-6.714862575594977,3.9021464946409896,4.493338107010377,-0.37831369025977657,-0.5955808312911364,-1.6429509656256331,1.132658203536848,1.4710841380750304
110.0,-5.849989433858553,-4.664848919659951,1.1851405141987037,5.268062441976957,-3.5442349508848814,-1.75628585182232,3.456063789704124,2.865263753259839,-0.6753258651289009,1.430055564449559,0.7192499685532596,1.725808935182502
111.0,0.7560469653819397,0.12785751319159955,-0.6281894521904205,-0.4411045363276207,0.7471457739964635,-0.1945734099622717,-1.0748395031682714,-1.306269992346224,-3.0184832552671472,0.8349460859098634,-3.8762637172120162,-0.38489543558256656
112.0,2.4902682389862862,-2.212096568492823,-4.702364807479245,-0.14307325334571908,3.5723068331106296,-3.4855125743316164,-2.3107474097574334,-2.371182461318879,-1.4965103921465697,0.3966562202020725,-4.812698777484332,0.453515349575037
113.0,-4.651438699892726,4.449737311640693,9.101176011533276,0.09751815889698848,-6.903592440637558,6.744391738220597,-2.1734841441295396,-3.317202538328379,1.2123691740336633,7.023665313252121,3.4429182196633126,0.8136691034231163
114.0,7.8920779962165994,3.1091929598936687,-4.782885036323009,-5.498447196378985,6.38328631809144,-0.7895170080569851,-4.403515789906191,-1.4523962885912436,0.3607929038122263,0.5309468935663721,2.6202349608422404,-4.340635880907202
115.0,7.2545672867407065,-2.474698100167271,-9.729265386907972,-2.378997111228909,8.451754574377867,-6.131929915402722,4.437267352031194,4.430530497072104,1.5370482047010288,-3.9325372430804015,-1.250848639659436,-5.896377958634942
116.0,-7.3432593659431635,-2.485832093225388,4.857427272717807,4.9351943610133295,-6.069623150550501,1.2367641015453077,4.922902442244992,4.976070340319411,3.179125095626901,-3.8845849074345087,5.583649543182106,8.181747100779994
117.0,-2.4745612421124528,7.13325284062385,9.607814082736295,-2.3790828672296924,-6.018110324824495,8.34428692722516,-4.521347736661101,0.0502855235473767,-0.04976239746065836,2.721521828950661,7.038302894401567,7.252816121054146
118.0,0.33790430715480646,-1.2914887047588934,-1.62939301191384,0.5111304578436326,0.9213858557871064,-1.486765839427652,-1.4866630908062994,1.4581410195777353,3.365117411537697,3.5624371351861077,-2.7462151915494295,0.6214741452720411
119.0,-4.520493374373833,-13.32117381669618,-8.80068044232247,8.878140550491498,2.1518336302247136,-11.089154594762094,1.6675744090326365,-4.233353664291798,-7.461207283496799,-7.743007816966061,-12.48290875038878,-10.186349881294229
120.0,1.1813999338663879,-2.138059828344134,-3.319459762210605,0.5131937839062983,2.2599402870438112,-2.6813085543632305,1.1232204138798545,-2.2547296819784286,-4.991869780265208,-4.202915146160528,-10.327820695416658,-5.067951307517983
121.0,4.67631754368314,7.395332397122104,2.7190148534390572,-6.082179315858446,0.9887785928552556,5.022754794158546,-0.7679000766868432,-5.541005764734488,-4.395570880731894,0.5634401617001983,1.5380928930768532,1.7754343176785676
122.0,10.138764102611995,10.154312642210666,0.015548539598909672,-10.115992685866221,5.0749241822802675,5.1269915593959965,-2.268943733866516,-0.20486742489892174,5.009323424970112,6.107071867553639,8.430746404160033,4.486473584542562
123.0,-20.956626680968654,-5.825324031619759,15.131302649349207,13.421650531811242,-18.02581953473379,4.693746387569438,3.0856956055843923,1.411035711667378,6.403784344466021,6.275136675301508,10.314151196838349,5.773434586713351
124.0,3.958606869559384,5.207111071787803,1.2485042022286166,-4.5497727704933935,1.2995982582816943,3.188740918889077,0.18053522862504157,7.1050790456001565,3.3396520110372334,4.428723282458941,6.114345994243291,4.716308266870832
125.0,9.067084544244759,-3.7072377855828664,-12.77432232982753,-2.7216185975116045,10.948268290184277,-8.281788031752116,-2.7939148465439265,5.189292599740124,-1.1216125151030227,-7.707743906525366,-4.904454225819731,-5.236182683424861
126.0,1.158844300068031,-6.572651875827581,-7.731496175895643,2.669568159926759,4.396693600405794,-7.117846310330446,3.933279353747308,1.0568636507184377,2.1727944361099705,-4.704273898668303,-5.562271616242097,-6.019028847673563
127.0,-7.405653232817454,1.7273022878593434,9.132955520676662,2.8057141144164586,-8.237928187691065,5.3807366612643115,-0.871866244318559,-4.17656843241588,1.2339594691990434,5.252112689027771,-0.6143675071021892,4.3038877297800076
128.0,12.394056000873533,10.79983337311146,-1.5942226277622908,-11.548490653132248,7.025357568886519,4.627053004579477,-7.21999360324365,-7.466204236435464,-11.25244814937165,-4.920710297606328,-6.320488538617916,-8.185210825037503
129.0,-7.0089676531263265,-12.555387881409949,-5.546420228283841,9.833313024203004,-0.7010625286366345,-9.030551638697869,7.203442451244518,0.20915885235367426,-0.7646920583139716,-0.7466008736964937,-4.3961858493041746,-10.160661276368224
130.0,-4.193487374724129,-5.25480010951204,-1.0613127347880857,4.69891255909833,-1.6161129194354371,-3.1393447527102714,-0.7854751856731044,-0.4639791723529594,1.6714390381590305,-3.2254753029999734,1.2753539528936497,4.327642890103394
131.0,-2.325464610354124,7.257842813996739,9.583307424350794,-2.489497361717582,-6.0058870365191925,8.440017048529802,-0.6694398304847083,0.5306270477683205,-1.7628608594206907,-0.4582278347792853,3.951267536633459,14.073731752183503
132.0,-13.370805031474635,-1.708654393075085,11.662150638399673,7.517428954131432,-12.489916298396365,4.919759559972137,3.545197508520728,0.03676271803472808,1.942292058086762,8.672878917659787,12.302953021930097,15.872292618417124
133.0,11.69791253736017,10.95841925744122,-0.7394932799187144,-11.272102070982355,6.246271367890862,5.133947731406169,-4.1520805238123915,2.613660291844127,4.709082405874597,7.236077628603647,6.092049165929174,3.9580661310732967
134.0,24.378973085427454,14.333750917580806,-10.045222167846434,-19.381083600547395,17.242934232076898,2.092140520086003,-4.676410043390251,8.048438361791497,6.748132887900659,7.775024639185823,-1.1388979182252732,-8.729656302128056
135.0,1.4643698754730003,-15.945782712389052,-17.410152587861923,7.212386970896093,9.394677552176756,-16.650245060165688,3.0703003268860094,-4.023530175206312,-5.290759026617921,-15.105491846897852,-17.253517816624104,-28.66648809758969
136.0,-24.873083926666865,-24.681732641245567,0.19135128542132218,24.8231288499631,-12.489649515095724,-12.217452090746576,5.637954582075856,-2.2579983666767593,-3.467536500612956,-15.312973804585571,-8.000416589682619,-7.243057096266591
137.0,-13.038346207050335,1.9521685291023605,14.990514736152662,5.504971798862824,-14.044480735573584,8.498087437263319,-1.3748890251655985,-0.6177194789564258,-2.0269406034340522,-0.24683795202760805,1.9749514713397538,11.019471704492577
138.0,14.802507233137664,16.207142718716955,1.4046354855792949,-15.468803454943618,6.67369317450251,8.751859376322844,0.8623685326568993,0.2685968158867862,4.844929291097561,9.54633128323238,8.834426307791277,15.09663270236784
139.0,10.903004190964767,6.900991803098567,-4.0020123878661975,-8.948097432175503,7.430447211139696,1.4711454620910018,-2.5375581916382197,-2.002198830128196,-2.5126672622895647,8.675328678042892,4.434887002931423,4.286565793744945
140.0,-11.54645473410869,-7.898000152819786,3.6484545812889424,9.753226897006073,-7.538754117852817,-2.1068728801949463,1.1880732972010202,-3.6668145657216917,-5.863796880861443,1.0982853865056903,1.5315960179929968,-4.612989356745187
141.0,-1.1234489678190167,12.894479802649098,14.017928770468194,-5.854373424463164,-7.589141014294233,13.39189174568013,-6.2114303745850545,-0.8457849222035603,3.9546115492520073,8.125548773996188,4.5740358334912,2.9700510227827017
142.0,7.56682406890801,2.6795523084464623,-4.88727176046146,-5.169164108735717,6.210195532395884,-1.0909995422911951,-1.3769033404451918,0.9798164208848863,2.3540353472339213,-9.041111799977664,-7.354125020218859,-9.069995962493433
143.0,7.387360294031629,-12.661789769544521,-20.049150063576114,2.672635970841032,13.781396214762363,-16.340558419630828,4.512881348640633,9.089204027797187,2.6717509186899306,-13.022265811482532,-11.453930131076756,-5.846016668050443
144.0,-3.965392098522411,-8.198773162840823,-4.23338106431841,6.042061357014014,0.11816815155394789,-6.194346789279581,2.6126462981319865,2.9955785789090816,-1.4369417762032917,-1.5397457343703111,6.484078750144074,9.84037096823991
145.0,-7.917159916741092,0.2814426878925467,8.198602604633553,3.781729381834863,-8.076701741384259,4.273184176697068,3.5988291584195418,-1.20859513964035,-0.14409877310819474,3.703399699790938,5.873610249784427,7.423143636518439
146.0,-12.111413699301531,-1.33394929283207,10.777464406469319,6.769836167064849,-11.46974857760988,4.690557902906721,1.8638148350090074,-6.980527367704722,-4.763093984876899,6.375996568202835,1.146773724969941,-4.317282466737337
147.0,1.3127142083545493,4.511924642106931,3.199210433752275,-2.860194285973412,-0.9780240738638701,3.839006391414024,-2.5232477408162213,-1.514585448567518,3.965372030035909,8.205129968894138,-0.4358469610962361,-3.9753618813303855
148.0,16.413436664768444,7.232559255410436,-9.180877409358036,-11.845009225451427,12.830476751851066,-0.9787073666987629,-7.597338182087908,-0.8747334481664955,-1.0819653302341723,-4.294775323806956,-1.8787168897584423,-2.8131132498562623
149.0,8.794157667000722,11.57201612969746,2.7778584626967886,-10.202132171531623,3.0320281438103796,7.1776282316393685,-5.722415291155407,-0.08394832652520468,1.9342200761601247,0.43732282170091574,-0.4596308607566313,1.8589758117290183
150.0,2.68818005932392,-5.438190372648351,-8.126370431972086,1.3560298923677951,5.42493100539254,-6.77799438740604,2.9146850949527927,2.955198040372082,2.604416633506955,-6.752464512672799,-6.101719488527474,-4.659213940066175
151.0,-14.297467313165754,-21.14207930804059,-6.844611994874656,17.69740764627035,-3.7109535482039555,-13.992609875966606,8.485821837534402,0.9322550056392134,-5.440575295495409,-6.448425871848491,-3.2966457973660486,-4.565369782225903
152.0,-9.960777982307196,-5.063721317832189,4.897056664475051,7.562219597303454,-7.490866379447378,-0.08970979137324875,4.901968483110582,2.231224882533418,-1.3209852640519708,3.12083304360089,6.209205761619218,4.362330285346257
153.0,-2.706220719237124,6.817762216176333,9.52398293541338,-2.0927266223141396,-6.094928098961219,8.15597016029477,-2.75687192001431,1.2523246699469879,0.5827363815088548,10.496230162538676,4.267671941351262,6.437853311394864
154.0,1.9635839536164295,11.695043681250132,9.73145972763359,-6.795870710996481,-3.860042327136267,10.769293832051492,-2.978918627698134,-4.910087295082146,-0.43075028801774873,1.6510486061825054,0.973064748025712,4.7075086062188785
155.0,7.2878568161278,9.925936659896855,2.6380798437690345,-8.580583731794183,2.272785001459699,6.2538210811333315,-0.8719349019812039,-2.908636817896475,2.2184115252247154,-3.7980911794557515,2.0902847286395163,3.943236453614663
156.0,16.37988351848525,15.085686403917999,-1.2941971145671731,-15.790203384698128,8.864863665007672,6.865199616850053,-6.371990840840453,-0.6279675055950451,3.5361382958014387,-4.181158706511237,2.9671758890662034,5.289816728493408
157.0,-4.141450919494435,-16.41974576775931,-12.278294848264665,10.299564004367245,4.096007097261038,-14.300104812506081,1.432542029197315,5.055651239531446,-0.3634038871808407,-0.21256029474075788,-6.674872550946706,-13.126814170410311
158.0,-14.935165219267533,-25.18175601968794,-10.24659080042022,20.077837615369063,-2.396360238276585,-17.740990914377477,5.29685800862106,-0.47564055243765413,-4.071227543901748,-5.435557063601854,-10.148253392454796,-11.337605231930972
159.0,1.5380924510901695,0.6575039010023946,-0.8805885500876496,-1.154017794325025,1.235479710992481,-0.13427940538525895,-0.1933868064553086,2.319831608654523,3.5609204014922535,6.88519897052735,5.440860500511171,6.2088986529772985
160.0,8.6615290588962,4.808444590292931,-3.8530844686033143,-6.7068450988040365,6.284301310076117,0.5373907816925854,2.2925020145064368,4.764276952236073,0.3068792174898976,5.7505103923981045,3.497256747600775,-2.3250046415323995
161.0,-3.143234712109928,2.117306071649214,5.260540783758903,0.5484605124892807,-4.250660236395834,3.671880942507931,-1.5633872020817015,-5.708438328392664,-6.654067129847647,-1.732573103487125,2.035149611818512,-3.641076825686033
162.0,-9.477472334229207,2.4933037673641714,11.970776101593,3.4566322859051066,-10.688772081774424,7.214477486490481,0.4169085777614189,-7.780219584739207,-3.3724600799977047,-6.157504900846431,-2.9676474297276685,3.696684373231342
163.0,9.364212123228643,19.453222859104265,10.089010735875288,-14.358952343783278,-0.39831673044221905,14.750527553087629,0.22401872509882048,1.417409318851365,7.847986165000458,-0.25354331947818265,2.311686013363137,10.491815543728269
164.0,-5.179762549875607,-2.9296932608317663,2.250069289043778,4.02905755924316,-3.6633151285960333,-0.36503379703290584,-2.6585855032735517,1.451998130533108,4.897266126257692,1.7071308949902355,-1.2840219572744083,2.439915688554736
165.0,7.460772451665664,-0.5373289677750549,-7.998101419440565,-3.4883958432661144,7.711126014200444,-4.2189855849781965,-5.259964845750106,7.5904382433361315,-1.474088719588893,-1.0515897287647893,-2.672808108351786,2.8638901383055866
166.0,-13.831422719740193,-27.9903127351168,-14.158890015376349,20.878957684082174,0.15298730000982985,-21.02952217440114,4.727071071456321,0.9258223395844092,-7.078786969927596,-3.819928586102284,-2.523094850313724,-9.498262720211896
167.0,8.316131084088386,2.5932945998153265,-5.722836484272858,-5.415852196972928,7.0139213020114966,-1.600355787977529,4.158521683526803,-3.489446896409539,-0.4244506582091345,3.6052293438655454,4.132401884416412,-6.565721208708342
168.0,11.16718662663804,23.013132380867106,11.8459457542291,-17.059570878767445,-0.34271464504097127,17.393455011438157,-4.559392216252679,-4.676960016977887,4.557880873711037,10.042379868373303,8.920243001177736,5.74350549567909
169.0,-5.321356539600636,-2.7527971154861754,2.5685594241143255,3.9829181506759355,-3.9490043307975755,-0.04949900257445261,-0.03946052310249293,-1.8291995438887412,0.03629942452811652,1.3673431209390343,-4.846574104574694,-2.4908666905100914
170.0,-0.33447271221395125,-2.975025592078782,-2.640552879865032,1.677422135478983,1.1457495157628403,-2.8446403873343495,3.673112779278097,6.190526727247015,3.1935732028942874,-2.1400705044961907,-1.1335015674800302,2.329645970301936
171.0,-11.74608333615743,-11.274295482431558,0.471787853725666,11.535464659958443,-6.042792791798881,-5.361627167405363,1.6519716571525411,0.20178164803103016,-4.697069796182729,-11.478698551877129,-4.426124493733197,-2.379729885028723
172.0,4.537329569133257,9.971826880430786,5.43449731129735,-7.223231292534228,-0.46827773367548753,7.6598492697671565,-2.9745679656167767,-1.2113696378536964,-1.9988261951390551,-3.553000872202201,-0.6584785150310397,7.081657818235861
173.0,0.7781401178492207,-1.0749120733983029,-1.8530521912475706,0.10839374697528448,1.2872789018479416,-1.434400585628238,0.1194592569143007,-0.7852349833728209,-1.1758499725404135,1.055947534272109,-1.8601161777595734,-3.800317116769474
174.0,-2.1344441323416756,-7.9152096641746335,-5.780765531832918,4.991205558769431,1.7851720383470686,-6.825074472471908,-0.5738295489751354,1.3721140284067528,2.7049710691989577,4.839881986732572,0.2796097450772348,-4.809648617382527
175.0,7.089501648544683,9.881124744009067,2.791623095464488,-8.515378591943911,2.179981358398824,6.274391539029091,-4.2981509123894375,0.09683437676338064,5.789012298377421,5.260228580654531,9.572514964426375,5.402648887584721
176.0,5.1639015926452725,4.160686712367976,-1.0032148802772376,-4.613615798558482,3.1062651878125114,1.5914568746422144,-1.013775176518001,-1.2426701166389769,-1.1437935181949719,0.11064059478650723,4.418846509446221,2.595755152668269
177.0,-2.618247560869673,-11.440753146025546,-8.822505585155888,7.074743583312001,3.1193585096968084,-10.119442094840549,6.016736466179667,-1.5758844454867842,-7.648418013137308,-8.185249266933056,-12.16835945487871,-10.322019634778615
178.0,-2.438414225645464,4.647618744125362,7.086032969770795,-1.1443853125035996,-4.825297589321821,5.882728817944208,2.641022328417747,1.9830915267098965,3.3317673844609446,4.583885669856031,-1.6733467820726413,4.72603933568713
179.0,-7.231134279641643,4.791473974732872,12.022608254374473,1.2504483374785496,-9.608474558500578,8.430549222571234,-2.4141152036946982,0.10945469146787767,0.9888140708943293,4.9813895031605995,4.773986602164481,9.953147510916269
180.0,-4.922773411975687,-8.57937767369527,-3.6566042617195853,6.693522193554169,-0.6082014483654596,-6.1632455720069235,1.323131233477739,0.21469615827085653,-1.3798221916154565,-3.2158488899655553,-2.2130263403928643,-4.460076789969678
181.0,-0.8542219513290579,-6.584706767817113,-5.730484816488028,3.7315785715402923,2.4719205700693143,-6.113957159088555,-1.7631399294016088,-3.211612613728268,-0.907145573030748,-0.6118432168618808,1.6851414604882669,-6.896967547786769
182.0,4.82855728257786,6.2300994107802445,1.4015421282024292,-5.524143196802948,1.6779505712162532,3.788828975981576,-1.7885255253948147,1.4257382189042405,1.2479561225633722,0.6153208019042458,2.1723975742827286,-0.4308968363188539
183.0,14.665741594515184,16.898594583498753,2.2328529889836757,-15.779903228581336,6.188812569644165,9.54348482742433,-2.668023453237111,1.6669204505891857,3.010899524865617,3.1048511421566545,1.4481514219421951,3.3946838427949135
184.0,6.4310618397876445,1.8469097899746751,-4.584152049812825,-4.134339769415435,5.484962528788419,-1.3895024980090596,1.6917714405700564,1.1244313540395234,-0.3423291107559654,-5.8698454789860595,-2.717900643615319,1.5794707638460121
185.0,-6.340774191466293,-17.36976506838742,-11.028990876921009,11.867763392553943,2.4016238695125987,-14.142316220511276,2.946537936740169,1.6920056725996433,0.25047533071002887,-6.55432111501134,-7.643285985231628,-6.071631093311305
186.0,-4.584294342561293,1.595129684460221,6.179424027021566,1.5191809839158914,-5.405172286359505,3.8645339711061792,0.2977194354490713,-0.17224059369098174,2.0746771007472105,4.759903117448406,8.804907664135403,5.310978016811296
187.0,-18.054498953982353,-12.59625503999487,5.458243913987328,15.28521493326146,-11.705979381633023,-3.591280725629571,0.12262048711306761,-5.9345197954193045,-7.971083236782842,-2.2392107525326055,0.18759818786773685,1.2949514563520144
188.0,3.0743249045138192,3.393241397099065,0.31891649258486154,-3.2610077018849477,1.3420966363081188,1.9154238347670047,-1.8316757437292217,1.194389086843723,-2.8791249748514183,2.3192997484655953,-2.824280155893148,-0.4137383686854519
189.0,4.303953938807147,8.998461094488741,4.6945071556811575,-6.590542817558574,-0.23931675154217757,6.831961207075565,2.9069932432130816,0.7339088590690881,4.152894507973619,7.214550980611407,4.3770452668394695,1.5044664097448108
190.0,-2.8940972186879206,-1.4665557438798356,1.4275414748078021,2.165691005450764,-2.1343631790203963,-0.028675021136748136,0.3391050196939001,-1.749425491333033,3.735805686944568,2.440670763549493,-5.655092915603549,-5.292595049655326
191.0,4.891222261439236,6.59553539478908,1.7043131333498642,-5.760826933643083,1.6134402959085894,4.144479922782331,-1.9710227390303166,4.035189940807134,3.379731352181736,0.9137647707975569,-1.4026521783918138,0.6809924626294708
192.0,24.281782952219643,13.837157225525988,-10.444625726693339,-19.085036757962417,17.380017983552914,1.6910560691537935,-4.91099627268014,2.6171554836237707,-0.976412818303797,-4.345554111589519,1.57120790245811,0.796404904331064
193.0,3.62877264931255,-2.340836789152535,-5.969609438464673,-0.6018532684318885,4.738392105010975,-4.16459733023296,-1.9124868972775897,-5.734951217882065,-6.27894852698271,-7.765990858318944,-0.24601795256147352,4.725783559840056
194.0,-34.02068495354946,-20.721260521715728,13.299424431834055,27.32352272633043,-23.636482576309923,-3.7285037315639693,4.7353092064947155,-0.9719408533984224,-2.3640015853609895,-4.450981298785922,1.8953453002573752,-1.6493601732525565
195.0,-1.4261191815385725,-4.347415188020557,-2.921296006481877,2.910658049948248,0.780406745381347,-3.583991405246312,3.405612248638217,3.939171934851746,2.3701054981277747,8.602625150775218,5.471708139062307,-3.9192973777926534
196.0,-0.82049524204451,-0.3716468370174981,0.4488484050268926,0.6180610200066798,-0.6696417497408138,-0.0011220882746207916,1.1505023613781824,-0.31522160708388314,5.034983065105095,4.971754748027527,0.013605427607789267,-2.1367243737094075
197.0,21.3609679871227,15.734023088738365,-5.626944898384684,-18.5215806321011,13.547722341682544,5.082715342647124,-5.076381498981626,-0.3594209362934613,2.8644242055712468,0.5266083893309013,1.7269427436084017,4.26094188917099
198.0,-3.071837325915416,-11.173385331793098,-8.101548005878056,7.077903619015197,2.49605461702154,-9.615146525305637,3.8618636957104457,-0.1393320348615788,-4.575095901809853,-8.94350930939812,-10.722511001142522,-5.392236602743853
199.0,-11.269574131657421,-2.7160015339132446,8.553572597743889,7.0361400894941095,-9.930021105689717,2.85926687790795,1.3437380310516682,-3.2699744948855956,-2.8744018216521936,-10.752829758573574,-8.77014887713497,0.8751581430832008
