Time(ms),I,II,III,aVR,aVL,aVF,V1,V2,V3,V4,V5,V6
-200.0,-6.509653905841996,-6.156071673421378,0.35358223242160536,6.3467275349237,-3.417455673476722,-2.8864991312599093,4.733853705077502,5.085786417294686,0.09188885143870129,1.0683893598122394,4.111921670421964,1.7237293891548915
-199.0,-2.8137192553514323,2.793705947668614,5.607425203020999,0.02154174262113373,-4.2007876683733,4.218804047287504,1.1712724019162986,-2.0308245700226433,-5.210386887609221,-2.1198964668192524,1.9989967107521927,8.811682322814415
-198.0,-4.149718930880159,-10.211121882721658,-6.061402951841094,7.1946685385845255,0.9646655531270825,-8.111557729640335,5.543834129459188,-6.146222816017353,-16.368492339072937,-19.884477872019286,-11.199659180375866,-3.456609822881208
-197.0,6.137479613973923,-2.958898021102188,-9.096377635076568,-1.6460720641702036,7.628671887323952,-6.074423293869518,-7.898326129024875,0.4273587575136779,-4.638075739348933,-9.965084992758563,-7.679441656829533,-1.434570008003666
-196.0,16.054433208016086,-15.725659273384515,-31.780092481401738,-0.1310355602438238,23.85654102440603,-23.793852922345934,-9.393667988382777,-2.88448113538153,-9.978858056127653,-8.252452959915562,-10.792782810056487,-12.421288975362788
-195.0,13.764490995387654,-12.534600690105632,-26.29909168549445,-0.5690109006888778,20.058297647608956,-19.37612323432182,3.5049850634467115,8.444994741837407,7.03128720820456,-3.42851660914521,-4.324129048730894,-9.257869814778592
-194.0,-6.360261774049015,1.0926921676423338,7.452953941690559,2.611724497476952,-6.870861813885757,4.23473394574439,4.057597379870012,2.5451523203748776,5.884323196264045,0.38689222765478526,0.7754865524280312,0.28460916666746083
-193.0,-8.587889730100347,12.643995196976046,21.231884927076266,-2.0438988394517534,-14.944265201333629,16.97641230104146,-2.033600990599619,1.0191432049381968,14.90055221100842,16.486114356437458,3.6948904544566714,1.9251094938998214
-192.0,-6.277307450885299,16.586041203848392,22.863348654734192,-5.169943154961095,-14.597799027954911,19.760173738177592,-8.56522131060213,4.404425422727621,21.89780613741501,25.21897989448216,12.986677218198466,5.717055491423963
-191.0,-6.761333598369898,12.512686759619141,19.274020357989695,-2.896339245824569,-12.961924521425352,15.847460503664315,5.04110049033925,5.640021315983716,20.50075073883355,26.08292276268787,16.11464528131666,10.869631476120016
-190.0,-7.2803112770609655,2.719059110703977,9.999370387765481,2.2520298993633427,-8.661095948544903,6.390585455018823,16.892451678905417,7.435939081249742,-1.7614792337396934,1.1580369557606187,5.833111482532827,6.103069587475021
-189.0,-1.5755598321430009,-17.660777098856183,-16.08521726671299,9.661024513573985,7.232667537500085,-16.920310283271345,13.374512352828845,-11.059217420560762,-42.587167759787725,-36.67272457606577,-15.944558926130613,-7.936609702194579
-188.0,3.2798715295129215,-2.4278212235775953,-5.707692753090633,-0.38685577371250535,4.547250330820617,-4.034444177456205,1.6436138593133531,-12.196296507213294,-27.789784871630435,-27.08207222553888,-10.066857925743331,-7.506818928436462
-187.0,6.257213027954198,-0.304227135232237,-6.561440163186774,-2.936239003752971,6.37950711177675,-3.47441655056217,-19.127884319949416,-8.859997599946738,-3.208742663512812,-2.7322813465170093,-4.526236277483628,2.1222250586890485
-186.0,7.275243769734498,1.0409903040231017,-6.234253465711715,-4.191843667560436,6.72014573790883,-2.5536984263718896,-12.373133047068274,-4.384653341079496,8.508301224728223,5.319570544390001,6.198736196719724,6.9096265853082555
-185.0,5.6664733513620105,5.830876045954877,0.1644026945926207,-5.776591982760779,2.791603145281025,2.9689201625541264,-10.085918185544408,5.433235699934549,18.784387883998725,15.002832629392282,10.031811347501076,11.790918425725675
-184.0,3.4072605737167594,-12.887354820682578,-16.294615394399464,4.716176731219369,9.81180811211224,-14.533810048489372,-11.076076894900634,-1.4745119229616819,1.5960528985576161,0.4443503305287102,-3.2603330311250494,-9.038008023264975
-183.0,0.630436803849915,-8.555400373920822,-9.185837177770757,3.939262118375834,4.950351880317694,-8.886862450795563,10.322433331756658,10.834513488974409,1.1098859539867654,-3.72609333851711,-12.382449159078803,-16.064952727704995
-182.0,-9.85490219643767,-6.553230149976812,3.3016720464608387,8.256980503522275,-6.608804223902492,-1.6403911753549378,23.67599298239064,16.497900578091652,5.557285383283235,-3.1724998733746865,-11.206687056416913,-11.355559547738341
-181.0,-8.431539991816521,12.74375930804685,21.175299299863397,-2.1862380577695117,-14.74716240861334,16.941740500264906,19.578189105733173,6.228822313245777,2.210113723596523,3.7804831099072143,3.5719909756758774,2.1605417034305936
-180.0,-0.5504618206841059,8.202881205985419,8.753343026669612,-3.7813960288555357,-4.666876658867887,8.452686361411612,-9.420149776858707,-12.303560404993533,-2.8214439235483013,6.291845920963773,9.82871476766537,4.81708371141073
-179.0,0.31339124126984874,-0.5733727950302185,-0.886764036299958,0.09448959807175328,0.5892408051922597,-0.6868810381548158,-5.1952471984887545,-5.78790160455058,1.4371123887596884,7.677323798228614,8.942216137532924,11.534669117931738
-178.0,-0.36459023513824906,9.326137418647162,9.69072765378547,-4.43615128657495,-5.039912126890738,9.463283348761353,-11.378453160895777,-5.438051373177091,1.2486883283949206,4.394036375105013,7.019126756455227,8.758132058686856
-177.0,10.130053814398577,12.92551041489887,2.795456600500269,-11.558137208955793,3.6475758747522224,7.888158752158199,-6.040485975585824,-4.005090879901654,-0.38297348304339796,0.704291885868396,7.281351422905481,10.320435866338054
-176.0,1.3339748333477974,-1.3714192318815133,-2.705394065229382,-0.0069571427406946995,1.9880080750790308,-2.010959061301156,-6.00727682926705,-0.08623829314875398,-7.9617226492568225,-6.113772614248519,-2.478372039044663,3.4765633627673522
-175.0,-4.46736748758039,-18.505212743021506,-14.037845255441246,11.543039986155721,4.8190619334697065,-16.238418979237537,7.235183105790718,7.197123907908214,-4.717564737619316,-12.593984337709127,-14.855844957546616,-14.530665114005899
-174.0,-4.568077472512998,-21.53831801515733,-16.970240542644433,13.032204650674483,6.223987909791826,-19.29007513176056,6.412475908300458,3.4177420806600183,-2.783170884412627,-12.050116840943375,-10.100933774742373,-14.802411055445342
-173.0,3.776612956585678,-3.687615154826819,-7.464228111412593,-0.0680655046415568,5.63742261571811,-5.6006063255703005,-0.41016239051597125,-2.218264886831868,1.930351369372117,0.04487134393345826,-6.036730319193542,-9.451445070000872
-172.0,3.534116298745328,19.492800580905154,15.958684282159814,-11.543006574585748,-6.1954292462673966,17.71040118922169,2.8417411341448178,-0.3364830497896145,8.418121589625505,11.359912419313709,6.127766764761784,3.270753641766424
-171.0,3.3639912147496394,11.916524319646973,8.552533104897346,-7.599249918521602,-2.6518965449351795,10.224543915086826,-2.145864816874606,-4.053526019306567,3.263977302092865,12.078946667429312,7.866271597774885,9.223849856506698
-170.0,-2.514389172883991,-1.03421016350784,1.4801790093761849,1.8066718800721016,-1.9702270136825444,0.29214755920646773,-3.5667444900945804,1.460090809059087,0.7045831258432873,2.123131203985656,2.8641548316145915,3.790481629094697
-169.0,-3.0525814062463916,-0.2906503061788861,2.7619311000675113,1.6178715515945188,-2.8756280204832754,1.2217380765149732,5.59598164321927,1.2151192193212323,-4.321684160883315,-5.810007205541129,5.656689456691395,6.396659293674275
-168.0,-8.578705027392672,-12.529652923347449,-3.9509478959548505,10.574210417656506,-2.3599109343575386,-8.261986074610192,-2.6792884888185817,1.6344224431624512,-5.694343989232989,-8.688588172973008,-5.690107820095774,0.46886498367017726
-167.0,3.8073407408735616,-1.737083762943711,-5.54442450381738,-1.01738284883076,4.627058206573729,-3.6716645933036474,-2.565898036175989,1.8094083268927075,-1.5790038700705384,-3.4588496945537908,-4.079334996175766,-3.1812764224450385
-166.0,-3.0774596440197257,-2.511475985239799,0.5659836587798845,2.812160622765971,-1.797008463209445,-0.9330579454764614,3.3422183864003827,-0.5254535314669129,1.7348132923888933,5.372994720580817,2.993375981816317,-1.4314469784353174
-165.0,5.558925748934621,17.170992463512057,11.612066714577512,-11.42470628066383,-3.00683988785557,14.347875256491562,4.326683260111911,-1.5230021646472294,9.42758470003882,10.288884052696949,4.913390927375735,2.046421934752948
-164.0,5.59315722692802,2.907846376119924,-2.685310850807954,-4.2296432029107525,4.156804591011373,0.14706136737228537,-1.9203679167914103,0.5503968992679642,4.37220273405126,3.771243940054453,-2.411961694914644,-1.2792560095207168
-163.0,-2.8169277601831437,-8.188170298202273,-5.371242538018901,5.525429468419398,1.2966964628238151,-6.737620800130902,-8.043809349412005,-3.849067864238171,-5.2771332528583645,-7.867569316785159,-5.480289233039727,-5.566019171971682
-162.0,0.5423189800845437,-5.671366661910566,-6.213685641994941,2.511016475812435,3.4030665778554856,-5.968707663575295,-0.7066619481656424,0.6112083895967662,-6.576388598078127,-5.033988804688068,-1.8456454408718592,-3.4601802926657195
-161.0,4.49771423953841,-1.3248832348918862,-5.82259747443027,-1.5579313573571998,5.113429047132339,-3.588027823179114,1.4458986848977338,-0.6572617530379082,-2.2329758559515276,-4.366678828007564,2.324076611161314,0.37931091120952953
-160.0,-0.6820317970742324,5.9718502804566125,6.653882077530673,-2.6117867697673467,-3.708933652165916,6.308581123196267,1.6775343679993389,1.7961252887436463,-3.0739701004239812,-1.8979811283367685,-0.07901452263406195,3.436372344261141
-159.0,-5.641783761174452,0.8682830140254019,6.510066775199672,2.3472692337936274,-6.03560574025968,3.6902022693061003,4.315044992589108,1.664281057252649,5.336182407893844,2.471620601584787,0.7015051497383304,1.7166917539568631
-158.0,-6.6748991661598955,-5.790945224539222,0.883953941620617,6.279376016150424,-3.8191333128194658,-2.453324606086539,1.1530281473300916,-1.6429815801188639,3.817955247065094,6.154257777878666,0.5310529337885861,4.533599384208983
-157.0,-2.70584969541697,-2.8740498117331965,-0.16820011631612597,2.764967224718734,-1.2340822446338535,-1.5277655548319573,-4.097175159773882,1.6729990646111934,3.517623682371555,5.314556194882233,1.0474028733921987,1.358583053137417
-156.0,4.063210398203706,10.22047236014299,6.157261961939466,-7.160357389083134,-1.0178992710890817,8.171248256212943,-0.2142072013663805,2.057816191526963,1.4060966024607227,3.17250359248759,4.199451456580393,1.3025996069046382
-155.0,5.5897694424810345,6.4510045276247165,0.8612350851438063,-6.033949520619307,2.309625120939875,3.7049398613453715,10.38858107469328,8.042249554940089,0.7997062270893247,-1.825673031281795,2.800124321221951,-1.0841096088848676
-154.0,9.293124455628135,-11.911393842573819,-21.204518298202004,1.298787892328408,15.27002040331647,-16.598427836621063,-8.774135595181201,-12.960909333842878,-12.430742056014848,-10.965071681810215,-7.7078593838765235,-10.440864282046345
-153.0,-3.8919185982841418,-3.676767032657279,0.21515156562663407,3.8542539098889472,-2.032376846247086,-1.698744195099696,-4.558611539069016,-2.495272828855661,-2.1411777660659146,-2.196817110246073,-3.408470846576787,-0.5788450760570409
-152.0,-4.757468730735473,1.034407059622279,5.791875790357414,1.852468867864054,-5.250744844752525,3.3659210548634615,-0.01718264905818412,-3.5994573100551603,-1.419169513617891,-2.435955212619871,-1.2216776957264464,-0.9682680315115115
-151.0,-8.036768373951642,1.8956995271551154,9.932467901106559,3.0593422060098487,-9.034522653284746,5.950520963280739,3.008635362618452,0.06795831195398527,6.512632888740542,4.8785372717630064,0.8401183227034726,6.561361086049634
-150.0,3.4724901458622863,4.543646444149119,1.0711562982869012,-4.023365353504982,1.1569315791142456,2.8523377393873908,-0.11714623996449713,6.313110526436352,5.9909619979069015,6.231806830624631,4.552595405249491,5.0018482260405
-149.0,1.7968723409331078,1.1758641783045414,-0.6210081626282489,-1.5072723610924357,1.2505061266899398,0.25270788482917594,-5.031064700018165,2.5620074660160204,0.812389311003137,1.6284212221367804,2.8534748830366063,0.46056331448148224
-148.0,5.28050427665042,8.102296667431634,2.8217923907816367,-6.718195240383652,1.276999848801224,5.443823104499551,4.712824463338046,10.471219191443517,5.962174490969746,5.602188177800331,2.5869346639990134,0.057309514625646374
-147.0,3.0985903583337366,-3.044700220308946,-6.143290578642302,0.02051787816754924,4.594418218524322,-4.610510348927109,6.255067856206451,-1.3938947344396335,-6.437778556431335,-6.102765618223951,-0.3832838545396149,-6.768134136873786
-146.0,-6.011459714328188,-14.315952354566349,-8.304492640238005,10.209543981380529,1.1218636889242877,-11.330131066504304,2.687334489067919,-6.4897305795283575,-8.246405090728008,-8.91016801908725,-8.485584058543738,-5.797096578866109
-145.0,-6.633730712750557,-9.415629640952769,-2.7818989282023696,7.993598342541153,-1.8737905546684064,-6.125462412984573,-7.1504967091179665,-10.802818530591981,-2.3987569056302016,-0.9975938680722969,-5.6333447961531045,-0.36016506309699503
-144.0,2.326474947047794,7.90053205061308,5.574057103564951,-5.139861254388848,-1.656747171859017,6.782084077329363,-1.2481776562960767,-1.119905537942957,0.4547364282644848,1.4066552347936008,2.9758655916017425,6.078507395551742
-143.0,0.05588680601537835,6.510409162684119,6.45452235666835,-3.3033954553418847,-3.2424052631404496,6.522302378953037,3.2912173570516914,10.170539536535419,8.595439541478274,5.582710954803515,8.127371805175082,8.519695782472631
-142.0,2.6512901987848077,8.324298228111868,5.673008029326745,-5.423795854859639,-1.4873489272037081,7.037266012085198,-0.7065320026256137,2.128232593450389,6.907942510222182,6.110061487794571,3.554825266008992,1.258310643316555
-141.0,5.542679321404111,-4.238911257321339,-9.781590578725547,-0.6637582238112261,7.674114916507023,-7.048239269039429,-7.540486641582657,-4.933152029140484,-12.430212254694395,-8.219676725186078,-1.0774020748465003,-6.046799694758217
-140.0,7.58392536700863,-1.0507505890200544,-8.634675956028557,-3.2797235135412044,8.11309837642693,-4.876733859973088,-6.708515351428861,-8.871989074087903,-8.70478589156896,-5.403233804239896,-4.88809395795076,-4.928063209029945
-139.0,-7.089040678982643,1.5610439963910334,8.650084675373996,2.7448930510309055,-7.868695850678503,5.075695339893855,8.699779770813956,7.74711744820692,9.670701013456661,5.261050361702851,-1.1793442260990292,0.7485419441350096
-138.0,-6.768778834089541,-1.4963501729438526,5.272428661146088,4.103462099673802,-6.0169860823256185,1.861658330952387,7.828028482876793,5.910012547041447,6.24592032693591,6.505308434182241,-1.5582837166204004,-0.5021396046724316
-137.0,-14.32729060395858,-2.8408034202930477,11.486487183665748,8.621494049831128,-12.896035379657985,4.378060279518986,3.3371767876405514,2.743286990400249,3.1890013429001742,-1.406015674030138,-0.7368148657896176,-2.2415599141783287
-136.0,6.88313500403539,-0.27733461774024937,-7.160469621775661,-3.2774135357311582,7.041959556590835,-3.6611988144069816,1.9587437379643051,-0.5095653544232808,-1.4024412254239098,-2.348007644723955,3.2948473140497545,3.895383612003616
-135.0,11.912751253738934,0.4264995186556715,-11.486251735083536,-6.153492142872953,11.649502438008223,-5.549007143762518,-9.292013790007903,-4.82280501909967,-1.8367221472934083,0.36634878833446227,1.4634410592532479,3.478117414495789
-134.0,1.48159339880387,-1.9196947248716314,-3.4012881236758457,0.15144464976034477,2.475975977438991,-2.679170108285529,-4.592691916822938,-3.857421980304598,-10.066195214564257,-4.657873304140407,-1.771339406237963,-0.6961464971366593
-133.0,1.0540462538577677,-1.2847119271229452,-2.3387581809808893,0.12675296009383574,1.6545637878303863,-1.8325418254510843,-0.7625289670672286,-1.0361341704052824,-0.925169216106049,-0.5340968452793824,2.6765837867868605,1.41236849303569
-132.0,-0.4009037964510278,4.730926202761447,5.131829999212456,-2.1480918286160704,-2.808115780709466,4.905283925298313,7.999254953730848,5.579382172698011,7.057847201872219,5.82384220376973,1.5515147128831344,2.3950844260969917
-131.0,-0.5654115382131255,-4.215575420670389,-3.6501638824571527,2.4170869814049105,1.579444201443604,-3.888200125526697,-5.242773733886478,-6.927318844758709,-0.4824333711629194,-5.953310088285663,-8.12917702843884,-10.368866681782379
-130.0,-9.864958272684058,2.4375591147560405,12.302517387440224,3.673360563439409,-11.04442088896207,7.326697319081456,3.453010060786207,2.719058893701331,1.2289615790132522,1.8448149238071663,2.538296465609714,0.5282686741285385
-129.0,0.8910518174539472,4.712937375993843,3.82188555853996,-2.75236115253845,-1.4207904318734146,4.294087296730424,0.7805612780069238,3.5752128791553046,-2.201538271162736,1.0479387035494798,3.3393438257950185,3.191840587996227
-128.0,2.998610638896287,2.109189129733538,-0.8894215091627604,-2.5752374105186853,1.917192381438193,0.6297541555775492,-5.306514174330907,0.9673978982789362,0.2271673065774164,-0.4950803756714557,-0.8619203758303065,0.17498040359045341
-127.0,0.432747244942959,-4.145261028300672,-4.578008273243759,1.8370884832687988,2.4852398937895943,-4.346213345528551,3.758346129371245,-1.4517434443828197,0.06135759347994692,3.1727698420466632,-0.5148625139061446,-0.9353434684672222
-126.0,1.2550623334561153,-6.2097288369504255,-7.464791170406624,2.4539561712137243,4.342955341349178,-6.824534347713783,1.3094653956929703,-0.8200406766302751,3.9873322323234293,2.2363100146612527,-0.4229695845077318,1.1591259336615687
-125.0,2.3839310477644995,2.3827991519491745,-0.0011318958152966019,-2.3376059735998926,1.1733662468996529,1.122734672353384,-3.9941454371756855,0.7065107402834534,2.039486862947069,0.8129915134771308,-0.33666797122273734,2.7824242718002212
-124.0,2.9111933613133214,10.055067555392831,7.143874194079602,-6.528632396977402,-2.1430494797987683,8.607789057174804,-1.4652426959528242,3.7633103313081016,-0.1621102500780715,1.4023745363373186,4.936048367134035,3.6077430512211905
-123.0,-4.093104793736637,-5.922250602961719,-1.82914580922494,5.028860516938928,-1.0911046880103192,-3.870005715831151,9.297631326502872,-4.471263583063754,-6.600342738525492,-9.357749956383858,-4.187376644673424,-3.822732905571539
-122.0,-5.39484285465175,-7.8822724018565316,-2.4874295472046484,6.651341431451555,-1.4250570105214102,-5.181206091556112,0.9526289838191029,-1.6258639882572516,-4.7069083859623655,-6.47560252699786,-3.5095848303726016,-3.234077471506867
-121.0,-1.7402469126102544,-2.0812927792375877,-0.3410458666273539,1.9210145311836184,-0.6819056115335977,-1.207682529015754,-3.844749066982286,-2.316914703100214,-1.1881834765773451,-1.3809302017125993,2.352005880151398,-0.43412336600064094
-120.0,2.3545903630602663,2.6996979428848147,0.3451075798243538,-2.5129734409675435,1.0141970184387088,1.5286701071256623,-6.636604972426678,2.6985476973803824,5.809656882810057,8.62649984589056,-0.22625591215882013,-1.9242085143802456
-119.0,7.9602839520424835,5.250591556427007,-2.709692395615675,-6.660672900996266,5.2607600856298165,1.282639876482993,0.6777479463841147,3.9864879108015,8.609500735056908,7.787705119644276,2.107346712685214,2.141917722321132
-118.0,-0.4231893382181049,-0.8452956723921092,-0.4221063341742399,0.6701968001769019,0.002556658635137987,-0.6132874593873472,-0.9638167077037543,0.32378239251683727,-0.8361248207019889,0.4966128639806371,-2.56259842809805,0.8798477449402542
-117.0,-5.617010561082184,3.4172685305439434,9.034279091625962,1.0696202203343925,-7.320251318763734,6.176342365064361,2.149249771878347,0.550920102935774,1.7811575964021982,2.1932728068587135,4.3950207501844165,3.8159736605897376
-116.0,4.958697948342769,8.566367350166136,3.6076694018233857,-6.704379281742126,0.6870860736047941,6.124146012465985,1.2147688949130213,-6.211363906552892,-9.952976573070755,-4.645838389729762,-3.030481890532916,-4.601633833140085
-115.0,1.1419698158298273,-2.804993351137181,-3.9469631669667993,0.8153381228700683,2.565795903579075,-3.4121497748621508,4.126117050131352,-7.427660631813522,-12.886305871469931,-11.51228303676337,-3.5224506175542687,-3.990075202962145
-114.0,-8.860076705097113,2.84136431775852,11.701441022856034,2.991340130995655,-10.247257368326173,7.2379848404813485,10.817098675674712,12.469371770584015,11.56208343080341,5.693551770565409,9.862904515866921,11.518618840134216
-113.0,-3.2348126594719973,-20.98281812744909,-17.748005467976697,12.083451270184916,7.223937897774096,-19.319487179348503,-13.940272321157247,1.5597910828734936,6.118506382833001,-1.689803379413875,-4.236087938930004,-4.205183671484756
-112.0,9.533619518326915,-3.168237310714076,-12.701856829040697,-3.2183431848502364,11.095800840055006,-7.889721787955982,-7.92726734269432,-3.6041751744087414,3.3258385292075983,2.7349435487759446,-1.0099259416030875,-0.07640228925414572
-111.0,-2.1401674886780047,0.3734620073325676,2.5136294960105827,0.9168747788134899,-2.3417924980792417,1.4092008644945841,3.1483943849002154,0.8165175545148082,-0.7510532747478598,1.2335999771787312,1.3627162939585151,-0.46312437623388925
-110.0,1.7732827308794306,8.705308180396266,6.9320254495165194,-5.21125029341885,-2.5916884165175427,7.783553752948511,4.632161989374069,0.7666313637331288,-3.376696166990536,2.7356330821695973,-3.500768525680321,-2.6898452668678403
-109.0,2.735757771922177,6.37120667221442,3.6354489002918546,-4.525127486480184,-0.38503080298148085,5.0464410194599285,-1.6205674290296503,-4.285005421072947,-5.419940743835447,-2.181105515748815,-4.935187724442237,-5.153864019928945
-108.0,-5.051103104059431,4.117316813878019,9.168419917937197,0.5005574963399768,-7.128558364420191,6.606841295069407,3.258604300412705,1.273518294693217,1.4128599199275245,1.6496679056391879,0.14347658071881764,-0.25300932665752596
-107.0,-0.4716909101667819,8.922072754670499,9.393763664837252,-4.262856083607299,-4.958468285355036,9.200233256853496,4.799086160703773,5.346819741844187,4.306842545752218,-1.762185671668113,7.226212417559507,11.173366153773566
-106.0,-3.37909761215246,-13.074342949307319,-9.695245337154777,8.19499788055416,3.203139670309435,-11.421734139828551,-4.833380870088161,-2.972582914110941,-1.7955465321790038,-2.3451440949892133,3.672724806554702,-0.6214828500708425
-105.0,3.4889880485822253,-8.162438918374875,-11.651426966956999,2.3069147902002576,7.528542052116755,-9.865640419150203,-3.1528759603760736,-6.264788401008685,-6.197834815547658,-3.459109725621481,-3.1245696132541574,-2.4169913647656642
-104.0,1.6682495473448569,-1.7102821759472286,-3.3785317232920526,-0.011276649637530944,2.5533806788643525,-2.5820750855738694,-0.40341703713916166,2.1747773616134243,2.654269846187542,5.199181568581523,0.3258981213988268,0.0676420146296508
-103.0,-0.9052798838539227,3.336236818987646,4.24151670284151,-1.1740929123388697,-2.62741808497675,3.7518290546931214,3.6927355553531696,5.079843458257168,7.287956854219948,3.3111042017881216,1.2254172854273557,-0.24979252404100238
-102.0,3.286125139627053,2.8922174288730402,-0.3939077107540767,-3.0526069441430153,1.8621921252939615,1.2928204836657242,-3.1722222891959917,-1.0461610131702395,0.16204643026792498,-0.8693464565810816,-4.563540623734525,-2.2297188677585407
-101.0,-0.19926349074941996,7.8915695874697835,8.090833078219271,-3.811850506523417,-4.122217230266073,8.0383017460958,1.0305471105229984,0.6243599439153893,-3.138660105387536,-2.157661375013182,-1.7980139263188573,-2.8533774330045607
-100.0,-1.018850197215942,-5.4164142484473805,-4.3975640512312575,3.1741330738504807,1.715858020325705,-4.934283061065164,2.522766849506114,-1.9281255227269845,-0.7051840262076863,-1.050407028260467,1.7524015414614185,1.7261578426213438
-99.0,2.1190250865869262,-2.8906565121830674,-5.009681598769842,0.4240630269511123,3.5177700673109102,-3.9733743546213542,-3.7912653072449527,-1.0600844326561227,-2.4548334092726094,-0.4848833018972908,2.936739217447473,2.6162668970986505
-98.0,-5.755756545702512,2.6478294649310166,8.403586010633536,1.5163074627468713,-7.041442074045176,5.504906239326411,-2.766954108134564,-1.5845868253885103,2.7560917156450566,2.2710966589349866,2.7629981535131867,3.3112992328126536
-97.0,-2.35240913782925,2.9987722769525127,5.351181414781604,-0.3601600433662947,-3.8875087410505227,4.232530360589843,4.812281406681474,4.586219592981258,3.125538021393985,2.904683332593508,-1.9666795261751582,-2.7558895955994913
-96.0,-3.0814113773512237,-8.180355036811592,-5.098943659460723,5.670355920736027,0.9754360851257953,-6.664451134937071,-0.998758639615817,-4.25251811953081,-6.759379286405094,-5.371911211478187,-8.770410045304464,-5.977489783142753
-95.0,3.697116797611863,-0.6967579797294579,-4.393874777341667,-1.5439311093017605,4.090475950410891,-2.576477878783863,8.07383044618367,7.967691010187297,-0.26972260950847105,-4.460358371097321,-0.7431310995950358,0.9502996338452401
-94.0,5.2388775684331685,1.5780468158944259,-3.6608307525389345,-3.3780654191223807,4.4919058731448835,-1.0016648372952386,-2.605471215163052,-1.2822647591311838,-0.40504789390977675,-2.5101121133170317,4.950703870703393,5.336043287073029
-93.0,4.47422296628068,6.608007727241996,2.1337847609613947,-5.513055961542294,1.1289586867195376,4.324245432197432,-2.0464557113108435,-9.435230689747122,1.174102383657353,9.390480543848557,3.9861602638681735,2.3283778028100226
-92.0,-4.729228540406789,-2.301473018286029,2.4277555221211307,3.466273560075864,-3.624783429855386,0.0895322269264105,-1.6028417350626696,5.392329076701979,9.328256937460477,9.639549260674068,8.984017745567845,2.165720130932385
-91.0,1.7981331987053784,-1.0433161760450111,-2.8414493747499017,-0.3419749745599516,2.3480232581151057,-1.9187394380437937,-8.626593816295252,-2.0541914643441532,-5.243971167786537,-6.080427405197712,-5.9432323222317915,-6.596522808077901
-90.0,1.0164704507773739,4.447503359138853,3.4310329083618782,-2.6881789060696306,-1.1813908382891873,3.9631177785550515,-2.150087333171542,-5.159367713639108,-2.5631343863795606,-4.2576358462464325,-5.023658035311629,-1.3450424657663431
-89.0,-6.2353274749776935,-1.0523260944647226,5.18300138051299,3.617037630715943,-5.683209108019191,2.0125685336362897,7.613779061794623,6.706292586951133,2.745746752924077,-0.1295805302773494,-1.75367017034878,0.23698131032527447
-88.0,-2.9145762135693496,-3.923299406364542,-1.0087231927955362,3.3969585203045303,-1.0034897005269654,-2.437548557441226,2.627356470271296,5.05018087479425,1.436759836387279,-1.056578997306261,0.11074175413611087,1.2000757584589494
-87.0,-0.551939560018514,3.182323943425889,3.734263503443939,-1.3378670101881978,-2.111376681283744,3.409405989305186,5.398799093934615,2.343352333194111,-3.4356744571092337,-0.05147437247253028,1.1901591493273633,0.5841866012191165
-86.0,3.4187544965419305,-6.766997070757062,-10.185751567299288,1.644959383378501,6.759000666600951,-8.446941485605116,0.5178992988280746,-5.90551749524866,-4.904027919177211,-5.3573751399292,-2.8212060849730918,-4.317955581331535
-85.0,6.183132245684591,-8.774892566603484,-14.958024812288107,1.3349183144898782,10.609225365312067,-11.839163289638105,-4.071256372673534,-4.145590336551036,-1.4871483496979854,-2.608405876895081,-4.144163744317394,1.1063976802349966
-84.0,3.523286193057183,6.854023109137931,3.330736916080876,-5.161163798042093,0.058287455602382465,5.037891573604475,-0.19662109577572684,3.2553609630143434,7.662049103261506,8.241852083701161,5.652919571269298,4.8504581186132425
-83.0,-6.771280684630723,7.68719220828936,14.458472892920202,-0.4397072082274711,-10.572998733374796,11.09427216098141,-2.8117180593482396,-1.0470959897075798,4.721848841987413,6.68010746279981,6.41036853061211,3.2997671991229285
-82.0,-3.2970500143339567,-1.5197881844706727,1.777261829863269,2.3435242614087533,-2.57361036704097,0.14851214618608477,-4.235746159901855,-0.04131140455939927,0.2342358692329558,4.86818248765422,3.852948594293783,-0.8298106423273461
-81.0,-1.4544532053107877,8.034544266279896,9.488997471590638,-3.274538308816199,-5.429345280981005,8.781438663018193,-0.8072182768286604,-1.7510738093543612,-1.6861136256020108,-0.6718267016044575,2.6541848935020744,2.874148353923172
-80.0,2.011999182612077,7.350611249547209,5.338612066935105,-4.658435422897034,-1.6996320225589998,6.286658632185088,7.868567282204675,3.352922795550228,-6.26179407224968,-10.237963070273471,-9.442852907738338,-8.077784153931791
-79.0,0.6017862284218467,-2.1270467134826037,-2.7288329419044013,0.7968423629473672,1.7079548160009184,-2.405716903158239,-7.387912897261001,-5.6738120191442,-14.283682505284897,-14.49338001405319,-13.458379823870562,-11.237205877729082
-78.0,-1.590324060386521,-15.037882567498494,-13.447558507111848,8.282220494706257,5.893147286816145,-14.220026259324072,5.1770534337530965,5.579281407921691,8.87205586706972,4.170100836890783,0.42449213033468247,3.5382917708462402
-77.0,4.015145960647892,-27.70666766697637,-31.721813627624165,11.825007194884442,17.834404757445167,-29.693168964269677,10.489121918354313,1.6781514194111964,11.475704830061739,8.14816825306766,16.070489835829303,16.5327455136782
-76.0,3.9620613608304023,15.35924309610417,11.39718173527385,-9.673969279203774,-3.6703437351939776,13.316271449008237,-5.23444929136675,1.0587902856777318,7.8425620743775095,9.939351446902947,2.779400267272667,-1.2153199298421473
-75.0,4.078345566420939,20.049678066974565,15.971332500553657,-12.07452292854541,-5.974193878669349,18.020888841968606,-13.348251867765889,-2.0791381762954004,-3.5122625733448958,-0.24686107282775804,-7.243436038277727,-9.0189668995304
-74.0,-6.885030853387614,2.7201752004610196,9.605206053848628,2.1491811770937277,-8.189400862242314,6.166142233629918,0.14946701496838255,-2.544480244074847,-5.110751591943594,-4.233224721059287,-3.4382481955483346,-0.41604903653814373
-73.0,-2.508776421434168,1.0487131359346753,3.557489557368836,0.7135182165748162,-3.0518840600019965,2.3016365763793596,14.553043011762536,4.192724379954341,-4.168160494039358,-3.5687038765601438,4.160964896193876,4.087869908551486
-72.0,-11.8924066807295,-8.926089343291167,2.966317337438293,10.386903671669813,-7.445962662346936,-2.981625686796835,1.7536382612951096,0.26991358386830594,-4.415562818325512,-1.279434229609778,1.9357772031463165,3.3869227945454465
-71.0,-1.0043812757702852,-10.61653693127908,-9.612155655508818,5.782771068412044,4.2856507534163555,-10.109955003758337,-11.978687235305458,-10.354443235729661,-10.528574085716077,-5.36430111221666,-4.148118391166787,-3.5142875904154414
-70.0,15.655938601278859,8.810140052039095,-6.845798549239693,-12.18525204235145,11.305121762888783,0.9991773456783983,-0.43443661107681564,0.96173128847773,7.510905333453406,2.261914475188547,0.6139633588860318,-2.9186542379072886
-69.0,4.386911523856147,5.007711235919114,0.6207997120631115,-4.728435612564876,1.8482017199005725,2.848401890245531,2.1048456514478864,6.5119477949408004,13.44608837742236,6.782289177669131,2.049794182457531,-1.1657967423887534
-68.0,6.063901819339087,0.33888615947309164,-5.7250156598658455,-3.150585375814797,5.847200350956227,-2.7196602994746617,1.5125627706463394,-1.372892959617623,5.641740374487537,2.5549556390849553,-1.125702304593147,0.12583073664918165
-67.0,-7.5759135470469765,-0.6235388312558763,6.9523747157911915,4.077671464811026,-7.243904816039855,3.1523686023562374,6.600738270106744,6.830011361932468,0.005216223805645015,1.680415411300252,2.083743896098236,5.127752087219588
-66.0,-16.64231366956441,-13.697916566128338,2.9443971034361023,15.155396459309323,-9.77980224276548,-5.381341607631173,-7.00647716500573,-1.9618365719054918,-9.664748341853654,-8.837333808760137,-5.973365624675319,-2.10562619183589
-65.0,1.0981599033447642,2.278517190597208,1.1803572872524328,-1.695667705447498,-0.027305443983705047,1.7235779252246064,0.7389095690850349,-3.8802793154241706,-6.212370765278899,-2.9009714624320346,2.598928654935724,-1.8019505380482141
-64.0,11.894188931598503,14.999884481459157,3.105695549860588,-13.448025178879604,4.41540962339066,9.037805995075873,-3.2094496036011955,0.09917694670187638,-0.14109970540096395,6.672883701549446,4.381691929935589,4.629979367923368
-63.0,5.051293371111479,-3.772010514745876,-8.82330388585743,-0.6359688122204528,6.970629409699783,-6.326414517273976,-1.6996839594555895,-5.000151668811646,0.3860600357441737,-0.10407476639036872,-2.1273446342014646,1.381190901388864
-62.0,-5.42242186647658,-7.296832801823226,-1.8744109353466918,6.366001486456613,-1.806684637324836,-4.549643860527268,4.999542102339061,1.5493962544124176,7.252582361106604,1.3176864397258852,-0.4487212622616581,-5.165233447135973
-61.0,-2.605481519382665,-3.713730342964357,-1.1082488235816783,3.1665162079526548,-0.7726134652154311,-2.385215969513984,6.3994709194648145,4.070965006494749,-1.8546577219518219,-3.569341696809149,-3.670204168515731,-4.948277049231097
-60.0,0.2760611906171202,8.19463369370429,7.91857250308724,-4.230417594394655,-3.8439234432564118,8.078250153367788,0.3948153111222048,3.7012384786448234,0.08322885165431892,-1.0374640276846925,1.482710553915039,4.6401298022214945
-59.0,-1.6694713327136181,8.476073422542356,10.145544755256047,-3.4033686278708495,-5.936934276924493,9.334221324047174,1.8898839003792895,5.6247931029736975,4.76741169766334,5.233910092083226,5.825556955644453,3.6411419567780263
-58.0,7.0193820666882285,-1.9889493445039927,-9.008331411192179,-2.52371133705723,8.050336637060617,-5.548573983577503,-13.389750123773572,-13.968358840750135,-4.661209181727259,-1.2643497875915228,-3.077176564410391,-1.360793282909976
-57.0,-2.700003049523432,-3.1699571966534954,-0.4699541471300548,2.9146669923120685,-1.0936154263357336,-1.8639602043703054,-5.566295011313746,-2.942109947032412,-3.523688329336382,-2.013291429841367,-2.9594516248028935,2.2571157546197615
-56.0,-2.134660273200356,-9.487747356180584,-7.353087082980289,5.855230838658148,2.6175835283799582,-8.381820052898961,0.2524135966518779,-4.276082535932276,-4.83143688632601,-5.1127607538549205,2.5076708182864005,-0.8710684049928746
-55.0,-7.066586374263386,-0.9438619451015482,6.122724429161731,3.955152176874447,-6.593988718362265,2.549843359558693,7.005871498600512,17.52170248347843,10.731387129043412,3.4202054047014094,0.5543634685468357,-7.322059245839252
-54.0,7.899470028895083,-7.058967394463067,-14.958437423358294,-0.40554753824744316,11.42883302885419,-10.97197641099985,2.004839711019761,-9.502715589745636,-7.548659447671849,-4.48232911329829,-8.999714198175822,-5.629487740881589
-53.0,3.11067747854117,5.981422091084469,2.87074461254322,-4.541436451256539,0.12576930550988674,4.458641494097035,8.868493950564792,4.995952607057738,3.0673856445384757,4.000172893788308,3.653172778165508,6.283759785319835
-52.0,-4.630838176177281,13.815932419811496,18.44677059598879,-4.592085477791011,-11.600668936848054,16.080793381834084,5.780462401175108,6.295872803962231,9.336071436516193,11.514254744452407,9.851778815029984,12.914985075487035
-51.0,1.1719363488040038,7.080435278569432,5.9084989297655115,-4.122987753244788,-2.337448155154176,6.5193228701379935,-1.6086585023786746,2.603803413103423,0.30208523532994613,1.0423686068615639,2.5698500880727653,1.0629981081550364
-50.0,0.9516294408550888,-5.307017900588684,-6.258647341443714,2.189937229032509,3.650263732840261,-5.759624091782633,-11.91329592910312,-10.76607413153466,-8.967571345247345,-6.46362662958701,-5.28477659194394,-6.451636268693578
-49.0,-1.5006699499831588,-11.008121971706968,-9.507452021723797,6.279880303606402,3.9820438522428145,-10.31319149468749,-13.194017060906612,-10.921153195733263,-8.84976207785083,-9.40794859463369,-6.244008320262458,-8.098425864072823
-48.0,3.723877328494276,-1.3590602329808945,-5.082937561475191,-1.2214017717672254,4.390495941171127,-3.196035907905758,-1.042443599607151,1.3310213118916856,2.807973899387756,1.756304973459371,-0.4506990332887151,0.8720793032844538
-47.0,1.1034141623073017,3.6182364845300974,2.5148223222227255,-2.387895207337999,-0.7149364276176606,3.094089877203289,9.326574276115535,10.334072111583648,13.05888564980786,6.544774803787915,2.282277804671579,3.4359237508393914
-46.0,-4.054974809150501,0.1835700223648679,4.238544831515273,1.9942763338465617,-4.156849637449833,2.162909548538365,9.270171065999998,-0.2430940694599606,-0.7841379977654643,-2.5937342038125246,0.4660617626211967,-0.8470281252451073
-45.0,-6.645039574770085,-4.876715538578923,1.7683240361910673,5.741284081582972,-4.2209549431582385,-1.5205825183007429,0.7315771747366009,1.18234714749084,-3.9082772837342166,-4.570263944896658,-0.07196201262303625,0.19549406914489365
-44.0,1.0590044875982816,8.354598218292063,7.295593730693739,-4.73169213660419,-3.059656178957181,7.782550097173976,2.3846590903361724,7.9347812933016675,-0.5247891245491805,1.0302028669305983,3.1440078695138443,5.574076956971197
-43.0,-2.0782925925148996,-4.577221487941644,-2.4989288954267046,3.293689495760046,0.18416514009542406,-3.500052444532302,-0.2373720482423214,-5.589070615461811,-6.898558326542276,-0.8046762102972671,-0.641560233201498,-5.754287474180031
-42.0,8.837709128768973,-4.5109877241711605,-13.348696852940009,-2.1288008391813893,11.140329773029322,-8.891141033398922,-10.699436906862859,-10.288332920691927,-1.5947544349513048,3.9065042454077603,-1.792633351267017,-2.5490125069833534
-41.0,6.842258796510957,1.480190574416972,-5.362068222093848,-4.1348812022497405,6.065748272093796,-1.981767985518331,-8.720765811084508,-4.299198644520893,2.1096389318755833,1.7918543228938084,-2.6133676544552205,-1.4038789683442179
-40.0,-2.747647722568712,10.453796793763933,13.201444516332717,-3.8312826031703846,-8.015211125441686,11.784509833218605,8.539469315678359,11.004975930245639,10.680421992193978,9.457506212897556,4.210288512160343,9.541797851851321
-39.0,-2.1046648867541347,-1.7023425261573193,0.40232236059682425,1.924573286397805,-1.2189967167993423,-0.6176808323783427,6.499346447896739,5.472033089647103,1.4747523631392632,-5.233361681950903,-0.46291069351270775,-0.6550459169075915
-38.0,-1.2754420231820807,-1.783598328765824,-0.5081563055838054,1.4737972276381903,-0.43026589557794637,-1.1168812987945556,5.864779914228173,0.5958778587872606,-1.7213698106981878,-7.500767766230636,-2.213569525827504,-0.21035404370507407
-37.0,-5.726391337061883,3.935190595813899,9.661581932875695,0.8428969353657334,-7.662314673748846,6.746530554529717,1.0122369301715026,-3.729464499985939,-0.09172464282438253,1.0299116879462398,4.288379277734303,0.12361656045541758
-36.0,-1.7443823960921447,-5.695876578149374,-3.951494182057334,3.749005105135475,1.1369363881900223,-4.796600159171358,-12.711654977159752,-6.469969974762778,-8.225363577383417,-2.4246350075718546,-2.6100252297273605,-7.251071947402628
-35.0,6.663922190347748,-0.9642910420879485,-7.6282132324357965,-2.8188611492532902,7.182669236625061,-4.266217578521755,-14.958603721094274,-6.016552181677419,-7.747817860424475,-2.908578067627659,-0.42870496486384735,-0.9366685911416339
-34.0,-6.864599403891172,-1.8110072445946501,5.053592159296489,4.370008941894026,-5.997977529420161,1.5779489319866853,13.181737018153997,5.9422641140807615,6.472431769430101,4.527422088197315,2.722265953847316,4.3462068805249015
-33.0,1.65872683393369,-2.292471459880028,-3.951198293813672,0.2707899611342409,2.7677856641151823,-3.0796984346059677,9.844557928839066,5.552700304473761,5.778966427508526,3.1694082430957753,-2.3332225548680237,-0.049345444171319475
-32.0,-0.5073935692461462,-8.841481789514571,-8.334088220268324,4.7067911243701825,3.8754315515683713,-8.617767116038713,-0.37734984042034814,0.7297845311158953,1.726450220082921,-0.2134233943890136,-5.334831865874888,-2.1525797102976068
-31.0,10.133416493627355,8.340072926944366,-1.7933435666829025,-9.284102814586307,6.0013481567257365,3.248537803870585,4.456421258334423,5.379270212436265,1.325622503713404,0.35224581423369794,1.7971217399179271,2.769022573068413
-30.0,8.880977283600089,6.877185140800073,-2.003792142799952,-7.8488566668873805,5.476657840374798,2.49342602238476,-7.032845971478056,-4.351085408979234,-2.6519413074806675,-1.8641113566097336,1.0667892070154354,1.8561412609563281
-29.0,-12.895162679084876,2.443419618767658,15.338582297852543,5.176714018469261,-14.085520866180731,8.869324326367355,-4.363621100511658,-4.530083486014258,-3.769163825998917,0.1632048883898849,3.0562757613513125,0.507407629456935
-28.0,-11.20087972351575,1.1891122724712628,12.389991995986982,5.03609444646501,-11.84371236888947,6.76644079913152,-0.15506118093775,0.5650975948354775,1.4783003545738114,3.6668813319443085,4.7351970700606465,-0.446656924276075
-27.0,4.665742461606118,-2.014029689092654,-6.679772150698776,-1.2935912917967052,5.626293699901813,-4.371938553209391,-2.396730740252603,-3.7199883556038853,-1.1982439337763453,-2.3720051026232456,-2.716463093085997,-4.356633795983795
-26.0,7.574646794967923,5.216122711710841,-2.3585240832570307,-6.360321390159491,5.003367024747616,1.4815334257235424,-0.8971496771515065,-3.1390778470083256,-0.18601145046087608,-2.9023673381887964,-1.0836003699054928,1.81600881394949
-25.0,-1.6930243320938776,-4.373764092525578,-2.6807397604316394,2.9918194594480574,0.53713629769529,-3.5523299779630997,6.266337149568759,7.246850436228998,5.675561537434137,1.4338920277784881,-1.660115382021047,-2.040619890286212
-24.0,0.3486478817393923,-6.695093480879118,-7.043741362618509,3.1315864817281294,3.667841923743865,-6.812920409878435,2.4364230187817424,0.18626685305734814,-1.555566490736884,1.1600903901992348,-1.9154071752866597,1.5511579504697282
-23.0,0.17174844320714,-3.957013287987641,-4.1287617311948654,1.9268357675220542,2.127707964623615,-4.06154025439834,-2.168183897274507,1.8480431270394084,-0.7906531790024682,-0.28454237236756397,-0.17272008607114753,2.4270453962120104
-22.0,-4.118107003254646,-1.1144832607124806,3.003623742542078,2.5666445522240675,-3.5022083985981496,0.9285995635289823,-5.075346845005115,-2.680029155759004,-5.44627864104803,-5.349423909921849,-1.251611584268683,-3.5662032687237155
-21.0,-4.230143183566611,0.2001274116722167,4.430270595238792,2.0386260013298108,-4.352653904925903,2.299610268404526,8.119084466222718,5.229202138981932,-0.9290084090906274,-0.6170469457811887,0.3071597655761731,2.0751166819275713
-20.0,8.956132513703817,4.304801254875224,-4.651331258828612,-6.610524136246345,6.773942991471836,-0.19102568039618806,5.113040095589511,3.1873539818926973,3.005518206853724,3.468313530610499,3.0824790088567546,1.4232936181831652
-19.0,1.3602353975081871,-0.8029765267419942,-2.163211924250214,-0.2590212438512105,1.7210995788689445,-1.5044395062195188,0.9758492810388851,-1.6034865846649689,7.4137057654532805,7.038335745380345,3.0213201554074294,2.3392518309392236
-18.0,-1.842128182908807,2.9496245894076485,4.791752772316414,-0.5309621219056659,-3.2901867323125003,3.925150283420357,-16.249205687036365,-13.223857708130915,-4.9356350738907535,-3.2954079370978873,-0.8435641704304075,-5.429294891161105
-17.0,-2.71108350125389,11.829035400976128,14.54011890223,-4.609488479698404,-8.607266109842199,13.159929604107258,-6.746249446510682,-5.30125653395093,2.037371506428867,2.5425463258765673,1.464885133385785,-0.4199623196506179
-16.0,0.5143773228505968,-1.3822677021307128,-1.896645024981333,0.46788129238527376,1.221065140112941,-1.582352598790147,2.5037514513503396,3.6774816140571582,-4.011008088789325,-1.4900049624996297,-4.336685498049265,0.34451192005037845
-15.0,-0.5480197105262494,-4.331662646643114,-3.7836429361169195,2.39909888196443,1.6369628340494868,-4.07386432747261,8.704769916713719,9.825524394675856,-1.090519008426565,-4.247403992641484,-2.173760044714153,4.0480690331489715
-14.0,-0.5971835586829102,-7.810466131180515,-7.213282572497662,4.164563017180204,3.3356230504755215,-7.52257838130288,7.515932380805234,4.30335336040137,2.1491440928962673,-0.9301329563509189,0.15855918487139498,-1.581245779974957
-13.0,-0.3112640839405003,-3.6480355484235636,-3.3367714644830997,2.0181830430848766,1.4716244418324034,-3.500352608750207,3.0965509866200875,2.505798768185398,1.4463958506102876,1.6013657136233255,3.965120800129334,-2.974625820022605
-12.0,4.854100256744974,0.10792507737889423,-4.746175179366068,-2.4449683474161636,4.76719582646487,-2.329135656494189,-7.638893701816382,-3.0802813184182725,-0.33980396968477666,-1.6890315993839315,-3.671667189243574,-5.8481743799647425
-11.0,7.537259624679462,11.827421630100567,4.290162005421145,-9.649296971321748,1.5945866880402226,8.041536160505999,5.567037605679687,0.9457913565421263,5.575689345772935,3.930114322874849,3.9224978472259133,9.277507762166422
-10.0,-9.881220867078797,-4.697275466477096,5.183945400601745,7.240763225307836,-7.483434045470421,0.21521130240875586,-3.465273134883459,-5.878190702789831,-4.128094392746663,-1.3174260959008564,1.4521479073642107,6.198759592341934
-9.0,-9.204490100650888,-12.348603217710336,-3.1441131170594336,10.725965180799522,-3.0636573384516033,-7.707321755072924,-4.1968356746145705,-6.181787073367159,-8.259026991081479,-4.135812146523863,-4.43623583965968,-2.8861296963401184
-8.0,-0.6667199071218914,-1.9845677609228336,-1.3178478538009697,1.3528071542707019,0.3660654517424411,-1.6213973142897165,-8.451889781806685,-4.256195664492659,-4.73033672241753,-2.583614602796814,-4.3081353406644896,-6.285258809547378
-7.0,5.146694227792606,14.392344674289347,9.245650446496638,-9.741840161023871,-2.0125070116573536,11.844030124635024,-0.6903338048507339,3.5197591156958286,8.084576700793981,9.035742233988644,6.017059177214912,-1.4794523184971418
-6.0,4.147240296973185,9.856615594163983,5.7093752971906815,-6.971942934694879,-0.8239084344118781,7.7293643085199975,5.646213487940083,6.380797149985968,8.323701337699655,5.398461035143907,4.669352830249889,3.6242615494468926
-5.0,5.733084269836154,-2.071620355025257,-7.804704624861513,-1.8755182186953938,6.727485845509496,-4.909254786742153,8.954592805127966,8.44895577843182,1.6321922492182246,-2.456920033671404,-1.1324916657811883,-0.38090487660318373
-4.0,5.418437840605839,-1.0757545858538515,-6.49419242645973,-2.2110341106366502,5.996606019680392,-3.829409285038746,5.932088912027701,3.437309100003065,-0.02164791362421492,-4.514294152575296,-4.476310897585741,-2.0125784464201724
-3.0,-1.675300053823554,-7.586896948408851,-5.911596894585253,4.67545988241993,2.1613271051194696,-6.710106517556944,-3.8729071136242066,-6.029238352727246,-5.987279310261743,-5.452169496843469,-1.1876948530357978,0.4995904973556756
-2.0,-7.594721490121328,-1.672902701611923,5.921818788509492,4.682569664823653,-6.792700655635739,2.087411215425025,-2.2862751997547863,-8.108481366555036,-9.42942398510713,-0.3689942636916981,-1.5714408798308876,1.1693034779650122
-1.0,-14.486320347262668,-14.616812855024676,-0.13049250776190835,14.52393690025653,-7.214170190877568,-7.332504549176278,-19.915673447656857,-12.699073271544334,-5.137857231118161,-3.2157508785917317,-3.4767770772457736,-3.4639050930978286
0.0,0.622884477789226,9.85803778560383,9.235153307814695,-5.2685151425868435,-4.268658348325436,9.505326248991853,9.217995690728202,14.703990315966896,15.374885203945883,11.90239272336004,10.618656806163758,7.140273020945206
1.0,6.752968567173196,12.166741063477847,5.413772496304693,-9.491039473251899,0.6211078837158732,8.82167319350021,10.048837696948777,4.0156853158580414,5.816986735153664,4.615810299278031,1.990826915541938,0.7624616667986177
2.0,5.175310564014156,-1.9591911364355665,-7.134501700449707,-1.5652042507622799,6.177696241343859,-4.522688781636633,3.89521510649569,4.582137044790995,0.7760713519507734,-4.372504556351931,-3.1392171119981973,-0.9357113768263913
3.0,11.718348055590969,-7.748146826286288,-19.46649488187729,-2.0254226248472658,15.609691779487571,-13.66890108843278,-8.665051881585848,-7.21934459803598,-6.349032353735648,-7.775794706332475,-5.443055888863499,-5.331669092499664
4.0,-5.250865874243427,2.9713257391308447,8.222191613374278,1.175870165331294,-6.721183444359268,5.6087138055994314,0.36598506893097893,-2.152062166872126,-5.908508700812163,1.5776477713994956,0.6234966543035441,-0.6935438064257178
5.0,-4.720921430331779,2.618061234333616,7.3389826646654175,1.0881954879732065,-6.012409238637053,4.98828063265765,2.0325050701932037,-3.1277179173125687,-3.0528960660430915,-1.8053976210071654,-1.8192987929598377,0.27093178619490743
6.0,-3.6321624601665494,-1.5906284094225498,2.0415340507440467,2.5725136092692873,-2.8923773697784565,0.23664670072448013,-0.9797409984864777,5.5529790248547055,0.2611109987825808,0.7479248081282495,1.1379394636440638,0.8980881235909159
7.0,-8.158323078079711,-0.4984903859338188,7.659832692145988,4.3719378649201355,-7.878098498217622,3.5966121210206348,-3.099189987728336,-2.445410287330308,3.115572977568489,3.297587078445392,4.99768935611777,2.395570380442475
8.0,6.767227742910731,1.197048174836954,-5.570179568073706,-4.015559204364692,6.129203263409435,-2.163806924779048,-3.7129392035133857,-0.7165462340988378,3.2215934758329947,1.1469605071851907,3.044537539787699,-1.280787389073617
9.0,9.780594207471788,6.67895087945383,-3.101643328017943,-8.26513625538403,6.487870858857898,1.739823184969032,10.942181165306584,9.692887548272024,12.802942525076926,4.466723810336304,2.7754552090510045,5.970868911248913
10.0,0.6580902723667172,-5.8947637679664,-6.552854040333153,2.6556561673573835,3.57940093921183,-6.266668336130765,7.130498518516832,0.9383471865382251,-2.7085610612480107,-1.0536200507889486,-3.5562183632277415,-0.438920382565289
11.0,-6.197206668567704,-15.688810981061625,-9.491604312494045,10.892846555588356,1.625083846284264,-12.550323170098775,-14.466197696322435,-13.180144230455857,-12.22184732846227,-7.136416735910341,-11.32902228073213,-6.824293719476076
12.0,-1.2070305678942757,9.660125463614486,10.867156031508653,-4.206466878423864,-5.978634493978303,10.305618445454549,-3.1069572390112152,-0.10378454131789905,-1.712124920865448,3.571801621897194,-2.1436701469338777,-3.99839687232537
13.0,-2.8450980769288443,4.948165213707508,7.793263290636302,-1.0364639020798814,-5.3398797113757315,6.334790809642315,1.5511931377726715,1.291358471187904,0.20037568377964865,-2.1855970544832424,2.454652203699566,-0.6575315716111068
14.0,-2.5131367222777303,-2.079330201800253,0.4338065204774857,2.3121577641619355,-1.496882585682958,-0.8582761833923245,1.3932633923305628,1.1224616806676,-4.266573640356841,-6.778279768046948,2.1940094942909516,1.2446419630913421
15.0,-5.632960323452797,2.4184346510851777,8.051394974538065,1.6303642523650648,-6.791751620003575,5.278711097177766,6.485686490480409,2.7421082283335716,1.7573085030796562,3.756473285381058,9.098499400492424,8.050582538216743
16.0,8.092102135462078,8.48493069075535,0.3928285552933437,-8.332437258278073,3.8147369171329055,4.483567801217449,0.7525598666157833,4.600378968373215,11.25452869896433,7.419720623061902,6.27329011295436,6.047247332539563
17.0,15.398062926124169,-4.219094373033905,-19.61715729915808,-5.541864267967339,17.4656385637561,-11.951153015865673,-2.3514854622054173,-3.6580067562726497,-0.9827452557500189,-1.659092422353278,-4.447320688414495,-1.8638798087126331
18.0,0.9425970269047808,-9.394440037166955,-10.33703706407174,4.20460064030641,5.670753445054964,-9.897827038345973,-0.6134472638751722,-0.09571273913223233,0.37868692552553507,0.016728831142922673,-5.017628702169729,-4.0435528869777855
19.0,-10.985585074227515,-3.0300531525166052,7.9555319217109215,6.990128064505686,-9.442389107517108,2.431615148792317,-2.1760821349050725,2.837877159106755,0.3412083766050874,1.8018654450630731,-3.7049370742395533,-6.444084692484525
20.0,-4.228142597977489,3.6858337018222467,7.9139762997997565,0.249727009672438,-6.120065654693024,5.849149442476778,-2.7426081684707597,-4.356399179214221,-3.72043653856825,-0.8483923952981534,-4.216624223717812,-3.3374071109310957
21.0,-4.098499031017737,5.348030559177936,9.44652959019572,-0.6560087375655028,-6.736831201487866,7.370861766075716,1.742336718383138,-0.33400945749370603,-2.2766725309968816,-1.9721686622999102,2.6692227866280085,3.950298069077572
22.0,-1.9820401769202092,-1.3618133550503164,0.6202268218699505,1.7068105042466213,-1.25666740642348,-0.3135249950255412,3.2972908596590487,-1.1381735617687632,-3.345643167679522,-6.204358703361114,0.4973586596885522,0.7184275332540908
23.0,7.411357781463989,1.5851146336886233,-5.826243147775358,-4.474825563812493,6.593354041974718,-2.1358021434406633,1.4103118969785273,-0.15876171576007642,-1.04892141894733,2.033812163941486,3.6526915072904664,1.5594813502144018
24.0,4.6775054948320935,-0.8623900782711253,-5.53989557310323,-1.891374242866354,5.08895469149187,-3.2103008321073077,-1.7131547491305865,-2.850345244157861,3.7052745358936003,2.3056652315897,2.770193977471334,3.504572920295706
25.0,-1.7101940308560524,-7.590253905672685,-5.880059874816598,4.664572626962893,2.065330221442016,-6.740272946673758,-0.9997211091088472,5.88085984916584,4.313958087843879,5.164644171825032,-0.3655722365232741,-0.4786023913840549
26.0,-2.5026516420434968,4.316103226711453,6.818754868754999,-0.8897616983268934,-4.686398751856931,5.56284201509188,-1.4178518611972384,1.1810092358599893,-0.8558452589290151,-3.4091940496924904,-3.347492934327093,-1.2884821453274475
27.0,-1.4761070193628059,4.5657308202922575,6.041837839655049,-1.6017548062536133,-3.716864382809123,5.295824936808291,-2.5546903425136174,0.1710746661864062,0.04493058876251377,-2.260437274189062,-2.3924054099400673,-2.7004583644987665
28.0,4.0607754207770865,0.35479146052370436,-3.7059839602535054,-2.259890952314995,3.912691456536152,-1.6898795342432646,-2.7621014964303905,-1.2566256919915786,-0.9340106024859806,-0.003364643446180704,0.7631351686978327,-2.754725389121595
29.0,-4.77510868023889,-0.318710375921026,4.456398304317708,2.5771513800452013,-4.676156772463558,2.047251799758572,10.528280857995401,0.12568438722639774,1.1127135084383104,2.4478439507972265,7.91327610684168,6.6058526345994615
30.0,-2.7605733988033245,-4.494966683615171,-1.7343932848119505,3.66042718600942,-0.5006036446855799,-3.0636298828332302,4.833462556490295,0.3684706730150802,0.6002813450344153,1.0274841318690964,-0.5530588868165083,-0.10261835009135556
31.0,5.108591932328762,-1.2359292019056327,-6.344521134234377,-1.901550636116613,5.740188450471783,-3.7426028395647926,-1.594014601040103,3.475978636772184,0.5009685578647025,1.7996664547781327,-4.081596530983038,1.9520919308469211
32.0,15.323241069823247,2.232938041596044,-13.090303028227098,-8.819195267585513,14.228423311378144,-5.460366553973447,-8.927588273390754,-8.050050290727246,-8.949436193200917,-4.30766617587578,-7.309287632440054,-6.329974935498947
33.0,-8.047432942958693,2.4496736071054546,10.497106550064277,2.7620150402952732,-9.238019510428096,6.443002947295803,-0.7645321398058433,-1.6165721418305141,3.1993882670122846,2.2411133011504267,2.898347722901544,0.639360962922721
34.0,-15.846923813502354,-2.817699261728874,13.029224551773577,9.379794968296155,-14.469251701333995,5.076922383904943,-4.942516602455273,-0.8723691530692328,-0.41922593148116616,-1.9701417409948023,1.7161018829157852,-1.4451624018547473
35.0,-3.616330402005228,1.138786668312755,4.755117070318029,1.2136832014206327,-4.207012776980419,2.9971980335689574,0.4665606899736683,2.820001906938294,2.4246215312315345,-4.671580879154237,2.663770695621964,3.3203860295771452
36.0,8.264390492990472,0.2436748373876475,-8.020715655602796,-4.195097042115638,8.124739338076264,-3.9187699419552193,3.4878107232318993,5.111969900018294,3.7687378260480995,0.7854208362455106,-1.1239846419187831,-3.3421042535723986
37.0,5.106814928232252,-2.107783801678538,-7.214598729910725,-1.5168170139515156,6.1392146392279825,-4.616703829394943,7.098590668991277,1.2060617738277823,0.45080037177125365,0.9682725855635137,0.9309622888123262,3.198920200456221
38.0,-1.7611302503760777,-0.22234109129979035,1.538789159076308,0.972637688305132,-1.6018579037477085,0.618101957508995,6.941218059070797,-1.3480865647552682,-1.3545223448533876,7.24014838598879,2.602202069580369,6.308905120079538
39.0,0.15215326463850953,1.7146127627994332,1.5624594981608397,-0.9589945678257288,-0.7470974837389956,1.6703827826000242,-1.6544548917020547,3.0466674704058927,-0.22813515046088684,3.812767034831728,-0.08405815650972004,-1.6929098874747064
40.0,10.83344360885555,2.996812728887378,-7.836630879968371,-6.950709291614244,9.362060896459688,-2.4732014661404618,-11.8686446957599,-4.946797167471409,-2.0243034667422233,-3.1306905364491535,-6.593757715235553,-8.950028374322423
41.0,2.112700797524598,3.259974033084741,1.1472732355598403,-2.653850379399922,0.504046302071675,2.2245699771709933,-1.0101743402547783,2.7782030065456693,2.6691433951654426,-1.7019494231994197,-1.273935882970429,-0.2451195299379063
42.0,-4.706282069685958,-4.222168545339722,0.48411352434599664,4.488600427158539,-2.574881037164941,-1.849430185658167,0.15285265546161497,-9.668121340446278,-7.961359361622408,-9.563011248940805,1.6233780490858198,-2.83487901810537
43.0,-22.721234286026046,-7.391532270845893,15.329702015180114,15.077758329882567,-19.002963100634656,3.991146347412233,2.6875174789445357,0.4962161813946224,-0.2927655939499554,-3.069749692275698,4.369913464860781,5.6009694483160315
44.0,-0.22738360644289024,0.42218730992716447,0.6495709163702212,-0.0730741081164421,-0.4920210850175879,0.4851995082632561,7.218978764358779,6.508800638619523,7.254431244807096,6.503848381381099,4.439028162817926,8.938114408921015
45.0,7.329270770968376,0.9770560166392102,-6.352214754328884,-4.199717538879646,6.7878536719617735,-2.651130568832563,-7.034806406137898,1.0765376666781972,2.1959113443360687,6.066863037533582,-4.739095827386337,-2.1296429785940028
46.0,13.033275363637031,7.268240973864238,-5.765034389772545,-10.186841588305148,9.422377008806277,0.7182632318672828,-5.716474093649377,2.647699281635904,0.043180092078432875,5.889779405097319,-4.772321624114249,-1.246006057329984
47.0,6.926976027908321,4.834742339366161,-2.0922336885420867,-5.82773611473845,4.527378659267667,1.4242734186134132,0.782715882722641,-5.862391577473893,-5.883497936566561,-4.603130589777392,1.4529840082798908,-5.938016198171149
48.0,-6.484380411109043,-4.030451283361765,2.4539291277471995,5.2401647305836425,-4.457873537617389,-0.809283662046105,5.933967039983156,-2.680831081587539,-1.1882251989365802,-4.83287090389439,3.535501678894744,-1.1817758014215594
49.0,-9.096177845231773,-7.4801282660528345,1.6160495791787552,8.276150828334774,-5.350252541515892,-2.9519032516788024,5.301975565729136,4.5689130948475185,1.0722491216856689,-2.791636342641951,0.44436946979789926,-1.614830716588457
50.0,2.0922043419738143,1.0232097025501958,-1.0689946394237961,-1.5675636594196072,1.5837178486395707,-0.044576727655102344,2.4384169341430915,2.7870150397454903,3.999897641448723,-0.4236327610296833,0.21590998168991615,4.263858541434176
51.0,-0.1081709415278338,-0.5324078315381429,-0.42423689001039167,0.310259730913542,0.16174411595041827,-0.5031346216955812,0.458124569548559,2.2442107070881985,3.227443445889893,1.5415748065116923,-3.5101930717811314,3.1552684435564755
52.0,1.4181190899945015,-2.2437479394093893,-3.6618670294038993,0.48005175984225856,2.5474022272003385,-2.901201498042754,-11.099813544308123,-7.588693507129564,-6.736153916003785,-0.5482828327001681,-4.884477008828333,-3.947419122750134
53.0,-0.5033432752822934,8.476804978974153,8.98014825425645,-4.000319691088636,-4.807031227781805,8.780096886144165,-3.8194178687188813,4.158334326850434,7.299368878363239,9.80072236371679,5.4439544296423295,3.471237402691319
54.0,0.6336456471091659,3.164156079693044,2.5305104325838728,-1.914946269682514,-0.9274315572124379,2.822781808192008,3.3804844265058143,-0.6490542862817557,-0.122175657386705,1.4541262060166606,2.916836578504711,-2.2109234328967355
55.0,4.205657543235026,-2.703395104757467,-6.909052647992504,-0.7701257231149325,5.586542796167471,-4.82684994132525,3.40568657724257,-1.9205544701221136,-11.658573006821292,-8.399795786217892,-1.5624646622214904,-4.51757383669479
56.0,-8.1275976239478,-5.109445555396906,3.0181520685509233,6.596012366123827,-5.535667072852009,-1.0630441189010658,-0.6545298121131351,-4.764327733767932,-0.9361753298267792,-5.02183687295946,2.2653754281285723,2.908489317150249
57.0,-2.2254829236965303,-0.6970521937491707,1.5284307299473476,1.5136262792325534,-1.9114648306510105,0.39887286773815656,4.152255615219004,4.728762530612188,4.891657039441807,-0.28714685453520694,3.8991437899616237,6.521520480207683
58.0,5.149359042693169,-5.747237328699862,-10.896596371393073,0.26872592901894743,7.9938740651549995,-8.26316051665795,-8.366101652223783,-0.9657742142646053,-1.3153380720944763,-0.8736392926257198,-7.647312833416195,-0.6496601037452336
59.0,7.5303947871475465,5.887650886999301,-1.642743900148274,-6.663793527216903,4.561025180588048,2.095593272946529,4.656968724604125,0.6823405329654448,4.725202197163167,6.901976312315682,-5.7508343503539185,-4.593344478508207
60.0,1.1577557908608118,8.07888037997668,6.921124589115919,-4.654309299886881,-2.8265089803579375,7.463794585077565,2.88749572087592,5.234875536277397,6.53137678075298,7.315673049681614,2.246656191103952,-0.8989035763954152
61.0,-5.6792294781633395,3.650568098133131,9.329797576296567,0.9768633329727501,-7.527279190761094,6.522927036012964,2.273220111689716,0.2520831808316064,1.2801868625682942,-0.12596654726739898,7.475035563678516,1.9155503428202818
62.0,-11.268871238870409,-9.762389995339975,1.5064812435305068,10.556438443600328,-6.331862999372185,-4.103126974503061,-8.434913130515262,-5.871501205930992,-5.916632093666353,-5.684837603951468,-1.3458125225553332,-3.4885621833620055
63.0,1.0470946297404193,-2.2680795933566036,-3.315174223097014,0.6516624673071751,2.1567853774355505,-2.84958757298844,-1.3277514649478426,2.8110823178486624,-8.086081107022247,-5.934350727301239,-1.0164997879473907,0.5234965244662386
64.0,12.645634666705572,-0.5749124466645741,-13.220547113370193,-6.072080487152037,12.90559895481809,-6.876030778921907,5.526558588625,-2.6540722569070225,-4.670685981993647,-5.173848603321561,-3.5703316853982425,0.42207333974490047
65.0,-0.060684409021150465,-1.4805169373897034,-1.4198325283687199,0.7348524512255845,0.6469528132212403,-1.4228744697241824,8.011088574035531,4.822262182941703,9.132870241309591,5.419927574844811,2.4199460481155546,3.3689399165948037
66.0,-5.880303473739394,-1.5769344721061933,4.303369001633007,3.77248797204457,-5.052491578410624,1.3991880246690989,-5.051216019230738,-3.669167182196378,2.630631807888981,3.295247567070838,2.683304745641899,1.4952861272757296
67.0,1.4038061537799054,5.531825359596085,4.1280192058160186,-3.501823399855155,-1.3302790094112114,4.796344761955837,-8.62647654863926,-4.015147623296949,0.1916632390811288,5.234279421044562,-0.05361095780039249,-3.3056666627228886
68.0,5.091592570042237,8.040708255060382,2.949115685018161,-6.52012832098874,1.017280775832996,5.4685139451092715,3.35124273635913,1.1727798832945369,-0.5053063685402723,3.5815070847476695,1.227491253188292,0.8985759236918012
69.0,-7.922498618140853,-7.374980209975016,0.5475184081660105,7.618213262743138,-4.215631767261615,-3.4365525540630015,-7.35387723249898,-4.98128638756462,-5.7442743380717225,-10.798448481011356,-7.43677436775606,-5.178317803484078
70.0,-1.1046978367011229,-0.30529137912899573,0.7994064575724359,0.6780122008394471,-0.9356873094415268,0.2241419075991058,4.8282424819457015,6.349714258797843,2.6956288111638367,-4.510568823986848,0.3644611588107929,3.901624137499108
71.0,8.111223814952758,12.323784280781243,4.21256046582876,-10.160717708709003,1.9653884314480468,8.321460124431809,11.587085585567197,14.543881815833682,7.390547326416713,8.388470618648553,6.581276604321105,5.887397735184871
72.0,-6.01299657620636,-14.227362529655242,-8.2143659534488,10.104416004434503,1.0402167687377075,-11.170907217264224,-4.7139843367585845,-4.067338837504835,-2.4530876114003823,-0.9251080267352836,-2.1432014484693385,-3.1047362158370966
73.0,-2.437856160997156,-4.216843519006518,-1.77898735800954,3.318222511137829,-0.3069308169136402,-3.0295908279845114,2.2805084029022638,-4.2571673008739666,-1.1149841547652204,2.5902530286234833,-0.15014715199106016,-0.2956870428974645
74.0,4.374888017932967,-3.4893971300324753,-7.864285147965782,-0.4458599034836497,6.147491530844745,-5.710571509972711,-2.6964950246107384,-12.442803461817475,-6.225635701311922,-4.200519554976371,-2.7899570840535297,-2.413834511950798
75.0,3.9488636651111473,6.866899289190055,2.9180356240785965,-5.406729652359788,0.47006899578765937,4.935957003184891,-4.214211357443071,-1.9878086398405967,-1.4737141865078023,-3.83889126706154,1.449282206937638,-3.0442881888946056
76.0,1.5969152614423836,12.755923622406499,11.159008360964005,-7.173687556435039,-4.74337418480509,11.92069536617505,1.2023229170475438,9.91123963025112,4.360909063496598,6.766566496809419,4.308905272480807,3.485351282954973
77.0,-5.939480516084634,-3.946397514554527,1.993083001530234,4.943973907260747,-3.926995010200012,-1.0152272652215535,-3.7980422925662447,2.4849606222905902,3.3184127455854657,0.7316679271010025,-1.6243458996228455,-1.250283983006093
78.0,-6.293753086190289,-12.411622907257984,-6.117869821067472,9.34858504773203,-0.12955621886445723,-9.226690443951183,-5.600620330211495,-6.276223412403095,-6.372733643093285,-5.284484707110137,-5.926708627098765,-2.738984917138905
79.0,6.72937697619468,8.073272451528329,1.3438954753338233,-7.413721658554633,2.644954445484469,4.744204951083153,12.662739634948291,9.291816601659173,8.534599214195328,4.153107728082816,2.7814520190248126,3.121718217581802
80.0,4.692308136243399,-0.8395904242100136,-5.531898560453418,-1.870725330153879,5.133892543971133,-3.1530579136567316,1.765048417215609,-6.934647804203044,-4.7595763018664075,-4.347327933108133,-3.382016311602872,0.06385834280796532
81.0,-4.770530067288361,-4.230892672004983,0.5396373952832261,4.46562554599889,-2.6432376524434353,-1.895457986040273,2.30702554609741,0.15396451564731573,-4.3328878892041045,-0.7507677504549233,4.432292060201288,5.646313555827387
82.0,-3.676468701282226,2.7439641480159898,6.420432849297988,0.4195463224774332,-5.044481596011744,4.527717233924988,-3.049093364162564,4.912697368096589,8.515358446765344,5.351408330458677,6.836122756372348,3.027220670919691
83.0,-2.0455938782980803,4.250448333894167,6.296042212192105,-1.0797885721748546,-4.170150601197777,5.292649863694904,-6.3153846874801145,0.3883416628909009,4.9438858073114265,6.919467279614786,1.237605275464428,-2.703412356110742
84.0,5.462365012216326,-3.376743788939285,-8.839108801155556,-1.0256393931916625,7.154019820283143,-6.09221062709522,-1.88855907191743,-7.723296328454943,-7.975396101955768,-6.508586209791761,-8.633631196578598,-8.256359388785514
85.0,3.048372547029639,-10.439147726529624,-13.487520273559054,3.712024803739877,8.27949133257245,-11.948592505135707,0.9824491098925434,-3.1767352352896006,-7.2531629294755025,-11.277030935814567,-7.863361896086467,-4.52447141026626
86.0,1.8946642462887713,9.22552119913928,7.330856952850771,-5.539241876832014,-2.694437681490972,8.29557636773865,5.012692886829006,11.134952081020668,1.8845256384766138,2.405535452707281,4.720823581767332,1.4822585183872938
87.0,0.3425072873915915,12.705814370661203,12.36330708326972,-6.574474382183195,-6.052254212308816,12.557989704628204,2.9514411305495343,2.6692688125610093,2.550336069993324,10.938516199581098,6.807274860200137,8.170777018101784
88.0,-2.2675892527363795,-3.2463591404145404,-0.9787698876783058,2.7942928070139157,-0.6746847551347477,-2.159713915988757,-4.681531031684447,-8.685593506954202,1.5245317990619351,-1.1446530001061017,-3.5284742162269467,-2.3784373874173137
89.0,-4.452659725079781,-7.553674292019636,-3.1010145669401163,5.96988674316888,-0.6194261010163338,-5.365933703926224,-3.8097514646796915,-4.770959986380326,-1.0084815349709366,-3.586555780298431,-1.7831424153975348,1.3945238859711677
90.0,-5.731558067145119,-4.962937130456401,0.7686209366884569,5.32005444406093,-3.2689056931627243,-2.0496111775157835,4.834116231109071,3.752563670982453,6.484969278002933,3.8468769510540377,6.527488122280482,4.190139026079786
91.0,-6.428899331124771,-4.801450065316764,1.6274492658078996,5.670395295675644,-4.047242228583535,-1.6129988632875958,3.3403004140428125,7.914335248325741,2.388350518023926,-1.1471917403930099,3.3677805189050414,2.9368545126274572
92.0,18.356216428107345,4.279687317462697,-14.076529110644561,-11.33977427938167,16.19483758687125,-4.84307674642093,-4.791842433248647,-3.9019038846500544,-10.555790689962668,-5.6438309102262805,-6.913629515465109,-8.81363087328564
93.0,5.938375441048664,7.5424627180718415,1.6040872770233658,-6.761628500690539,2.2215983755096707,4.549861360524282,-0.3171545702443983,-1.4648850757037821,0.9933534071557153,2.069722653468401,-2.640653314580297,-4.146572765083921
94.0,-6.211033841325833,-5.876385384915397,0.33464845641059415,6.101551931349649,-3.298658873938532,-2.7965253007161386,-0.8402939035508961,-1.7309780930143441,-2.085521414457031,-1.490772420509527,-4.861469081187146,-1.0624447506818515
95.0,-2.218639892533353,1.941959321518351,4.160599214051707,0.11780379272415897,-3.1363857682726053,3.021823318200447,1.2361135873808413,-2.088011423228794,0.6550617601106103,0.3898722539906279,0.9395685808101935,4.179758521549932
96.0,-1.2198275012097874,7.713707322376682,8.933534823586323,-3.26712691994851,-5.100521085923289,8.368422474596105,1.6777173715824922,6.0810797027207295,6.996593294012195,4.827336531201005,8.496526968269052,4.518067899338624
97.0,-3.793998757101617,-0.18571121831753556,3.608287538783896,1.9695804934289494,-3.7229706975297256,1.751679692669017,-1.588767283340584,0.5335163880238736,0.5201012761531931,-0.5445013260337892,0.014882490660037995,-1.7052827998127467
98.0,-7.155169197072648,-6.035065721236366,1.1201034758361292,6.652554693317535,-4.158029159123659,-2.4996996427828444,2.2300565308427007,-0.14456622600535657,-1.039098652396532,-2.5369831549739144,0.7991080532522055,-1.1424205672834096
99.0,3.756515098225352,-0.11064567668043335,-3.867160774905783,-1.846663650286926,3.7920552727373704,-1.9554687355394176,2.6483441498867086,1.4902044919210269,0.4150555948345467,3.544440252576174,-1.4799106850291017,0.4379337221626688
100.0,4.405717645159095,-4.921807086773324,-9.32752473193227,0.2303174401493975,6.925828998939997,-7.172029238894778,-0.37696184134862754,-1.5974848027294295,-4.58014269461254,-4.507205115738599,-3.223440382092411,1.5848858601685616
101.0,10.109391550749697,-4.344668191602592,-14.454059742352062,-2.8367844852033417,12.262748899059808,-9.447078338957356,-9.921058679002696,-10.094730519717647,-8.713946890213892,-1.103453394482831,-0.26477677401832755,-3.005081383902942
102.0,5.021086736200136,6.0023242780911605,0.9812375418912316,-5.551224622808181,2.0021385736237356,3.525051033253553,-4.975008253296322,-2.2369257988878952,1.6766988257305453,1.0246895359306116,-3.692970004832362,-1.4882798377667061
103.0,-5.663432424389228,14.119553468562856,19.78298589295209,-4.195146021103139,-12.660933468447503,16.98986863429424,10.038388737615598,9.726214155025653,11.653878886200644,6.133495595370815,8.876674611382448,3.696947312767483
104.0,-12.281047343289682,-1.5229995253425228,10.75804781794702,6.851058169809212,-11.53583623715157,4.663913929311833,10.166768151660003,9.126467701020552,8.505836890041099,0.6821950840877578,2.317446717015467,4.577698235889427
105.0,-4.922367342420066,-14.191659313670522,-9.269291971250711,9.581948575963825,2.154796223558071,-11.75464077308564,-4.848519979736737,-4.656856467366734,-11.307522613867462,-10.24679894824708,-7.736390847702816,-3.745190578666747
106.0,3.0196966445043265,-5.215079414489411,-8.234776058993976,1.122728803829439,5.602813210710247,-6.7433912812797345,-6.9963069145921715,-7.91480572881393,-6.409737499922071,1.0337398897891665,0.801796784127434,-2.3484945294929584
107.0,6.6781317662870565,8.180772754373095,1.502640988085929,-7.401380840293304,2.5546229289501925,4.823985142208533,2.269732343522119,5.555146714942853,8.329828202963935,4.509972113919942,8.712146744704482,-4.147010149547045
108.0,1.9710513441536248,4.007135109552249,2.0360837653986983,-3.0345080564521965,0.0032075145842993535,2.998927453651984,0.9817128776362825,2.2157071301242084,2.1104224901986233,3.004511131074123,-8.847552602379164,-1.7414334789778059
109.0,0.3116646199859088,-5.563562292013019,-5.8752269119987615,2.58695258090247,3.1204746812014426,-5.75116630602662,-0.7703754830494413,-7.601467948178886,-6.779834871212336,-3.155082122142955,-14.765181586865756,3.8296145872594534
110.0,2.420484161665592,7.701538845407173,5.281054683741735,-5.014745719109546,-1.4086174856447302,6.5284641837802795,0.654847901384435,-0.006553208664602739,-2.071640618831812,-2.0064925938369735,13.690497867326663,6.22912863290198
111.0,-5.8592547315096635,-2.233144832382621,3.626109899127126,4.019463703202245,-4.800754758202517,0.7269872882355337,-2.4024723091997995,-0.37985230239643325,-0.8437633307043376,-0.37628990238941473,6.536468495845558,3.1011726900762824
112.0,0.6254869558779377,3.414917951464388,2.7894309955864083,-1.9639121897774896,-1.0582740039845484,3.13186054464058,0.8441571893907859,6.81747009066649,9.102770032525378,3.8235593427698884,3.2167962126870417,-5.594284842148481
113.0,-3.2289744358174035,-12.949212482990117,-9.720238047172819,8.06877858465169,3.2747864841430925,-11.378372665485843,-4.065274223290797,-0.48773561287182954,-3.6259818597216382,-1.5703668770525585,-6.321528755083188,-2.5978891654024006
114.0,1.133621211699399,4.118084725250665,2.9844635135512054,-2.6467068893637204,-0.9693975472585851,3.595970670196148,9.532776750376634,0.6274519209637021,1.489943999029183,0.80989072640553,1.5191583680654777,1.2244732229306123
115.0,7.446205526646614,4.714700847504439,-2.7315046791421924,-6.104758015757179,5.127122414541792,0.9676491852193205,1.9180367940500815,-1.7979013283411196,-0.3447985229642101,2.128798418748897,-0.9480295335206659,-2.3146709086725252
116.0,1.6642995124048365,-2.9157348276706334,-4.580034340075457,0.6740817505534502,3.081456905252595,-3.765062846873359,-9.746556121582621,-6.084240378877465,-2.9984642575255736,-6.153495450109442,-11.114396144379176,-0.8930115426474909
117.0,-5.6728220274427255,-1.077914023511141,4.594908003931594,3.337048381761481,-5.100137207820732,1.7421882352758997,-4.344581369233276,-1.3084688560047706,-2.132434909228131,-3.2619421350801545,2.2947488351942384,0.3294973243490303
118.0,-3.117775662373411,11.847380578916232,14.965156241289641,-4.333082256314859,-9.09382491536284,13.384571077624406,8.55729314553145,6.685990626397299,4.995240548413923,10.985839826918129,14.345760999200955,7.30254183141211
119.0,-3.744161602481829,-4.393805791826386,-0.6496441893446399,4.092364532971457,-1.529013574432418,-2.4743926864687413,11.091949000616136,10.361885211403651,5.5387077325777,2.321392557781125,-1.324022062761962,1.5896041618679186
120.0,-0.891185194293977,-15.147377418778442,-14.256192224484565,7.957030891234285,6.694458933132295,-14.74382267619619,-14.209395196717738,-14.180388305429895,-12.691909990845396,-11.97404690895489,-5.257485975934459,-6.392922343874172
121.0,6.9974649488962495,4.954030485934627,-2.0434344629616845,-5.963687226517368,4.530153674267553,1.4841392568613099,0.23561692912529653,4.511402553583805,4.4683262416450376,2.7742192834256487,-1.0985280488812679,0.1765540681528135
122.0,7.386274615016132,7.575268918637246,0.18899430362115233,-7.469903098603448,3.6110277745268675,3.9084222980813927,-1.3760212243193553,-1.331110325235204,2.093595712013475,3.3645475345744016,1.6930908064608972,-1.360871047098176
123.0,-3.008316414395645,-3.245238031032851,-0.23692161663709005,3.14014286800165,-1.3663991155680528,-1.7113446043263847,5.158037305309455,-1.5541064165471592,-2.2511609594788498,-1.987578649357498,-4.8249403203392065,-2.511000277717377
124.0,-0.26470276300791495,-0.6646615903722716,-0.3999588273642414,0.48410410286108113,0.017314048978102292,-0.5731520341603562,-5.1142353270802055,-3.156505546287853,-0.6017188070794071,-2.5234151572862755,-5.972354586796774,0.9434304664417913
125.0,-4.483081316718046,7.711913420514675,12.194994737232793,-1.66488809644018,-8.301723864067005,9.922988996557665,3.5719472436092783,7.355723461722276,7.741737247668468,4.288305572786127,8.990296204746382,7.792563413542575
126.0,-4.965989022834986,0.465537798332059,5.431526821167058,2.2889260419857544,-5.23361243369617,2.927873069232511,3.9821809936467765,2.1893078956356176,0.15575352145806143,6.093737634068789,9.366863492375943,0.31931458949101454
127.0,-2.166374118172595,-9.991700574169766,-7.8253264559972076,6.04953907103177,2.7979812615258783,-8.843387615111567,-5.816875931383157,-4.3094764685256575,-6.89400964260708,-5.91998676459687,-6.7222242015151945,-0.4299968499788531
128.0,3.318730928752892,-3.7673435147718264,-7.0860744435247796,0.204070907877012,5.250104647212901,-5.437305215445354,2.0916853753851536,-2.9417622825645187,-5.371379763674853,-4.538592361944389,-1.689378994552243,-7.05303659528311
129.0,12.19871377836633,4.051745278002499,-8.146968500363847,-8.060024687234144,10.140435701334852,-2.059417434258682,0.4416388875456755,-0.4058767907996619,-1.9809447766644412,-1.2817187467506486,-1.4407217223360327,-3.213189312854875
130.0,-1.3747196379516744,2.117427101037509,3.492146738989221,-0.38185514997992254,-2.389069632818834,2.7881981734630417,1.3170980841266322,-1.1007448367000088,2.1935155672275295,2.4369561832052162,-0.15030405460037954,-0.9837318412570288
131.0,-10.025828023137958,2.880377225055968,12.90620524819399,3.5609450220228225,-11.423596284156,7.869681551775191,-4.454660654058414,1.7365468533646877,10.715011648776294,4.088711740287633,-0.18409545770260227,5.969226551129797
132.0,0.09847126668979289,2.8008243943898474,2.7023531277001096,-1.466975713402066,-1.340132277220376,2.7990906215120255,-4.453198996967764,3.2315316895717316,5.184175990901534,0.917851303908199,-3.248333216691179,-0.6385189394457345
133.0,6.42917018868283,2.007575918941832,-4.421594269740972,-4.24443957378188,5.385264628708213,-1.1663391553039881,7.437358742964207,4.460244927597612,1.1700104679484382,0.4783680502270582,6.452015633547796,8.902415370490939
134.0,5.893260605738249e-06,-4.306899443179404,-4.306905336440014,2.1962641743010334,2.1115912952851104,-4.350124401266569,5.789831574966139,9.225697551890972,-2.4200987542701977,3.2123646925598996,5.809599864525813,5.809856656539072
135.0,-6.294909583721067,-14.29935424923066,-8.00444466550963,10.252745474139061,0.8909118178162168,-11.198265527400949,-5.274134671161721,-8.304269053886188,-10.663499590436212,-6.564846784810251,-4.329152307689412,-9.44862222253138
136.0,-0.9818515588477315,-1.0205984603799685,-0.03874690153224725,1.0307154078763623,-0.4341807569960936,-0.4985202726620015,0.39458878229478733,-15.698457386545732,-15.257769397002386,-9.050456105773224,-7.138751535784992,-9.369743927978483
137.0,5.1850367509231265,13.145735444460893,7.960698693537811,-9.136224719001513,-1.346939174254635,10.584716508153257,-3.277043430996289,-6.57636486549108,-0.0766739833373391,-1.0680819617201673,-2.5114371307613514,-5.895566579717205
138.0,1.2081890578110244,10.945241555261411,9.73705249745049,-6.043994703705055,-4.297287828204834,10.295238100146156,1.4262575156952844,9.510586345612293,16.24208630882848,8.850969592761041,3.6558581913669905,8.471409311446294
139.0,-4.55918530121156,-0.21244825341569218,4.346737047795991,2.3452338991984982,-4.481098844514152,2.1014630325279136,-2.0730446589565927,9.20661676026943,12.753712948019366,8.28100646218527,1.418891770062615,4.821842518932391
140.0,2.7385252655958823,-13.760755550527996,-16.499280816123832,5.4754118914687,9.593209118482052,-15.095086667668241,-3.895809136073898,-3.6222455308519663,-3.858089074258517,0.23769350103822884,2.1539199075579543,-3.19997974026452
141.0,-3.018490511526702,-1.907247635171612,1.1112428763550346,2.4296187965315506,-2.0130590314612107,-0.4428645299519687,4.92424205329349,13.883144525097554,4.4245319307346875,0.9277219860383474,6.778642347768327,3.443835250213543
142.0,-0.2963009704492725,-2.3376325772297486,-2.0413316067805733,1.3618521273492825,0.8402578401177614,-2.2371852686724174,3.620911206341882,-4.62936147315588,-13.301746863824125,-9.568707498703453,-3.7205526360875956,-1.7675980133374098
143.0,9.52839030675436,3.3904768479442473,-6.137913458810218,-6.417714516227226,7.870985943774484,-1.3465486762534422,5.365283483881489,-9.728194257923867,-8.530123951240775,-6.260852192368706,-8.502088732387048,-5.192742122240213
144.0,-2.183712002905875,7.866846008179833,10.050558011085647,-2.8831745453988034,-6.168466403538311,8.982428160606075,-1.3411698878258576,-7.323035825850995,0.7810012357080494,3.1527766347340505,3.8403293555659914,10.92092913186525
145.0,-0.3207248383860135,12.834361598841113,13.15508643722711,-6.224448788935534,-6.720615869966895,13.01700893820711,-6.107448145994998,4.09495732179179,11.00326834978945,5.446254264401346,5.510323654172213,6.055750140032491
146.0,-6.000979980375735,-12.46469619542793,-6.463716215052165,9.18247063030254,0.24079842523544492,-9.519152188944133,-14.305262727334819,2.6945894483816013,4.970038562989499,0.22693023831528736,-10.07802314076618,-7.746893784843913
147.0,-3.7901803419410336,-12.8785497567759,-9.08836941483485,8.360219426293817,2.654315161990694,-10.9552977991936,9.411188156471095,4.391573439763464,-0.1896543478599786,-0.3573673858940569,1.6262925817559752,-7.452088326154193
148.0,-3.061273661050449,-7.1486846191635784,-4.087410958113118,5.130130768164825,0.5181199916575953,-5.583966813323944,3.9015059500642053,0.3991813350093101,-9.129169190065813,-0.40674306279191286,1.7228611058492356,-6.632034882121085
149.0,6.488675029052055,4.385332197440217,-2.103342831611835,-5.489420806248253,4.3042872103189325,1.1016994684017671,12.72342263151957,2.8630631352854308,-2.569421567598873,1.8688239781269391,4.111135181236895,1.1673412709129964
150.0,5.490292238486007,3.135655292678684,-2.35463694580732,-4.28382269468612,3.936051639942752,0.43253111532342214,-8.400216919495577,-5.022164528051199,-2.6401254034521813,-3.81980787131737,-3.100429659408115,2.8815014458670123
151.0,6.104884974161526,16.744864573691117,10.6399795995296,-11.391782191344893,-2.326657753487729,13.653905407045379,-2.3703799408402215,-3.861913514598408,8.329529598953345,3.493531475780369,6.870866908344546,7.445013746022449
152.0,-7.95125662886496,4.748081840848754,12.699338469713735,1.5603046039986452,-10.299595952433732,8.67895765381333,-3.9575850928817173,-1.9134836354518283,3.0981856094598075,-2.526276165980283,-6.227012987056774,0.7912162193181063
153.0,-2.9582091125935075,-1.8568472110558076,1.1013619015377314,2.370311068462312,-2.0766303603153506,-0.35280855853056137,4.646634264246346,4.1480541873288885,-0.6908644780782711,-0.8266926843787546,-1.2619257137105717,6.189512196242339
154.0,-2.3431864896126786,-4.435620524507704,-2.092434034895008,3.4339876845532555,-0.0864131721409247,-3.248098408815306,-7.671388194099356,0.8007580233790141,-1.8349706440749258,-0.7565592304700403,-0.04647044877714901,-0.5463812834663613
155.0,1.4729116785902043,-9.834625343901632,-11.307537022491882,4.226822047640832,6.437702471671593,-10.56094723372453,-4.4603623630428935,-0.25245751593803467,-1.824286803011582,4.396661159377419,4.269826908263805,-2.8208797575609426
156.0,2.400293858337715,-6.124162517456592,-8.524456375794404,1.8282912900736559,5.440891290686121,-7.314447268029595,7.211506587252091,2.501655013892571,2.202658212415495,2.5965419754076127,-2.0200622255238616,-11.262306172605863
157.0,6.352574067662408,0.18688919144028393,-6.1656848762222385,-3.3067530307513318,6.24749838775343,-2.9735395035859806,10.343343938518828,2.039199497152712,0.10127139794893292,-3.2266732418357966,0.8905626336940942,-1.4828697438870977
158.0,-5.4671312229559925,-0.8103180366979446,4.6568131862579705,3.174876479191311,-5.065578715081423,1.8716901383957518,0.13722451540378078,-5.081036845971564,-7.727195529618356,-7.280274854621789,-5.165651068149635,0.42767795106169704
159.0,-7.429023644392466,0.6207115337687017,8.04973517816114,3.3548719942343057,-7.73865945636013,4.376930548055105,-4.4179132007228965,-2.604742152781041,0.5439317635798342,-0.271529072606322,-4.538155777554529,1.975661544613469
160.0,3.2666825629459564,13.402354227233195,10.135671664287246,-8.31119955147354,-3.4342695894362443,11.747010644210851,-3.4212957413050336,0.7538019491022454,5.572229530813681,5.826159586743199,6.170001373998682,10.209132306007772
161.0,2.7826511567395906,7.096250989446512,4.313599832706939,-4.92008992733519,-0.7704789201663647,5.696059631061809,2.4609332127284196,8.377717528769223,5.1635241161732965,4.4736842686835425,9.332641795036944,5.200496479507744
162.0,7.223341013247088,-3.5705105802332584,-10.793851593480337,-1.8077972039948635,8.994988128025035,-7.181514107229503,-2.8613455230770786,-4.690079936783116,-5.672147609664512,0.9730931632721638,0.4155779019202974,-9.815993880900297
163.0,-2.8223717164906192,-3.331023213399847,-0.5086514969092448,3.097845139239286,-1.1801821870241929,-1.9140161735035335,-6.788373874914296,-0.82549352170836,4.0009042456278525,-0.5676925153212252,-3.4674926433010462,-0.04180654439726261
164.0,-4.895078208313706,0.19576884017231055,5.0908470484859905,2.297090830266928,-4.94591001588596,2.649961180547977,1.1242361552552702,1.4728191597867792,0.3093759522042455,-0.722779876618964,-2.2920955901736333,0.2476711701042995
165.0,-2.2796627370335476,-11.725012661376754,-9.445349924343233,6.9562300416246545,3.624681989694621,-10.581388741871294,9.201247179869126,-4.974721902412452,-5.220842859335236,-11.667783792658906,-10.254912890848434,-3.4610196236759094
166.0,6.027202963018447,-4.233821952055852,-10.261024915074316,-0.8571393536147331,8.10580839541864,-7.249250122815101,-0.017167743239792088,-5.1856177056625885,-7.540568898885855,-3.690000338474036,-3.8719405272023195,-2.0775522178669314
167.0,-4.878441734609493,-1.326520432304671,3.551921302304814,3.148656317511538,-4.251574731856129,1.1035468413026992,1.2215649489164078,6.860879997131814,4.3848271087327095,7.819267701016147,4.9898023017856605,-1.402762806130639
168.0,-3.952555570181816,6.759416856592978,10.711972426774796,-1.4303706405549632,-7.28592825537456,8.718558385322318,-3.9952607513317275,5.248610619503207,5.598640728371945,8.948075634408362,11.515670525272052,7.454395390501323
169.0,1.6442197613195058,6.487525758569743,4.843305997250251,-4.089010461350023,-1.627287135577383,5.719348846856277,-1.4887617175450247,5.889288268482021,2.2658236574426267,1.0496233328566715,7.393379568222649,-0.3527123868557571
170.0,10.004321761291578,6.663911789523768,-3.3404099717677713,-8.277418757750187,6.6489153434539805,1.630325633213137,-0.8940086388974942,-4.339321499261079,0.0647501731528537,-1.5979567857247519,-8.80858141650315,-0.43940491228217415
171.0,-1.824402001241788,4.2955925495451766,6.11999455078703,-1.2598434427459924,-3.9135522359157267,5.171347250443592,1.5859405258394814,-5.70300009027678,1.9788109387703001,-1.686283531274671,0.7074920508485931,6.089045176881598
172.0,-1.8341508505005368,0.0951866626512746,1.9293375131518902,0.8399435706343886,-1.899533829136284,1.051346768921454,4.349807289078917,-3.0375196444631114,-3.4064554624736876,-5.961368421594352,-1.4311333729563995,-0.024449317520432
173.0,2.3324711559714824,-9.79432334627187,-12.126794502243275,3.694183441860563,7.2134145267501495,-10.923008862156847,1.103057633667924,-1.9585336216668787,-4.414142350799439,-2.051496351369701,-4.589325509961481,-2.7257412457879697
174.0,-7.192855173587395,-10.589937139798785,-3.39708196621132,8.926248717918854,-1.9127654465519437,-7.034991798959119,0.6404405150450034,-0.3419541077664876,-6.636541227277388,0.04352979290738368,-3.738562483228449,-7.382639947966642
175.0,-9.541415316489537,-15.216284324661565,-5.674869008171969,12.408641414443814,-1.946547385785384,-10.486718338058589,-16.99772098255089,1.7594342847428277,-0.6582889294579326,1.3018223096496795,-4.422394733680092,-10.485599789566884
176.0,15.282935334097248,18.368867053594492,3.0859317194972697,-16.797829706489644,6.1659904284543625,10.765300402327902,8.040413598035833,9.901385216887157,9.91100752309188,5.036734703615997,8.621537377478935,7.800734541843422
177.0,4.517556024939886,15.49923526746597,10.981679242526083,-10.057557964866584,-3.2414064113247942,13.277967653961255,-1.670213100333524,-1.830386983254059,6.007985928272214,3.8376155471063718,8.20940115853654,10.09376407079942
178.0,-4.6584884891054585,1.2239773627311532,5.882465851836588,1.7502242463881945,-5.279134241792998,3.5103133505811925,10.709930681893093,2.64189513914065,5.093194952625925,1.4079635862535882,-0.5720510971784831,1.3934451713350304
179.0,0.6580484828012453,-3.855343302259751,-4.513391785061031,1.5561181148583427,2.575219742240448,-4.1519587446525,6.179075764377989,-1.541805306698611,-1.349030738575026,-1.2105317423599826,-1.286902357998359,0.8364875944486752
180.0,-4.0321314190797715,-15.579720094621665,-11.547588675541931,9.84351167774543,3.7420879854824065,-13.615385212458134,-10.944843933749397,-12.409565532946958,-17.357452355592816,-12.376160238195917,-7.381153137249464,-4.825639394730916
181.0,-1.6342167648070585,-0.9269430584195772,0.7072737063874373,1.23808293853414,-1.1945004133367814,-0.0898777906279955,-6.206931917781871,-2.045375158951659,-6.1485144879975975,-0.1891542104276409,-3.1304456806328327,-3.0150977102244445
182.0,-9.23064706947578,4.400503251899119,13.631150321374857,2.4477577355746507,-11.385518404103868,9.027828062477285,1.7684140737183363,12.823491559696969,10.363416169885053,6.661543154316739,10.065313142255526,-0.364296130769294
183.0,0.9753686069561711,5.69076355432188,4.71539494736569,-3.3833405361299773,-1.9123625505809643,5.207332302957896,2.290337890452162,8.328750017056953,10.458386185663223,5.972300503066938,2.9406381833524806,3.8853512574152926
184.0,16.16583098269151,0.08386779613468232,-16.081963186556813,-8.099098393643237,16.153923778953548,-8.001162291042629,1.081276819214569,-17.451775723469883,-7.7033178233532436,-4.397831425069107,-7.695132561133464,-4.579647967741283
185.0,4.5133186595218175,0.3703042530199758,-4.143014406501798,-2.415482739479356,4.355454742520406,-1.8924008339940526,6.967428105119747,1.586556906066554,0.5037868327894374,-4.470959279051193,-7.133936544028276,-0.6815280007949094
186.0,4.825621838398146,4.561033104388411,-0.264588734009668,-4.662393318096829,2.573025940378121,2.1415182922901983,-7.408569432498667,-3.6830134473177774,-5.1644799535294785,-6.480990258329026,-1.8873913630617491,1.5110189039958732
187.0,-16.66102326524825,-4.6386758093305875,12.022347455917732,10.60995358377842,-14.38979547250405,3.6882784470891585,-1.8159262169176005,10.477921235384247,7.4512306851455,7.34483325870344,7.868724951504116,1.7230519087384124
188.0,-4.68743361525628,-0.2507642105281729,4.4366694047281445,2.4385314437698096,-4.606886190009084,2.09643512506885,2.4366904878261426,2.0794243922326214,1.4662272470998376,12.044519883505327,9.165358705778777,4.375382500641529
189.0,3.614823050567895,-2.000901250347109,-5.615724300915019,-0.750450930958682,4.65205845581567,-3.79441861099384,1.7615403645226428,0.025485762185561756,1.2488282829634376,2.557900993199078,1.572551494677028,0.10887321758058288
190.0,-4.843126973450239,-6.409934754892683,-1.5668077814425136,5.609518409204869,-1.6776970482099176,-3.961902351886551,0.09208507056554549,-1.8551473215270227,-6.86089263994419,-10.261709960311627,-4.872025114111062,0.017939767094514836
191.0,7.499305869785075,-0.9859925754976091,-8.485298445282796,-3.2726502278652,8.034116824099376,-4.774943312664435,-2.1011190201664607,-4.028714518119905,-2.762737577774978,-6.169993233842806,-2.733440181437938,-3.8967436679635994
192.0,2.998209926992116,3.457023648031429,0.45881372103919427,-3.2465458460019017,1.3149048225688622,1.9300751872659287,-1.3058537101734664,0.3542650537268268,3.233394742957214,-0.7716283337264089,-5.349289053952791,-5.176683576076776
193.0,-2.7348464178855045,3.9960985605375132,6.730944978422925,-0.6549088471148115,-4.762199911773825,5.422670375684286,6.398274268040024,-1.3222583198122821,1.1250604642284618,-0.7895943935230778,-3.7722607078867307,-2.500408677299286
194.0,1.827414507408947,2.940035402478486,1.1126208950694845,-2.3348044654824127,0.33255738641942156,2.0106699967597352,-8.338405175473074,-2.348319582981934,-3.4296522995486747,-0.16606879864778723,1.801754424532234,3.274188055031721
195.0,2.4814244681840267,8.15284605563033,5.671421587446296,-5.271942549490424,-1.616136015925004,6.895820035728582,-1.9806444314530764,-0.227363806476998,-0.10872672141762182,3.9863164760874454,7.142019534250952,5.17854016168028
196.0,-8.86820375506815,5.899536706579758,14.767740461647941,1.4498964156239653,-11.758315035480173,10.312608523477115,10.351667567387608,6.789955541695336,7.999053775822821,12.395957354244734,8.848827270106346,7.430509739674191
197.0,5.246320460313098,-20.239182140541995,-25.485502600855042,7.463762238585498,15.346754601498207,-22.812127671138,1.620012982477065,-2.042778050081113,-0.3843631218507042,-5.981115505936641,-10.122788822829893,-6.02136922630474
198.0,1.6338419929957624,-3.876986990973207,-5.510828983968922,1.1709714628534442,3.5511616951942897,-4.731012877406568,-7.6263612435338715,9.779961970350255,3.370623616715915,2.4446997860855655,0.9282919643964154,-1.5476711991204368
199.0,-0.9423257874672407,-3.058030026964896,-2.115704239497637,1.9743280256452158,0.562294589234436,-2.55307197520011,-3.278466617397638,-6.662830966702204,-2.82657504434438,-3.633088824511317,1.7547072288428844,-2.0179887842552047
