Time(ms),I,II,III,aVR,aVL,aVF,V1,V2,V3,V4,V5,V6
-200.0,-1.4681023252083003,4.143637485950073,5.611739811158285,-1.339754252683007,-3.4927856965069557,4.919857437932206,-2.8750778608647116,-3.437652973303936,-1.3946622436179281,-4.2157981417975225,-7.210506357618511,-3.383413159011867
-199.0,3.579815023829967,1.2831381047678647,-2.296676919062094,-2.4258249983530886,2.9087064810478336,-0.5376772847964966,-1.9769634297400642,-1.4320445718264745,-0.5429756527019663,-4.542678711751254,-5.812403596483051,-4.463248746558948
-198.0,1.781842177975091,6.533708364080165,4.751866186105181,-4.143494476671621,-1.5131028527964276,5.617393037597251,3.7779060623052705,1.379966391540821,-0.06476674045290717,2.128925190750441,-3.0695488622237637,0.7906710637147443
-197.0,-1.310304991899337,5.155894353176064,6.466199345075536,-1.9005350803381758,-3.9167875998633788,5.7885925770690765,2.7429543473461795,-0.9374933935564415,-1.8695228384510068,0.009960805047830257,0.7868282584596451,-0.6241198825368475
-196.0,-2.1780806690949386,-0.9947264320687319,1.1833542370263097,1.536194951441546,-1.6334362899071964,0.07092991584076103,-1.6991661526681385,-4.573306712971389,-0.7799573851109041,-0.3378828074159326,1.3673630718194683,3.46317682923351
-195.0,-0.877756598091546,-6.83581787228112,-5.95806127418956,3.811006508305791,2.503730975337571,-6.346323309589872,-1.2280900696208585,0.2949515385953414,1.798106425546856,4.889596026285826,3.142201971450726,2.782940644832099
-194.0,-1.649397644265766,-10.54689761101345,-8.89749996674777,6.134335960029534,3.6608335282013673,-9.679134595765042,4.381570323671852,5.221004045709148,3.5637007216804206,2.0050903419919135,0.5498734732034971,-2.6721655276925746
-193.0,1.0821743821636973,-0.2616925420873759,-1.3438669242511816,-0.37114510799489375,1.1668155266642102,-0.8474090310644993,1.2358107125038489,3.7703504779658057,2.16391811054092,-0.2646189902909155,-0.43204041919141667,0.31991044864419094
-192.0,4.538454713225027,8.509067683240966,3.970612970015819,-6.481636974475554,0.31528018977899885,6.26507863252297,-3.040624860340007,0.840330905623667,0.058412168094057026,-1.1606193341336777,1.2076356929847964,-0.2063885136458445
-191.0,-0.5872069225261671,4.407277158811285,4.9944840813373865,-1.9439024731371677,-2.7566315021626338,4.64000195189614,-2.5062665133236437,-2.4672787136722123,-5.326541240439675,-4.001676969769244,-4.069670014077177,-1.9997610764907565
-190.0,-1.028177001760743,-6.142243820728159,-5.1140668189674034,3.5529153053187468,2.0051656951689885,-5.614657259132711,2.5044943688822294,-1.3280104317429753,-0.8324348489807494,-0.44784390801002383,-0.15667517302335088,-0.7026236099988388
-189.0,-2.3590591980867135,0.06882839576777944,2.4278875938545714,1.1124943176261528,-2.4218899153066773,1.2617725590652045,-1.5976763280416675,-2.923710862181151,0.343164400952235,0.9451978244825013,3.1891823242893604,2.1033517431062916
-188.0,1.124244760903507,6.5340263365905855,5.409781575687176,-3.785141369777743,-2.082631013164173,5.990168717903801,-0.3416725278853059,-1.0883310955145156,-0.6660228592059755,-0.34974535565585735,-0.6680552660481587,-0.8281451600565717
-187.0,-0.1748745261451913,5.4008265033530405,5.575701029498277,-2.650747823443143,-2.8861800998400287,5.515832811106797,-1.929482366594663,-3.0218864469411515,-0.08498728287617524,0.7766735509491154,2.74343427789098,3.059865894818342
-186.0,-0.8946468721387512,-6.00828685028047,-5.113639978141717,3.489793172291664,2.1020035347156605,-5.6001216318748295,1.1140207038960281,3.5741046444073348,2.890833203067469,3.192054882864439,-0.06626943226901827,0.11049618045071341
-185.0,0.6991609867807771,-8.900916654626492,-9.600077641407324,4.137769623443254,5.139956008843469,-9.277558135691443,2.0559724173611906,4.059859725349561,0.7806700168246132,-0.5410193079534265,-3.0356816197810197,-0.8713219905848753
-184.0,1.9174507533352392,-1.37601958732896,-3.293470340664248,-0.3127808901271627,2.58834837976035,-2.2737453420074223,0.3142481184781718,2.397933969907831,-1.7944479650714809,-2.7803644028582957,-4.067371008204935,-4.808040330594576
-183.0,0.217104729005118,5.63246636463221,5.415361635627045,-2.8878409359195194,-2.6270261053810606,5.510395614308077,2.018750001273127,0.4640875939971525,2.096968781993224,-0.9704095568092962,1.1819731478349589,1.028357387917012
-182.0,0.6286204566836491,1.7044834136866513,1.0758629570029323,-1.2086302558446522,-0.18380139930999984,1.3747798447423554,1.9125331047795715,-1.7337084115516856,0.00535076330945293,1.8908557194924571,2.9152575232720457,1.0334816804443065
-181.0,-1.521818196912191,-3.069867429291128,-1.5480492323790398,2.252359625441638,0.04489061638309155,-2.331649394449929,-2.2141601557465367,-2.7496980764927352,-0.2666177931837146,-0.38477501348652865,1.062114949005162,4.32418853827485
-180.0,-4.342256046021258,0.12232662972586716,4.464582675747006,2.1428329323460678,-4.453182142318321,2.260427505841635,-2.9084714822749844,-5.039495084766904,-1.7171813260064073,0.30305673901689884,0.29869726612982883,-1.4368130584749184
-179.0,-2.194529852188759,1.4676455398726242,3.6621753920613225,0.3936307102092802,-2.896358995270467,2.6006919145328897,-2.9047300159548266,-0.36659977434473623,0.8821399013514588,2.094159624303399,0.5208444784784556,0.9901548033677663
-178.0,5.449322489246339,6.918708270449681,1.4693857812033406,-6.155990001425374,2.02943316749948,4.223575285785609,-0.23912650333562158,1.829410412482702,-2.3949109170171177,0.7570137388605256,-3.978507374593158,-4.854114275889754
-177.0,9.211502578243607,4.3507223176524565,-4.860780260591113,-6.833020052851989,7.006138909856594,-0.22616700261335543,0.06502832615030318,7.538753929727716,-1.4917337631966145,-3.170792350101729,0.2165120543582042,-0.24608719370006105
-176.0,-5.362533137049696,-4.319253501950193,1.0432796350995726,4.867584213489696,-3.2247470686232944,-1.6831740404492204,4.613145558044398,-1.988217585328012,0.9619070527986326,-1.332139673761826,3.131983064314701,3.549748404800398
-175.0,-3.619496499062851,-11.889620511433584,-8.270124012370657,7.70321239080548,2.3084471334469345,-10.038423406700588,2.498068766438589,-0.903202162538683,0.0687996638218542,-1.9321149462278924,-0.543550796052779,-0.3882872006579574
-174.0,-6.4887490330791175,-9.800082144320873,-3.311333111241673,8.173206962774652,-1.6042731898131817,-6.585147153809839,-0.011191418362711758,0.25582158241509434,4.728593570853123,2.054751142999405,2.4305427265859905,-1.6018315994454342
-173.0,0.8918990748464735,3.189464824040389,2.29756574919393,-2.0100320408195445,-0.7197628667066371,2.718948482052017,0.18753025057788147,-0.968530079685095,0.8163268244030584,3.201715765414831,-2.564563799660493,0.7674837623379128
-172.0,6.282211961126906,13.35369511978234,7.0714831586553775,-9.864074239446051,-0.33520539498702695,10.188252010947876,-5.567797828942439,-0.7534880277911584,2.0156895903841354,-0.2989626687771354,-1.7157941918913826,-0.8084150647808133
-171.0,3.301492361230442,7.081156991787943,3.7796646305574093,-5.157180819791994,-0.18192917290638333,5.480510452074831,0.3587856399072793,0.84610984962687,-3.987030669871105,3.1792382135908066,0.6499030089025106,3.232066619288883
-170.0,-1.1126672938296993,1.6483851709067903,2.7610524647363883,-0.23337239005048627,-1.9606534235834447,2.1687763893217094,-0.7062224234588481,-3.847508736295109,-4.826168371645225,-6.196374275637239,-3.760207874233825,-3.4823402661221685
-169.0,-1.997675340364763,2.095221568930403,4.092896909295071,-0.09435337589591461,-3.072226901271404,3.128828791635556,-0.5811575546061899,-0.39620012446569175,-1.9385298830614044,-1.7190239278089612,-0.17971018337933709,0.3694714603920295
-168.0,1.2061371873251487,-5.515518799107486,-6.721655986432705,2.106286093467537,3.931836159754859,-6.090582669080162,4.208379707030717,1.8325760440946819,1.2736081430739834,3.275288954571614,7.524401940754759,4.2038601064092225
-167.0,1.0426181260664935,-11.042150742728802,-12.084768868795356,5.026781675672815,6.524550997900383,-11.61849275274427,0.5232216751534571,4.038752297055234,5.197340530920025,1.418669565972189,1.3079534704898768,-2.4566361851706064
-166.0,-0.4524273744451133,-4.033515984530196,-3.5810886100851063,2.2677614603123866,1.596325530602566,-3.7851692260387164,-0.6720482818687573,2.142772400528395,3.335573271997519,-0.6569991771685587,-0.38637523234329363,-1.5809070714257012
-165.0,-6.893065370777827,-3.1145113429321922,3.778554027845669,5.029028664535544,-5.309634071849092,0.3547305684271911,-1.5016802138604168,-1.896110584082032,-2.0314873128790136,-0.9074902692434585,-4.801621499311844,-1.230501474367311
-164.0,-4.989944121674034,3.093927598956092,8.083871720630217,0.8984575965089726,-6.512632522109728,5.534671855296843,0.9680415638887847,-2.527696534891477,-0.9465564540107626,0.49749594121239776,-3.6517016754871716,0.22158873930337908
-163.0,3.524668742840184,8.906357724658031,5.3816889818179545,-6.179156872670613,-0.901249383512928,7.170688767756275,0.6269790187604724,-2.1295064332203606,-1.038553135270126,-0.21912858967202023,3.5255043033289635,1.641909909305362
-162.0,6.863141847100015,6.436886633773168,-0.4262552133267592,-6.683487614186251,3.6005909880191447,3.033854249009032,-0.737520503445301,1.1058279076433655,-1.7111875621489943,1.8706577371973332,3.455216336314432,2.096786859183271
-161.0,7.965301143746787,0.2516110543228045,-7.713690089423938,-4.054677271071501,7.805631069458511,-3.7798029271046225,-0.6006536324836602,2.403392305047684,0.7830599475512963,-4.3054493479778255,-1.2416654260284379,0.03299521879748335
-160.0,-1.4913021067680772,-0.7087697074076857,0.7825323993603743,1.080855457362186,-1.1595625019701519,0.06817447778589814,0.2685050348365556,-1.0473379657443036,-1.553488128651976,1.9116755209515648,-3.0782550622225946,-2.636830601010021
-159.0,-5.7876840708400525,-3.3491610527929727,2.4385230180470026,4.550684448117703,-4.04656055739633,-0.5010403218127317,-1.6947684545809327,-1.5956054406331255,1.142165066002516,1.7135850871209934,2.408269696838542,0.7384145305751542
-158.0,-3.2492948395457915,-2.3893533906668636,0.8599414488788242,2.798375019519094,-2.0587156073554347,-0.728949257070779,-0.5894265496466421,-0.2317329062847312,1.724716386809468,-1.3046776646324842,-0.5393480440719968,-3.952216742866198
-157.0,-4.58861968911577,-4.242279701649129,0.346339987466532,4.38792253691774,-2.4672149913827837,-1.9082859713491862,-0.4933359147335496,-1.1484456781833656,-1.5276921633754015,-1.4980988680887395,-3.3783204633025345,4.010330914830442
-156.0,3.17485588721689,2.584637954114228,-0.5902179331027539,-2.8359747054148685,1.8822233089003446,0.9629085300874103,4.436576210133082,3.1302719573572806,1.1396517489094389,2.176370170636928,1.928631369705584,2.026082761867271
-155.0,3.9898405972012916,-1.0319459575594823,-5.021786554760789,-1.440723673450958,4.499390155043128,-3.0564070629435656,-0.5310520881451581,3.3157624800479235,-0.29210327946108,-1.4321281139891764,1.5595415377317354,-2.148935039355563
-154.0,-0.05202987781423696,-2.017532271026707,-1.9655023932123938,0.9926157446668314,0.939147417343039,-1.938512033598993,1.3776404237781381,-0.5421950440326657,-0.04955045468525618,0.22167672522759535,0.23343898582874067,-1.133009166939603
-153.0,-1.2801668537265196,0.6328536088178673,1.9130204625445268,0.3630711690888482,-1.6286411244444228,1.2493798589424616,0.49783329211777627,-2.3442574011785005,2.1805947481528194,4.636995939562963,4.330075524597853,2.7980214363320774
-152.0,1.0066704966719695,1.7594276592861713,0.7527571626143204,-1.4160555713157046,0.15869011276356848,1.2330879292216057,-2.8152264919573486,-3.7384735258473354,0.3530230316065258,-2.0751885901159186,-1.3720432965156222,-1.3138835547993315
-151.0,0.1640491115528246,8.715363542062097,8.551314430509334,-4.4649553992794235,-4.174318891920444,8.609867177149477,-3.7603884402139296,0.745436412788701,-2.115378331399304,-3.073657944618775,-3.1754275117855997,-0.46701657378801165
-150.0,0.45561449940398235,0.2967992949214051,-0.15881520448255904,-0.31600928312247833,0.31907558961063076,0.12372134629792608,-0.43127653939345967,0.39819195916823824,-3.1442218526636743,0.46283982700419335,-2.8852743414714785,0.12644718802286287
-149.0,-2.775125342665754,-5.810073151836184,-3.034947809170472,4.277493656005738,0.14038694699405446,-4.446462161490437,1.291936703895719,1.1981912680452629,-1.3294036453849065,-1.481599925395811,-1.6271835042504823,-2.1490192895859574
-148.0,1.9712288075282918,0.8469840903718806,-1.1242447171564756,-1.4252677504258475,1.4837637701152822,-0.08319400706354241,3.7321921561628475,-1.3654573263597078,1.5007934275420902,0.4248324436599765,2.7050563122562665,1.0297413068071433
-147.0,-0.6133659707139528,-4.149806733291691,-3.536440762577806,2.359988485033958,1.4847185625217398,-3.866138145411458,2.202946649435235,5.035653226836309,2.2362129548679723,0.1466244183602169,1.6870864248672857,2.118126268610111
-146.0,-1.7472475613321048,-3.9824276872547264,-2.235180125922715,2.8349600267785138,0.2773499595630551,-3.133205493840749,2.2867145942278593,2.2985149960384432,3.7748951482644535,2.172383019577209,2.240054821436611,0.02470172414127747
-145.0,1.372958087836618,-1.1764918449155635,-2.5494499327522404,-0.05804063568511997,1.925311433365757,-1.8914996190631674,-3.2822621485599024,-3.71528491811747,0.4687856672006394,2.2150818918338877,-0.7200281664490087,-1.1861594706171772
-144.0,3.6948949653649366,6.248235480776051,2.553340515411135,-4.938048953432677,0.6201356247098342,4.4440086829619965,-7.588155949620872,-2.900401137698082,-0.11378102795982828,0.0934670078451948,-0.8673792945250194,-0.9754328675616355
-143.0,-1.0510844254463654,4.436925137903833,5.488009563350233,-1.6626438506393,-3.296829014840687,4.91802052136984,-0.14909547000455836,-1.5604204998503473,-3.534401110349347,0.5548402284385088,0.47945596733955154,3.023980175999273
-142.0,-2.198050511395582,2.909556399681488,5.107606911077102,-0.40398834869527755,-3.6825098183138065,4.033750120026461,5.231106933615515,-1.3762663979409955,-5.503360531070812,-6.640994239188844,-3.403254012295171,-2.6263223963438715
-141.0,-1.7050651674803974,0.015703371890885665,1.7207685393713024,0.799069131135971,-1.7481678319466398,0.8858432303711945,0.485906656793607,2.789958539565264,0.3420997746587968,-0.32789730081756385,-0.04470619811890675,-1.8037706346486977
-140.0,-0.11662675859124805,-3.118026329515611,-3.00139957092434,1.6539037604247324,1.4795262252923365,-3.0468320327681417,0.5100281294421956,1.384401693623265,3.850546923282382,0.9145217713246748,0.6417843694463772,2.6677174414699447
-139.0,-1.474937233234234,-11.084465368048667,-9.609528134814388,6.319108134660314,4.099762437233796,-10.335564918981044,2.7649104472987163,2.1723549735253274,1.4146398506184967,1.8829440576890746,3.0300562498099883,1.3034221962547101
-138.0,3.604774594278262,-0.9921984185350903,-4.596973012813329,-1.3443181936639115,4.131852485947093,-2.8603108515041002,0.5054475857251556,1.3310777882273745,3.091267335002099,3.4194356982098864,2.4425723927698577,0.804477577351229
-137.0,0.4953682460151314,6.810875101718712,6.31550685570358,-3.6916036066496893,-2.9562357816388474,6.5803309909816985,-5.18229888521555,-1.5992143934504597,-0.3971978256915223,-0.971404319501763,-3.9812246257568527,-3.790549030492146
-136.0,2.75783374493051,4.024305319575615,1.2664715746450783,-3.352651928854257,0.7814660150868226,2.6686717223944436,-3.07811641221174,-1.9251212547992487,-1.9069226310487188,0.3740449755367308,-0.38985846722658213,0.5522377610002569
-135.0,0.2950545622196016,1.2633981242210885,0.9683435620014369,-0.743300391272453,-0.3768667963574477,1.0681137035812531,1.9402768842268219,-2.3151740760747774,-2.0506527423168617,-0.4702409292387171,-0.5057804767406275,1.915578130098916
-134.0,-6.902101706253495,-0.4610918978017382,6.441009808451731,3.6364772443044346,-6.711077184452044,3.0295458830314717,1.815317415760993,-2.8210143292392473,-0.7492480288427628,-0.5271281344431331,1.100272614586805,1.2686675410857156
-133.0,0.9348472307551274,-0.972019434891445,-1.9068666656466013,0.05080634798277717,1.4583354804060114,-1.3915317408497807,0.05479688607738065,4.153749412282522,-1.2567377085744613,-6.9302608608818375,-0.4159703507848118,-4.2110054772395324
-132.0,2.4761136575759215,-1.3273697346187852,-3.8034833921947326,-0.6209561338030889,3.173944449635336,-2.5897870220039105,2.9891379894764376,3.5451444147286786,2.7630680607531892,3.5932218820705253,0.2961164957349409,1.0619958098561122
-131.0,0.06610608488978165,-3.0524775088184612,-3.118583593708244,1.5268968134106793,1.5445472292197466,-3.1067606140910122,-0.12584871808400355,0.543115062905069,1.6737342981394867,2.474277685799865,0.3228524194856535,-0.4613334677066308
-130.0,0.040359542222005274,0.6627298658694869,0.6223703236474938,-0.393499832290674,-0.26120625493393934,0.6204379462866081,-0.25393149352565514,-2.1345440101600532,-0.5975837226240681,1.823570211996963,-1.9536586309678194,0.6246326868843005
-129.0,-1.1457526215995077,3.328337629140846,4.47409025074038,-1.0504055964443915,-2.8565864307207116,3.874942598846251,-4.132594055633824,-2.0246384093546386,-2.2210309813957374,0.7861093324478579,1.435472746489792,-0.3711134298197508
-128.0,-0.5482647341593716,-1.7232410608075013,-1.1749763266480873,1.1806395031549988,0.35149944500130925,-1.4020014572784703,-3.045778612914507,0.6122675376383138,-0.36342923516479975,-4.437631255686828,-1.4652060918883723,-0.4444791716059666
-127.0,4.171940035906158,1.5159184583767322,-2.656021577529394,-2.8753788634777213,3.4609112023330275,-0.6056649859956067,1.5048736018858575,-0.46624094362670443,1.376147549640986,1.131352816519304,2.3035332565770363,3.790985218253231
-126.0,-1.472324758017915,0.3838605059659812,1.8561852639839134,0.5122566540162772,-1.6868451853261934,1.1626021952568721,4.992526831125793,-2.6597559929262045,0.19249355361993528,-1.0235613501933432,2.873506279895343,3.0274853445172694
-125.0,-2.166923884641125,-3.466893057744012,-1.2999691731028844,2.780913450997791,-0.4492103595623658,-2.3375325819937665,1.6820889549488667,4.990001219629862,2.742250661427324,1.3667644368430683,-1.0811612919175109,-2.609681840034197
-124.0,-1.616925943567826,-2.769777142293768,-1.1528511987259895,2.22920185295962,-0.2455201207591028,-1.988308461973223,1.29097668923192,1.2972940707713447,0.462068204668203,2.0823797447161656,-1.3226470974539968,-2.3124823848779226
-123.0,-2.8762925270934714,-1.0997246428665,1.7765678842268937,2.0156478171435492,-2.342898153991027,0.3172968117359067,-2.150751745213386,-0.7674173478167783,-2.149632772650001,0.390300760822194,-2.6290542141030704,-3.7181858078922883
-122.0,6.251857274505966,7.655984764884746,1.4041274903787127,-6.9338559939710835,2.400568712790758,4.512291178530569,-4.043058240385018,0.27439027446129605,-1.9123780027633832,-0.15554827808240934,-2.242299775739707,-1.2933954583223655
-121.0,3.702836460860187,5.667151546160164,1.9643150852999685,-4.748947142379995,0.9170004188920436,3.7974434470284315,-2.4842678085171364,-6.329585924775971,-3.807626906727288,-4.869497847420432,-0.4107259501229408,2.1016054745375143
-120.0,-1.508287903330368,1.7241919817285298,3.2324798850589502,-0.09513856798086939,-2.40665302209295,2.4559057829994067,-0.5778248495979665,-1.4775280339506076,0.45793270222711757,-0.15533465213293152,3.007654544296181,3.4707320098336476
-119.0,-1.2082422554895456,-9.108617713361268,-7.900375457871645,5.172634110102677,3.388045037390845,-8.45438612675725,3.1329796739115863,6.28116658811884,5.138274652701474,2.8740829568871153,4.811488306236908,0.6444144900881135
-118.0,-1.812047352222263,-7.168460079024236,-5.356412726801891,4.508367831798245,1.818620279385411,-6.218740461293294,5.414095280442908,2.7300487608660284,1.82839072369155,-1.2617004281959805,2.147649478824249,2.083352135638147
-117.0,-2.6260436657665993,4.099642375300344,6.7256860410669885,-0.7139075429235153,-4.700842326272951,5.372216484581496,-1.7809212134507342,-2.7909809318467773,0.46455286603025514,1.663291293965374,-2.3010342648895827,1.0008976118155515
-116.0,-2.250245236650552,-1.9872546663597919,0.2629905702907842,2.066547972476754,-1.2749458595409051,-0.8280284352270815,0.916582430674501,0.8502104873797062,-1.4287310104120428,0.5848017005694739,-7.328943165754419,-9.334116787919248
-115.0,-0.5215212017648381,1.5159847173797072,2.037505919144546,-0.46976411349273395,-1.2954080238145922,1.7284972122916482,-2.840519963444697,-1.585339010442527,-4.533087378845843,-2.663887926140976,-1.1320507931205785,0.36864440393659414
-114.0,4.954346029470161,4.188932519596695,-0.7654135098734896,-4.6253138066776,2.840220457970034,1.7385881776341017,-1.0835869854328664,-0.45486427734017176,0.6769501491199548,1.0931559014734396,3.0039597449379976,4.103525004762347
-113.0,2.856549161118562,-2.197778548509575,-5.05432770962817,-0.30928818037480443,3.9262168690673143,-3.6817964112386843,-1.3159095780360113,0.558625466484418,3.591163499521974,3.0236991891750513,2.6013506577525174,1.8238466615450508
-112.0,1.3903247516495734,5.25080194125878,3.860477189609167,-3.306317236642821,-1.19832766187456,4.575429658654034,1.353391481373245,-0.5543596253428887,-1.472770469349439,2.0186771529446865,2.777366048766927,-1.7022274427708328
-111.0,3.8464494063327814,4.277586912372563,0.43113750603976037,-4.052537404480838,1.732065322855993,2.3728222431888093,-0.05315526811584648,-1.2980629839467543,0.4750080957114575,-3.3892215595249966,0.1251397002696093,2.7760477487822666
-110.0,-7.5109786267005845,-1.5190407762498628,5.991937850450717,4.522217396177796,-6.735649737344234,2.2566190694507244,0.6090739825059628,-0.855283731813489,-2.6416837062685747,-4.650746788736627,-4.532589008002489,-1.3712912104549406
-109.0,-5.255976816030389,-9.820396932314559,-4.564420116284159,7.546007055449432,-0.33300697055760065,-7.167059005327926,2.0673803953323246,3.6274231672161843,2.150610311818074,1.3292038559647343,-0.43272318021412226,1.859636262461101
-108.0,1.1697096950195354,-3.8473162974681117,-5.017025992487615,1.3495650341383394,3.0298925625238073,-4.477411683311549,0.7845928245273612,3.5892205200716445,2.144629092594591,2.801886085634167,-0.0601209364729548,-5.25927871646208
-107.0,1.7711016628499108,2.023766332557066,0.25266466970722234,-1.9611600670790459,0.7809918614094578,1.1029825786515248,-2.591013269598635,-2.863320587468518,-0.8940553934238595,0.7190601547671591,1.3370551625531644,-0.8794417362267299
-106.0,-0.3280942290229212,-1.148953268728969,-0.8208590397059561,0.7582884867557538,0.2762843832619475,-0.9308455750790954,-1.3114928116372324,-4.483689578876373,-1.7498144816986587,-2.0561629124364122,-2.172435369913229,-1.5372911134413707
-105.0,3.2906414454009,9.96223441332406,6.671592967923219,-6.601747901092757,-1.7320003423575956,8.30216424084137,0.02067540940442336,-0.6245131444079264,-3.0894444562819574,-2.9089212627843812,2.017455885981214,4.696849942248724
-104.0,4.34378760470808,5.75888324156193,1.415095636853854,-5.100072576826255,1.506217600857663,3.580728573407239,1.3760147132700689,3.8403578686333786,2.8050849717202126,2.9207712045237995,1.6625107149746747,1.0553028667112097
-103.0,-1.0853527458976293,-3.1252268418340545,-2.0398740959364807,2.1413590388852404,0.4414796960415343,-2.5823662399109786,0.5172347884739927,2.7843741993087296,2.3583329119527137,-0.3109756791819598,0.5758609858216139,-1.6952544563187393
-102.0,-2.5698548863603445,-9.895309662762909,-7.325454776402653,6.275433761082666,2.3398388260688554,-8.606218489997474,-0.5643911139858775,-1.55511314114814,-0.5786121763340013,2.708787952447545,-0.4156738994616348,0.7842508975044424
-101.0,-1.2164663427820361,-2.3747417496724244,-1.158275406890466,1.7666058379797906,0.007402332494050923,-1.761159064860934,-0.7053248716969756,-0.1269966704273995,1.4089461123863767,2.4042966408062174,0.8542905047708336,2.77113479986618
-100.0,-8.31671421856061,-1.8761928439882607,6.440521374572297,5.073390364591333,-7.347044029820701,2.2856532581432707,2.3201007262632145,-3.3300898402254906,-2.086977560797293,0.1270174840417524,-3.0223494337845005,1.3197670323739505
-99.0,0.00170612238398693,5.522898459212968,5.52119233682896,-2.781523262659042,-2.7325699931302747,5.520530513258287,-0.623817550144245,-4.135990071542464,-0.9657614076295831,-1.7667796319547922,-1.515125228042003,-2.0074575371029497
-98.0,5.772523372639094,3.395755057794956,-2.3767683148441354,-4.523556017788091,4.019718735157589,0.5000546207564622,-0.8613139006845122,4.24374304950083,-2.9949165001242775,-5.37985828797688,-0.5845400010542767,-5.204690887294161
-97.0,7.870366600512705,3.6287624126359823,-4.241604187876705,-5.7694238195136975,6.077570955587523,-0.3259987507388795,-0.212469663627889,4.182278951654067,3.5361179425701836,-0.40033979362209626,1.7242857766901736,-1.7300498254454189
-96.0,-1.339956797814187,-2.709152377232023,-1.3691955794178106,2.001116701485844,-0.04366590474225207,-1.9911264734783283,-1.1934749807048406,0.32708160435581934,1.597187297303706,0.5399313345377716,3.40131127362194,1.2835172215919846
-95.0,0.0020960790395507384,-1.412824669814859,-1.4149207488543831,0.6780098935839898,0.7291504847388156,-1.4550605188465362,1.6573197487388285,0.8161316055698657,-0.9239345416304854,0.5596029637514837,-2.096420763565572,1.0796943088757418
-94.0,0.20874741186110857,2.3395582173125575,2.1308108054514587,-1.2251640855345025,-0.9387188670585991,2.2646421372875905,-1.0766351748814285,-2.0594279330419134,0.06640043577355928,2.1502229035728986,0.3720407799044519,4.328614507793584
-93.0,-5.241091121931273,0.4651293702164012,5.706220492147662,2.3588411362851915,-5.448397610573077,3.0321378919827815,0.4435306620762199,-4.359658916629622,-2.565468958025139,1.626035092578816,-3.2983746202468605,0.9780204062884961
-92.0,-3.998743260325217,-4.04719768179214,-0.048454421466942676,4.076763377856101,-1.9465828646681,-2.022225569249237,-1.2853499994039628,-0.48694308724164515,0.9940148189782932,-0.33154305332043754,2.4140906503232333,0.21600276060752877
-91.0,-4.645609924701022,-3.5344381488752195,1.1111717758257915,4.0720041604110575,-2.9263300626628004,-1.181369526283091,-0.29492833977471217,-1.266069103615073,0.0069001570092044745,-0.17939563855168694,0.4314583099068711,-2.7797103303394692
-90.0,6.304085349821866,-1.6289353860344353,-7.933020735856297,-2.3478723985588026,7.070561597606699,-4.743439390342852,6.436995643100245,6.178405484714576,3.81183700938202,0.9312324388072059,3.769371251361447,-2.2252075232095576
-89.0,5.04421495696867,-0.24803756657736176,-5.292252523546016,-2.402345908209047,5.196266847380195,-2.80411266980464,0.08799960197131518,2.589097933202876,-1.1584287559736288,-1.9768205824449847,-3.167149283896464,-3.723478567251094
-88.0,3.8459672257743605,7.135035615144527,3.2890683893701826,-5.492494872643334,0.30189633644782177,5.182550373836202,-4.989801308730845,-1.2680937937682204,-0.612519629675911,-0.25512453814549696,0.07127872785566258,3.1588987282600725
-87.0,2.435717449931082,3.887966096279726,1.4522486463486513,-3.1663441562985555,0.5105011140608756,2.6405209059137467,-3.0809355967672403,-1.767866486345266,-0.9909505359727273,3.307222580281074,-2.219752105883002,5.644418474792462
-86.0,-7.101516465719049,-2.9044380783573467,4.1970783873616915,4.991612094499018,-5.711902807599034,0.6907639642290211,0.12645900227159812,-2.0512369399449777,-1.3565822204399633,-4.612502078619771,-3.081150099165142,-0.1671441873338111
-85.0,-5.550514389391578,1.0815844157094676,6.6320988051010135,2.2135310008001428,-6.07383943693522,3.8147590011154184,2.3516561346609675,-4.719955271126136,-1.8652228682151124,1.0256236763923896,3.971096463379541,-0.9529055672110831
-84.0,-1.4155701709131816,-3.830851751018413,-2.415281580105276,2.671023768510383,0.5236134947841062,-3.0947247045920383,-0.22385730859667063,0.1405058932175547,0.29932782020735166,-1.5766891349129373,3.009578292083762,-1.8574556598410303
-83.0,-0.9867937626668739,-3.4996742396406963,-2.512880476973863,2.2827438892251495,0.7977887426388636,-2.9844287730162424,3.0161217899778556,9.22560591785582,3.1173565161798775,-1.9016038685021015,-2.1671092167668116,-1.8228781515071646
-82.0,4.281311069343794,1.933465719955323,-2.347845349388493,-3.1517976093787583,3.2846147365554943,-0.18862376723482477,2.249581064472758,0.7195477922957441,2.136569892962397,2.9039074868450703,0.5620116164058659,-1.0660256781495874
-81.0,5.258922879787015,2.026102450897527,-3.2328204288894873,-3.6883815604226022,4.230388206259228,-0.584780266750563,-0.6519626412376718,-1.5044338212203359,-1.4316969585436081,1.5655616192253685,-3.51775840831436,-0.9032948731539923
-80.0,3.6115849190482545,-0.33937929222347585,-3.9509642112717156,-1.6010976530035916,3.777875335936087,-2.202853773637452,-4.180741512247898,-3.4660824862248143,-0.43076754164998743,3.6693759913702344,2.147788515242695,2.173731351061766
-79.0,-0.8556224960771435,1.272746449456981,2.128368945534138,-0.1684628267224373,-1.4879915683573746,1.6468837490532942,-3.4716256987788627,-1.6233540374660314,1.7378212884629878,-0.080094636768135,3.324285988547373,1.738140739715062
-78.0,-0.4658163846436749,7.902916395599992,8.36873278024367,-3.7500973536579885,-4.411785313722068,8.165901197613966,-0.47224249114954064,0.043849681483470127,-3.609380291961143,-1.893212004307285,-3.8976229044728985,3.2078908437854423
-77.0,-6.818672137822878,-8.660987950663305,-1.8423158128404507,7.716207004565986,-2.4871752739116197,-5.215701701378523,4.7165564215496465,-0.637600026107693,-1.3690700046134714,-4.316304452123651,-0.6388248997388153,-2.989215275812625
-76.0,-5.314846659275664,-6.544393437692572,-1.229546778416952,5.91344905698624,-2.051131213526826,-3.8444971793859226,4.4864061530595,3.0308807641419806,3.31689829389121,0.2493677096078626,4.721512951581799,0.8114098410431656
-75.0,0.122717102297496,1.8765509833140248,1.7538338810164937,-0.9313986333057098,-0.8368669894366989,1.785279138451898,-1.3836327997395985,1.2098662506729092,1.0028994906326951,0.37037743970865866,-0.8807551615925355,-1.9910592700875103
-74.0,3.8942830380633415,4.632151440234558,0.7378684021712086,-4.271177612820159,1.6213776395410986,2.659904958844098,-3.2308319789095856,0.8761101004283136,-2.367681363385965,0.26637118876119703,-3.325104881479558,-1.6791514703759367
-73.0,5.185090595753637,1.099943118117702,-4.085147477635909,-3.152131005202518,4.664322366188732,-1.5159661750836972,-2.5884544181977276,1.109935462827672,-0.43524793587856025,1.1847347946934819,-1.42594164245072,1.1709481943393731
-72.0,5.090866356990357,2.9858843595756803,-2.104981997414632,-4.0543371516775775,3.536104863289908,0.4934826891691212,-0.33625653325952265,-3.844503178993826,1.271246858890298,2.580701922562743,1.895202240686586,1.4041512236541456
-71.0,-3.5900013674191147,-3.72693795844187,-0.1369365910227165,3.63208916223979,-1.719118814227412,-1.9642512851403493,3.149965614029734,-1.1816326979395286,-0.6781589704392956,-2.372372615868256,-2.4814631338161908,1.577471139094739
-70.0,-5.333649030016624,-5.739066989767839,-0.40541795975120354,5.576183647814724,-2.462619355485127,-3.035789911370342,3.244712791366412,-1.846489359397036,0.22280284073583573,-1.4812643222725477,4.374601706419437,-3.6491130049961438
-69.0,-0.7048264033491818,5.752070831608564,6.456897234957724,-2.574260274520233,-3.581080394450586,6.050567672706366,-3.9266729117663224,-0.2334718679019715,1.1652580471714162,-0.10221629380741915,0.8361989413535968,0.3379890532526596
-68.0,0.6753679892809599,3.4098558295775083,2.734487840296498,-2.0222539736903964,-1.027159900724447,3.086117967695095,0.6986724728366323,1.9317889044266119,0.5534098727744297,4.20530331328804,1.198662287550989,2.2372983655177294
-67.0,1.1264862306510146,-3.297041384433006,-4.423527615084079,1.104044681542243,2.783720115840688,-3.8540118258713805,-1.038765832715407,6.15916239721573,-1.0571692482978055,-1.1555412545942767,-5.598618400872811,-1.1958553093874724
-66.0,0.870683148047559,-0.8172519907857931,-1.6879351388333963,-0.003044480353922026,1.296496882998743,-1.2488537712266978,1.3321876569680375,-2.4609013409323177,-1.582893905918722,-1.4303386164131004,1.2358877191893578,-2.055783480717711
-65.0,-1.2469710020290197,0.18305602857090586,1.4300270305999105,0.5651530691016816,-1.3128604513415818,0.8136100094352245,0.15267040695492073,-2.391148965621286,-1.815296959944389,-2.515683851694337,1.4772466459300393,2.4356515189933248
-64.0,0.19445824232220993,-1.9088042964531629,-2.1032625387753576,0.82224121219891,1.1019796376356599,-1.990603963854331,-2.0054546605272976,0.12361011740691108,2.7640804323194184,1.9906727508614661,0.7118782113593645,2.0109794088087343
-63.0,3.580476521130869,-0.5952447650705677,-4.175721286201401,-1.5196738697812955,3.8338395580773303,-2.358862996130629,1.8391258513274527,2.0171778216764995,4.330249785793941,1.1917451999188902,-0.4960694820182411,-0.8312468713855758
-62.0,-1.5105182538415303,4.357287051316722,5.867805305158296,-1.447967551977945,-3.655658122496745,5.071575784399802,-0.3863231093297105,-1.054064365237733,-2.4819759625501683,-0.5166459886577806,-0.589688508482516,-1.5221881931716275
-61.0,-2.817115898985821,-1.0263849422862152,1.7907309566996295,1.8937731639960598,-2.273623582974369,0.34981219158613586,-0.4286905832419236,-1.3796981012951548,-3.3819335922993017,-1.5787596128187817,-1.8786932205467668,-2.359657744228169
-60.0,-1.612192405793597,-1.53080083980787,0.08139156598571362,1.6146926171924612,-0.8984795904234946,-0.7523657341910679,1.163905345230773,-1.1757180223178545,0.8236998145239292,0.7989692364799164,0.335689938738978,0.9268432315379527
-59.0,1.005784341809081,-3.6727281897780117,-4.678512531587136,1.3678077590922357,2.868011015651031,-4.123722054361763,2.149197666024245,0.9809903150804921,2.790436756603129,2.451428763135988,2.7853785138733587,3.622980780179
-58.0,3.008366552032222,6.015638726756557,3.007272174724296,-4.484978136919415,0.02838642454482332,4.561253008782968,-2.800000131236547,-2.3250899434215966,-0.7804797149789406,0.2964207844973292,0.8257015888841379,1.8300457212127461
-57.0,2.8649651716220625,3.674583110807217,0.8096179391851315,-3.3254316323562243,1.0604608520294732,2.2094024209035483,-3.4892851490781718,4.230695883921525,-5.205655936805011,-2.755689691739139,-1.0315983150773507,-1.3457782159542926
-56.0,0.23067580327381454,2.214135644145451,1.9834598408716264,-1.1992894401940637,-0.9157935801794891,2.06179201965136,-1.1402227228272561,-0.28311253541689463,1.8322184231623846,-2.3324528196138408,-4.401077071862684,-7.232733713783158
-55.0,-1.7257310752431814,-8.56489350045215,-6.83916242520898,5.093262747358799,2.5237013901424605,-7.664356301912853,5.266138443360539,1.219734341100489,3.0539823483396167,2.7028595754620763,3.60943308152404,1.9144768755160657
-54.0,-5.136420023703176,-8.593866474600933,-3.457446450897769,6.89805150356254,-0.8676474196447501,-6.069982426973027,3.3238184653239555,-0.5882668735320773,1.916207979504047,1.2750806844811038,0.14712220820171074,0.8440231101818017
-53.0,-0.9147362484649089,2.2972664606016044,3.212002709066501,-0.6506921224383904,-2.009915045558114,2.78705521163503,-1.513708295092092,-0.4573404676337471,1.1509203577877805,-0.15757708090415756,-0.013824100451643284,3.124892609139338
-52.0,2.31567057191809,9.059772857074192,6.744102285156101,-5.717984223438695,-2.2383225645832074,7.9337991320195655,-2.4772648073524723,-0.8522117436176792,-2.8908195850043485,-1.259024757742514,-1.5138331097359174,-0.5514146173048469
-51.0,2.0937759395135105,6.959548528881699,4.865772589368208,-4.54982678471676,-1.3313069772005282,5.866621120693642,-1.675225978413916,-3.3787202914347385,-3.7998761711500695,-1.543971309982335,1.3416226950485883,0.8444718477570698
-50.0,-2.1387639961129286,-4.387637748387696,-2.2488737522747186,3.245575054150929,0.03015477064510827,-3.2834480302452618,0.515349504860541,0.6958290051447269,0.4638048915787816,1.6405654913478318,1.8986616562500533,-0.2637870030434015
-49.0,-3.897037426645139,-9.258115607693684,-5.361078181048499,6.642338983925915,0.705217135049383,-7.350290308486104,-1.1401845860729074,3.644791487649137,2.71108895394048,0.32446440746587135,-0.8777794927725364,-0.26951335355206496
-48.0,2.888778463264429,0.8982512371224463,-1.9905272261419626,-1.905763149588533,2.4882983778896626,-0.5823952838813384,1.2006317325536051,-0.35053424464840166,-1.0667002932196499,0.6103239372177348,-2.537645089769906,-1.6436049260768764
-47.0,7.6455114693137425,5.144180974222728,-2.5013304950910524,-6.406981803922062,5.038565825032748,1.3695007831293393,1.1591773685398625,1.7466611352805048,-0.7403108344800033,-0.8101125414619776,-1.3135573102794993,-0.41456647607093733
-46.0,4.362832388880215,3.323423696643286,-1.0394086922370216,-3.8562128442997063,2.6606569148818187,1.1962878199546205,2.502376655596285,-2.7779048373987743,3.3220459782182363,0.20730597130081352,0.3072373958283594,0.3499862107462791
-45.0,-6.107328300166538,-4.253055631482988,1.854272668683437,5.165978213455533,-3.9477078204190597,-1.2183053390644687,-1.0231030061413178,-1.0444586271934433,0.3815500435118211,0.8086466519459758,2.807052421407113,0.34470283944024405
-44.0,-4.790087060210034,-2.4692610694512487,2.320825990758695,3.6151839267630104,-3.525555563264781,-0.08999441602154512,-0.5968305902192771,-1.6538611213984513,-0.5657945038212786,0.9694659626584234,3.943569270610563,3.614797708111495
-43.0,-2.648116122581846,-2.3441803125683527,0.3039358100134435,2.5617407970783477,-1.5247978738022878,-1.0366781522217012,1.7857354078320393,5.806955685027226,-0.6381722831011878,-1.470038056644483,-2.3451899572772756,-3.175384614559256
-42.0,-0.03358424554603756,4.800250833189854,4.833835078735906,-2.3935534821697217,-2.4000435115075396,4.795440903225641,-2.9562216624973043,0.22213340170868578,0.22020140486770645,-1.5989338424835744,-0.6815855191068073,-0.34110812925344375
-41.0,2.8392323328191793,10.001161667698371,7.161929334879262,-6.42684264983205,-2.121246470128962,8.551830151735926,-5.561328044807013,-4.091237317791455,-3.4382388653488474,-0.6214319286729952,-2.192311717768054,-1.966701567813354
-40.0,2.825303888784758,-6.5680722587215286,-9.393376147506205,1.8673166658320222,6.078009126277821,-7.940500360508822,-0.9588131611984407,-0.8142460174426831,-3.148293702748086,0.12470730251764915,-4.739925584184852,-0.18832292807906675
-39.0,-5.0707110995949645,-10.832183687426864,-5.76147258783185,7.947361960133662,0.3200262821031976,-8.26359045416712,7.37549253386316,1.1675037430245903,3.749501425008134,1.9477087275606224,2.680997147601637,1.6575418811630998
-38.0,-1.1333096774650615,-1.885368129606845,-0.7520584521417915,1.5018499742098852,-0.21308931360795924,-1.2890643435357356,3.794880795770532,1.7223825798152903,4.249528685484924,-1.2107316287035632,2.865442713768698,0.9120932163483771
-37.0,6.110977845612779,6.080159940253903,-0.03081790535892015,-6.109335359069532,3.1263484568520794,2.9754317400321684,-1.854955718046362,-1.4007560863068431,1.54270483321503,0.441580379968931,3.5201987485612274,1.9797685094711879
-36.0,7.495664232183088,7.909075306828122,0.413411074644957,-7.7235051951171885,3.5138866237019464,4.192838461559026,0.6786037670213604,1.5839373563642847,-2.6949545807998874,3.3454434990446487,0.6256606990527327,2.142128823030428
-35.0,-2.8502173575354233,0.7416147018446182,3.5918320593799917,1.1059258175943207,-3.2537351581813825,2.1221901584209593,-2.6061263144892117,-1.3819004634376681,-3.426548885205532,0.34063393904170125,-2.2281548589043956,0.4474353178313448
-34.0,-8.791961983124484,0.8397253635456958,9.631687346670162,3.9466075615642113,-9.170859620090921,5.193054541950962,-1.7983654880685975,-0.5905519466256286,1.1671969275926597,-2.127689797160969,-3.898033813362842,-5.93697096744781
-33.0,-1.5996671597403456,-3.380406716398856,-1.7807395566584487,2.541582898254483,0.1284257756089957,-2.5437878861026704,-2.646639046745399,0.28709853045697664,-1.301690096407891,-4.096857571388278,-3.44775580984608,-5.206178510874106
-32.0,1.4831203400651987,-2.2929142977773296,-3.7760346378424057,0.38417383358156654,2.588406774210366,-2.998019825607733,-0.9969131621706663,0.23319880000083631,3.369259605184406,1.5223693910532807,-0.002870004201678933,3.3253061346666897
-31.0,0.9333153781024176,-9.257410822806273,-10.190726200908585,4.15001275141469,5.523047521565667,-9.688672276568619,5.3518356994694045,-0.7358431346324734,-1.8518355960233792,-2.0660280477498834,4.177319196591825,0.5262490099310342
-30.0,2.1370457406200978,-1.625661444190928,-3.7627071848109632,-0.25956560598251155,2.9932121594182117,-2.7392808945113845,1.5826894483619767,1.0629474693539704,1.0492629464825152,3.0027441605113694,7.532704388701868,4.971209309701624
-29.0,-0.32834234811314267,7.3355459771911296,7.663888325304269,-3.502438249231773,-3.9495511859892494,7.452052958007609,-0.611963603411299,-0.5985444505636164,0.07595522461494927,3.973523497206034,-0.13577680454433372,3.345362834787361
-28.0,-1.563302292071425,6.621395313196509,8.18469760526786,-2.5276418578537005,-4.905022004623304,7.430735458475007,1.3315884606020518,1.287877039553919,0.8047124019374918,-0.2192431405426125,0.21561183026709987,-3.642481996063602
-27.0,4.430594463761336,2.6481342977997717,-1.7824601659616937,-3.542801785309619,3.073473414239002,0.4566507942610114,-1.7980104276781428,4.9515262829809155,0.4436941064763592,-0.055208939732721646,-6.235457302134003,-2.19136832564232
-26.0,0.9479111242142102,-0.2778952522424196,-1.225806376456786,-0.34723374182281974,1.0486336829581744,-0.7317272200281282,-3.3455066776312816,-4.9623680802115135,-1.552975848337347,-6.872392410792834,-7.925641247791704,-3.1349476575944357
-25.0,-2.702134152877969,-6.390232328884245,-3.688098176006326,4.52340957431191,0.5265902115807355,-5.10050814227851,-0.7128925237980752,-3.2685390000014607,-2.799279830865131,-0.8198890938050285,-0.4520812327957149,0.02363089242426919
-24.0,-1.9640402462903455,0.22267870356083375,2.1867189498512722,0.916894539336536,-2.0481940584551985,1.22108979220168,1.054303354306356,-1.9626121525248303,-0.0008840191570222977,2.7160291995954333,4.912069599079345,1.83691045466054
-23.0,-2.283156874950522,-2.4337287536259717,-0.15057187867527005,2.3978017073819067,-1.0428688867388018,-1.2745874688013945,1.3771847818369365,2.0902056520716723,2.042869568505866,3.9729107560333006,6.250000729592648,3.941271057711816
-22.0,-1.4014436495563634,-0.5411545294118509,0.8602891201446862,0.9291113344124899,-1.1860582419624903,0.18054512276202994,2.838461749169566,2.3728600643267503,0.13949129864641874,1.614392023385079,1.17168492679704,1.7889445818409322
-21.0,5.2837093915608335,0.7753173747739612,-4.508392016786772,-3.0703787976513253,4.923530318955098,-1.9191654172664938,0.7600131842939126,2.6229979206579395,2.555064237601484,-0.6514690011842892,3.043213762571769,-4.642943500080961
-20.0,1.9867937734440027,-1.5039586392880173,-3.4907524127320624,-0.19889554076236382,2.772615389981251,-2.465408947619784,0.23713442346310487,0.8497017457460037,0.3128956328108625,-3.4591044637625687,-4.5400091840266565,-0.24974735373349977
-19.0,0.6775565878924932,7.809400405148713,7.131843817256046,-4.273117758616639,-3.265325403667688,7.5077348902256205,-2.372047814571076,-0.4384772133082896,2.0228855814020217,0.7567219208354705,-5.27311987155565,1.963432767217599
-18.0,0.9108809390588763,3.5607390201266944,2.649858081067614,-2.1798468467277106,-0.9026940068156504,3.0669507126983575,-4.715985021877814,-4.2552961312512245,-5.422247200591359,-3.816709911638008,-2.293265256411822,-3.308757229259026
-17.0,-6.1986634428681455,-9.882737366205282,-3.684073923337268,8.02326048742108,-1.21002473044638,-6.820968414359569,-4.877143844308824,-1.7286886434910633,-4.793417022131054,-0.13557873206137427,0.3147158489086206,-2.955567518794384
-16.0,-4.552237380268851,-1.3137426831863959,3.238494697082473,2.9179109089630355,-3.9288926174384566,1.0021311588780886,6.279076892319328,0.07083330764290441,1.8924709276524818,1.2917000013926065,2.504760125887602,3.6276256312281863
-15.0,-1.7657027570916086,-0.8693008803330886,0.8964018767586364,1.3010539317251308,-1.2911761085893585,-0.02794120027735414,5.894136881726615,0.7879083656048111,2.1417273523246303,3.354996293438984,2.9264693957476275,5.865559010810937
-14.0,6.29957410324818,2.8043954370892488,-3.495178666158796,-4.573247807311661,4.85106677982877,-0.3101533216150285,2.9014879486714595,3.2311411503498455,5.632989303420826,0.27834869558097286,4.7555420808915105,-1.547472638293932
-13.0,8.27140604529243,5.492896312669717,-2.77850973262263,-6.831719684215721,5.549454419110846,1.3921310651213095,-2.529927826523043,1.1413631270264697,-0.14488330125538207,1.4372751861019735,-0.9206574959157217,-5.460937107900215
-12.0,3.922057827928855,3.6070142009332757,-0.3150436269955752,-3.800526600063132,2.136166403671651,1.6039942625437098,-6.5105076279015925,-0.8735066507543737,-2.2026170570841312,-2.851638715947347,-4.506409646631847,0.8583814014666702
-11.0,-5.563996813442792,-7.826371976902418,-2.2623751634597244,6.731041463659285,-1.6377440229705278,-5.004227120241914,0.902146945535327,1.4798420754587402,0.5239303237338329,2.671051985904319,-1.387609524661765,2.49080781695617
-10.0,-5.423533302228499,-3.238520798528965,2.1850125036993773,4.361444688854773,-3.87135912802411,-0.5615791818934879,0.7117398762772781,-2.8763928719313587,-3.027041953342845,-0.890693242444889,0.1918062317718774,2.1250408392232516
-9.0,-6.738966788307708,2.7379587415556106,9.476925529863133,1.9481731391921993,-8.094245165109177,6.075567155014465,-0.6077228821088069,-2.816548333339568,-4.4409903175370005,-5.4969792172168885,-3.284211228807143,-5.893786597940835
-8.0,1.3194744931623847,0.7149791461746458,-0.6044953469878687,-0.9937080152462463,0.9808401303769974,0.10347374653137287,1.1658517372472268,0.5651163226545235,1.2110785193232836,1.5742354174487665,4.058350668437118,3.8384949832855564
-7.0,4.267558042441722,1.0453687957085926,-3.2221892467331568,-2.7136258507571442,3.7709214802330573,-1.1192657894587419,-0.08133555667381376,-0.2007820271642919,4.451904240569232,2.0275790018237547,-0.8539373276464137,-3.7079818116567718
-6.0,0.5968018432217721,-4.199071880113721,-4.795873723335426,1.8221422610704083,2.7298214797457994,-4.451132354925462,1.3446467282015615,4.16141828334752,2.3980769778587963,2.612423943120096,3.495581417873922,2.784227660423354
-5.0,4.238253862053329,-0.38692601490888523,-4.625179876962061,-1.9031495207967437,4.392080490455321,-2.5404128034147733,1.3232055161938454,3.5574155436292143,2.6090076092808143,-1.3038309290246162,0.9237089389222477,0.7842089528794154
-4.0,3.2813053738182614,4.499987805933705,1.2186824321156422,-3.8639514419711865,0.9940349671446502,2.8235283914886242,-3.0634111771527035,-4.7229909574112074,-3.2305348220198473,-4.682909126894559,-2.9379581506108563,0.04152963646226615
-3.0,-3.2299735292506098,0.2283426751057649,3.458316204356526,1.455536423780815,-3.382435978407243,1.8860429840913349,2.5650324105901063,-2.754515723718673,-3.9654192247933238,2.7244750576056225,-0.7681484846706015,0.8425023879296188
-2.0,-4.132257638629303,2.7660899021093956,6.898347540738726,0.7249715845229036,-5.4778127203652,4.87619963181229,-1.5627236311677328,0.9712654529398068,-1.7902787025737077,-0.05532616672795099,-0.19091542127441552,-2.508019950892206
-1.0,-3.4228154081464646,0.615750171394228,4.038565579540613,1.3750752539153361,-3.6958181872225624,2.294890352618963,0.14130436043362793,-2.606319758541344,0.5726043321553798,2.7722755261052634,-2.310044705374682,-0.5532386226923677
0.0,1.2666403578445844,-3.1517367550672173,-4.41837711291195,0.9205765534028623,2.8772227961466843,-3.8142446293982575,-1.3520299143656054,4.891924956431098,4.437244191450454,0.9024395636068043,4.125199841003512,2.197532953259881
1.0,3.1109249855880097,-4.090694979267253,-7.201619964855461,0.5495937038008872,5.115559115026735,-5.672413605484805,-1.4248467664209492,1.1914416725263273,1.2376627865067866,-0.3115934190979815,-0.7805397295975929,-2.026436998192863
2.0,1.6498146181405844,-0.7720666585521649,-2.421881276692876,-0.459430642396468,2.0016074474928893,-1.5422663796326233,0.020139026378722863,0.49688033611304805,-2.649519623895662,-4.049630600239177,0.08062353606362005,-0.822637601796804
3.0,1.791039521901259,2.946663946314286,1.1556244244130318,-2.395171374563785,0.370480439521901,2.028158834370494,3.1929609349757215,-1.1604660210705937,0.20459016504286887,-1.0000374953112903,-2.067472142885438,0.8481904327895666
4.0,-0.2267210252160312,3.102622843562126,3.3293438687782766,-1.472892724678919,-1.795747400322864,3.271197252592551,-0.34330140489079586,-3.833214072291471,-0.6104000885361629,-0.8120905694974919,-0.17883419058577354,2.5017083494423713
5.0,-5.3091731464902345,-1.8007388406672145,3.508434305823189,3.589575208640277,-4.4198918285191615,0.8277087666123175,1.7196428456900834,-2.0376987595438596,2.596377396713718,5.068200352124601,2.454926921453667,-0.24745312387487672
6.0,0.35118012778708163,-3.7082437281215306,-4.059423855908429,1.7058996113491642,2.1981567744966326,-3.9147718006735137,-0.07898395914969247,2.5016596615687208,-2.4648886482379604,-0.11907328501610648,3.554245506975175,2.128901459539231
7.0,-0.22718002793035186,-5.207233138115902,-4.980053110185432,2.7411435637970047,2.370249950019017,-5.1310549040543,2.1815269477331984,5.391677784353304,-2.367874734061408,-1.0116253022087114,-2.0382347988576432,-0.7170198757603039
8.0,-3.830106543055792,3.0975890218975786,6.927695564953272,0.31253570386231855,-5.386818464821161,5.047095515251926,-3.061149245369724,-1.8875962659968504,0.9232509162757221,-0.8639493009577981,-3.211963899197342,-4.09138626500235
9.0,7.343733618692732,12.934585567216853,5.590851948523869,-10.109058280112434,0.9433680864650589,9.291487946433655,-3.6989265809239726,0.2942301848996125,3.2615657504753877,2.0868777592058283,0.26788812683180185,-0.912930578636544
10.0,4.475887822093591,3.1451144646989824,-1.3307733573948628,-3.85150753809245,2.885819736888915,0.9327567067584179,-1.9677259769099191,-1.8265897896586931,1.5927411091046983,-2.362336478946548,0.0398863374985563,0.8508951965095883
11.0,-0.8079204535479265,-6.3752987722544265,-5.567378318706713,3.6377594760025804,2.3549535058916105,-6.024701594544519,-0.4363677745074348,-0.21753574754657723,-2.283530417819537,-2.3387423273270693,-1.002334558920568,-2.0111401708092576
12.0,-4.249827324195154,-7.957804507922606,-3.707977183727532,6.078614989329807,-0.30427860505000015,-5.805131706109778,4.958393206553703,-3.5878589469700564,-3.4385799290935743,0.19884412667138662,-3.1163489691405974,2.3232491347574005
13.0,-2.6696782048963312,1.7721330333903618,4.441811238286747,0.4285151602747743,-3.519610756989552,3.059897315348488,2.827187051072411,0.09319873216675534,1.3243634494292897,6.608733918603618,4.327210725404296,2.9159945231558604
14.0,-2.160188104152518,2.540509260474577,4.70069736462723,-0.13012079028339452,-3.4031498438520513,3.656481044452696,-0.6204120585141868,3.52696769127927,2.930686106644353,-0.662832653517968,2.2080619309783986,2.483943773976508
15.0,0.10275460884167131,-4.817424080724447,-4.920178689565902,2.336470712198771,2.4530167691912235,-4.829597964235349,-1.6775834764455158,2.3517760186100922,-1.2281281680812917,-2.01133157195281,1.8534181936198397,-2.1785189389497748
16.0,5.432801594400387,1.1716206051210571,-4.261180989279135,-3.328509786892431,4.8635736696668435,-1.5826753876137134,1.182618815231827,-0.528861716509573,0.09422498783923641,-4.119372516002445,-0.6781186719930737,-0.9381962871114637
17.0,-0.1859412615937197,0.5579300907912523,0.7438713523850893,-0.21988067644975917,-0.4477184670652119,0.6128103234253777,0.4713271367476446,0.9389859013816311,-1.7170289849200981,-0.5560701873988123,-2.643754096255078,-1.868130083641375
18.0,-1.8264299027708752,-3.1068873935884,-1.2804574908175033,2.503358186337501,-0.25054407833268794,-2.1544553526894084,-3.642591889726965,0.5782962471040298,0.7650318791827044,2.2217610760990234,-0.6254196576770654,-1.829039362065146
19.0,0.321112514691392,3.0393273321769794,2.7182148174854364,-1.6507601332641948,-1.2455335480737943,2.83776717649223,0.42170053668985386,-6.06164863338676,0.9176029408739026,0.0837994426112938,-1.404649130623352,0.6995167430632849
20.0,-0.3028554909194987,8.427042926933629,8.729898417852882,-4.038068822153961,-4.472602737425635,8.616059740176574,0.3096984612084738,-2.7200007860795,-0.5227641373996681,3.7441226064681077,1.4605457087817584,3.5946152896324834
21.0,-1.8496832697791925,-1.748659549687233,0.1010237200917583,1.74086946073678,-0.9974999183985358,-0.784235184316703,-0.392176147020466,0.6617895490128596,-0.66330951207191,1.5418239937799094,-0.9803081025845668,0.12017063403076333
22.0,4.377010355847109,-0.2158823226776876,-4.592892678524893,-2.0623269921019327,4.474589604451348,-2.43949943722451,0.17331766026149686,5.682625743215942,3.033356804495953,-2.580527263125941,0.9372787240402676,-2.373227583530906
23.0,2.0119588759603912,-2.639769253698048,-4.651728129658391,0.33082935721809403,3.330746877193777,-3.6757383131709114,0.17586028867022274,4.282669259397137,-0.7686971012907531,-2.846345844659461,0.15960456039181525,-1.544959352785173
24.0,-0.4815255309221664,-1.3155045311031515,-0.8339790001808005,0.8363181057947271,0.18100852655444366,-1.0212666878120507,3.469480182207477,0.7384579430668223,-1.6412678079621925,1.0729684346762378,2.142156635819591,2.7372032248082654
25.0,-0.9861335544797298,-1.534818616407564,-0.548685061927582,1.2782653622329905,-0.21172210969358907,-1.0640764449574225,-1.1009689347509561,-1.3707323910626423,-0.7384060582553506,-0.5711620723296063,-1.8286439877947431,0.8042298824443048
26.0,-6.5516210118173985,-1.806083504970052,4.745537506847581,4.200422490904933,-5.642839437388515,1.447868088553451,-1.1413596551682301,-7.706900545664975,-0.6949840470251023,-1.742842304515835,-0.18715809100245323,-2.1166230122363068
27.0,-2.736643485821071,3.1046063825732984,5.841249868394492,-0.1555245646478971,-4.287477431029171,4.449220602049824,-4.495813301249097,-7.384235507534668,-1.710087132709726,0.12117186480793488,-3.8026889642368,-0.8827612488664043
28.0,0.3735089980912405,-2.7580672395984225,-3.1315762376897016,1.1515708319291378,1.7474518604608735,-2.8930073518183597,2.8084682491305153,4.370874316058034,2.168400421432218,0.705734811552966,3.7619062184261796,3.2622744389595963
29.0,6.115421160786743,-0.018383270078069724,-6.133804430865041,-2.9997571353808383,6.11164963986955,-3.106416037757956,1.7429956481984046,6.893802035357591,3.272447721495517,3.9783992677872813,3.0676922625157412,0.18599345691391933
30.0,4.7059888261520415,0.24122442424861124,-4.464764401903765,-2.4941074640553587,4.564431293749127,-2.0659802128639706,1.3777676858793813,7.452588478617924,2.3032914460444065,2.416267660783911,-0.8816909146473828,-1.2181392012937504
31.0,2.4936423177985203,-0.5105917087488525,-3.004234026547652,-1.0061889274775242,2.7998988124002784,-1.7920707315647568,2.5154993668067345,-0.4566389301059366,-3.1652269639463775,-3.6358096820020056,-2.6996556105040415,-2.271288070231065
32.0,-4.261025300155252,3.7561636768601057,8.017188977015238,0.23833647135651548,-6.171615739209392,5.929493160026015,-3.188262062764424,-4.64357770271389,-1.2923149270173804,-1.17541050660326,3.1484294425755976,1.6129622712849523
33.0,-3.8049354103167534,5.665375016142541,9.470310426459385,-0.9492545567786428,-6.593529800338283,7.530222077226497,-2.5678295680784005,-6.512506918101625,-2.090566836072594,-0.6568477775122039,-3.3883285477026437,1.282270945839785
34.0,-5.4515144568457,-0.294418155220023,5.15709630162597,2.9234172926494364,-5.338725857183522,2.391024682863747,-1.0145703002797462,-2.9199108647924272,0.4608038391802093,-0.29384043655953684,-0.9336078360822108,-1.4124985361512203
35.0,3.0616841148044793,-2.3151797822311666,-5.376863897035308,-0.412994968496188,4.186775110094562,-3.811235988960256,-0.7053410322225413,-0.5673423675285056,-0.53432501927189,-0.8136729581989306,-1.6306715007538732,-1.0323815223011583
36.0,3.481577641758814,-7.491849785105493,-10.973427426864092,2.032882461924438,7.276355493636707,-9.201732515815348,2.1837686426351723,7.101983911706286,3.27179403992436,0.6709158878777463,1.8946081026722963,-1.0302719765260688
37.0,2.146389486153976,1.6899605403328337,-0.4564289458211066,-1.8996012635179231,1.2736532618947711,0.5658963149275813,-0.7540729700848077,4.15385003423787,0.7540402309857137,2.0909620128155564,3.842566158792386,2.8847679748868345
38.0,6.192060979660409,4.326149855651753,-1.86591112400879,-5.24652337206499,4.080521662274091,1.2568177078196958,1.989744284430564,0.35837375915172665,-1.7387189597378636,-1.7760348484429307,0.10542281294078348,-0.1600654660529195
39.0,-5.846573874730614,-2.8451168083015017,3.001457066428909,4.277183045541937,-4.453205196147617,0.10605108993498025,3.618592363663308,-3.528745203757813,-2.0025833682913934,2.1949567870928863,-1.8719106122702094,0.43669107788512496
40.0,-4.065620003772896,-4.977556264465933,-0.9119362606932166,4.532491208480704,-1.6108803088810708,-2.992190141591857,-0.04686748028681653,-1.232432927795769,2.573080231598899,0.3894144937271367,0.048220520478306605,-0.6045853624477215
41.0,-3.4671400391626053,-0.1344714542270166,3.3326685849354583,1.8153702497286486,-3.3623951951068243,1.6353553228229023,-1.0489833219076619,-0.6915147701888484,0.04330403366974539,-0.13880491181095694,-1.8389857169836483,1.2396940607318796
42.0,-2.1982603001004453,3.6021494623321155,5.800409762432509,-0.6815879244394735,-4.048688285725919,4.664176112433813,-3.0971790683692006,-1.584736728331726,0.7727697501484037,-2.6605870243004137,0.1589232209244682,-0.45020834144414645
43.0,1.1555781831458698,2.3085283831571477,1.1529502000113387,-1.7048075712650264,0.023694385086767467,1.7770619083176533,-4.578877003972992,1.4164172382148168,-1.1322132915747867,-0.09345069695141861,1.4326628151205272,-1.0888091455142863
44.0,8.587138668974438,4.4472149343344825,-4.139923734639799,-6.5619692348696335,6.381871840221152,0.12424966840842178,-1.8037280418169546,-0.26548000010920036,-2.600952184302365,-0.9591299612224441,-1.7033860062446196,-2.9964141468542524
45.0,4.297146038326988,1.897593821232843,-2.399552217093994,-3.136848143916851,3.3666628104461704,-0.27948952659757426,4.96102485195786,1.3786950658568817,-0.24928474832924397,0.6982997749382991,2.458599768273978,0.044768302051235054
46.0,-0.7239197826869281,-2.448945078013911,-1.7250252953268883,1.6287850701693134,0.5226563697179474,-2.038007159135722,3.1595783905145867,-0.16004382339752987,2.5219805908998243,2.1377109093919344,-1.9966302285351192,1.8085732452343795
47.0,-2.682257635436576,-3.950879269560984,-1.2686216341243866,3.3594770537307124,-0.7571306056621349,-2.6425276208229445,4.020284908558007,2.226249282464722,0.6981224424415479,3.0894673753767794,1.55473313788378,2.4659665586484416
48.0,-6.363202369716155,-6.358649245744753,0.004553123971356432,6.323350139652159,-3.2270791588251,-3.1352132717672543,-1.6185951609762688,-0.9932622626732722,3.069914461919454,0.2699991775968458,0.5581217013293518,3.505407219909166
49.0,0.7920811828058056,-0.6620087152727936,-1.4540898980787036,-0.10594040425815754,1.1649000017684954,-1.0995973658015423,-1.3663942807536502,-0.5216145919183321,-0.8192588864449526,-2.774270528985556,1.5261608608966015,-0.9063760247327217
50.0,-1.2042333127491642,10.423688063236806,11.62792137598585,-4.57572680397113,-6.369952702677855,11.05845786350087,-5.080708272016492,-1.7243939174689649,-5.015939009173409,-5.014062671569803,-0.444652883408853,-1.7772579683112237
51.0,-0.871451425634819,-0.1776351333374242,0.6938162922973108,0.5554545136001181,-0.8134123074270172,0.20802426772988447,-1.5542311259203658,-3.153376112832402,-2.5193737174096396,-2.0410531538715677,-6.167718402828507,-6.814992328304463
52.0,4.683625022509282,-5.246094421054279,-9.929719443563602,0.23221366162967527,7.275386582755511,-7.56224705441517,1.890649599281785,5.217171311697658,4.045261293099578,4.62237685874938,-1.14834501557991,-1.7452644892121767
53.0,2.878058744718683,-1.7922504142598261,-4.6703091589785295,-0.5117605524340955,3.819551371608383,-3.2075526845533875,3.6542198644909423,4.350580213369745,1.615803254161417,2.217085337002238,5.16734225127401,5.267367077104042
54.0,0.6667710908836693,6.041835648217147,5.375064557333507,-3.3979233331408456,-2.389844452607479,5.731214718031346,-2.773131325478843,-6.926466273804166,-1.2460553097389582,-0.4859542227299092,-0.5451900375054612,1.145523702643242
55.0,-3.8584940101830463,-0.15478280006349943,3.7037112101196015,2.0474677964537547,-3.817650447005924,1.718232997575968,2.4259930788253463,-0.590780711662974,-0.2607604832655948,2.437832191018783,2.81891542757353,3.0127313414730503
56.0,-3.506443550190152,-6.630352310124078,-3.1239087599338196,5.1150394029082555,-0.14702996785879852,-4.854227436658652,0.2646754668049236,1.3420798032268688,2.31332994378299,0.16338094273223203,2.034424682944571,-0.2188667224126879
57.0,-0.07215683524505034,2.757609997468069,2.8297668327132115,-1.3708199926324864,-1.4013273477482107,2.739174683453526,0.3231764219765596,-2.031360319178653,-1.5469223523196818,-2.5562542264704993,-4.958581734838401,-2.8564482338155393
58.0,3.6984905165641146,8.139210278113396,4.440719761549322,-5.946161621934833,-0.3923715328792368,6.317110973127815,-2.241760526898829,1.3953363019365053,-1.0421318480286885,-4.672468440533988,-3.032155386443577,0.4418064252197662
59.0,1.088735265726707,-3.1500229846571424,-4.238758250383884,1.0007550729863994,2.6506891956584155,-3.662297423983438,0.5856932755464292,3.588580510020328,1.3556207486683411,4.791625438845224,2.7029672554091846,1.841580216090944
60.0,1.7009192738146215,-6.701774957017558,-8.402694230832278,2.4661341771042506,5.0447283970807435,-7.513427339861116,-0.8364909349270728,2.4817330983772434,-0.608425458956803,-2.3550573514287816,1.2722520526219419,-4.449376671697046
61.0,0.5959585371171219,3.955550546148352,3.3595920090311484,-2.2348711632652645,-1.3870780679997479,3.624891375238767,-0.8713192630338551,-0.66916202930627,-0.7210468016724711,-0.24256728413013,2.158460775868885,-0.533816082436217
62.0,-3.5401728095425744,-1.3020164546429909,2.238156354899565,2.461727821103659,-2.8972546359111417,0.44140383796690064,0.4426994360883965,-5.747487562643136,-1.7110831685918075,0.9240588671062347,-4.060100534878457,0.7018173315605489
63.0,-6.755934133322881,-4.137217510600014,2.6187166227229075,5.491212544498801,-4.701665659886628,-0.7827664824613039,1.7773970878744092,-0.8843268725656603,1.9089889286413346,2.38373988330728,0.7793144386853408,2.3412378667736937
64.0,1.6072843231349996,0.7393498118898659,-0.8679345112450856,-1.2004668711571254,1.2160705682337545,-0.009499790195399482,2.7009958948325488,-1.1076071523774638,3.506016292178147,4.052262491033483,3.2452131302880822,3.8675510254405214
65.0,6.73585239840155,6.204440329053742,-0.5314120693477679,-6.490397282078376,3.6854101566813093,2.8089713785116905,-0.0916876370647538,1.4371027733122315,-1.1963372814889508,0.006211651469432367,-0.061189113170208476,1.1457971949264336
66.0,0.37332139921229324,-0.8312841005221299,-1.204605499734397,0.2122152235632715,0.838892546625758,-1.0507834020143616,-4.857182760432661,4.3361538513637825,-2.1387895507521875,-7.552117384059265,-4.355247242502699,-7.564498911661115
67.0,1.0524825816727685,0.9340123444297662,-0.11847023724300032,-1.012043809116261,0.5586079398134361,0.4485684382204464,-0.9600179412867014,-0.9521449972608891,-3.094027899908392,-5.668431208400509,-2.321626995618252,-2.814793101092426
68.0,-0.25067056256967446,0.3882199251261207,0.638890487695796,-0.09500220550008864,-0.46718955762003983,0.5511165620151108,1.8731751249749198,0.7375121143254102,2.4481246289532095,1.5187887109767364,2.155547239171069,2.0355881705184404
69.0,-2.2353516875287616,-1.346908190929331,0.8884434965994195,1.8331006136854753,-1.5793558826731677,-0.27082889938657767,-0.46831141743822,-0.8939036620286163,1.8184218256723768,6.397541260743277,2.5761154331738103,3.307058213064361
70.0,-0.0737988939507439,0.08954301966515477,0.16334191361586614,0.02390921915536004,-0.13235594558061237,0.08720483679753033,1.4975789664050208,-0.1611209885312339,-0.16649484650702395,4.64694264166158,2.4768790201689477,2.3461715358376
71.0,-3.24897672872108,-3.146852163403413,0.10212456531765451,3.1444096188955815,-1.687877456762388,-1.4787656231800455,0.37711786974958406,-1.4844795721468629,-0.2923977195931653,-0.19133064563491597,-1.6611587376967576,1.193443204009618
72.0,-2.7515960890488502,-4.0755040961360125,-1.3239080070871745,3.4377569699147075,-0.6482993024697555,-2.6520680461651036,3.034486568044746,-0.7572145831883723,1.1534074042202886,-2.7540198488673706,0.19316366059177414,-3.1101803387814964
73.0,1.7697569622582994,3.841281398933885,2.071524436675593,-2.7771567041968046,-0.16704821476863418,2.927224661766055,-4.384633238148228,-1.2402837600943775,-2.4385376031412838,-2.2540304596519514,-2.371024198415164,-1.7888769466992855
74.0,3.4375510429462772,3.9396758584490463,0.5021248155027846,-3.6532933669387266,1.4467091886564774,2.189862186210393,-0.9878412434006887,1.3695783708947378,-0.03606909620471077,-0.46721118491583935,-1.8844580645267859,-0.2526347883227462
75.0,4.513633795740832,-1.7177517164534375,-6.231385512194249,-1.4352285481461755,5.423557883031034,-4.011885301262568,2.438567817412064,2.659809032759998,0.9818568353350374,-3.041309388287255,0.5763922154692092,1.006936485906286
76.0,-0.2473983560415829,0.30424961974362946,0.5516479757852355,-0.0637900699306535,-0.4357101904923901,0.45945823723997825,-2.363379180360726,1.4230112442488452,-2.1856439877193394,-0.39980015473839914,2.1636669417893613,-1.6172590351742915
77.0,-0.4355432276765179,2.47900937741596,2.9145526050925112,-1.0611388189487816,-1.7210173482332256,2.716616898159981,3.1412998545893585,0.4407754292124747,1.50614816062027,5.286794888014535,2.336856651095564,-1.5073025851413884
78.0,-0.7261174303378348,-1.7643494583601518,-1.0382320280222836,1.2752500531536934,0.17886642823006116,-1.3926072278483137,-0.9282941926319428,-1.650727432445779,2.7398481515732005,2.5428959990513094,0.4997531292070271,4.883019041942717
79.0,-5.258101030495265,-1.4253694205711283,3.832731609924156,3.35994464993699,-4.531246281235579,1.2035934499374497,-2.9451765902385025,-4.913524303345351,-1.404062283872885,-0.3313382271048888,-1.9101542001983964,4.593421578608712
80.0,-5.3555165130585625,-1.0706531533167725,4.2848633597417844,3.2207778286705286,-4.8119656592670745,1.6016344492509451,2.5804454701762776,0.47655137990565244,0.7592132537513696,-0.6087827514444869,-1.1829890087547348,-2.222277271562303
81.0,2.8697226768864943,-0.9191363321626985,-3.7888590090492276,-0.9735412774149075,3.3348347046844022,-2.361307754219249,2.246841860148035,-0.5565583631123389,-1.130253854620452,-3.8993791007181304,-1.1723796037398755,-5.837388203317083
82.0,2.3549126584602353,-2.3365818933507865,-4.691494551811063,-0.007113140527648443,3.528811933987312,-3.5200481316508516,-0.15930218017650866,5.986514940173629,-0.5129659584891663,-2.9608760566284866,-1.2770451338210507,-1.795651988840373
83.0,7.8284634039237835,5.99154115055956,-1.8369222533642633,-6.90182941064287,4.839723715105549,2.0751191051214124,-3.9570825834194308,-0.8451264226159692,-1.742141730780454,1.2329404538603357,2.4393667199465883,1.3083442966398422
84.0,-1.1231956251076838,1.3883868703929432,2.51158249550061,-0.11473191849644016,-1.809135525002457,1.9535196100565753,-0.050799249343572495,0.47589863429455637,-1.6526436321933042,1.6552905120378436,-1.5752514200977068,4.691148466430571
85.0,1.1802135656567674,1.030612576684997,-0.1496009889717631,-1.1562794796306042,0.5945731284610939,0.45113084872019793,1.6648067329484229,-1.1802176728585925,3.7776406949481633,2.292469548060072,2.361819275452892,-1.6091104722652942
86.0,-0.9466133063104855,0.40464070543923975,1.3512540117497391,0.30610451537125477,-1.1409731044071274,0.896544417169082,-3.4807827567186433,-0.8924498215598892,1.2354916564874043,2.447784328345535,0.5125476501098909,0.4146666409241707
87.0,-5.609053376900073,-5.5002370243163865,0.1088163525836845,5.5134956843100955,-2.8503469914460955,-2.747437470346627,2.6321175903250422,-2.677634479401206,-0.6300694626564988,0.002859659394330416,-0.1140542083164438,-1.2853749483683847
88.0,-8.120311647356734,-4.473587765289749,3.646723882066972,6.3320515213147655,-5.871042271975148,-0.37787854187732706,3.6630333418788257,-0.563133758075883,0.08731882356235968,-0.9847439251172105,-0.9165402841009218,-0.19455507281405193
89.0,-0.17133443998206,-3.7878641221227163,-3.6165296821406825,1.9299695684989615,1.7437017181498926,-3.7370450906534143,2.477594362028675,4.856273647048349,0.9253832003785067,-4.199010646747219,1.88454396156762,-0.8928235978505505
90.0,7.8255431433072395,8.25818503697149,0.4326418936642289,-8.01958378199451,3.7307344271419187,4.39715079082128,-4.184281595825445,-1.1976664329294924,-1.5885570419178838,-2.2179515787209434,-0.15303945938821842,-0.5243811628321091
91.0,4.745257987989998,3.0571480454190465,-1.688109942570963,-3.8838687549374993,3.1878255826802953,0.6643154477693614,-2.781512006701801,-0.025401218329577924,-3.056148128490668,0.06833459401867792,-2.8653547283636582,2.0087378236777
92.0,4.8000816280996474,4.098195489724217,-0.7018861383754224,-4.433026215731515,2.7367013004454166,1.68298196165423,-1.133986295115525,0.9785902792991097,0.32852847642091465,3.0649671094703868,-1.6787078912860514,1.4361814023112556
93.0,-2.4944428436626795,1.5268197107768713,4.021262554439593,0.5026466268299494,-3.2622095195256673,2.7612181629547012,1.892822393218323,-3.169748107929666,1.7029318813308594,4.350641802933335,1.3524199957306275,0.295029867487404
94.0,-0.2483346037767371,-0.8129708619247795,-0.56463625814796,0.4759830170591208,0.15653817728857677,-0.6240578137097148,0.4903863931883613,0.8847880311241927,2.7254720833449793,0.16886471823983573,2.111811005471627,0.6482438759937
95.0,-7.581291768318404,-10.490979713940783,-2.9096879456222884,9.065542664291247,-2.3424631931660693,-6.719554328134721,1.3927647686477107,2.8160160709515303,1.7391095435765533,-1.5221319723882119,1.3132716598344858,0.7501600184628866
96.0,-4.6995599174780205,-2.7604830670506804,1.9390768504274076,3.762391446065893,-3.3373362418132073,-0.43897078203941664,0.18839442960560926,-1.4227070268782285,-1.1795110666887458,-2.1041808040784424,-1.5308953428550587,-3.0550173809895584
97.0,0.16876318103426247,-2.163032079031195,-2.3317952600654226,0.9499455651979849,1.296445174024044,-2.2873459856095653,-0.14490148374328005,-0.8954182175967407,-5.119748716389875,-4.024520515887691,-2.9458910358172132,-4.213250220564644
98.0,5.409677166863788,2.3038707742868243,-3.1058063925769726,-3.908209936938257,4.211139999064845,-0.3742370716039511,-3.4395969149887806,1.2219473748267942,-2.775848753055644,-0.18278931121272368,1.651271392861471,1.2015812744609795
99.0,4.684790407891189,7.981553461333219,3.296763053442008,-6.311431130177002,0.7159831452950436,5.656016800521554,1.8634994938780454,-2.873661323931915,2.7080888022779503,3.8614414459084756,2.1880056977061777,-0.1909828459384909
100.0,0.5968326374642698,5.856408013811722,5.259575376347449,-3.2086864773887633,-2.3138902234282788,5.569372590767086,3.6585823628779277,1.3334161198339545,6.823842226376368,7.006723732982804,2.1198025810030536,3.9452066881807837
101.0,-1.1061231881558593,3.2691759166533156,4.375299104809199,-1.062962643269187,-2.722124771055878,3.83344275518684,-1.2123637250543595,1.6810470317678223,0.6315761872111123,-3.5074567569476995,-2.6707867938004632,0.4511355549402962
102.0,-2.720554367532687,-5.131978741040293,-2.411424373507562,3.950775574271156,-0.1311468605459588,-3.756037676286108,-3.317010433442255,-1.8038585935037719,-6.295431361968117,-6.285023046449272,-5.116323964711128,-0.3525579392390048
103.0,1.094595978099647,-4.3492060092872595,-5.443801987386869,1.66153865981366,3.2196669050332822,-4.952392342698122,-1.8723845718469758,-0.0996509998278568,-1.9395441906557138,-2.3052471011662043,1.3862437831205208,0.42705577552682417
104.0,-1.2843764553735892,-5.9499159550262135,-4.665539499652614,3.582693342595197,1.6454171301417055,-5.277261950012849,2.5074881338849817,0.6724463112578741,1.2492830186627801,3.185029209548128,2.94661912741617,-0.3154960232771334
105.0,-0.7037132662279935,-7.696586492967476,-6.9928732267395,4.1722270303540006,3.180082035519866,-7.386947065461443,3.3840232935918895,2.689633280110441,4.95334560652811,4.24826450732992,3.0844589556030364,-0.39681327643860953
106.0,-1.689840759452628,1.2076594990380465,2.8975002584906346,0.2136166830351699,-2.3368325697415813,2.0925937211797363,-1.453620336814986,-1.8470721431776955,-1.1575592886489041,1.7554365435226718,-1.2575780099408582,-2.3505204078725908
107.0,-0.4435823608934872,7.363185562314716,7.806767923208158,-3.4929529465421227,-4.08970060973678,7.547030485160898,-0.07715354211454219,0.3337073784923028,-0.04026821553111623,-0.25675518638122097,-2.0778354690680936,0.5066439565139473
108.0,0.24259612479862802,11.15966553928947,10.917069414490808,-5.664869047868575,-5.300575903060706,11.077811165232085,-0.4218071004390629,-2.227111388939068,-0.6338343634919656,-1.462472697565941,0.1988666374513326,0.18699472710241072
109.0,5.174343081395121,6.722786306545136,1.5484432251499909,-5.92146445897945,1.8524683325628564,4.17234450484609,-2.534439024595125,-1.755277565447654,-3.633183726286575,-5.612445295482858,-0.53350996295686,1.1494904372357462
110.0,1.7549033304951713,-5.588814559323023,-7.343717889818196,1.9385799998366657,4.51359108061418,-6.511547628170943,-1.073711531106303,1.6569779186387956,-0.9897801859436588,-1.0618769391376919,-1.0411215113803254,0.315970768942213
111.0,-1.7749581766238536,-8.420642147146602,-6.645683970522736,5.119420793401059,2.402026088765628,-7.581466933854244,3.025243605560065,2.528864412929746,2.332178343687877,2.251702088001588,1.9885587886103657,3.641787769001311
112.0,-0.8333949008417618,-4.810173499221059,-3.9767785983792745,2.769684084270911,1.5381567902630724,-4.365035548486706,2.675365801123019,1.4375088886853127,2.7813049632207316,3.634224185307962,1.2414711050756932,-1.070046065310526
113.0,0.9317223294762997,2.543557043901534,1.6118347144252554,-1.7031102715895,-0.29786295789073836,2.105762705434677,-1.6891295212402802,-3.513912065126302,0.5112058519656062,2.57382159048927,-2.490891390303079,-4.713459531820575
114.0,-4.876874921052036,-1.3939011229977798,3.482973798054272,3.0990560286480777,-4.221212799620356,1.074015732795642,0.40854492162520534,1.7478429223015373,1.7138459483339321,-0.37559583491306925,0.30312656014925343,-1.8607441696561118
115.0,-1.8312616390458187,-3.1999533052010385,-1.3686916661552195,2.48479948566014,-0.19840380135392843,-2.3308609085543033,-2.448368915993422,-0.08703711369919573,-2.291522553260001,-4.226051904078212,-0.5133619774220493,-2.898430486126028
116.0,0.3142762053987004,1.6263278215489096,1.3120516161501914,-0.9203954990507973,-0.46879699293444266,1.504571927365238,1.5253606765189218,0.31989689550718914,-2.3697128724165273,-1.3676766288613809,1.4750118463927917,4.770501400136604
117.0,2.2362635087552443,7.555445689972558,5.319182181217292,-4.926192667315817,-1.5117409789741107,6.396754506908839,-2.260417181846227,-1.928945794167773,-3.296239638627441,-0.9914600960334619,-0.8729841401395149,3.7893183008083127
118.0,3.8672204748016332,4.703541285360172,0.8363208105585227,-4.240886254820776,1.4678844445812518,2.7315519611146857,0.5113532367324293,-1.3565442533214358,2.270108802887573,1.782826440501688,1.1798370861475078,2.7473757764646534
119.0,0.7909982793084915,-1.6594257164465551,-2.450423995755044,0.3950422995209304,1.575096349795834,-2.012639844606131,0.4233333142246656,-1.0100643505699218,1.7842535806567643,2.551348216044638,2.0124023005969347,-1.0744660912402004
120.0,2.612283153931017,-2.595486460219357,-5.207769614150359,0.02659672785367409,3.9441859333104383,-3.8570465561338643,1.908329089409554,3.8802084296670705,0.37730297978876326,0.32407849790328314,-2.891237544301841,-3.553862388769291
121.0,-2.900635348006295,-2.648427847336406,0.2522075006699067,2.7274621637430254,-1.5430665926859686,-1.229194538746106,1.1455964248693462,2.6909276959681945,3.7664746069580426,2.0623729813085205,0.11258044960342084,-1.4712294052907242
122.0,-0.8576883935795196,-2.594715996370879,-1.7370276027913514,1.7562447877357612,0.3914618837612957,-2.1932776158238685,-1.8375993770574153,1.1810431085796165,-0.3645132126521371,-0.29269526278054075,0.8132613614331449,0.7129688527066484
123.0,-4.867071242685329,-0.9886016184304127,3.878469624254919,2.9577974039705586,-4.346547588471173,1.499772463077775,-0.3216630707387055,-3.5487009101649174,-2.3363318619122193,-5.975332921589813,-3.662939907371195,-0.374072732182183
124.0,-6.119805175833365,-1.5057692769964877,4.6140358988368835,3.764965342379894,-5.345501207511536,1.5324904826292498,-0.39305188170341054,-3.339786288896551,-5.699888935382174,-2.347660142407272,0.07924229483064693,-1.1690318085204758
125.0,-0.43590728928742184,1.3066754146768977,1.7425827039643322,-0.4030598742415553,-1.1505382031051865,1.5031791147528004,-1.8562383023433529,-6.063215703625157,-2.480099950270589,-1.1297030012187614,-1.0759169926882162,-2.4191031256902127
126.0,3.913118297653097,3.5850371801389382,-0.3280811175141387,-3.794095570665719,2.136254511963174,1.6048720925397393,1.306044454018372,0.216154750812112,3.7886188084591135,6.247927282485816,4.622743357201118,2.9786940437041287
127.0,12.670064945298366,4.412801139172638,-8.257263806125717,-8.506310354262833,10.480579007321639,-1.8711529959880275,2.499301203055458,10.86429038979604,7.726548105799903,5.212928324754864,4.867984139102875,3.8506798542746514
128.0,12.331094813413772,1.0083417952370972,-11.322753018176684,-6.711682326600831,11.848222497976456,-5.189889305573815,-0.007896224307833988,7.678847154787248,3.1182706676563057,1.2927300557264791,-1.1264063113622835,2.466809659140245
129.0,-5.982690179524266,1.5455472568979056,7.528237436422131,2.257610893551745,-6.7276209498630895,4.578096809180963,-0.7101681895716414,-0.34916557785314417,-4.963074960973116,-4.410955165557259,-1.1057033514589392,-1.2062112612044922
130.0,-14.480017278858835,-4.2526002704855355,10.227417008373255,9.408205163253054,-12.397640110822975,2.9460071337265257,-1.002650743220992,-7.274070048781825,-4.13529921281714,-1.8323390935386499,-4.070881689988062,-2.1444334498903923
131.0,-11.167781302418511,-7.998355298143413,3.1694260042750653,9.549257821893413,-7.20689434966531,-2.3795549709365895,0.005229621136521256,-6.268518040071201,0.2768506212358286,-3.0826402487089366,-3.213064699351329,-4.411598241542057
132.0,1.984868772691116,-3.7079169707913313,-5.69278574348245,0.8302875120813837,3.88245658102314,-4.745271176033682,0.17507670185015642,-3.179574680633193,-1.2105911103798916,-2.303077129017841,-1.138459891346866,2.491564354455699
133.0,2.4476527142084312,2.6152559454276263,0.16760323121923082,-2.5611215990395606,1.105597750201887,1.425115239908122,-1.5570664591320735,-1.421051433124732,-0.2840182886303427,1.9823678341944104,3.674775418079705,-1.1525541935934078
134.0,7.202972291294743,7.620175538259516,0.41720324696483835,-7.362123513736723,3.436417098529917,4.052548765509645,-0.9606657256449497,3.293567869538536,0.6104552838800014,0.12768839050085568,-0.26191619609787464,-2.12245802569638
135.0,4.577171875873217,2.30230116646284,-2.274870709410319,-3.3910369668447844,3.390062168460046,-0.03125270635825372,2.286019391078245,6.453596812698696,1.8356081271507922,3.6038881508204748,2.523523060820058,1.3839327539786515
136.0,2.8022344072661625,1.3668209153886366,-1.4354134918774946,-2.1162371943564757,2.162410912028752,-0.07986944491933234,2.148604962563797,3.872486625772644,0.8880606985651727,5.739636168108577,3.420362008349285,4.944168212951733
137.0,1.4357948433184626,-1.2985106138559845,-2.7343054571744454,-0.10257966855703637,2.0531720959692024,-1.9842606413122428,-1.5503264088341218,1.2182043156147295,2.6603058665372856,-2.3250914452046474,-0.8980475918432982,-0.992052615479911
138.0,-5.791111885541221,-3.752822640589266,2.038289244951931,4.735831019637892,-3.9407002506603623,-0.8262860840634837,-0.013883163585270863,-3.836844075090472,-1.2541659796632794,-5.166701071703738,-2.626288386218852,-0.8193027420660802
139.0,-5.111258265682758,-0.8868119661017713,4.224446299580941,3.0403081723248784,-4.607483341687773,1.698601464651916,1.234410493307402,-3.8553718300493194,-2.933505863586241,-1.7142631070316772,-2.731043796792611,-0.27612427464138856
140.0,-2.649455228452371,2.208042872062063,4.85749810051438,0.26219591607211257,-3.764208660179949,3.4823096830756333,-0.2725749843461645,-1.7475765254378608,-0.4196273457100044,2.28930978077826,-0.2824388271769398,-1.5273647334703586
141.0,0.29742341140470785,-2.8653296663790795,-3.1627530777838277,1.2485455368272977,1.7248386085289664,-2.9880127659686915,-5.927585494573744,-2.400576771007568,0.3215100510419422,-0.25557361129925993,1.1653659441831477,2.7384926777101626
142.0,1.7547914513794765,-2.2632736288396895,-4.018065080219186,0.30030995448497055,2.8824538173452483,-3.196655312782626,3.378939298949342,2.212920985738795,1.376561513280481,1.4576383239575867,1.7780630664823331,-0.5250558442637322
143.0,6.0540297155491825,0.8162200005825332,-5.237809714966633,-3.4655254483908844,5.6378800875364,-2.1919909685223278,3.5040336908688863,5.621006124021799,0.012809159286311267,0.7136455040113476,-1.3664509826614843,-0.8503416722873524
144.0,4.655144949085717,1.273095918326181,-3.3820490307594877,-2.993909604386655,4.001465614559589,-1.039523969448649,2.8276846400291475,3.972372201160326,2.092800251492646,-0.5848292214387862,1.8921051873340753,-1.5158871411165749
145.0,-4.205110049982345,2.9702287246492065,7.175338774631617,0.5860935969498187,-5.719685539538114,5.084905682104727,-4.501903897352875,-3.0379882402769107,-2.3167839888755637,-2.1647008880836247,-0.9990434347035948,-2.0363799975705277
146.0,-3.6191657533547414,1.7697863761723458,5.388952129527157,0.9687948836224777,-4.46766781823405,3.5902569465847556,-5.463768806352696,-7.4083777690138755,-3.3387517940492977,-2.4126173294681648,-1.5431810471244571,0.07759273961060337
147.0,0.7350045620132959,6.01175644103065,5.276751879017402,-3.3332713463221424,-2.2454190924504283,5.6555523601461415,-0.13018227432686036,0.1351184989759182,0.3485107156235707,2.681256559059406,2.2401927378816646,3.572584630930901
148.0,-0.18181724705893187,-0.19614289083140957,-0.014325643772468366,0.14672271752231858,-0.06586113672526528,-0.17095365774255344,4.89705302470575,-1.0446943976749583,1.611353814021045,4.179797299250465,-1.7337871817064812,2.571554744750313
149.0,-4.349365570744693,-10.112134920825035,-5.762769350080361,7.26468771902627,0.7202365462381455,-7.921735690069378,1.735790251289491,1.2570450501117711,2.098235867789526,-0.9602280939108656,2.30211048613343,0.6885941764714292
150.0,-0.6092430827502576,-12.39316813056302,-11.783925047812778,6.455100389190171,5.519649749640178,-12.069399341112904,2.0609714542446187,9.565881655612523,3.181984146457341,-1.8763958503490434,0.04192138930917694,-2.0362038049105253
151.0,5.672463154364726,2.8523732957358856,-2.820089858628834,-4.229911253966823,4.255091634728233,0.0393601615833461,-4.37198213713298,-1.0540995888444913,-2.5754008803664137,-1.808473063246005,-2.763551349280615,-4.815121379624506
152.0,-1.9457444167644937,8.64887931281003,10.594623729574545,-3.39700511809476,-6.2643936506066265,9.570719485918623,2.9060773979740424,-4.780854685200234,-1.145986788753766,1.486525816493957,1.4685114555647862,2.006222928980337
153.0,0.7699382028733855,7.941960863093324,7.172022660219967,-4.321122885779999,-3.1989528713992694,7.589159590955551,0.04278690880618563,-2.795242510025267,-2.314098029748134,0.5098948052636041,0.7621845129690064,-0.7986142692762802
154.0,3.287954326712237,5.097599883695854,1.809645556983635,-4.156021969021571,0.7380054969120464,3.489469308238193,-3.690793625842085,0.9201083550193179,0.8824352132681144,0.26318959647502277,-1.6115898348289146,2.2875776615462686
155.0,0.12154237624399733,-6.992488109436657,-7.1140304856806615,3.3954313710431956,3.6155214452428,-7.094002006753977,-2.8274715875364365,1.8873051880224152,-0.25115248135735946,-0.47982112427904755,-3.556781766473234,0.05028796237348665
156.0,1.1637668565634067,-3.6562163173542097,-4.819983173917646,1.207747027866049,2.9920924973294607,-4.278638905542093,2.7423173080520264,1.972084357435239,1.5813173989820404,-1.144832991913057,3.0099897120513286,-0.4740293380090971
157.0,1.0301572643480255,3.1573732546835167,2.127215990335453,-2.052628112598681,-0.5415958157247053,2.6788908624082772,0.15615193811211991,-2.5509320089746987,-0.7759657506876847,-2.376168280539241,0.5476649835683105,0.7566712370304016
158.0,-7.126085353653474,-5.21452458361773,1.9115607700357122,6.211488493537925,-4.501545864886562,-1.617572237189433,1.4311221593329768,-1.7644417445240559,1.254769357376622,1.1557822559206508,1.5366805546055258,-0.0752475954290193
159.0,-5.228181050763082,-6.073085382023032,-0.8449043312599553,5.612398710159638,-2.162196473225828,-3.5064627723170094,1.4616725822801837,1.4370648160135258,-0.6581463652373036,4.4643847306932125,3.687961615712838,-0.08084060809671018
160.0,3.0709795536997007,0.5581049686411959,-2.512874585058475,-1.853784537863655,2.7541418170123473,-0.9474832006829901,4.107017939391753,1.7298944992124783,0.04451606306942893,1.643956561196049,-2.7889411154202346,-1.4437176329203283
161.0,3.692479359691113,8.151697896208146,4.459218536517083,-5.883269531521996,-0.4125160440123259,6.257406539503528,-6.613883204833112,-1.7367637893971037,0.09807184501949068,-3.4228746784989994,-1.6848419009825066,-0.03991319544119287
162.0,3.304794226162286,4.0366548580592285,0.7318606318969829,-3.7102547389626146,1.2618540295179235,2.4183141405081625,-1.8667596686843995,2.1878537282941606,2.0411484578706354,-0.6272422865945191,-0.8688891721696594,1.9982631881053938
163.0,-2.239562304277809,-3.299750549783885,-1.0601882455060536,2.8108534918612653,-0.5350244091325196,-2.1403856605957547,4.057375035425481,-2.112949252394628,-1.6446842971568767,1.1084203930111896,1.7363309476531557,2.768059252957243
164.0,-3.211992326817764,1.1502398520204054,4.362232178838178,1.0754297124894727,-3.813608537830108,2.7235569145444045,-0.8190846453964677,-0.6543867562243468,-4.077753462607321,-2.292857865146391,-1.895012964946028,-3.320868074274597
165.0,3.8634903271133023,1.588654663881316,-2.274835663232001,-2.756496965273927,3.117410620789221,-0.37007171574715225,-2.1870224274944112,0.522789194338561,1.8713528856520265,-0.721930605139309,-2.772216946857264,-6.013073458068567
166.0,-1.801212778047828,-7.992564350469465,-6.191351572421664,4.869323658346702,2.159925419913146,-7.037007815099429,0.6907044616947619,0.5350856591318451,2.9336532795231376,-1.5592496808800858,0.6429284989273764,-0.9785043824700743
167.0,1.68715684983901,0.2980175067884159,-1.38913934305062,-1.019198570224273,1.576827036143384,-0.5697592900479864,0.4459399147760601,2.3813664491940734,-0.7410373786069886,2.3744407701613026,2.9383403485813595,6.159506105582357
168.0,2.273155322331758,5.568427436186634,3.2952721138548586,-3.869695116194167,-0.5563874913761455,4.403751326737858,-0.034021581137754886,-1.390667850321516,-2.0965333485180704,1.3618491778299489,1.6709830144151356,6.3209011608549694
169.0,-0.8680328981433884,5.681948907183088,6.549981805326456,-2.436741623985106,-3.6811437058497654,6.081784528757794,0.9864293032904861,-2.8349098070954457,0.34472822370673306,3.1844974128188768,0.8501159219980177,-1.137794471369391
170.0,-1.8787573210279964,-8.472415447327968,-6.593658126299978,5.144067892522211,2.301228770801329,-7.494590471270394,3.575584053544222,1.8966897721533462,4.194792302266447,2.065231264378202,-1.734495832509466,-1.9361090558297152
171.0,-2.374180841988438,-5.02515300919079,-2.6509721672023314,3.7468828532153298,0.15688810104325773,-3.803668817589657,-3.0024654985300168,1.7195970878252445,-1.0448134358078616,-4.103827385923258,-0.16990220380435006,-1.6940445875364545
172.0,-0.6104705627807913,1.4832427204651397,2.0937132832459575,-0.3870066602186235,-1.33508267555492,1.822080933771695,-2.607635278241818,-0.8531652226851829,-4.338468389026909,-3.238885073439686,0.9101430946669291,-5.272663898154364
173.0,-2.0173327500676272,6.579503993886667,8.59683674395432,-2.306827063661261,-5.288229768726701,7.545353984839753,-0.6803218714128134,-2.7735278331604594,1.8925206534159198,-1.2216435256314147,-2.2368118997955317,-0.26187393505684886
174.0,2.5995129115139295,-1.772921139836459,-4.372434051350369,-0.435507528890416,3.509758648320762,-3.111228990104716,1.4688067899528539,0.48098686185716677,1.0271683883423337,-0.25848854786119924,-1.3497920020713878,-1.0691519318791562
175.0,1.7555524329870715,-0.5141862795625913,-2.269738712549658,-0.6410605983822735,1.9643515935990226,-1.3470658389581467,3.3579618450546467,1.3357557371876372,-0.16479284746423994,1.8687385523627678,0.10441433555800694,2.1530348996655286
176.0,3.5607673740928725,1.1032236661697947,-2.4575437079230893,-2.3530210109812906,3.046047459865312,-0.7070010092856926,-1.7662608300983127,0.0770668297738697,-2.3929471666619424,1.759344165446669,2.2174365547283115,8.835383193191447
177.0,-3.029957528281475,-0.9479497207238439,2.0820078075576056,2.04394695212579,-2.5934758368472206,0.5400834829713806,-1.5817279753666282,0.5544449522446053,0.7811183457458158,0.4851878208751832,3.1078296855884395,5.169688542247263
178.0,-2.778358348012319,-3.3195660693709645,-0.5412077213586748,3.0217189048956756,-1.1547970660092357,-1.8767002142824722,0.8191463476325828,0.7080192898517164,1.9632123367237302,0.9629299648087846,-2.0423954674513523,-9.617500315386323
179.0,2.689967222551453,1.2328654791543445,-1.4571017433971232,-1.9913470580937234,2.1142810940590975,-0.13611001206426698,0.9549635004454675,2.8209625332451433,1.1542421622651045,2.2565242080202967,-0.5112869319677837,-5.846155488924369
180.0,4.411200529776121,6.079670159084796,1.668469629308687,-5.197526666036492,1.4081320358862652,3.9289807915848547,-1.2153185305848395,-4.070359632365742,-0.7288387108179445,-2.7250557603754304,-2.9729204217036767,-0.41844223348783194
181.0,-3.2404497365371916,0.566270245768554,3.8067199823057765,1.3857066317455966,-3.5706074367991416,2.161389675038728,-0.5158964354625885,-3.63626761086205,-2.0114249415485643,-1.9065164467886972,-0.8178838537332761,3.4286576677588045
182.0,-1.1380750743802572,-1.0043338575422405,0.13374121683803852,1.0420871371257134,-0.6093238383022586,-0.46364802233214875,-0.1249998450016179,1.637360390070834,-1.1965740800883977,-1.399377695132216,0.4103116548279182,1.767145425215086
183.0,-4.6336440916105195,-3.4031301066720085,1.2305139849385043,3.988758722123274,-2.9101604302532142,-1.1199816216298735,-0.7468478006932034,1.4597884442134905,-0.11556331060939251,0.2594135643729083,2.977359610190671,0.2740083514281779
184.0,2.0530096845432264,-0.7865333740647305,-2.839543058607994,-0.6662458524963475,2.385547235716836,-1.774657171368248,2.0214869916084575,0.03515213491338587,2.979390364654709,0.15164344433376592,3.004868987600755,1.686252301668317
185.0,1.4172177945458715,-1.4193282090691082,-2.836546003615009,0.04054358154813739,2.1419716013011874,-2.0962296870339427,1.752218605122414,1.6483177549887675,-0.16439123228512198,1.3157075940831873,-0.12726307247932267,1.9739683264427408
186.0,0.06989686571099396,-4.507033167424723,-4.576930033135719,2.1716838423459173,2.33677748502085,-4.59405012575673,2.140914674243368,1.4766978043604115,1.947396367995027,2.2552746083408426,-0.7569572238763786,-2.3872564940918988
187.0,-1.4811027199029685,-2.876944490291293,-1.3958417703883035,2.204319823808829,-0.029523076535211912,-2.1117780824331907,-4.6735457414481285,-0.5447703132608537,-1.9532253888213114,-2.052772353224488,-3.690809126581591,-5.0443313925732305
188.0,2.5318872386549938,7.738020434789903,5.206133196134937,-5.1129125276983896,-1.3226007009490706,6.498182163427716,-1.007809254962654,-1.2337205879737958,-2.060953341417074,-0.061096778338817825,-1.243216788940137,0.5511398516441788
189.0,4.6189995005998,6.921948466924002,2.3029489663242173,-5.747311539864365,1.0969966040814911,4.564565729844247,-0.4079649276251298,-0.6766666090883605,0.4350173257606633,-0.6855276311529503,-0.24088721700135185,0.7066385363236465
190.0,-3.384566549903816,2.6954865704327866,6.080053120336622,0.37257924567876843,-4.709546331246298,4.425571648342084,1.8442884070933414,-2.6121646883781855,-0.46131576383820794,0.25857584043707393,0.35436947149875797,2.1040527001717133
191.0,-2.2248355701546667,-2.574963969948663,-0.35012839979397326,2.355863450232973,-0.9077075297690647,-1.4960297808165046,-1.5294239689643476,-0.37438151722586155,0.9984374566528952,5.142140697403585,4.509671055584874,2.770273377479704
192.0,-1.0347278892037584,-1.4605845374685953,-0.42585664826480873,1.2097853935195908,-0.3449922565285329,-0.8917466677933983,0.3694676847032817,0.3962390321764621,2.6090958089505634,-2.4074952896546167,-0.17061318728923291,1.0256143386684577
193.0,0.2573069806334962,-3.1954827649787774,-3.452789745612256,1.4352707917938525,1.902973136841161,-3.347919350510589,1.570766268668577,3.24438167262864,0.49712310960410666,-0.3861475671091642,-0.7583171924305987,0.23447708418519564
194.0,2.0156396868489668,-7.50400545578034,-9.519645142629297,2.79065644198489,5.746927671982827,-8.535499578746704,3.428498995936628,3.94959220823516,-5.687087850588933,-5.012931665570334,-0.8960151236941495,-7.5017768008632615
195.0,-0.9158550256062723,-1.2313670427673435,-0.31551201716108324,1.119650370481065,-0.31138151908436873,-0.79999603784609,-1.3046632368369497,-1.9720558843540226,2.192328881413209,-1.2224761399716306,1.610921954292135,0.30607746656461243
196.0,-0.02397322760191284,4.660933594046962,4.684906821648841,-2.3528056867927427,-2.357679777306466,4.720585238062462,-4.033344949680871,-3.983036086354008,-0.9992276659079802,0.7480126286847104,-4.525061595587723,-2.206962015579413
197.0,-2.1534649217796082,4.378110166591432,6.531575088371009,-1.0701837837606547,-4.340008602550503,5.419327682870383,-1.522857076479164,-1.3533363363791178,2.1276299567520853,2.2292008218373596,-1.678127784513049,2.635769187155215
198.0,3.983338304314893,2.23171491331071,-1.7516233910042023,-3.146937202865371,2.873125951008893,0.2803167749816895,2.258969893492938,1.7806295214426935,-1.3387305585977072,3.33024219995381,4.383586615251833,5.031776839539631
199.0,-1.389962298888446,-0.49740401720655925,0.8925582816818891,0.9010707416764967,-1.1352932863148215,0.2367313541525724,1.9807382101095623,0.5347354931868741,2.0388886379111857,2.6267140123195585,2.554356991189602,5.212547153964674
