Time(ms),I,II,III,aVR,aVL,aVF,V1,V2,V3,V4,V5,V6
-200.0,8.177645040175227,-5.142007414072484,-13.319652454247572,-1.4824835120103201,10.779543800568254,-9.167841976405374,-10.675101986212313,-12.018452948186997,-12.532572517233719,-11.936231498726455,-7.4079948103264694,-1.3335491644154365
-199.0,-2.6197738801381654,4.888558424077209,7.508332304215421,-1.1817116422830758,-5.024822632945295,6.183279472413591,-2.0382729678546254,-16.167350888227386,-5.892163141083422,-9.213204982510309,-1.1547673520945083,2.4696202255756585
-198.0,-22.218020170680184,14.64172841873829,36.85974858941821,3.818582763815896,-29.570024386398188,25.735542448156266,4.633840464601516,-13.58037679225476,-10.80652907635564,-9.513610351405584,4.102839209618843,16.408595820158805
-197.0,-20.43774170740518,2.4153364987922057,22.85307820619719,9.04345737805016,-21.67042613263465,12.618918142633797,10.932965274552004,-4.519923888622554,-15.501318574822445,-15.266241927383518,-5.390708169035409,3.5210145170805216
-196.0,11.008448422236857,-9.69496359772366,-20.70341201996078,-0.6995080077393525,15.833267936772941,-15.135960510463738,0.9673516098602866,18.937540797946113,10.279244425792484,0.926503337419951,-6.227523044902653,-9.248895886151915
-195.0,16.217704066642785,-13.30105710834685,-29.518761174990125,-1.4180824972993573,22.844042681046943,-21.426427246874372,-9.413334355551925,14.394745030562376,6.735325462749834,1.490354424474818,-11.161959739963581,-20.425933554826326
-194.0,11.414072371798587,-14.464029781592272,-25.878102153391552,1.489934847996604,18.696462993605536,-20.19010594621451,3.108530305413029,10.449592481891148,10.71506095869184,11.323912655024095,0.9682317260209831,-9.153121282548327
-193.0,3.014196783438738,-0.3195783500757674,-3.333775133515527,-1.380377305717491,3.2193968563061333,-1.8501109579750423,6.839100606290044,5.718776047604921,7.218851622523591,14.413816320656498,7.369692047568649,4.058566730682825
-192.0,-4.327381343131339,9.05727109228131,13.384652435411846,-2.318577400929686,-8.89342479056565,11.191736094743662,3.980207397401809,-9.26051097911868,-3.512947660948228,6.414721261871955,13.151890822475501,14.682647539142582
-191.0,-12.587935518480194,5.111720533455452,17.69965605193587,3.706064243200027,-15.183448128618146,11.44925513218085,-0.6609368152969366,-16.617305364722114,-7.141215716554529,-3.719534492319054,4.96707033854425,8.646429563595692
-190.0,-1.493908703256933,-0.21240919724630736,1.2814995060119472,0.9010460147130215,-1.3489379919036466,0.5734293264939048,-6.03484275787916,-1.1177014590303749,-2.1025832435855722,-8.575742202755885,-8.707581417607066,-4.974600224584959
-189.0,8.065409032547617,12.668451782773067,4.603042750226824,-10.394936524350811,1.7710186136823767,8.593433670843837,-13.769387505019571,4.036649287209718,3.862622534472389,-5.172614761299698,-6.424259844668288,-5.442484727695033
-188.0,4.647846169849749,9.859958770135783,5.212112600287,-7.277324723399937,-0.319279106668488,7.572332271264345,-7.7207566573961195,1.0018823047502958,6.263874091600832,8.043745067083435,7.132491101111912,2.2343764475251158
-187.0,6.39457335498534,14.692331111445956,8.297757756460527,-10.48268181231278,-0.9867049702514343,11.454024186071955,-5.814824909866236,-8.112773535600528,6.164390382219135,23.487888803103473,25.56480591691822,17.22312437191792
-186.0,-4.469176223858543,-7.4347959895022955,-2.9656197656447283,5.938723428985574,-0.7844768816550083,-5.160559624120686,9.715148681437192,0.7393451256971395,-11.72210846734356,-7.09278453651857,0.06558718692513832,3.9945230167321273
-185.0,-16.775732338902877,-29.611969640479128,-12.836237301577249,23.18280023093003,-1.920378087334326,-21.26168568161699,21.059509916951477,4.1667464485681025,-21.016765643416036,-36.48521343184934,-34.560907338670326,-18.710147211691798
-184.0,-15.8843766069212,-22.491751433158527,-6.6073748262378444,19.175464370821526,-4.584554059697384,-14.586331421567992,16.979582333021693,4.299247249489306,-4.14270046561446,-25.02635523519244,-27.34948716337896,-16.39601762164456
-183.0,8.05736967597454,13.613972566523485,5.556602890548914,-10.853687882388158,1.2309975036634198,9.627652377625278,-6.364548380772266,3.888293835843146,12.383590557350903,13.312258216527923,12.570866506292845,9.73935037864223
-182.0,3.48031781963474,11.930263024256883,8.44994520462275,-7.731370944111778,-2.499277314130892,10.232914192422694,-5.8530609996562095,3.865808921776097,16.47145026989037,15.652909117485088,5.4601691868141495,-1.4905113359747104
-181.0,12.429380024421892,4.35399595519417,-8.075384069227248,-8.347619246329492,10.240580940658365,-1.8959046846164842,-5.687521082512863,8.166289958835689,7.737871305479461,16.727563282123235,5.25964773672626,-7.528221245884073
-180.0,-12.528142791187925,-2.5962483094814353,9.931894481706545,7.59922778734224,-11.242800671810162,3.633268388192702,2.0444422457153753,-20.440193053771367,-18.883809954350625,-6.877800471033096,6.275554968236111,3.9025071280978496
-179.0,-3.992993433486175,-7.561826730877941,-3.5688332973924215,5.7314116934662955,-0.22983896945513926,-5.5214599097005195,-7.138657737847398,-29.51570959952298,-25.046047159635933,-4.162268944711766,10.36625316081857,11.161914463476649
-178.0,15.056019105967827,-3.8243894775457212,-18.88040858351436,-5.584745155843999,17.021079875159856,-11.310970945474038,-20.49156843649467,-7.252330877568445,-2.835786308476674,-1.8894539873217653,5.614355999669814,7.124089268530785
-177.0,21.472499483590617,10.305072207780663,-11.167427275810308,-15.8580743611766,16.284535083699943,-0.4738907141175366,-7.7370463391476045,30.679952316016774,34.538317158462704,24.42311213959895,9.865727383048402,9.520395809885517
-176.0,36.98235092643161,17.951999021431384,-19.030351904999772,-27.515861030493934,28.040732422903737,-0.590146927290931,-4.179180105761104,45.37786659378496,43.3888996119053,25.59704066487709,5.6407408596547555,-2.240507474008769
-175.0,-11.393613348985637,12.193900232860402,23.587513581846807,-0.45076338858494247,-17.541559603651475,17.908770329842927,20.276823638569212,14.1926616700075,18.457860655012528,8.838808861889461,-1.752138494775135,-3.4532738177195643
-174.0,-40.58001129634499,-12.817177987076537,27.762833309269062,26.723763095237967,-34.14706668788088,7.482306617947258,26.565030680260932,-5.567085781175764,-15.286234466470342,-24.31561825440256,-23.48514947299941,-17.105197988302542
-173.0,-18.5350371627086,-14.663287836035131,3.8717493266736334,16.621811910864523,-11.179370302432549,-5.390754074249952,8.74537789135473,-28.571170211748232,-51.39201135270188,-43.41527860147045,-24.411674360284128,-15.112509403627843
-172.0,-20.61517988571212,-16.91598052874024,3.6991993569717723,18.7881211460914,-12.13166430595047,-6.601460739300151,-4.340817478874143,-42.00213837455657,-62.6279392365134,-49.33688749977387,-16.155737476671717,0.4810074231678758
-171.0,-8.159363826628477,-3.328766095622411,4.830597731005945,5.691630659746517,-6.546755445086429,0.7666951997273213,-10.19496226205301,-19.128740709198947,-5.79480978307663,0.20441902317791438,5.9854348293687964,10.236544787232193
-170.0,8.547620911544634,12.555086019579399,4.007465108034749,-10.517203930984202,2.2966633933508884,8.31131786782415,-5.380658129936043,8.40123114478531,37.28703688051516,39.474293945917154,24.3401220571184,16.206419939889898
-169.0,18.542209484903594,8.671962496047332,-9.870246988856355,-13.562468842857976,14.150949437454003,-0.6313680502501913,-9.180908917720483,20.25016844998236,43.91575854687587,42.4568308907741,21.18358077006869,8.848610027227036
-168.0,30.685359480265312,-0.45764309914089374,-31.143002579406204,-15.137597918974635,30.932273921806846,-15.817660297525421,-8.560733982838807,28.389696024810007,30.56107210017033,25.778681327104053,6.066205348199791,-8.066773508792192
-167.0,6.965498253081893,-6.941662569695517,-13.907160822777335,-0.028429610685279272,10.448418632575816,-10.431605290503576,5.453849814871791,12.860301732652129,2.306993221121207,-1.974479531259341,-4.639845466418246,-11.706933432077607
-166.0,-9.066854504423961,5.668456832486742,14.73531133691089,1.6844737968994528,-11.893508562170116,10.198570812050109,10.347272478725603,-11.171018304049337,-34.01406869091302,-31.799268314144534,-8.296525130867066,1.4991624966786556
-165.0,-8.620405819734343,6.307902974789789,14.928308794524224,1.1373891729372798,-11.76811014915752,10.612807292102598,1.7441145712994715,-5.853268104441471,-18.973639451512938,-17.032653356285376,-1.9520837179523838,4.960587378432243
-164.0,-1.4685202983182837,-2.340324319971611,-0.8718040216533023,1.8770700854318205,-0.289639933096538,-1.6173526558247824,-5.4273907275789695,-0.5747380947492937,0.18247212593549733,-4.514787713707701,-5.363342509462845,0.036054989661097436
-163.0,-2.723088428184658,2.7670028204822827,5.490091248666771,0.019581477104785527,-4.092263802096378,4.188400672174389,-2.5216835170450533,-7.523850240766728,0.6348205046273803,1.7409909392666574,-4.89436623816944,-3.3851858783954896
-162.0,6.812443623005747,-0.1933454462377333,-7.00578906924374,-3.2761118762133465,6.851830912956032,-3.625756508255847,-3.0693732333613704,-11.954902428425314,-5.2449927785205155,1.07441969579853,-4.400948616206216,-2.7334367684051935
-161.0,-5.402744138504012,3.5359613958980827,8.938705534401814,0.9624824167576476,-7.1424947571843065,6.28382340660051,-2.659309139112466,3.0387687140574933,8.358402619102565,11.914859923511623,8.456999870611915,6.690093131710494
-160.0,-8.918812497525751,-3.311628950651175,5.607183546874491,6.065200877741596,-7.229895367306203,1.1106216357060141,3.3570294148869104,5.627656733077994,9.463378109960061,3.6986344629181973,4.40391049309125,1.2492183014543161
-159.0,-6.318665083058485,-21.754573809742254,-15.4359087266837,14.067691487931466,4.515305703519808,-18.63652153525702,14.533195116950568,7.26632357468154,3.1358644314089297,-3.8796011049644674,-2.768241271561621,-6.583225072155863
-158.0,1.2236680300768086,-11.315908842309309,-12.53957687238601,5.00158338605574,6.838483007307032,-11.893687450578302,11.577893180700544,3.267004274429575,-2.6471590502695737,-6.899119067892221,-3.415122949852468,-4.016803090725173
-157.0,5.134878893334974,14.264050724446552,9.129171831111641,-9.741628365807838,-1.962329682602424,11.649835483528484,-5.673314125063277,0.08660353139729304,0.3554797228168094,4.479350602894671,3.132414239046849,3.8283681961658678
-156.0,10.284828816330212,15.946557485428485,5.6617286690982755,-13.078218858553981,2.3459791846648272,10.836433956814593,-14.086413665606287,-1.145691410258738,1.7691407333758415,6.110003651627783,4.433160973599728,4.911267839193134
-155.0,3.8072436374820207,8.07841772722493,4.271174089742981,-5.9059215725708025,-0.1966422414326856,6.21062713259458,-8.379539142928078,-7.084056631230182,-4.021206057249211,0.7254708572271813,-3.4446527294420894,-3.2670012108597195
-154.0,-1.2499556680419932,-1.0151259425296848,0.23482972551237724,1.1677808463843027,-0.7836252762970563,-0.426434215460163,-0.7938836989015448,-1.0333274489864581,-1.9978056053662572,-1.2526704415450687,0.4359543048761225,1.2532389878321517
-153.0,-4.197977460174276,-0.5821041889519247,3.615873271222391,2.344121427203043,-3.9452958040735093,1.567656341953756,0.30257486928786753,-3.1045374901330676,-6.560909635886806,-6.1796402863331945,0.9953886219788315,1.9313444394868424
-152.0,-4.941805537812057,-3.1768110214555048,1.7649945163565695,4.010685221262432,-3.3102112238091594,-0.7263173900276167,0.8210174851588858,-0.14673923532422106,-4.213730259824956,-3.386239583209599,0.8109657394447711,2.942936415313995
-151.0,0.691343202734676,-10.884014689998867,-11.575357892733539,5.124235620766681,6.100222613535281,-11.24584658715188,3.610364449855573,0.4900480906807563,1.432643034862719,-3.000565813393237,-3.3747750982907965,-0.6422392024465019
-150.0,1.5486280050604093,-6.4082254919930755,-7.956853497053501,2.457074134334982,4.72182986112316,-7.199493351066391,6.098048911181095,2.5964748033864535,7.43818003531101,0.06618680439602231,-5.1260943966456605,-6.623662446317094
-149.0,3.6682158341767943,0.4958128024523374,-3.172403031724443,-2.1313820809084203,3.4704545829187374,-1.36119097569315,6.681620967303802,12.280955973447748,10.969226908493354,7.62247020104198,0.8275032436940211,-4.395197518492251
-148.0,-5.475807769801078,3.752483419726242,9.228291189527289,0.8964416447874084,-7.2995644345035355,6.536781461617869,3.195051083857744,1.5794086261594806,1.9187610118860547,4.353135647037133,4.1676679155700835,3.258064353638192
-147.0,-0.02884108630724347,4.790389276313697,4.819230362620915,-2.3377895951317273,-2.4486131816849497,4.762253996086627,-5.925828657386565,-5.63237043647305,-7.0486281167471505,3.426237299480646,0.4060369049930892,1.23942918511954
-146.0,2.208948503134174,8.369950716650296,6.161002213516098,-5.315815166030154,-2.000630452837301,7.293606608481776,-8.388671081843134,-9.100150128457045,-5.310782653888136,-3.4768413702960896,3.1762283542340857,3.447180419506468
-145.0,-1.3555899344572557,-2.1491816537732547,-0.7935917193159989,1.7342828143254523,-0.3080996214854439,-1.447290453598335,-3.58244167981063,1.1159834025056314,-1.5527668108108816,-3.47515287001552,1.332769633506167,1.771348731437738
-144.0,-2.45947264113793,-1.6087701290345486,0.8507025121033789,2.020855414788469,-1.6869933909431991,-0.3547038826316885,2.830024040647042,-0.7162662414924372,0.21013285556945682,-2.20377909737217,1.8643909989293048,2.8842300127514777
-143.0,4.028383510910975,-1.691766491734914,-5.720150002645907,-1.1816514259131925,4.915145381292893,-3.757282854488892,-2.0297043542944735,-3.4200824495785125,-2.156640676574054,-1.6268053601057542,-3.4589278161373325,-4.953175420931574
-142.0,0.1401509491640176,-3.4110042797075857,-3.5511552288716235,1.6955747213568657,1.8809820230432464,-3.450051249858213,4.053766989684677,5.1106472567691075,2.2937970855441545,0.9437864428113736,-8.229693286081208,-3.4208764105352674
-141.0,3.795279871179093,1.298724773260556,-2.4965550979185527,-2.5750902874419968,3.177335057522897,-0.6447747153222898,2.904629389222123,5.576221707403585,4.700923288861617,0.44947791695448347,1.075813055385599,-1.9734090842207497
-140.0,-0.6563002360406758,1.6249829215892706,2.2812831576299413,-0.5242583533228714,-1.5179969535420992,1.9849401916076672,-0.3320342755083652,-3.511998109562901,-3.1714626159172634,-0.5753545726302292,-0.04640692104556731,1.2823167622690779
-139.0,-4.708487197363386,-1.9195397630942501,2.7889474342691387,3.341023583285707,-3.798109118759052,0.38401450561347206,0.8994431592503123,1.2335229322506511,0.6343196453300496,0.4063670652994389,3.1001733052149114,3.961480647353671
-138.0,-1.4042226874398032,-6.490067907748633,-5.085845220308812,3.9645904392655,1.8709453087237187,-5.764746905703996,-1.2580788285687914,-1.1422025465558507,-1.018677458188848,0.6749576075426433,1.1972337604890635,-0.5428567441944334
-137.0,1.3867688271901686,1.7614115296491186,0.3746427024589516,-1.5623363371001737,0.5371584264807638,1.0873671242144698,-2.7472013855069592,-0.628953053473322,2.0292659317063864,1.0401790471323062,2.892728015913458,0.2967896337150989
-136.0,0.07247786356647246,1.9135278437708612,1.8410499802043752,-0.9823919403611171,-0.8527368481313075,1.8954084707961913,3.201621218394567,3.6761174551852536,2.50932367822734,3.5269117978600777,1.8920079201835225,1.3769505094008903
-135.0,0.8240427168008163,5.86452469605699,5.040481979256159,-3.4092277620480846,-2.155968021644423,5.472609511775573,2.562887173123896,-2.4522240381260794,2.2690256189054367,3.5124864304488055,-2.4267718042970254,-1.1402436057754834
-134.0,-1.60874337992141,5.343640134727787,6.952383514649223,-1.8468979070036649,-4.329958519952634,6.093891344131428,-4.560069528777264,-1.6272977594520508,-3.167787538871803,-3.514440921383037,-1.7521318840546265,-0.9552351291093018
-133.0,1.0471547299651887,-2.788310948090227,-3.835465678055313,0.9003582102345535,2.4683311701760475,-3.281646630057108,-1.9561688630658256,-3.359096259732672,-7.887437505648456,-4.075978139668407,0.08486340989692032,-2.026123080043918
-132.0,2.94101123318838,-0.635978017822262,-3.576989251010522,-1.1909721429739828,3.2837172434906936,-2.149804554224017,-1.6912180418447398,-0.10405626703870496,0.2871153483095763,-2.998933028564066,-0.8864716265031987,1.5114924885184173
-131.0,-0.6692267346321983,-0.144037286647845,0.5251894479844315,0.4574244570427154,-0.5742101805617881,0.22977871898157032,1.1990353432861725,1.7856791352869994,0.4295391541181682,-2.316501048660183,0.48946597819618043,2.4057985901928607
-130.0,2.343118860012244,-10.93092657673882,-13.274045436751077,4.275114837039263,7.830477496517501,-12.139901135861134,1.961683929008704,4.2883168737407775,3.592028621980076,0.45016242453459676,-5.254663199991716,0.1672307881941908
-129.0,-4.956543331904385,-2.870205120810077,2.0863382110941826,3.9013228490976792,-3.579182866797319,-0.34970088548344247,5.498968334218983,2.6140085988375263,5.989402241372524,4.082858308614428,0.3981468355497425,-3.32416261184083
-128.0,-3.2805671358946715,4.338620480038897,7.619187615933433,-0.5373774885351186,-5.429859985951971,5.942740177832528,-0.3655473121222719,-3.0504402977828877,-1.721429061164777,3.5598991224812737,5.823856660177604,0.27546324132769107
-127.0,0.5638551352961843,3.8485347976020843,3.284679662305833,-2.2138325916493495,-1.4199307666444998,3.6095943131714994,-2.859790402997657,-1.0556312589991272,-2.2202154825641482,2.102061885510931,0.5530856991959876,-1.665294375947679
-126.0,5.805763359383112,7.839398380953309,2.033635021570221,-6.831899034521238,1.9057489757034358,4.901445716741588,-3.7310272342854507,-0.9490038589323408,0.6530192645823594,1.1323011740726598,0.45855681239701673,0.7945020793849445
-125.0,0.9794210424484997,2.3707868831978924,1.391365840749469,-1.6089641098170024,-0.18335503150854288,1.9256107783695975,-1.0271699486230368,-2.0159061596104992,0.7789521072695802,-2.9918359696341654,1.8490632852660245,2.2506412306605568
-124.0,-0.8238288283164497,-8.174106029941743,-7.350277201625213,4.482053594285068,3.2918193491199235,-7.795691533842671,2.9606745704649193,0.5006767821372786,-6.307503537468881,-5.902256580265585,-2.1077895287997377,-0.21383213199773254
-123.0,-1.7882407370394553,-8.792242060898017,-7.004001323858524,5.268302712686449,2.6447230085297266,-7.931228332498054,3.9514117573989966,1.0895223046596798,0.6301384935738983,1.6682901585625078,-3.930401540677276,0.28913681814860365
-122.0,-2.625980548637903,3.8559473328753855,6.4819278815132755,-0.6425069179996199,-4.5874074873451125,5.214797444800298,0.26320951628213174,3.0038855781086955,1.1449203314903424,-1.7219632489185104,0.38110408111372207,1.6977594648502237
-121.0,1.57069471344305,10.486659284202677,8.915964570759584,-5.983273569912513,-3.6999250333289284,9.668909534795857,-8.582442602380281,-1.9377877679542805,3.767870776757022,3.4876040364306164,2.340555240757978,2.839262255165097
-120.0,0.8695707066103546,-4.322492528487505,-5.1920632350978995,1.6876753183141524,3.0056735162159187,-4.709662298515082,1.1591475187033584,0.802226692132809,-0.5527793908929424,1.5962488723695916,-1.9433799850423574,-3.666446499457587
-119.0,-5.124785723223685,-0.7688284217461809,4.3559573014775115,2.9825248296533986,-4.767483901570207,1.764753262987992,9.111006712206992,0.2889139699882914,0.8364311784883148,0.6344666330193318,1.160612547354117,-2.3993876629582016
-118.0,3.2087966185544268,-3.796864871358034,-7.005661489912376,0.24864495193666114,5.154320112802853,-5.426839631477204,-1.6749553366138397,-0.8084045978352146,0.04368405329109093,-2.8214012595136793,2.14644023324787,-1.757248372763125
-117.0,8.73151037236726,-0.6692635075648143,-9.400773879931954,-3.9979838796734226,9.108483831255754,-4.978281137482439,-7.57772504292028,-7.315157871192343,-5.059748594943954,-2.2700437435551652,-3.0068284954169675,-1.7538503258886682
-116.0,-2.1743022386018707,6.617632827366645,8.791935065968604,-2.187047790423523,-5.522372011466481,7.685769912214987,-2.408345009393609,4.330415044082363,0.8413902472671975,1.832821156068355,1.7638918452907342,3.4111334073214845
-115.0,-6.346053977270105,-2.922155913522401,3.4238980637477274,4.59206469085521,-4.845390044685183,0.23332554331487465,4.098193754593564,5.531523762757048,2.8017650396155522,1.8864058487664102,-3.045936884667108,-0.0020976900518729913
-114.0,-1.0943408208130334,-2.509103109960906,-1.414762289147908,1.8397844622163388,0.12381436540511359,-1.980265627679844,4.9305313677106675,1.4621264325474268,1.136087062089783,0.4446543841217203,-0.9093293122414573,0.98879003929605
-113.0,-0.6699978181286492,3.6236595851948135,4.293657403323392,-1.5179124571521512,-2.5140222649549298,4.015809745621261,3.9085771982445054,-0.45159696050862475,2.4469936553553153,2.8153060670995673,4.750898714143946,3.2321662184499647
-112.0,-0.9826558327741302,-4.675386697272892,-3.6927308644988193,2.78568063203641,1.405498577623678,-4.210990681072554,-1.9647212149596796,-4.6548468553736715,-4.13120300729439,-4.948371647725665,0.11589122890574788,-1.3069029083888342
-111.0,5.203987300492461,4.540807642236929,-0.663179658255552,-4.840211906154977,2.9071487793365356,1.9055052080521844,-5.8756112894036105,-5.482938352475461,-5.3111818811881655,-1.7985516481695203,2.701904114486831,0.3034570161851078
-110.0,2.4922151111603514,0.9594372833863755,-1.5327778277739503,-1.6963209637916248,2.0632037356848705,-0.24718350884208717,-3.1832936026024714,2.8178205223317074,5.817650849515069,4.2662384991997575,-0.31676317821162175,1.7597362050602605
-109.0,0.9729201337983111,1.1637233235305582,0.19080318973228938,-1.0395567373873147,0.35723483406156853,0.6340331705002773,-2.64933828091283,3.234465906843633,-0.31296432351737624,-2.2009501492216517,-4.266298202633396,-2.9322078451202644
-108.0,-5.346013713945967,-5.5163568551608355,-0.17034314121482436,5.383105673326033,-2.6312826817222414,-2.8086339053957756,6.8083119999093915,2.0491603231951494,-0.6693092393964798,-2.392460658266908,-3.5477110827430742,-6.0632538144870125
-107.0,-0.33947519795701275,-5.304237034376068,-4.964761836419045,2.8569718500134647,2.3360020246003916,-5.097108863147692,4.37763040803413,0.23472197083811164,-1.5976364385193325,-2.233935650029293,-4.344753510722442,-2.0373094458160375
-106.0,1.4313950074313824,6.807486214905104,5.3760912074737055,-4.156704930098144,-1.960781819658253,6.055823473670353,-0.06423737080570069,-1.7143480855620508,3.3167031250166046,5.778225503025195,1.9243448843713518,7.569241553288406
-105.0,-1.241795000143669,7.669245750391516,8.911040750535161,-3.2434004509720777,-5.073722868569841,8.260645390801908,-3.0171350539429023,-0.61835620482037,0.9273807823610052,3.577249798793766,8.669590591965685,2.5539980708904007
-104.0,1.944863584870817,0.13635445677375202,-1.8085091280970844,-0.9832902348330868,1.8756813439602342,-0.7813051294842199,-3.4042890227983946,-3.1531967695136625,-1.925664530838974,1.3620022400378877,5.9202695430159356,0.3345925556113585
-103.0,-3.2577769062839703,-12.903902608993631,-9.646125702709663,8.067820102661644,3.1957076225245937,-11.296193680857217,-0.6326632624247157,3.3599312625209623,-0.24031966888734901,-2.4850618576210923,0.5734808781969187,-2.5727232211777333
-102.0,2.7468559886283916,-4.869133570214221,-7.615989558842598,1.0560639005498098,5.191325230477623,-6.264680632958422,2.7590620205979426,5.977496585810442,3.273575379678955,-2.318283327780109,-3.814066759164253,-0.4781921672264531
-101.0,0.5802216420897102,11.842681829455952,11.262460187366251,-6.209996732412671,-5.318747376958598,11.525773854444065,-2.0653570331734095,-6.082466493941487,-1.3623572267881054,-3.2893046592194177,-10.715389737520788,-2.2501131116292195
-100.0,-1.7100265776083938,5.80639867408473,7.516425251693143,-2.042847813483261,-4.655556673182781,6.705873736981084,4.995665955129298,-2.4779138060572645,-2.7740867692531563,-1.8299375175429526,-0.7692934056316441,3.0840901331520953
-99.0,-1.3113702515746033,-5.777498144311153,-4.466127892736524,3.54973047236203,1.5480810887103695,-5.086193138162143,-2.337692848838248,-2.742759512425568,-6.761982822509485,-1.2358676826285233,-3.171501278336046,-1.6560834588754125
-98.0,4.820517349775084,-2.0030310857779674,-6.823548435553025,-1.408348530256417,5.881477092436856,-4.465073290328647,2.0354004653338533,5.27672971875121,5.410578629875909,3.628788441920875,7.552476144844926,0.894450916831774
-97.0,-2.5872182092869447,-0.2854036823490915,2.301814526937882,1.4268047282935383,-2.457988377658298,1.0280506319802503,2.0015883464311273,1.07683337981668,5.236268879446545,4.203038126937074,6.404896127167637,-1.9395098364379457
-96.0,0.8653546522830394,1.4888099009068867,0.6234552486238553,-1.2004737765290172,0.10898286599181045,1.071508747224792,-5.5464060371541395,-0.7373432595606426,-1.9365737705747397,-0.2753684114866104,2.38325027892171,2.0670741282895873
-95.0,-2.566353691913187,-3.682518494074799,-1.1161648021616464,3.164175296773618,-0.7392871913253312,-2.4635781021625576,-4.1698425001913915,0.1520267622564203,-2.417365699172048,1.1729956335572118,-2.9407688412387336,0.7073116104544727
-94.0,0.02500365867727994,0.6584074457874745,0.6334037871101326,-0.39490956469292926,-0.32332368765584585,0.6638827340985629,0.08007761259978174,-0.037216884155572935,1.7947279638585427,-0.8771422795961962,-5.490767122569308,-2.055442015236694
-93.0,0.7254159284775002,0.18414941475933416,-0.541266513718226,-0.4386669751352352,0.6863305639432438,-0.15259458887178307,4.25663706063871,0.263034382412175,3.0751845011919237,-0.5495545390409575,-1.2344283834201621,-0.2851429776325125
-92.0,3.8997341700599697,3.2622044837310504,-0.6375296863289586,-3.566992972644823,2.3138539721781046,1.3501054087548525,2.699284079948315,0.13134387104798584,-1.8537357593765211,-0.5758555611315364,2.3198041138221814,2.2639597563570804
-91.0,0.08025525767591568,8.327339795215845,8.247084537539918,-4.183887643354983,-4.1257386314027,8.260077485011259,2.6372174196716145,-3.006445001474636,-2.6934974299557917,-3.278366410757262,1.201661269294323,-0.1256777644769329
-90.0,-1.3784001885854082,-1.7250154242778533,-0.34661523569244457,1.5841643123644427,-0.5680022040497525,-1.0496020917364492,-2.3389463609701338,-0.41867560441549667,-1.2903824281593892,-0.5045384791654421,-0.2409208480078847,0.8041974928613647
-89.0,-3.7413539076690117,-9.616494570549248,-5.875140662880233,6.648349704669173,1.0833466460649084,-7.749355201701426,-1.679466851293666,2.442628975521166,0.42134822833926133,-0.35346619133360896,-0.6716890885099991,-0.6925835764661291
-88.0,-6.491058919939984,-9.189004252982564,-2.697945333042576,7.823954093787945,-1.8892266875715025,-5.9417139359723725,-0.03334530396650304,2.6487255714371596,2.0364194801584397,2.225367252402844,-2.0958505052376,-3.982301139629716
-87.0,3.594560728901487,4.282815717050849,0.6882549881493851,-3.9454147535769652,1.4545112059714183,2.4870939807588277,2.2824125918006297,0.6005839495596317,3.4220305367070987,1.2159950980768346,3.1820194394519308,3.5174613859470414
-86.0,6.947200444383828,5.9729399409481765,-0.9742605034356208,-6.464799737545749,3.9612443860834983,2.4960780268344687,-5.552604433759658,-2.6048230208118492,-2.535710230506589,2.085509816255834,0.8599649714782653,1.7900852271205585
-85.0,4.920792082388918,3.8181796030919717,-1.1026124792969245,-4.37947266103518,3.0175095173906916,1.3470971134667238,-1.8119665851978692,-2.7511067447000475,-2.685554517018457,-0.6708425735747454,-1.6173950909762673,-3.8350758299108847
-84.0,0.18606197079339637,2.073846915209379,1.887784944415977,-1.150292563483156,-0.8341719063966009,1.9625969215357273,0.7975677190663686,-1.7524256869327934,-0.4662409457151069,-1.5032701950235305,-2.181870695240005,-2.895699050625426
-83.0,-7.462486519933695,1.2156962522926706,8.678182772226341,3.1696373115004617,-8.039341652986689,5.001974948575462,5.0940504641402935,3.515318040898924,1.711826472644422,0.003903416533456161,1.8178350833162495,2.0039977225262193
-82.0,-2.512782784457647,-1.5118185981380976,1.0009641863195125,2.0477031618077524,-1.790121106529603,-0.2815660107419431,2.7985769611173983,0.030310706338047222,-0.5822680435828694,-2.8565012832295715,0.048099543216972906,2.6450815891843606
-81.0,-1.9120171015509047,-5.274252903901755,-3.362235802350881,3.542273954337989,0.7033614943945099,-4.265418364705544,-0.5483341433006028,-0.8569912215006583,0.6107231301293675,1.964601454014598,1.6174775830809092,6.519845996792685
-80.0,-0.6416596786920531,-6.364278934819697,-5.72261925612765,3.527096991411918,2.5251035893377294,-6.068144234539657,-3.740743704905724,0.8731862783225015,0.20948388335112578,0.5643730678375072,0.4264662356171484,-4.149324559092358
-79.0,7.929671179375035,-0.5906134228700193,-8.52028460224504,-3.6462923865898147,8.210466336007597,-4.5798734289268355,-4.354318203381435,5.97972864279471,3.3651750231227413,1.912650398305558,-2.124893613987726,-3.3670544216118614
-78.0,-0.9890275769337142,6.609348318200877,7.5983758951346,-2.8651655781922103,-4.232842450564807,7.0774539247922075,4.169059198700836,-3.2386268156483746,-0.1921244061589975,-1.212496574173393,-0.07849695099639653,-1.5675924428771335
-77.0,0.21383746336556197,2.672848836666691,2.4590113733011294,-1.4189340565168664,-1.1459224136379174,2.535307703780201,4.725482677149821,-3.9519706403181685,-1.9005949525135168,-0.09009138747539519,2.017743718323239,3.0205528144068166
-76.0,-1.4390014103033213,0.4524253614437681,1.8914267717470863,0.4392894192919239,-1.6939292543701616,1.2148353625616362,0.25342243661315456,0.22836502562314775,-3.555593083900549,-2.491449600826919,-4.7083343775321,-2.7999303238362097
-75.0,0.024921628614215763,2.3083912719563733,2.283469643342157,-1.1415942924660816,-1.0832562018291934,2.334244081150657,-5.712873505275733,-0.4851043988340812,-0.8393184314610806,-0.5524969264615327,1.0481104979632523,-1.6765187618204178
-74.0,-0.6630997791785537,-2.9127716286877154,-2.2496718495091534,1.8138139667198372,0.8367807117172519,-2.5458039895169557,-2.5051952295514957,0.35432349145789843,2.377880686290284,2.8952047668680327,3.4940379973651132,4.625050982639091
-73.0,0.04848816785207921,-0.7284018694939907,-0.7768900373460552,0.3672345138665949,0.37561178232943837,-0.7971168959947708,0.9416927467139007,1.1508132587318372,0.9272264516193416,-1.0011032507483357,1.989524198604911,3.3335059390002777
-72.0,-1.0190152723113368,1.2531814388260718,2.2721967111374193,-0.08858066344748294,-1.684791890126256,1.718130278406947,0.6182490990558963,2.2813233964101025,1.6427988061024419,3.3900863148264966,-2.687678600763166,-1.9817150123837077
-71.0,0.5706216771655058,-9.986664316512943,-10.557285993678448,4.657520755050684,5.5220092832509104,-10.237609600474029,3.7796856391483544,-2.4824594528593678,-3.9750547634805335,-2.8996588215176438,-4.577368202083326,-3.5538123925549443
-70.0,-0.3147115139268385,4.685828052620943,5.0005395665477765,-2.2388011453907772,-2.6236065120047307,4.798916544720423,-0.9688783134404271,-0.8305795733711371,3.337180361380643,-1.2849891374825035,1.468829405289839,-2.6312633070242715
-69.0,1.1219175186120165,6.606731184974278,5.4848136663622515,-3.8439341019391016,-2.149006924916871,6.0805297712396404,0.309402736728869,2.458103551064201,1.608908561125238,4.417674735237585,2.124435289292064,2.351116024995783
-68.0,3.5102094662776877,0.8325235951713603,-2.6776858711063416,-2.156972733820804,3.1270311078527104,-0.8870160330765686,-0.7330841288564254,-0.3198930395888153,0.750425027708741,-2.1780888734770842,2.722856630898963,3.952059514651268
-67.0,-3.8512297166261193,-3.7827326099710867,0.0684971066550174,3.8268689780931404,-2.0025792771394553,-1.8989033193723166,1.8341547418229143,-2.618513832069083,-3.679795974595262,-1.1423336525641696,1.566369999117309,0.03646997539447683
-66.0,-2.8737533381653035,-3.134518441918294,-0.2607651037529987,3.0132930361382924,-1.2661275797246938,-1.6591853821502611,-0.206756345370421,2.9922739368551436,-4.720873558726672,-3.6043812877041157,-2.4861606579664866,-1.1843373242278656
-65.0,0.4132836024184574,-1.8234294925544785,-2.2367130949729335,0.7185546054530423,1.2909234587730756,-2.069693763511219,-0.9161590580906949,0.4479340206431912,3.4405144981931963,1.625303602747243,-3.647653301856317,-0.329496396733301
-64.0,4.056825731721408,4.145453021298561,0.08862728957716626,-4.157278985645452,1.9532181844843663,2.1551261936474724,-1.6618222539932408,-0.15729534121438396,2.150095263726297,0.891661720800719,-1.09675631367166,-2.693051420689254
-63.0,1.9854694093859668,4.488213275573178,2.5027438661872297,-3.2021153423893702,-0.28766285422476745,3.451702825592855,-2.5403519993609747,-2.8520777538090676,0.3570667185304752,3.1541723905505026,-0.5215736536858064,-0.714791899236198
-62.0,1.0314809149171595,-0.4910098337121369,-1.5224907486292751,-0.22339051461396875,1.3278453752518509,-0.9764232472325054,-2.846701529847508,-2.9324858001887186,-0.2672678046696919,-1.2145231226229265,3.9583103681429703,1.2952605197784355
-61.0,-6.431592217514483,-3.170075583846697,3.2615166336678074,4.777677169412602,-4.794373688750841,-0.007437483460863037,5.782790462821251,-0.3712655502521456,-0.9678673223658507,2.3766645364765417,3.256185410716884,0.8155260365248014
-60.0,-3.377143384243306,-0.011684264423126756,3.3654591198201977,1.6739314686423443,-3.3958225913003623,1.6996116737478135,6.339255820166636,6.106351875842144,0.22833905327100956,-0.7662072548909468,-1.8603524518190062,3.5050378356040146
-59.0,2.2761895791763087,-1.2181916525509053,-3.4943812317272034,-0.5538436764808348,2.8634320501593287,-2.3328486863297337,-1.4371474022671995,7.147425784546675,2.396386913403043,-0.16938385522677846,0.4823643894929308,-0.15609580691892688
-58.0,2.0239207654603586,-4.045440642504291,-6.06936140796465,0.9758837867916139,4.0275255904070315,-5.028999492081604,-3.7434163627960384,-4.79379091612739,-1.7028659437481228,-4.148833983073227,-2.5949540207790722,-5.109168566033975
-57.0,2.741580623424329,1.831933082186687,-0.909647541237653,-2.2551914526107515,1.8087120544882267,0.419170336186135,-3.040442514364305,-4.03720526680762,-0.20791536230911678,-0.3208741479585149,-1.713943731312538,0.11680177845322115
-56.0,5.182617715916402,6.827528462888215,1.6449107469718072,-5.983887881160166,1.8319905630165914,4.282596200937795,-2.681976067296404,-6.839027199629246,-4.634686162068965,-1.081879998686951,-0.3075765215456183,2.2503490177299525
-55.0,-4.6894769625646715,-4.981417982428215,-0.2919410198635348,4.8515720988520155,-2.2142380203519103,-2.661017857518023,5.892494581727425,4.294348091496725,3.2165635816435025,2.3246480507866725,2.864523378438128,1.8804802668861413
-54.0,-3.9575083092030736,0.10363886818233681,4.061147177385432,1.9445951297473996,-4.0259484226415685,2.062189538766588,-0.1759890994249993,2.7859852399308522,2.881930240742373,1.5640978549854383,-0.9775701989922083,-2.7645223218667256
-53.0,0.12443053073037369,3.600019807678007,3.4755892769476597,-1.8376487108015402,-1.694733042877678,3.5168457109678797,-3.415656213296432,-1.328044606825327,-0.3979838320725746,0.9882407399895654,0.32775606381011796,-1.0120234778649773
-52.0,-0.002135934836633324,0.6899110943985693,0.6920470292352179,-0.38878127407882557,-0.2913578741741356,0.6650522754757463,1.6108578363307653,2.3819861599229917,-0.2942899618316056,1.1462101864442484,4.2383072674544815,3.328452335397798
-51.0,-2.4154140056297586,-4.745814857927454,-2.3304008522976996,3.5439402608576827,-0.07042087898034738,-3.4925555530387404,7.7892020814736505,1.4687577313430826,-3.748755946376309,-1.724205878166721,-2.4096776415747474,-0.14860406722625752
-50.0,4.851876837526506,4.083512090249732,-0.7683647472767934,-4.49965963397509,2.776868699772792,1.695725621360125,-4.226214652082372,0.8885670903407586,1.1426540183904117,-0.22492446869930727,-2.8995134768570687,0.07770506773329361
-49.0,-0.40047848694213606,-1.115101226168081,-0.7146227392259663,0.8050041023007097,0.19765948307472114,-0.8827320151462399,-6.736294866764678,-2.151684311676414,1.6428711429744354,-0.7586475940644667,-0.5237561168467981,-3.3237404275749123
-48.0,1.7394043684917875,-6.057337958841542,-7.796742327333346,2.2030658100746434,4.726391994256929,-6.9777967523528925,2.9459842808195136,-2.1817059892042945,0.3552842902441742,-2.1788885466796715,-1.4005600867785986,-2.517409498143548
-47.0,0.6293941919306657,2.0410437466220763,1.4116495546913983,-1.375016920155207,-0.3554339056904807,1.6732205899530892,0.5026950594464047,-3.62636736050204,-0.38309136383538955,2.3826418517078736,1.7224388004069646,3.257342785473247
-46.0,-0.9780486590730486,1.641284232124432,2.6193328911974816,-0.2982768228525581,-1.7619916429977902,2.155256194735272,-1.757239325046867,1.625492551717688,1.8284891997208808,1.129510772379077,3.7392299913692533,2.5806812567003607
-45.0,-6.099052648611168,-2.7736125756131247,3.3254400729980462,4.386087515962704,-4.751287348141179,0.30223088396722453,3.795463951603404,3.8239858296124365,0.5299918797203513,-1.280573794270687,2.102666900250508,0.7655093481373032
-44.0,0.47839770037911045,3.232615278588919,2.754217578209815,-1.8302087190003509,-1.1727310414962506,2.944997583182844,1.7918167052099452,1.3045225060127126,-3.768549595029066,-2.3393498487282423,-3.6398691076045093,-0.957931837524594
-43.0,4.499090132560624,7.703109557633292,3.20401942507267,-6.076829634587607,0.6960310335778723,5.490817863083641,-0.16599619803050425,3.2910950169818687,-0.35466124886570327,2.85670719617315,0.197448346227157,1.3698398216038736
-42.0,1.770036009889875,0.45757689110295807,-1.3124591187869266,-1.1668191108086563,1.5152387122609918,-0.3810127011501512,-3.772630464611657,-5.210542218823059,0.552598119984362,1.7410873151333512,-0.9748987700586885,-3.5832817316461445
-41.0,1.7841858169712754,-8.382462221590664,-10.166648038561961,3.3288996655091303,5.952890555556266,-9.297219960023545,-2.340552988117974,-3.3487799809064227,-0.2276768237364427,-0.2944644806115416,-2.2021823958329763,-1.5444618671460744
-40.0,-2.00530013056308,-6.012761211919694,-4.007461081356647,3.966298673344939,1.0596478310821245,-5.0251293581244445,0.0028960071084500605,0.4186502137310406,1.231290612531488,-1.7841688632367418,-0.9970616986578285,0.5010630132354548
-39.0,-4.225279133780902,3.3776471918054405,7.602926325586309,0.46739067010972013,-5.933584661556432,5.478558786380198,1.828331204732745,-0.9720684381268908,0.06591626107271353,-3.595440095944229,1.6780406743740033,1.256800135679344
-38.0,-2.3080274738488225,5.457382328150232,7.765409801999036,-1.5239213185101128,-5.05782620334204,6.597318362844765,2.5988295558670043,2.1600203679374945,-0.6109453168784011,1.6287634891227107,3.204732617040018,3.5022061155422315
-37.0,2.1124914938190162,-0.8082584799472778,-2.9207499737662888,-0.6754962934826595,2.569642005025663,-1.886294220249264,1.813640523331037,3.9857351861207686,0.6213388540937276,2.198872980626688,1.4018713579876696,-1.2458845459599224
-36.0,0.7748639699669673,-2.9343829145346536,-3.70924688450159,1.056451616556675,2.2084463479401166,-3.27623873187318,-0.3755694258849479,1.8061149032408186,2.682248757533581,1.67124544602042,-2.247336129107345,-3.4954205272297694
-35.0,2.6061209285626195,-0.37838703919327343,-2.98450796775586,-1.1423975220713318,2.7511130926659844,-1.6484834231358696,0.9942478045987057,-0.9795213038261203,0.1241535995819415,0.7060109054104583,-2.463576435668905,-0.7123157426407405
-34.0,1.9371697877066807,2.771265537033636,0.8340957493269698,-2.3920965903601576,0.5743050248165551,1.745446941637962,-3.240036481644143,-3.469985601964257,-2.787627891079913,0.22722838785149163,1.8147821845277918,1.6827801147550736
-33.0,-0.3090473107516172,1.6628740638764987,1.9719213746281046,-0.6465777581958421,-1.128452559751591,1.8303693217412373,-6.325313849677143,-1.947049376909028,-3.65414903229578,-5.302435043607984,0.06549045259945815,1.435791050053058
-32.0,-3.3890756432119593,-2.584345346041971,0.8047302971699676,3.008931598243848,-2.092288332345326,-0.8816802217901434,0.5945006482807393,-2.0590892494098454,1.572090176130179,-1.84469140149457,0.7722049094048719,1.1383759568098328
-31.0,-1.9564293580354366,-1.6191892554143417,0.33724010262108806,1.8070387683768456,-1.1447849139977242,-0.6341607307743781,2.1124228521086597,1.0539377659084337,0.15416410868258418,2.1708663509905555,-2.7233361874775266,-1.0792772880066364
-30.0,-0.007410506510150627,0.8054091946582307,0.8128197011683984,-0.37710603060708525,-0.405526954614287,0.8172001108040603,6.284452201126902,2.7074788213443837,0.6284135163084136,1.4707741598539439,2.6137779682058575,2.1988914541608438
-29.0,4.448806200805075,4.957739414000875,0.5089332131958322,-4.674981286777166,1.9810664795862363,2.7439570264586797,0.8340062076441144,3.386852603897254,4.5417156590585925,2.5208901045480685,0.5565304457765157,-2.3065260852915888
-28.0,1.6236038657026344,-0.8590186361217069,-2.482622501824328,-0.42610663293158324,2.072775237887174,-1.73632759911315,-1.739485683241804,1.5936783866307425,2.1676881960005816,1.8937127031727146,-1.1212363847303055,1.3312239060841158
-27.0,-1.5137830806987875,-2.8860596684042,-1.3722765877054244,2.159605248312555,-0.1214647888479421,-2.1138241360139163,-1.1467063806176592,-1.2652942306889359,-1.7802315076214388,0.6158929540992897,-0.0709794907115186,-3.5294565222010155
-26.0,-3.246423501000356,-4.661694692617454,-1.4152711916171314,3.9124125751175076,-0.959556088582209,-3.021518391649747,1.5308044583051614,-4.895101750596547,-5.3731154236320515,-3.930972250588761,-1.4003796264813768,-2.0803180166025066
-25.0,-2.9844584329563726,0.5817423854612775,3.5662008184176153,1.2330711839740753,-3.235906558694138,2.092470088436046,-0.5556021846875937,-4.81676233685787,-6.058370982886681,-5.128661574241038,-0.3546945116421293,1.6885831912954496
-24.0,0.45040656726843964,2.473650646728199,2.023244079459749,-1.4370386883882635,-0.743996979243772,2.2687015206572125,-9.484658749103145,1.8549735624225474,1.4122871694006571,0.5237105264647752,0.16339070254688373,0.8105780631488093
-23.0,2.7568960443719472,3.6336328093386836,0.876736764966755,-3.1750356055475586,0.9057720460459577,2.1986246119193944,1.272124877802268,6.297537156451413,7.097696960520725,3.64375374439555,3.7069220080412344,4.8972074851276615
-22.0,1.7487877520571355,-0.4648965696994316,-2.213684321756519,-0.6221768852819882,2.0270822996369606,-1.3153349804637897,7.098864908205458,3.0098863301590475,3.6631179702266268,0.45734274511000717,-1.04361134062853,-0.6223649438817418
-21.0,3.8699997870196015,-2.6924458945729244,-6.562445681592482,-0.6434902632774983,5.183974877670232,-4.6023118545198365,2.972050186647802,-2.8640611143693198,0.1056557281591779,-0.5669955266957434,-3.3154298386923866,-4.648838252754535
-20.0,1.6581036713023605,1.5309525027509,-0.12715116855145991,-1.5630706819205515,0.8598981953210458,0.648645912007485,-0.7786490837540301,-1.3780460550823062,-1.266723743613054,2.7367518836970777,0.44130936997694814,-0.51158248009216
-19.0,-2.5360454400982784,1.9832460032066836,4.519291443304916,0.31552578726168296,-3.4835079096980834,3.2764100308733575,-3.1178791307666978,-2.622449734418197,-3.1626633333572456,0.8272728421043496,3.0922354509434578,2.0809632486187297
-18.0,-7.881643205301859,-2.0312109554118143,5.850432249889986,4.921631942393028,-6.903666381193759,1.9341056538277668,-1.1122329541769416,0.8212320206428163,-1.3314162421496776,-0.7354841765200407,0.38961362995191007,0.8555863917276954
-17.0,-4.370639160455511,-2.223262985711012,2.14737617474445,3.2621267352054684,-3.2214233548438322,-0.09255130212517704,-0.26009798040054477,-0.8998868230739077,-3.1636388966656463,-2.6094553463584216,0.16234359044940777,1.4890646228870081
-16.0,3.907483681743474,0.9594244900371354,-2.9480591917063554,-2.4732188024171475,3.3835460174752408,-0.9697332039910388,3.380908824446868,0.3472186299137066,0.08084106810613156,-1.6214982267122608,-0.276712862182785,1.136584107192867
-15.0,4.8041730778191365,0.8905247455739447,-3.9136483322451805,-2.8162214172251825,4.391821298994676,-1.4855616800348364,0.4162570912834165,3.2224911201015525,3.766740266479893,0.8285537557477497,-1.1136065583945627,-1.553425282848778
-14.0,1.8669913753380638,-2.804345385094229,-4.67133676043228,0.4922026286599883,3.3025824993184116,-3.7096921586679117,-3.6532667237394816,2.8509964332672224,3.621935581736099,0.22426250808139053,-6.097722393488068,-5.872753971044141
-13.0,2.845920427394585,0.7363903602643214,-2.109530067130274,-1.7720488936175702,2.435248382607292,-0.7347915778787819,-2.119077172438857,-0.3616340904116577,2.390855883769884,1.3456144499493086,2.5125500396079246,-0.026608666910412193
-12.0,4.073095572007812,2.5032041747863367,-1.5698913972214843,-3.2688468806169584,2.7839882568570955,0.42064927628943294,0.7845758659714109,-5.882067065996292,-4.871311503596831,-1.0241648928597689,2.6086234273333044,1.66035805377871
-11.0,-6.42346847796256,0.9472602119880845,7.37072868995062,2.7617311147024313,-6.849402336018202,4.193807838285557,1.7830298926531238,-4.0110090881263645,-4.956213014180953,-1.249671114204073,1.3944110260448832,1.617992038496049
-10.0,-6.501295327663391,1.4733704470850921,7.974665774748455,2.4654556495070596,-7.262167493611548,4.76117219698369,2.8802547982213866,0.8298340850688004,0.1512143539660813,-0.42030996118750685,-2.086325118413856,0.7539064284330763
-9.0,-4.615887323018,-1.4912464960932046,3.1246408269247805,3.011984045785167,-3.809945672910218,0.7781767507637329,0.10761552580890821,6.119397682167034,4.796960684719215,4.76332067220949,5.005935982581759,5.881942098702308
-8.0,-1.200002864510527,-2.2158574872280288,-1.0158546227175038,1.6725315938528513,-0.10767452169606129,-1.5716855213654135,2.262430115557189,6.117491435987228,3.9104495283924097,2.2834725497392605,-0.00037191352480459017,-1.6577540501791623
-7.0,8.668483976308236,-4.211585215123797,-12.880069191432066,-2.1794460401566895,10.75703100422912,-8.575959216342742,-3.985776529546425,-4.08518741209295,-2.5787535864930677,-2.5380836102259865,-4.811437081668656,-5.443484921949802
-6.0,9.181416987909492,2.3488990816024655,-6.8325179063070625,-5.710157218334767,7.9830852234801615,-2.267706890789359,-2.95033225409082,-2.8518582364007514,-0.7136565795083396,-2.1922964525129074,-2.0493835713679083,0.34933838078364987
-5.0,0.4389840456416927,6.463286812618985,6.024302766977271,-3.4679923520569953,-2.827063271050375,6.299882454908801,-0.22690551937559245,1.1038312675138244,-0.6915266117489525,-0.3711464727905498,2.679216496427373,1.0328909857452895
-4.0,-4.752812201403603,0.21951646584605378,4.972328667249695,2.2570957298232983,-4.829943133862399,2.574952100732332,-0.9245164770790939,-5.64079814215488,-2.4400507602966264,-0.3461673545234807,1.254219636386686,-1.7828545183733797
-3.0,-6.106920285681675,-2.3181084249867365,3.7888118606950196,4.209167233011444,-4.924664322877813,0.7144622686570403,4.304493614382372,-0.20804916915967686,-1.0970440030340027,-3.673778540721408,0.38373739326774614,0.548402767349811
-2.0,-1.7666306758097643,-6.685519967158094,-4.918889291348229,4.225909761255858,1.5952838673428351,-5.8241284315012205,1.5234752430151846,2.3527851900316215,-2.659801001629467,-1.2973374058590679,-3.4704002294191767,0.5095103067380811
-1.0,1.4943213792307044,-0.0719753265522951,-1.5662967057829102,-0.7126545056741209,1.473612793522755,-0.7635406879403883,-1.2233971927475205,2.7988824910292363,3.750744984326873,2.0198510751434418,-3.2149954789765784,-1.2712788886310789
0.0,1.2632138864044593,1.9927186478545917,0.7295047614501402,-1.6355658515702924,0.2981951138604735,1.3375022207947693,0.8416906680912399,2.418055180671706,5.7064276076098865,7.478918585655593,2.7075268458057318,1.3298761197527083
1.0,1.0167796329957155,3.390394559661531,2.3736149266657125,-2.2209383984337636,-0.6340452326336283,2.8592870224232567,-2.571385076914164,0.40299048966562534,0.881314294528948,3.965276664465953,5.793831725601958,0.4379641998277858
2.0,-0.8633382822695845,1.2914990691742505,2.1548373514437027,-0.24243588482460976,-1.5307288164101074,1.7812763245070964,1.4998302939755386,0.6139455527590689,-0.6124856870290109,-0.16831755386745506,3.934869841970427,4.65420448116134
3.0,4.537589562014406,5.463783432385372,0.9261938703708619,-4.959755694269273,1.7922809210456894,3.1766593285226143,-2.9675468054823666,-5.981826104997479,-1.6341288322880043,-8.945121571500717,-4.72278865406874,-2.8505040512854833
4.0,-1.6829645093366792,-1.1975152746886728,0.4854492346479471,1.4753918396289674,-1.0968489489521507,-0.3732691280221159,1.2610752538615977,-3.5519671661320045,-3.646910113460515,-3.5723876194061965,-2.1425051845697376,-0.3285987948839706
5.0,2.096434195911843,-7.67773484082066,-9.774169036732458,2.8243896308145295,5.915508152758007,-8.744754390938452,-1.7869600267281787,3.9569219227933,-4.796612851582807,-0.9829882000087418,-4.735892618275828,-4.205994552352529
6.0,-7.305566181482103,-2.1781117377689987,5.127454443713246,4.698897426362752,-6.249027003584533,1.5295439703825915,6.730557431021058,3.3921900224726413,2.39472394275722,4.841334957313157,1.3372458678368797,1.7454834624080768
7.0,-1.4314283268396326,-3.9224616379723107,-2.491033311132503,2.6377737613286625,0.5622353094831356,-3.239052432108924,0.6083411938527212,0.7152277643611837,2.8132735028487112,1.712846710150374,0.034803708121653454,0.3255707206273036
8.0,4.078414454156855,6.169103395119402,2.0906889409626372,-5.159148553690217,1.0164893393839072,4.0870900424367385,-5.233570496385458,-2.343619483687944,2.4203454784027976,0.37682466762136846,3.0111183772433447,1.5537042190471249
9.0,4.120364789771797,4.725203811289803,0.6048390215179642,-4.3765661908201725,1.7783926610569936,2.6905433205858067,-2.427165221643828,0.6839228207846069,2.4400976735176467,1.318213974478832,4.14556654708311,-1.1469826299212538
10.0,-0.1535728996681751,-2.7573479300616754,-2.6037750303936296,1.5034554781782026,1.2527530852216469,-2.662973897063281,-0.1481516648212995,-2.4496648614951173,-3.0942340856640183,0.6914024244988122,-0.22633894592346904,0.3462797314572498
11.0,-1.4885544691010684,-0.3490630369801355,1.139491432120787,0.8889601341425564,-1.3508113445190655,0.4092050264507906,0.854437792266991,-1.1186859278256491,-2.312931016639421,-3.049420316841195,-4.241727569879791,-0.7968550522995507
12.0,-2.852439530105195,1.6831814259345976,4.5356209560397005,0.5549901633446422,-3.7131765392647043,3.1247588948640095,3.305301102744651,1.7752151281561444,1.7710849083103553,-3.5830664146892084,-0.1788210078966348,1.960267260845669
13.0,1.8562575989055798,-0.6834126640364966,-2.539670262942071,-0.5378006146022407,2.1949671691328403,-1.6694155718996055,3.8693653068194935,1.7285864762345702,-1.1227805631295429,2.9306989933832432,-1.226049532737556,0.6310039979894074
14.0,-3.48193599507405,-1.7033381200085596,1.7785978750655969,2.5612140026308903,-2.622900045809061,0.06620968656333581,0.5116046894775199,1.0942693642243768,-1.1010102240194684,-1.2018088755727514,-0.3389844467686819,-2.088697868539872
15.0,-0.1998770274926791,1.4743354759952834,1.6742125034880977,-0.6708519079590374,-0.9278317138301362,1.6102335530326661,-8.739653528815301,-0.3867301117805694,2.1456547248088436,1.2937557290521933,-0.6602655181182953,-1.3058012800221745
16.0,1.2972065853738943,1.3485478487184086,0.05134126334460998,-1.2809109454242735,0.6248300157012556,0.6618726092780043,-0.6868025955645662,-0.3608177371283005,2.639628683662979,4.012186149085051,4.571950382863076,2.529963753249266
17.0,5.365707302113218,-2.5223257597348168,-7.888033061848008,-1.3838973590083956,6.613795135653788,-5.242703183863448,-1.7292017726410458,-1.9903577944518143,-3.7080898711763224,-2.693437757650683,0.4479180942693024,-1.7208681730403415
18.0,-1.4193432467477387,-1.897140072330197,-0.47779682558251046,1.6120734393277139,-0.503179568723298,-1.150122446511788,8.518766331291634,-0.5010245513959656,-2.5709408016810076,-1.3081797613771666,0.11558254846940097,0.33032584036175544
19.0,-2.742592866732418,-3.3297009550577963,-0.5871080883254842,3.0626634355319253,-1.0507667652110846,-1.928326852420645,3.315690607613775,-1.415573977331741,3.503347656435155,1.0728429814916078,-3.3968083356441054,1.0195479233197238
20.0,2.117914014897008,4.198338646916675,2.0804246320195907,-3.216590722198183,0.03056502645821535,3.0820656981515433,-1.2899589265639695,2.2751452461714825,0.5907331359688472,0.9982809717728907,1.9451012477939196,1.0132746296845487
21.0,-0.5303240810790553,2.2173221920239623,2.7476462731030526,-0.8282892900578293,-1.6350936083957168,2.4963236828305835,-6.415635216554268,2.5063198097957002,1.3364079759009413,-3.494534027756631,-0.6181301808336093,-2.194981497229463
22.0,-2.00599110735237,3.131653894038492,5.13764500139094,-0.5498503935831032,-3.567692942013174,4.144125247159357,-1.5829038164482543,-0.2849977824423644,-1.500419953523673,-0.4181111847705963,-3.3456896002936336,-0.8939503460610586
23.0,-1.7365504008511339,2.1351711857646825,3.8717215866159043,-0.18427083241438938,-2.7929608490099262,3.0131077649474904,0.23233244267417263,-1.439251549477583,-3.1977977759380285,-0.7105809093345682,0.8207221661400141,0.6448351185649012
24.0,1.7528607125709081,-8.558370355552718,-10.311231068123565,3.424647248604474,6.053993323506517,-9.42035313093291,1.175508386519169,-1.3643475479500442,3.370339993093127,3.4490708966038164,0.5918740881812528,3.498900470469338
25.0,1.8544967729057595,3.416266282152134,1.5617695092463881,-2.681390409631752,0.10032127108143385,2.5116621391640743,0.14190161097466336,0.622181789248577,3.0522981500850483,5.984173917612725,7.235733894333516,0.5616243792236835
26.0,1.0154710017963804,2.3619182703818726,1.3464472685854716,-1.643084698813117,-0.2038654884130191,1.807768580342229,0.9799595272811071,-1.734827846685319,-4.223324988531337,-2.541806050977251,-0.5759626786586813,-2.6444444870754515
27.0,0.6329673412353471,-8.767253392160374,-9.400220733395729,4.046304655549777,5.06007255010591,-9.12080979676759,4.498413136038,1.1919364954258795,-4.700694940277345,-3.3807981739740103,-6.350854738718895,-4.3221750747485705
28.0,-3.8324646379200114,-6.185435601570509,-2.352970963650438,4.997423066625612,-0.7760513319066242,-4.219642352616673,4.49692118977566,2.5947378861030397,3.972440990088427,-6.698352463697563,-4.085723467139474,-1.6767245562470463
29.0,0.6165514526090277,6.389202660196892,5.772651207587892,-3.509636249144376,-2.538938082969564,6.057985436914547,-6.956429968773057,1.2616212931011124,-0.4061809576947819,0.9118722114283426,2.383574726050978,3.5177830188983483
30.0,-1.6449047758214492,12.642884785149716,14.287789560971166,-5.505826889256195,-7.930493124414272,13.44742547707015,-3.6081509616881267,-2.504691579654361,1.2895111141520146,2.198663678363918,1.856473457375546,5.297379107012969
31.0,-1.5227148175263197,4.914875846701382,6.437590664227661,-1.7069800613843875,-4.024177500136314,5.7412866006637895,-2.3386136690162473,-0.06400769004106444,3.2682447743054137,6.1435656645883885,2.754643063028291,2.4106175785200232
32.0,4.154377231394977,-5.5732121174968,-9.727589348891783,0.7707458937554068,6.899115356839407,-7.660832237527439,0.39835396766237174,-1.621200675697502,0.6192831423811329,2.791938891927768,0.8883625693696533,-1.2006611734506867
33.0,1.363729248099104,-5.533204300091377,-6.896933548190443,2.059877608656575,4.172650630733871,-6.223987150890325,4.123848232637701,0.5168594342393034,0.078558653557839,0.3884954348901428,1.1500983115612362,-3.2194929737972475
34.0,6.414315447002308,-7.3423287626587115,-13.756644209660966,0.43186661146091354,10.135315646162539,-10.559762236763573,-1.790907317044292,-4.124981942765914,-6.6183998099235195,-5.714586009153583,-1.9672115092425932,-5.9369402478605195
35.0,-6.613452905280774,-4.70473474277356,1.908718162507224,5.699043165360063,-4.28255163427946,-1.4133254693732287,5.967340043262895,6.165402129476745,0.8793383949590456,-2.3234751769492306,-2.2029285504007365,-0.056179306712050625
36.0,-5.727805313462513,2.81213791572345,8.539943229185901,1.491779738429979,-7.150407606411517,5.652013768212097,2.010420010396328,4.109346504795152,0.4467227761485284,-2.8063527075692223,-1.0848452343702268,0.5190221107294228
37.0,1.94763445478758,9.113487217936985,7.16585276314933,-5.580685589055646,-2.625023667465763,8.182998186049835,-6.342674322762577,-5.026683305886965,0.10152033653129611,-0.5646103229437061,-1.3862833373328263,3.9382369218977566
38.0,2.721801838754473,4.733596326811914,2.0117944880574887,-3.7820199713168643,0.3350714219029265,3.4036303559421768,-4.201176567793377,-3.1270478142671587,-0.18314056112507437,1.915869019762235,-0.035740930009658944,3.2169376353170085
39.0,0.45224916255272407,2.5658983335185415,2.1136491709660197,-1.486718738312843,-0.8579094043864545,2.28050935014124,1.697730300376897,1.263606923515046,1.1672591345413885,5.494777934897318,2.041598023185921,-0.13520832831745944
40.0,-4.771035786881102,-4.899542570868636,-0.12850678398732707,4.858850119991353,-2.2777640423366465,-2.503258608215257,5.741425700254812,1.788042672936577,1.5418273752395482,3.1738450009886146,3.5888180783403216,1.6180264687412522
41.0,4.2311841904252745,-3.883300414078721,-8.11448460450387,-0.14537653258212413,6.210021106514731,-5.99280060990186,-0.9324248395873593,1.5325358481914981,3.5230741086498814,-0.1526952352224813,1.190526463844084,-3.502744736365817
42.0,2.7273263646951906,-3.516040668346549,-6.24336703304175,0.43092278265575534,4.519368345940029,-4.873656045352682,-1.433677490573291,0.118363198104946,-1.9651741570149122,-3.257166576174811,-0.5154002962851112,-4.082427077623909
43.0,-1.5015219840070424,-0.5255916104280116,0.9759303735788718,0.9802298858297954,-1.2835080238862808,0.23547889461906957,-1.5990817169192924,-2.343563920077356,-3.9325928194372834,-5.139333949686633,-4.694227028712388,-2.529880146363767
44.0,-4.580821251744785,0.8364788075915236,5.417300059336066,1.8458682959059514,-5.041833046401885,3.144560929452358,2.170475070011234,-1.1322271138838704,-1.466374772401757,-0.9428506300010446,-2.2208990553323664,5.286439478640547
45.0,2.4341051047110804,2.447636610412928,0.01353150570165118,-2.464049517464896,1.2491845508594974,1.1781914896695973,-2.123091958617249,-1.550283128299173,-1.6146519866816946,0.9536398916064517,1.6185263471750482,0.5598180441940745
46.0,2.235606388654219,3.849691250660422,1.6140848620060986,-3.0671475273271307,0.2742208616955486,2.766415470873366,-1.9481368578540714,3.897827392083559,2.0403570001249696,1.747171590767943,1.1636123846984014,3.070043024266213
47.0,0.277236681115547,3.5683121320557896,3.291075450940301,-1.8731721047755823,-1.5395167575488868,3.3917132177733156,-0.49257647123467174,-0.28740553765820454,7.760915306807251,3.7643987977296387,4.52704070219859,0.43717956351084797
48.0,-0.5393092640798615,-2.0022113291584054,-1.4629020650784026,1.3145533929798607,0.51298517748264,-1.6881713411368109,1.3237060372515579,0.5940571721541141,-0.059825244130683686,0.9112922973191249,-0.6171207215455237,-1.2857735046741339
49.0,-4.531678901623139,-6.075675694476809,-1.5439967928535117,5.264055390405164,-1.4366710061347057,-3.8431624001998554,5.825151491535075,2.447097114499518,-3.9561573067202387,0.9991873187439564,-1.0494050010425302,-2.8860795874005496
50.0,3.2781709359053335,-3.6401674474427894,-6.91833838334801,0.13954227489130266,5.082274233596786,-5.234711514953524,1.6560679974471872,-3.4187534347443065,-4.359535817618592,-4.452550327110672,-6.021693452542733,-4.983582615643594
51.0,-0.7643821172129857,2.3145054089321917,3.078887526145217,-0.7360959341105585,-1.9347078209083937,2.6607405528592416,-0.2793327287187998,-2.9978309326451593,-0.9518159821289758,-2.4811856733076967,-0.6275214153153361,-0.1485089497641494
52.0,1.537050500366964,0.2956757648745858,-1.241374735492426,-0.8726358709148421,1.374055792472285,-0.5102121682076335,-3.8521607438568894,-1.1400839518982635,-1.8040712977130111,-2.2262901009011404,1.0784869130466088,2.749851351429524
53.0,2.1712251816827286,5.784475208239804,3.613250026556957,-4.00632795484989,-0.7442330843786027,4.740206563030263,-12.092757548218712,3.318400772739441,5.5076914203734635,6.198453256816182,6.227526630296034,5.941802530131612
54.0,-3.6534398459036606,-1.749012455786148,1.9044273901174213,2.6793682579601668,-2.8149967107167297,0.1208153955868867,5.863622266898914,3.7970218960915583,2.093438512417383,0.4706236215098438,3.661471985102936,4.0210925223258
55.0,-3.6814274317537015,0.9134223780032759,4.5948498097568535,1.3673707876222905,-4.109747034753415,2.7216436974153244,10.70236553564783,-0.5436635292366365,3.1475375741792844,-2.673581082950868,-3.659003071326635,-2.5619466976210346
56.0,-0.7943548106707392,-0.22292747743667374,0.5714273332339574,0.495093493369676,-0.6658636964956512,0.14504854368793085,0.7635242556080328,-4.665335537669263,-1.4490251181155345,0.2011729418186231,-3.320191949240601,-5.8459338063615345
57.0,7.067332087160213,-1.7977814773219103,-8.865113564482229,-2.5685866564490514,7.97863413201171,-5.280119848538687,-8.818083045965578,3.7972442729840985,-0.8775409611479945,2.1867843193510095,-1.8372329474902571,-2.0060870124238126
58.0,3.669477679955934,-1.2539005769600833,-4.923378256916099,-1.22090506532188,4.312749419035326,-3.117253270329538,-1.4281441662379315,-0.7578444916446087,-3.6732760042030783,0.20905835159016822,0.9843450950521602,-0.014873659916668558
59.0,-2.548519430399811,1.218990443328404,3.767509873728195,0.6502674893330855,-3.1302037289502604,2.4597603656188998,2.263615692468681,-1.346831157609452,-2.7337122915785352,-0.6852300139861425,1.2458973519068213,3.4816039494169386
60.0,-2.197711999954386,-2.453728069315304,-0.2560160693608833,2.3096844913758168,-1.006018947761549,-1.3178232032823498,2.0685748774583117,-0.562201492423418,-2.93944077149654,-1.9199348965282783,-1.1762217951009124,0.5276567270831314
61.0,-3.5520939385902834,-0.1946541984620604,3.3574397401283615,1.856172091206874,-3.4743055125265414,1.6083113431694362,0.2597491962652312,-1.5008249126594113,4.490111006556294,-0.4651411384994193,1.7249788982076415,-0.016578634331807063
62.0,2.555098823810201,6.474194584991128,3.919095761181084,-4.453604951461527,-0.6900097286049287,5.134963425259686,-1.4838338825954613,0.23961305862754495,5.165269408616426,0.3296244223171281,1.2944697687485642,-0.9018939335866867
63.0,-2.7028114084664647,-4.252796779392301,-1.54998537092575,3.4601524867477282,-0.5792958534977398,-2.891408881879263,2.146775643303755,3.4256948715886812,1.6810914265585741,1.1300017020891342,0.36174319745184225,0.14523748171175094
64.0,0.790931712266542,-1.9213034488553027,-2.712235161121735,0.547617105902968,1.7472716001310942,-2.3089917849952886,0.8956049909671443,3.169202354459896,-3.3487545375671495,1.706446796655693,-0.9473155436943921,-0.9562330976036357
65.0,1.4646193012600417,2.584479636752028,1.1198603354920753,-2.04285019139868,0.16168161138380488,1.8636549481174907,-1.8574475345182293,-2.808728977669895,-2.117703035821425,-2.5671528021240815,-1.8905904966001221,2.1874686274360027
66.0,1.7866391692659502,0.6478222729313707,-1.1388168963345446,-1.159193340820619,1.5218502751364347,-0.22499907074474135,-1.452478359375164,-4.40262834107517,-2.3705023366246274,-0.5829423407727357,-4.719073127918248,-1.599431605194375
67.0,1.9542044225680852,0.25243710317318063,-1.70176731939503,-1.1286957266255837,1.799055608436464,-0.6921401707618188,0.09817282979946551,1.0696792412726195,2.8999265229762576,1.8802073831039632,5.3150399172321885,1.312121665260165
68.0,-1.87681764192021,0.6512076829455565,2.528025324865588,0.5805291762838545,-2.1610488947294244,1.555105092413783,-0.17610928578614468,1.651312122078219,3.208889013577348,1.2063515291232236,4.640263948971921,1.0284685527891184
69.0,-1.5056516689954171,-3.3319207127044033,-1.8262690437092308,2.456899010012355,0.11553566481432309,-2.605362018844737,-0.3850505695813308,0.9874771252960114,-3.883148912281809,-1.3757205958811054,-1.4132905751483675,-2.753001609007583
70.0,-0.5702173976447045,0.4887471766230118,1.0589645742675176,-0.00822345887872511,-0.7873324867311976,0.7506198178123247,0.33911412362605764,0.1952311680033063,1.1037520038911435,-0.24675806510962883,-2.389568398038693,0.08396189201560733
71.0,-0.005477923824501851,0.7490038417245779,0.7544817655490133,-0.3483850041642316,-0.43777961459437986,0.7266434597938635,0.499637959393461,-0.7339349528284846,0.2043604348396507,-1.121562773862504,-2.02990760231342,-1.2428987450826297
72.0,-2.43869772198203,2.2305621690407613,4.6692598910229135,0.12457888000083628,-3.5386048369210297,3.498885314549729,1.1971027079989134,-2.4625876546235204,-1.5083145073628799,0.3893848120711222,-2.3086865594312425,1.2742419318232518
73.0,1.6398248136499836,-2.9885788683456926,-4.628403681995524,0.6963717858109033,3.14556466408299,-3.7642427339204367,3.407747200633434,2.363464062793459,-0.5098965783177878,1.1398374919959935,3.9910283234858337,3.5395613704471227
74.0,1.8459439497454757,-5.505142185254215,-7.351086134999582,1.7783062916213395,4.60876697218684,-6.46519926649594,-1.7719529668430836,1.8769318724285653,-0.8495357046648447,-1.2234294036478275,-0.7703023104096183,-2.0110648097908737
75.0,5.180823019391308,4.1694584091623526,-1.011364610228879,-4.639724541908382,3.1084780396578178,1.621103926625962,-3.612863891365557,-2.8718799782746514,2.1777851688413694,-1.3585782085300853,0.3910652178221665,-2.324512916694303
76.0,-1.1377670981925017,9.234172375287747,10.371939473480356,-4.083271135387427,-5.737286804771442,9.769177696606398,-0.8123514035736263,-0.4227435433717157,4.35224880313361,3.9821279628725894,3.9140097868517008,1.7833110874100673
77.0,-5.510403527407761,0.42973182126826304,5.940135348676102,2.590252328013294,-5.779392215246117,3.154904686166085,-1.1285869375092634,1.6569955293150413,0.8842281662938007,-0.11900376598462858,-1.8651439211687308,-1.0522929137852701
78.0,-2.255844624293394,-8.947563843425987,-6.691719219132551,5.5751690274777514,2.249804969296398,-7.846321158265376,3.4970760935283716,1.9855679730878868,-3.590823479882814,1.0010402497499182,-1.0690634360830398,1.598242406991044
79.0,-0.993589546240436,-1.0302850466220028,-0.03669550038163516,0.9827852172965352,-0.5196401804780926,-0.4798194910496991,-0.9189133821333804,-1.397334776338213,-2.141075412836343,-2.3826616911662586,-3.124969559414609,-0.6585197949073079
80.0,2.480951930228865,0.6135007513739288,-1.8674511788550594,-1.5049067321651597,2.2145379385605644,-0.5743084669888441,0.554828924672467,-4.1013069669457884,-4.654375913592032,-2.425717058958206,0.9222338698402192,0.7015264764667827
81.0,1.3785809593392442,-0.42892023612506563,-1.8075011954644487,-0.5217313827267563,1.6325246048798512,-1.1483195649882,3.3704601614583707,-1.5502922502815686,-0.6554221593019602,-1.7175280892817084,-0.011392515991622693,0.050905181515334685
82.0,4.2635363278344975,-0.5196501204034516,-4.783186448238041,-1.8514632722145103,4.479729035227404,-2.68830741680858,3.3652807656879293,1.8259470484222786,0.2717746192749658,-2.2867316719537443,-2.449341625812126,-4.273328321268414
83.0,2.0735782406836964,6.940807619760083,4.867229379076362,-4.496537087241873,-1.4472021627771583,5.858885868031887,-7.724657113660069,8.578761490969631,11.61831854728803,9.27090764606262,6.992063497397399,3.2522448835104485
84.0,-1.1343563845918145,1.8106348488923825,2.9449912334842065,-0.3339121470622757,-2.018309280766265,2.404045151859463,-6.404551636932907,-0.9513365446583606,4.904339942658773,3.5710846206398794,1.5992983581512132,3.4950279305313807
85.0,-7.7553585037746195,-5.522000348372031,2.233358155402653,6.640583755887777,-4.977646253102482,-1.6219009637547734,6.740865750719491,-3.7267301751835054,-6.722382994859361,-4.985197999617105,-3.8797068386760887,-4.764068870128126
86.0,-3.1959445571802467,-5.8161821781034995,-2.6202376209231266,4.509183114330993,-0.2711834580313268,-4.1940101394544085,2.0035005444917218,-2.900576759496461,-5.537416864354511,-2.4303824261147473,-2.653371172919672,-2.66048384981233
87.0,1.345067247270317,-0.7625226885214427,-2.107589935791621,-0.2849200304796615,1.7485525759722933,-1.4031136873658112,-0.93141547744293,0.8184791763068939,-4.789991491913453,-1.4280124604637152,0.7229507025498201,2.893676932758347
88.0,4.730490209796881,3.571615172374478,-1.1588750374222907,-4.141249344028915,2.898553582182748,1.1717482491173101,-0.4956192305185444,-1.769040524122839,2.174973760449029,1.0432423164132396,2.0683894254353516,5.025878171170787
89.0,3.4609323853086162,7.832476693403021,4.371544308094452,-5.713287995135808,-0.4097521426219002,6.081204875326774,0.543670729112088,0.9508073776229198,4.15449661740633,1.3761437721676395,-1.6079072914214727,2.121198659214934
90.0,1.6192556748888318,2.7879967577328624,1.1687410828439972,-2.1904748759327144,0.20441564405633184,1.9700067490607651,0.8735644757516403,-0.08529122044289028,-0.1209066494087967,-5.0135032639593655,-2.0400452862638683,-4.777780744987836
91.0,-2.728438180447595,-3.2050820256481574,-0.4766438452006442,2.9802425836524007,-1.1378649697109173,-1.8403190917323378,0.0064027475143984235,3.074049931946103,3.542395378251548,4.908580430399853,2.928205779547674,-2.5529419094983687
92.0,-3.1526965771257376,-3.377079977074744,-0.22438339994910628,3.2792429190271983,-1.4724832701920583,-1.7956134425001868,-1.3767196364417453,2.0660525412270934,-4.771225769525758,1.857248358388593,0.944650042340012,-3.8485464584730007
93.0,-1.7633462966838407,-3.467062292625949,-1.7037159959421984,2.6318576921977535,-0.039804885888034436,-2.5795116900522848,-1.8586480997074366,-0.26445508704972975,4.335893080294326,1.6590744018795482,0.3890551999104268,1.9562564654918078
94.0,2.2316398409679077,-3.407416848589354,-5.639056689557332,0.608287028724767,3.9199197531519197,-4.51905848273646,-0.35626174079253603,-2.119389925112584,-2.080461559023669,-2.3224292296841016,0.28146289181600365,2.6948237657854865
95.0,1.866215500590363,-1.221544779880779,-3.08776028047117,-0.37637864269819765,2.5335632784540394,-2.153037640186602,4.05183016944456,-2.510971417278853,-1.6025174446633557,-2.9144701955836703,-4.338301157387257,0.5972257952994968
96.0,-3.414741480226305,-0.26892487178459046,3.145816608441778,1.870067927132503,-3.3080471502896813,1.4379548522263268,1.7356211964521946,-2.4453347843591358,-2.074081370073538,-0.8022815909563541,1.4136643087432375,1.7395000947792199
97.0,2.283290598286042,7.30654582864802,5.023255230362127,-4.843876332794756,-1.3218023342513643,6.1635083946460965,-2.585534303123927,0.7734616293120886,0.7992901825523298,-1.3376980721763538,1.4291271171284254,1.296596266314622
98.0,-0.4082701094210712,8.913431726818677,9.321701836239884,-4.223805922414203,-4.895094474115686,9.11656887524307,-1.77757487595582,3.2685343567876313,2.657592059931667,4.823608143494769,2.4931668257802655,1.490452586115204
99.0,2.8172089737946653,-1.4387277009201567,-4.2559366747147545,-0.6639651460439719,3.509663227252749,-2.847116906093352,-3.5784265521852014,5.074382989508681,0.38680793997014473,0.8824462247380709,-1.7730232171116165,-3.924562367903577
100.0,-2.457374687427932,-5.016082692060225,-2.558708004632321,3.756692610044778,0.02861473528780767,-3.7859921409127635,5.323674689714174,0.329489750452276,3.765196650302298,-0.8670961417830625,-2.5564044371830406,-5.291376692243638
101.0,-3.311104052356122,-1.3120826077206402,1.9990214446353862,2.246790783120658,-2.593086105796472,0.34507851347176777,0.9869455954632407,-5.534777899299434,-4.197832867627366,0.6306566399805592,-1.848766121550734,0.8274194369783461
102.0,3.6645846854579505,-5.875071194323555,-9.539655879781584,1.1139074160176525,6.58983525805823,-7.707331671605764,-2.5512467219585924,-7.063657194880352,-4.674157762393718,-4.939475676679347,0.10965039069148907,0.6279470935929521
103.0,0.08909131945778581,-4.414054915735764,-4.50314623519362,2.1681600646109067,2.2864185541051465,-4.462341137320868,0.057406419239373785,6.007353356963371,3.8031214139926304,2.8264875506228972,3.4884388301679934,4.092772922803491
104.0,1.8764039297860347,5.368846810766841,3.4924428809807524,-3.61637199537677,-0.8179436772997333,4.421048829507644,1.8225605662964588,1.5033130973259259,-0.47741978171308785,-0.9989600748940787,3.1065120118268132,3.6157950517731474
105.0,-0.5849692393345491,6.279911665389671,6.86488090472421,-2.836664712503914,-3.7384130314255652,6.55547340257234,-0.366541640602965,0.9827462064620194,-1.028340901507272,2.4663182919260036,-0.2765090889402213,-2.4406998126321464
106.0,-3.166977343160478,2.725865339212828,5.89284268237334,0.2391047950852423,-4.47157822693384,4.363300110848321,0.25839787867309183,-0.504353043815833,-0.10813002920279607,-2.381284157000658,-1.1886917120989835,-2.1667387531743287
107.0,-1.3433659794693873,-3.839388947682561,-2.4960229682130883,2.618986188480889,0.54613404568539,-3.199992547483721,-1.206218752552643,-0.12357164716444095,2.9226482495307855,2.8699054354746227,-1.1493944766233677,2.4325418981839606
108.0,1.1638586227190861,-2.041940483193587,-3.2057991059125994,0.3960005308335889,2.1430487058901644,-2.5836929674393647,-2.4097712129594555,1.096729492596086,3.6688044920529093,1.3559915050134255,-1.5981072669501293,-2.3821945314901782
109.0,0.7030295540661335,-2.196427188270272,-2.899456742336382,0.7090866694614906,1.8262399511768341,-2.59098568780952,1.3805870485040808,-1.5311559426997783,-0.8372241788541936,-2.647424467032571,-2.680588815058748,-3.2285864428700712
110.0,2.295523905058312,2.99870936070072,0.7031854556424051,-2.68239358792777,0.810320162169311,1.8057400958917862,3.566340450365657,-0.8610665285089675,-5.607131248138715,-3.850722721778358,0.24979885481999153,0.4382157337699475
111.0,1.62495956285122,2.472807657646342,0.8478480947950857,-2.005286834156036,0.3941784609098127,1.6942872098288184,-0.889387845916835,-1.8106102042014856,-2.161667783705483,-0.8228687677653364,2.71572084774624,1.3291410588450034
112.0,-1.9108926226024785,-3.236683809518542,-1.3257911869161203,2.6167277396380504,-0.29261529034133654,-2.2445373218530342,-3.191203871061794,0.8519672979856432,2.3310085117455186,4.443554296169798,0.7630277209318019,1.3857505138650383
113.0,-1.8725647115044437,-1.4786147016317353,0.39395000987264384,1.7180706837827766,-1.136381601377825,-0.501662240475062,1.177914322939291,1.053605990576842,-0.6030790239163545,1.4153049318368494,1.8624719270123151,2.3632093568884605
114.0,-2.539951794542829,1.9643010458317811,4.504252840374568,0.25129282439144596,-3.526367219105146,3.1995571403568226,2.388045045639828,2.1521982132415918,4.244589234669972,1.3406784157244487,3.259034822141682,1.4848260963361883
115.0,0.4775245957514227,-0.7725732395587459,-1.2500978353101662,0.1102152230082176,0.8595360713170654,-1.0452095069607563,-3.40901142377258,0.6737211640697977,-0.379719619778182,-1.0509060471069014,-5.031781446788367,-4.018842769049288
116.0,2.8961624480691763,-2.3767162795326513,-5.27287872760179,-0.29893673111102326,4.080884157924174,-3.8613547073037418,1.9934351750355126,-0.14124154591986865,-1.0825047444428968,-2.1565263882072414,-3.1462773989780346,-1.1276097980045359
117.0,1.640129671266557,3.4854193893898424,1.8452897181233243,-2.526131737393681,-0.10490745130159063,2.701849838989794,0.11648491887954415,-0.5284204870970235,0.9754601661593572,-0.4513601247751404,-0.1994584137113966,0.7550457060825836
118.0,2.2240721165828585,0.02651911287406583,-2.197553003708783,-1.0915837811172646,2.2109260301582867,-1.0557700726640966,-0.8822753291658713,-4.922714678168392,-1.53345532652011,-1.6187437425473767,1.6667797218904852,-0.2253491720754655
119.0,-0.8989909714470193,2.400408914664851,3.2993998861118534,-0.797460187553396,-2.09488490627194,2.7957644975995337,0.09337600208327462,-2.8620197406997256,-3.3125770815336484,-1.1992596196168441,1.9191729728700748,-0.08865727172228909
120.0,-2.0402262670847913,-0.5829740699956109,1.4572521970891588,1.343971264516986,-1.7380487685771329,0.4605433625469927,2.2822102533508177,5.004853554232218,0.9856140223785654,3.8894994497088757,1.7573560482133677,1.6833503774791798
121.0,-6.381581004082074,-4.515816111773369,1.865764892308687,5.483524274507353,-4.104464368396336,-1.2978408441315052,-2.601247603663081,4.95512915526618,2.7326335103139057,2.7081427442292787,1.739331897242152,-0.0629990513515235
122.0,-1.2636265092824432,-0.4933472960985874,0.7702792131838517,0.838156764609884,-1.0664205012105052,0.1737401905762015,-1.86445653764013,2.0886975085653776,4.019052730164898,2.2437645563364734,-1.6479528679946949,2.6033369185021344
123.0,6.278704715617015,4.337062431737614,-1.9416422838793812,-5.345027312203324,4.150104518743774,1.1644268149904353,0.9724977935036511,-4.263328157723923,-3.790918439203116,-3.433356641947687,-4.73641031247518,-0.7612217656531686
124.0,1.8224363191219712,1.1744263973018985,-0.6480099218200273,-1.4556428893050106,1.206474068707169,0.23934425461753522,1.1020792783645954,-5.371165875346216,-3.0450814002383657,-6.32837511892891,-2.29169188292862,-4.743854876264727
125.0,1.202757077120824,-1.4845427794679127,-2.687299856588682,0.18176337410980348,1.924615732431199,-2.1035395138927266,2.784448124683569,-0.8303166616921094,0.13165601232813384,-1.7939687282489443,-1.38661667688551,-3.3212024777064313
126.0,0.6512610657123096,-5.207940787815014,-5.85920185352729,2.2352775077331613,3.319082713405465,-5.549166853117064,-0.040243846842932696,4.31234277916942,2.1511875455541114,3.2627258824027923,4.801088984033365,1.6076052682919302
127.0,-2.087861928814936,5.48407525428782,7.571937183102745,-1.7485866886471577,-4.843087974229968,6.589472466200721,-0.7261711214048825,2.6884054879710817,1.951846365001538,4.302060698205594,6.918227555312448,5.637284725071365
128.0,-0.25732728078888134,-0.6871637459136173,-0.4298364651247879,0.49303781909598376,0.07025065403003916,-0.579547765368821,-0.6400183827557202,-1.2688873794889015,-0.9111920060675964,6.120464222304965,2.954095369199113,3.9374036992103028
129.0,-5.047402248807767,-8.27686849538943,-3.229466246581735,6.678162655226338,-0.9324714106480569,-5.778057145720535,-2.939562266834493,-1.5994079706426523,-2.17889330027147,-3.9858212649052427,-7.9001905480694665,-5.523712130670735
130.0,2.2255539202056207,4.757872830625719,2.5323189104200408,-3.475349886746503,-0.10959401850474726,3.6966753560215513,-3.7146107601670106,0.995498679455914,2.554290744634332,-3.733382334008093,-4.1924217485529205,0.5471302632073205
131.0,-0.725015944434724,4.86246189001876,5.5874778344534555,-2.045934018489717,-3.2049008040129836,5.19789245029487,3.253897709279241,2.1789075531963427,-1.8295501194025245,-2.2040672861298516,0.29368780675356954,1.39536777211858
132.0,3.60750787261597,5.3061771560518,1.698669283435846,-4.501263279377821,0.9710961673532132,3.4776441952860586,1.821096332438198,-3.931378953775491,-1.1373086925096263,-2.0943848975221755,0.8867615236208318,-0.4085808626158506
133.0,3.63447359417919,-4.716263315384529,-8.350736909563672,0.5890984105077657,5.998899064546461,-6.476029703246811,5.01547806644854,-2.998970119022983,-0.5402251864494183,-0.151707773316486,-1.7651819896665135,-6.744688263278343
134.0,-5.4594066831439605,-4.3980638476049325,1.0613428355390782,4.9106274870277655,-3.259110921320303,-1.6863926281038033,1.7315884267398685,1.5701445760083785,2.9648783509234486,5.691665101504191,3.4095222510359235,0.3547684675039058
135.0,2.067393795730995,0.41098282548200915,-1.6564109702489516,-1.2498511385430775,1.8647005451891054,-0.6391127547450979,-4.814298335730656,5.914517443702163,1.7879695891301557,6.0016120908362085,8.664326800179891,5.279779827572501
136.0,-1.8779204454288356,1.4619572931287084,3.339877738557555,0.19762065730971723,-2.5982845362318963,2.3838040286313635,-4.846018540270883,-1.1032515723235812,-0.9959376049905915,-0.507427282596181,-2.054922724543028,3.9560770129300185
137.0,-4.545139327239601,-6.76362663671822,-2.2184873094786335,5.637215614075221,-1.1403483934142118,-4.511040806250073,0.7835023346720362,2.562108658825464,0.035483397756715995,-4.718793373149732,-5.803629153438176,-3.492627124723366
138.0,3.854071829969837,6.8064122242477,2.952340394277836,-5.359087945501604,0.40929485603194216,4.934112799462456,1.1493788926629245,-7.055067156217355,-3.833826097274771,-8.428425222742112,-5.719916064453169,-2.0817209737549063
139.0,1.2621599777145536,2.0332948058711433,0.7711348281565573,-1.6107637937983599,0.2170588253301927,1.374315230901418,3.918266105557895,-3.1731861061242457,-2.815919376262839,-3.325077674324683,-0.0486814473023518,1.0316887782461568
140.0,3.1615612387097194,-1.9583902831615432,-5.119951521871297,-0.5752360452992191,4.200702416386186,-3.4910324099583203,-4.254922703104462,4.353917949390938,3.81468929163141,7.074986861569785,3.221813517730063,0.8467121161003883
141.0,0.9578956348338308,3.0642295398854444,2.1063339050515926,-1.9908077455092899,-0.5881688319760452,2.5535532936918703,-3.01595469392167,3.192266108791916,4.99333012517745,7.899992288321734,5.323420016572037,0.0782616929195163
142.0,-2.2342830706699255,-2.117249080772379,0.11703398989755376,2.194532651328995,-1.1896175803036135,-1.0315150675743467,7.103389274471525,-0.11010926543409849,-1.407672696513783,1.5616775752569079,0.1912848431053873,-1.3597948025085504
143.0,-4.733330049399138,-8.096039320887172,-3.3627092714880105,6.356073879858902,-0.7030306313622141,-5.680729259059855,3.688542880033416,-2.853031705446662,-2.9412755231676613,-3.20492136235279,-1.5356768974591768,-1.4550595420571832
144.0,-0.5291425083647083,0.950056066886876,1.4791985752516164,-0.18859552422102688,-1.0274908907117073,1.1863482398393375,-1.3152619626920685,0.8922753651276258,-1.3935844441944358,-4.518182965561587,-2.2945837599283547,-0.04143329527371087
145.0,-1.4530468559300453,7.850298682965562,9.303345538895638,-3.2554550805796723,-5.328164309463862,8.550583746748268,-4.194721694049726,3.1434096525740527,3.796088948022394,2.7341973162119353,1.8352053197843134,2.9023700982936953
146.0,6.412047375692578,7.129650710177841,0.7176033344852719,-6.7512143392013755,2.8934579312995403,3.9782066050261915,-6.6617776066678935,-1.7228123269328908,-0.3320190434475664,-3.1656925818562973,-0.3539097580521906,1.3861196127129372
147.0,0.5945753566172653,-3.6444402309695687,-4.23901558758685,1.5406399281887873,2.3823642862829435,-3.9640179157165982,2.037047976753047,-6.057506718902215,-4.8005892962194405,-2.611883539612614,-3.3038022495931645,-2.2813613112791415
148.0,2.0220941274367936,-6.440807802197747,-8.46290192963457,2.2209828830113754,5.2072901537324,-7.472839420365182,3.2228895041786747,0.054247514179137646,-0.9092607103690107,-0.9733061792522273,0.0715999212200149,0.3158634689749993
149.0,-1.9953773744003251,-6.719760831368285,-4.724383456967985,4.366384332330382,1.407278834714238,-5.664155269127264,3.812636311739572,5.145626883479485,5.71529119310167,5.809295853070101,3.2580366921636825,0.5934561392476949
150.0,-4.463201304880492,2.731910075689459,7.195111380569951,0.8736719014935506,-5.8666625616193,4.941070927061114,-0.6672729706510143,5.139715071934774,3.738614572232903,3.6806053364711833,-0.5172490697363921,1.3745683421431116
151.0,-0.19166809526019835,2.242762371503665,2.434430466763893,-1.0163287667392111,-1.352836174574572,2.3124715928226065,-3.65451943618942,-1.8831829364207735,-5.161570445340946,-0.8974604807773505,0.557937499482816,-4.9563401763192525
152.0,1.0241865645057762,4.807576956820849,3.7833903923151184,-2.982752964998071,-1.3429478117963425,4.263849123752724,1.8693090365943252,-4.643134876416556,-1.0770281205005678,-1.7680723035658135,0.3004031209070212,-0.6886976829285292
153.0,-1.360679628313565,2.205485844984885,3.566165473298484,-0.4069235201416277,-2.4282238371583533,2.9264866956807127,3.7261729959609995,-2.5406595786293824,0.7915396724244926,-2.161951797432925,-1.226168568061205,2.5242861255982993
154.0,3.3257851253140602,0.3271320613534623,-2.9986530639605933,-1.806729627672257,3.1972322225295056,-1.3012684230219365,-4.342730914041458,-1.039405516346596,-0.20435116236831885,-2.7946405191730848,-1.0111231384535937,1.2244758815812598
155.0,1.4366927619029648,-5.236428879745077,-6.673121641648082,1.9243529324858404,4.011948716607992,-6.003776554530097,-1.1713598211390048,4.391001048278255,-3.062478537703278,0.8775327573257143,-0.1727340973469682,0.20607225421295738
156.0,1.0850684552977068,-3.1156976840407182,-4.2007661393384765,0.9660470831489502,2.600976584178253,-3.6310677257746407,-1.7287397429750229,1.2766143229944134,3.1896848336869574,2.4431420151047374,1.2427074354476473,0.47141130226096595
157.0,-1.7283271328576326,1.978302949638218,3.706630082495815,-0.09084872781211462,-2.679952174925249,2.8694976709741926,2.6033210537974085,0.8532889735973734,2.11473732490935,0.87456088571952,0.7919564607483223,0.789271982797221
158.0,-4.0129488809352,4.294226422086543,8.307175303021738,-0.10303215089044437,-6.200800736848603,6.251343274680095,2.4352740283429744,-0.08551110375586679,-1.0427430212750393,1.1069326429511674,0.40870422179232085,-0.21022700090241053
159.0,-0.6062977087917696,-4.5099575352237125,-3.9036598264319187,2.518469076346834,1.6875596595537412,-4.251309966130528,1.5170756019882663,0.6848960280632482,2.2005569544136305,2.2038665966715976,1.3834231488731445,0.6262563541271539
160.0,3.9030894101951574,0.690189284890647,-3.212900125304466,-2.337063453358813,3.520027594723764,-1.2198084685168749,-4.871048462326341,-2.174049111028741,-3.813179903763053,-5.930134330053659,-3.315505208513272,-4.195020674200611
161.0,1.4925182463413076,1.6053224520843845,0.11280420574311467,-1.5130007114118562,0.7336245321126718,0.9099330209810846,-0.48300526102267627,-5.102261941407435,0.22768431313137882,-1.716876917999794,-1.9119474383688082,-2.0252486265340712
162.0,-0.07511533142630378,2.1967472669579386,2.271862598384274,-1.1062743090678904,-1.1266323479149993,2.216609828445023,1.002585380427833,-2.2215936571142696,-3.965597926168143,0.3920464978929048,0.28215601627209275,0.2477101372313949
163.0,-1.4898501160953224,0.9611436645557243,2.4509937806510558,0.29644131613320124,-2.000963606952356,1.6974613903428346,-0.9005211794730763,6.433950111869528,3.318934129345781,3.6003127524202907,1.4713238781759674,3.8557102833189507
164.0,-2.88756079424898,-4.164197037085511,-1.2766362428365472,3.5592123874995405,-0.8383258856055728,-2.7233143841508154,2.521321913045978,5.533249834455956,3.8447503635573588,2.095710500516722,3.159761323123485,2.2954196928289767
165.0,-0.36603928401979013,-4.914367595676114,-4.548328311656355,2.676998176618352,2.051300702035354,-4.733680146505146,1.5733804606384387,1.8552045799419248,2.0257471527404345,0.3804565243451794,0.33072916347385384,2.662197716277716
166.0,3.4450793504925312,0.4295899389515858,-3.0154894115410027,-1.9750975949233023,3.258247308217772,-1.3003093130682424,-0.1945096465068734,-6.266075971725966,-4.217154454599878,-1.0550774771893907,-1.4034239891306486,-4.6081197055516085
167.0,-0.672614550103876,5.53980965324926,6.212424203353106,-2.4684576023996354,-3.4271132577713237,5.85940388582565,-1.3697155520722597,-3.9734477070545537,-2.31502865884896,-3.630136928597594,-3.2548616608565064,-3.15977522509014
168.0,-1.825677669294548,1.2764096619855811,3.1020873312801367,0.23985496724255473,-2.459396641572634,2.1616172712323616,2.305990834073084,0.2113018009428762,-0.7558915237088217,-2.4175238232072465,1.1250077568851624,2.2775223413297345
169.0,3.0520881271326328,4.89281737464644,1.8407292475138641,-3.9315481852704273,0.6039523993770972,3.408820209894387,-4.6315263899549,-1.4710028894711242,-0.08972438481088862,1.9181718926073483,1.1194744261195422,-0.8132529195872644
170.0,0.6680629631174018,-3.4322590982336503,-4.1003220613509805,1.4177210196168186,2.3828995933703494,-3.728613636946137,-2.796108403370154,2.9906434908253967,3.0971142643439755,3.8868093886722317,0.19146410065546626,0.8330792571789222
171.0,0.921529345418452,-3.6246701134451405,-4.54619945886356,1.3026266080546196,2.73991325949344,-4.124955555828513,0.9439772209176183,3.841623834682577,0.836853917128737,0.5234340412652314,-0.5014686548424281,1.5161223617392037
172.0,-4.460669672234932,-2.01640773718776,2.4442619350471344,3.2637308715803295,-3.4336453790878787,0.2597414719755795,4.25969181633615,2.05895313547705,1.4471152487790477,0.17044830237027664,0.7134478218095173,0.002660296600500933
173.0,-1.528998203372082,-4.280358079358778,-2.7513598759867657,2.9276989613684066,0.5666317570263579,-3.539839277056743,1.6747350391074098,-0.6019795329634636,1.0215215179341857,-2.716775626941531,-1.709045735024615,-2.868946579960005
174.0,2.16282019294239,7.13175928464169,4.968939091699223,-4.702307915933347,-1.354296380053792,6.034246035906082,-1.85003343708122,-2.1720502139375397,-4.54607101441529,0.9795157175092424,1.816267778976857,1.139729397719292
175.0,2.307741283485588,2.2137205993045646,-0.09402068418106291,-2.233828005486292,1.1815019509795266,1.047537837092786,0.04640393806352633,-4.438618818806197,-2.945120776615788,-4.449541298135735,-1.8137410531974911,-0.0769590842947617
176.0,2.0910141163621807,-2.517898296651901,-4.608912413014096,0.24482199522821646,3.3352337653698956,-3.57758405483811,2.8542783443741437,-2.7551251233623595,0.7439219066332732,1.5804247921349044,2.146686976201074,3.3754706566886767
177.0,-3.8883351839064586,2.171340952393274,6.059676136299728,0.8153126179514635,-4.9903700710734284,4.172864259785587,-4.328085729564939,1.3890143748357298,2.9472929431809236,1.8863584935776347,-0.5831929603604609,-1.0392937435647465
178.0,-1.1204328729540265,-4.030650153686113,-2.910217280732108,2.6133938670928476,0.871995372877181,-3.502370767695032,-1.536029904227656,4.869984874416451,1.8613481967551333,2.409304690521174,-2.9221544777966013,-6.081381410315279
179.0,-3.4021453460684596,-2.020840094873337,1.3813052511950852,2.669876123581637,-2.344754363286191,-0.36247695988744155,1.8098671856694557,4.07416964595194,0.8594096752651024,2.086713064568859,4.512211914592333,3.928894188064341
180.0,4.594500590655517,5.283553935562655,0.6890533449071206,-4.905792089903118,1.9912327095103266,3.014580678119044,0.16596591355903706,0.1668683628055141,-0.3494703695357231,-3.362569298191695,-0.9255892798696126,1.6069208991521466
181.0,0.9286165577635113,-0.28613795988693536,-1.2147545176504317,-0.37290001588821453,1.025505482968022,-0.7245994147533719,1.6183202916257353,-2.9568468251948956,-2.857726658306184,-0.27690540692201293,-1.7572579847966725,-0.3428415688833697
182.0,1.123103363767077,0.6306055462296826,-0.49249781753732214,-0.8563318738103648,0.8379387379450883,0.09832235659486,-1.6055124226697228,-5.9991075340344455,-0.7904883261401352,-2.3403889588408466,0.26799961531069405,-0.4674907835291757
183.0,0.9673967374221059,0.09256058911090831,-0.8748361483111164,-0.5142920142692701,0.873524039736217,-0.43297228893637796,0.8447357068742889,0.00520908141112475,-1.5914779145088387,-3.297985512856825,-0.20610205321606737,-0.030401751630340867
184.0,0.5163754691640783,-0.6616111427487983,-1.1779866119128202,0.08694375486874839,0.8820979189178529,-0.8743241489502962,-1.178119543536727,1.1196610191526766,-0.05502061692497212,0.6435350880271482,-0.4673499606028531,0.036868559398927137
185.0,-0.9741774959480849,-3.387149866459197,-2.412972370511104,2.1978641498718248,0.6810932832389873,-2.927708230563636,-0.5460046108195209,4.0873949451363565,3.9645903745802107,6.936868600914136,3.661982391819497,0.9349136151254422
186.0,-3.940925669494998,0.7926745343622192,4.733600203857178,1.5192878846876647,-4.290513537038497,2.735244458794302,1.7633006007207297,1.2748736540932337,2.004084412345091,3.1206656010629383,-1.379043836514148,-0.5545973035497582
187.0,-2.5600737895756662,1.1609282126255516,3.7210020022011747,0.7327203387261432,-3.166415637570519,2.4060510875079726,-0.6717332545364095,-1.0510631198723237,-0.3780614006305183,-2.3581514026993498,-1.987005390932244,-0.21285145090281157
188.0,-0.466672520970954,-3.83612116983897,-3.36944864886806,2.1157782057738794,1.4305225043555854,-3.57123288148231,1.5499345837116523,0.4150910578761243,-1.853545744073678,-2.1409562586747026,-0.5351934676238728,-3.861858848478687
189.0,2.5471511840067143,0.8391660453442705,-1.7079851386625096,-1.6410882351450302,2.1884547972361528,-0.41703448988410896,1.240725654176346,-0.06771416523063545,0.4255477879405467,-0.53486524214159,1.1588646522230723,0.14551643619026566
190.0,4.377828930167295,3.49938172391438,-0.8784472062529489,-3.9588653190293206,2.610499049362608,1.3157841531486119,-1.6857991669833967,-4.596733277840186,-5.4511852720108305,-6.126972605703437,-2.299769868824982,-0.1390062750801968
191.0,2.637282461392686,5.126635574944297,2.48935311355162,-3.8992284115691684,0.05336513617847349,3.80669011979602,-2.4973490499972257,0.2639170943890288,4.324528359227887,2.4681875759851124,1.1524736254734043,4.632661744182879
192.0,-3.095120655139203,-0.5308836183583252,2.564237036780939,1.7950971881509485,-2.8561845349841937,1.0158452455024642,0.38982039769452337,1.9310272038495984,-0.6286408197838174,0.6687062491551696,1.2682700544640153,1.02479083902058
193.0,-3.406449499200584,-5.802784159589215,-2.396334660388571,4.661700748307229,-0.46063147293248796,-4.093191183280106,-0.5547592239841994,0.6765667744504026,3.1382407921739404,5.865072593646443,4.649369139044377,2.8451057541031446
194.0,2.4360783290085934,-0.6128688460304148,-3.0489471750390202,-0.9391593589657146,2.7001216882879624,-1.8127585430076048,0.9791838542323147,1.377027064010552,-4.796096917251657,-0.3445426215240701,-2.2701794646859828,-1.2406024725857385
195.0,-0.8178408818685134,-0.8262232205092381,-0.008382338640779752,0.787647885092059,-0.37486053682326814,-0.46475051841536996,0.6430791443943611,-0.5610509543861644,2.2587623422005825,-1.0318323851519942,-2.2908968472112208,-2.1781278282979786
196.0,-1.9510104704925477,1.3219151667976037,3.2729256372900983,0.3522021017544945,-2.585607432694782,2.3399264374193063,-0.13650602162370806,0.14267475909264932,0.7235248039364253,-3.1511280714696235,-2.154726533856539,-4.803402113996933
197.0,1.0156503095076919,2.3051923118980024,1.2895420023902981,-1.6286745606321977,-0.18933058319479068,1.7678605580264426,0.5586115990687199,-2.4617629565683905,-2.3336547899418223,-0.3112305212068964,0.7854329270412945,-3.1060844943700476
198.0,2.4103419332111278,0.8360328302479609,-1.574309102963079,-1.6750776164791905,2.0217022145261767,-0.39747855845613644,2.10300743116615,0.4475117069191733,2.742570779386212,0.3539566031813348,0.6605096469501419,2.49065883835128
199.0,-0.38801878579324267,-3.599226015295018,-3.2112072295016785,2.0164922611770786,1.4456166781302797,-3.358768672894318,-1.021984092258113,0.02987215597479595,-0.948028288292564,0.2663619357103835,0.24105903659709382,4.722769550001167
