Time(ms),I,II,III,aVR,aVL,aVF,V1,V2,V3,V4,V5,V6
-200.0,2.312601757215003,6.652836921932942,4.3402351647179005,-4.506145279835418,-0.972886436287884,5.461410469495361,-4.8482438033849835,0.9391017612990564,-0.35208377581157313,0.8675301108015877,-0.8947154708328857,1.4233208181116297
-199.0,-2.7535448269551956,-2.2596762708767875,0.49386855607848723,2.4797555544754752,-1.6588995734823235,-0.8404050044657514,0.3622183875641347,-0.16882121540105155,2.630159301375127,-0.03002621283938056,1.5572455575346271,2.5552764967366706
-198.0,7.921420267694764,0.6483887863982002,-7.2730314812963845,-4.23970228395176,7.56634939482037,-3.3510150031591035,-1.165075739202537,-3.126808978270322,0.6802557851906311,1.3877589014743643,1.8721958502756142,-1.5390900670332504
-197.0,1.1092906583626685,-2.859347702808477,-3.9686383611709335,0.9119028023890366,2.591829612204502,-3.3765758567981963,6.86024244034646,3.6923310787010677,1.1894876330466575,1.9460247006856817,2.7849297444465213,-2.3747213953681046
-196.0,-2.726831189453365,-0.9612756866229799,1.7655555028305185,1.7939856356534443,-2.2675259456908265,0.4378376160063864,0.19471804931865533,1.8942577020066236,0.25510515281383794,-0.4892870656268805,-4.12759365246674,-0.5540939510768135
-195.0,-5.276483373730748,-1.5183784734556625,3.7581049002750437,3.4192856110475365,-4.535404984250979,1.0767088157389968,-1.7022333246630865,-1.3790483009020695,-3.720543207976223,-2.133342820408171,-2.3426684722226994,-1.2654599376514213
-194.0,-1.4824282932647868,-1.0893495818306604,0.3930787114339538,1.3027010327277948,-0.9544378430581648,-0.389651977122905,-5.291619028431146,-0.25239008272726976,0.41415818832528317,1.859455317823939,1.4402095027599768,1.8166175863186922
-193.0,4.421730231618512,2.795840936450525,-1.625889295168211,-3.595455939451636,3.0855013457334115,0.6251697300902672,-1.7058652917810526,-5.572285346498587,-2.4931698273304383,-2.888969347271864,-1.4487553166845677,-0.27635174404161433
-192.0,0.437302491606574,-1.6782891020753516,-2.1155915936820544,0.55271921838088,1.2575596974531855,-1.853335898123993,0.743997172708806,0.7376024091313775,-2.142808303885962,-1.2939959326382233,2.0770140556271763,-1.0194102006249213
-191.0,-4.323954098538353,-1.065732406009689,3.258221692528683,2.70440713791145,-3.812702127785424,1.063764563830612,5.590980523884938,6.405564611382756,5.909417968494141,3.9352204440767347,2.209356405665519,0.24142614893765313
-190.0,6.075136954920286,3.8142665471324197,-2.2608704077877095,-4.935383828162854,4.143428227618765,0.7449082962380893,3.5219340549910982,1.9945162130032297,4.363683457566811,1.0915914128641748,-0.5852142842388104,2.6110480613783817
-189.0,4.874386180357695,4.382652559643099,-0.4917336207144014,-4.617895463203103,2.73468924557361,1.9903052416970044,0.8350932477197639,-0.51689504751702,-0.07882681518235657,-1.7272886620618961,0.008166486606212053,3.287297610052411
-188.0,-6.032969704077382,-2.8101895619826927,3.222780142094841,4.4351209134123675,-4.65667246026224,0.16743926467381898,-3.3275988233372926,-4.203465301116311,-5.05303329453586,-0.0826795068046633,-0.34656171674047187,-2.570876427216824
-187.0,-4.218454969637242,0.2112298092660312,4.429684778903291,2.0210734043964975,-4.274833024790432,2.353483087833242,-3.5774237660774473,-0.9229368718374777,-0.13510205891892157,-0.7254761323301611,-0.49613643739153745,-0.8008436983176344
-186.0,-0.6402097936091051,-4.180775351016951,-3.5405655574079344,2.431716433345576,1.4206607207083257,-3.9134763841399396,-1.7818134711222111,-1.4354549563426207,-0.3948735991169512,0.9653517792750854,-2.3800341291691716,-2.519596287268357
-185.0,5.162842988647613,-0.8686916587818654,-6.031534647429636,-2.2021010493588955,5.568006583647514,-3.4294665197641656,-0.6293046196923253,1.036940920403966,0.9832610498095458,0.538704067653392,1.1516154378709778,-0.6990108547728606
-184.0,0.6838960227745325,1.5565163863450795,0.8726203635704004,-1.1742977877488243,-0.123125563079578,1.2332999487564802,0.9542609818779709,1.4901611230761644,-1.8848481472488028,-3.5469979892591166,-0.5835842310110522,-0.36378125608298145
-183.0,-0.6578083669085173,-4.961545985739096,-4.303737618830676,2.8345565833373594,1.8733452942537028,-4.611902630954249,1.8821331603048215,-0.41214695808626733,0.1291781898334232,0.7735297532751599,1.9839334876631516,0.10336328278305762
-182.0,-0.9527604787790536,4.866132197886502,5.8188926766655635,-1.9306762993560245,-3.3352424856976106,5.368378781342127,2.5340512937727033,-0.2889232765941482,0.22890820228216313,2.124025359374187,0.6651955748124773,2.858041538585955
-181.0,-1.7466182782811914,4.310365283232064,6.056983561513354,-1.2524171127295292,-3.9303447567051593,5.137197505258986,2.730519076089945,4.257060761549373,1.8934014343033294,1.2347219822364721,-2.187740217055682,0.21393492629102462
-180.0,-3.4348730413094595,-2.355708731452914,1.079164309856695,2.93075068549178,-2.2869852058063396,-0.6791556841949489,-2.740702621136893,-1.2027182367390357,0.18801273359122428,-0.5904135049955602,0.30206344711885924,0.6745117618159433
-179.0,4.918347286269793,1.6518336885140072,-3.2665135977556647,-3.321038046674555,4.059884372550258,-0.7662084722550127,-2.0532915221634798,-2.3850432461211097,0.4341143211722278,-0.8476701354207904,2.3613737383748044,0.6957230920262552
-178.0,2.186799369432462,-0.16981855265932277,-2.3566179220917576,-1.0378703954785031,2.3147355103211678,-1.3004110855926332,-1.8634462952532438,-0.49161787400056656,0.23460557818209557,0.5728301096512006,-0.7168314436159505,-0.7890945794382644
-177.0,-2.2038960203478917,-2.0570853282248986,0.14681069212295217,2.104936299212054,-1.2137431097514644,-0.9156232068226977,1.4285399024586982,0.14350165502889434,0.5347073724651925,-0.4575933099287565,0.6880220108118031,0.7210543457249552
-176.0,3.983093465440348,-1.1974919470726941,-5.18058541251317,-1.3394291083452108,4.621142456109078,-3.153237644115086,-0.3384679059287384,-0.818079788962463,-2.1795558373683575,-1.0852922949933,-1.8819356218073666,-2.3787353893860543
-175.0,-4.161821127326546,-3.6062708336344076,0.5555502936920227,3.8556867405239044,-2.318401012464245,-1.5728778779004364,1.8797181145990947,0.1214361023825285,-0.9958972669631025,-1.0697338641581189,-2.9650145607975715,-4.33682325406643
-174.0,-0.08041748991208109,0.16227982295676724,0.24269731286876184,-0.07382924681424341,-0.19759947138481082,0.22899388102038265,-0.9887422193336186,0.4936855997691756,-1.9890694584793422,-1.2325657367352145,-1.620695157403643,1.8747134918143176
-173.0,1.4404249519970105,7.402951040480348,5.962526088483331,-4.379953229317231,-2.2946935134665076,6.626287792857026,0.3658101943378062,2.8390529793231565,3.190829553030019,4.205254676810901,4.33587208157459,4.218737131865373
-172.0,-4.4608618902395225,-1.2496515933598955,3.2112102968796825,2.8948149902122617,-3.7903156589456133,1.0001406143961935,0.6916141292470149,-0.44848310004269654,0.583366836980195,1.4177439152575344,4.701116959126709,2.5490366157761777
-171.0,-0.2529472321261288,-3.168190130152454,-2.915242898026223,1.6716051955987914,1.295569863606862,-3.0233371030750353,-0.769042339363483,-0.9767176871845614,0.4831973113264998,0.09707082903182163,-0.18398388012680433,-4.0627413193729796
-170.0,4.022471984708837,0.38299318306839725,-3.6394788016403345,-2.160955165171455,3.867968194831161,-1.6085517574706385,-1.835574418936332,-1.7253318368514234,-0.5553985284523701,-3.065971074985403,-4.621345849893176,-1.4605752858417995
-169.0,0.43722742620892374,2.679096264291947,2.2418688380830867,-1.5926050536707568,-0.9532141025318306,2.4835671419886154,4.6932359786477775,1.1175649382872612,2.3300186710091175,1.5137234907711765,1.4282781181806716,-0.10382914717819569
-168.0,2.308953624960679,1.345087356666658,-0.9638662682940309,-1.8594031822014119,1.6538993654157905,0.13977452593667272,-1.0457680490030192,-0.5450574484433389,-2.0701225026002557,-1.5655239036720254,-0.6084699911415096,3.20546777713687
-167.0,-1.8354363175848736,-2.358924720053424,-0.5234884024686491,2.0661911781035003,-0.6477227839935878,-1.486490421054525,-2.4587631487257404,1.0186518119482924,-3.193020279976454,-3.6629526278115754,-2.8520250044172,-0.824387172118366
-166.0,-3.6875047825602425,-3.613393902842147,0.07411087971795449,3.699560787128808,-1.8783290308547156,-1.730377508453846,-2.9985487228262175,-2.453348572396175,-1.752908107669167,0.17684043434678798,-2.75159347438796,-1.055517963083071
-165.0,1.8708987235133718,1.1378511008005712,-0.7330476227128648,-1.4530658891400614,1.3037670377794486,0.2474423885802325,2.193005204557492,1.1391123958579668,4.732505712630954,7.227702027997055,4.9058455908374805,0.5472166033104003
-164.0,-4.010631452608767,-0.7687680332437192,3.2418634193650875,2.365739705588835,-3.6196350265026505,1.2082470993468353,2.4658352196743074,3.9041745372513326,0.9394894683630244,0.5495286630362584,4.751625483222878,0.9149167900654748
-163.0,3.871377577208439,0.47326287929339655,-3.3981146979149113,-2.1919124770559395,3.6507600260537365,-1.4863544832437228,-0.8443061004393488,-2.540947055878682,-0.33255215907202484,-2.386722400046871,-1.2973490301207322,-1.0987302216631194
-162.0,6.226759441833622,5.707910998133382,-0.51884844370011,-5.982770804454344,3.3220411120041433,2.6517403121418335,-1.0993781310175241,-3.1436494875133913,-0.08333245110866531,-2.1293068110641715,-3.8454290803290903,-0.27777617939549143
-161.0,-4.511692281163278,-0.0349117602488791,4.476780520914474,2.2604389129909483,-4.454293633829349,2.1989038730706207,2.891527811098831,2.6264302305803913,0.3001086578796048,-0.48975690944662853,-0.9646684948970221,-1.5659722483132794
-160.0,0.8935680440712617,-1.1080713080606288,-2.001639352131901,0.17289265066196607,1.4181743251358783,-1.580621441839189,-0.2133227627246721,-0.4790240398064586,-0.7344664789525609,0.3058783335684795,1.2188189855355487,2.2921658775527836
-159.0,-4.043489777100641,-8.087815394156351,-4.044325617055764,6.048681216792371,0.054582427748533224,-6.09829146521256,-1.9612176744664065,2.6640342322063795,-1.048304920351796,-0.46642797008543946,0.5288817332739628,-0.30370510498866876
-158.0,-1.2823058517891126,1.157630123777166,2.4399359755662235,0.03777897249066653,-1.8862581640564342,1.83759119210006,0.7559166984028824,-0.08180706115951564,-1.2132494265244345,2.0516464066095548,2.057114210735161,0.15595677186855877
-157.0,2.9465029536794773,5.701415889548382,2.7549129358688966,-4.359030750876803,0.06528861632935334,4.2599584519907525,-1.172103186867868,-1.1558092106281739,0.6970467407848765,1.2516271637652845,-2.0025078697424537,0.705103798866341
-156.0,-3.787243691799372,-3.2125625226022922,0.5746811691971281,3.531877044855331,-2.2196154640476906,-1.3703820750473628,-2.746611705732545,-6.032729386065421,-1.3297896479646076,-3.6578595709698614,-3.0698281535271295,-2.4724450754099534
-155.0,4.052417636899607,2.3422259266164795,-1.7101917102830628,-3.1759016787527807,2.9134575822466973,0.3424282252395855,0.7841241164944811,1.4284677482521486,1.3519524870226793,1.1392794140545996,1.5965346132353608,-0.04801718483864448
-154.0,6.239863752074698,8.060928423138524,1.8210646710639007,-7.136014314582897,2.236669225679103,4.970084146337621,3.1492335421161477,4.290221615146918,4.0740311515478425,2.7844972873091884,4.4631532966919885,1.925408923340423
-153.0,-3.8822473741292005,-4.397709763486562,-0.5154623893573028,4.073863283651619,-1.6564062085599511,-2.5010165839831293,3.3571218013733084,2.23715887921601,-0.9768445897615512,-3.613529133182899,-2.2233260803703376,0.7438014203848322
-152.0,-3.3117975618277944,-5.596795547448611,-2.2849979856207954,4.471201960685602,-0.4825685841753272,-3.900405921702707,-2.0707634443316802,0.3439666748096184,-1.6222216248818442,1.0856152289105037,-0.6124477837434266,0.8397334631014984
-151.0,-1.0448530846109536,-6.986449865192639,-5.941596780581705,4.0422323792771815,2.4062055896112913,-6.496781238328843,-4.287579417037359,-2.4095786569473594,-4.0841917029748345,0.2112273654364957,-1.5670984974222522,-2.40191081082458
-150.0,3.5923037030627585,5.017394512659097,1.425090809596294,-4.265217136740233,1.0462491906324962,3.1922814332078717,2.0271926176421826,-1.563133967519635,4.094007078092227,0.04396901961294836,1.8351300907381176,1.203918106845756
-149.0,-6.415254397915897,2.206112185724215,8.621366583640079,2.078740198944823,-7.5539229691048275,5.465457019877751,2.3603565550741816,0.33030253013144195,2.7726091156629664,2.9092754759159734,0.31692620199734617,-0.13945335133626133
-148.0,2.888399496754804,3.724263554112823,0.8358640573579987,-3.322087966731165,1.0675590309153469,2.253702450630689,-0.08845907352810867,-0.3834653262973367,-0.8717289936653121,-1.286742173396786,-0.07357594693996372,-2.669771278220254
-147.0,6.601854768262369,-0.5004602136659084,-7.102314981928288,-3.062246018765279,6.888997902758384,-3.827389167187269,-3.741704148159455,0.5476765999279107,-3.9473237342953738,-1.7734886736671185,-1.2587671267260072,-0.277535286779516
-146.0,-2.0712257238280025,-3.733949964851817,-1.6627242410238174,2.888458019512403,-0.2510537032552347,-2.6448462348558204,-2.182073892353287,-3.3353524417401124,-1.8265679102633121,-3.7296773486371726,-1.9492158642219735,0.6629091825716917
-145.0,-2.3982962867794195,3.5206542310929034,5.918950517872339,-0.5835519537092085,-4.130303136603684,4.695607690002099,0.5293988090699494,1.89887976558599,-1.3884735490766267,1.1714810824808266,0.7614985363017354,2.8120823114092657
-144.0,-2.8094482731107786,4.451916377686227,7.261364650797063,-0.7760491540135575,-5.008149354343886,5.911603243606892,5.677868395364107,4.789100806543986,5.049992245123587,2.5811769380539875,3.6422870970748717,2.3694169648613137
-143.0,-0.404021417359691,-4.397243302098229,-3.9932218847384613,2.434960435225861,1.7448470620157805,-4.220819653762995,2.005268465084614,-1.0603687404945843,2.4478225870091928,3.046581901671951,1.6987075345865044,-1.6627949191002398
-142.0,3.762288294991528,-5.104410632014416,-8.86669892700589,0.6188805998831397,6.34739184282206,-7.0164723764346055,-2.0520356423166506,-1.9105451555198993,0.8208518184604685,-0.6500199623258163,-2.859782684693905,-2.57888258496636
-141.0,-0.5605738149021894,-4.878137527763271,-4.317563712861091,2.7427790616281826,1.8375315176512919,-4.637848036747886,-1.493402581745021,-1.0511542718329085,-2.273829136718544,-1.7670242951600212,-2.644260929666962,-1.3594257621333958
-140.0,-0.4170842113532503,4.745337720059348,5.162421931412543,-2.13914810615315,-2.7474013582754275,4.981134268049923,-3.338398179756986,0.6190775511988371,-3.261943040611242,-1.0544407188446656,-1.1152793481547294,-0.9676113793566288
-139.0,2.0666416427782828,6.5366906294215426,4.470048986643191,-4.350217888155533,-1.2349849135479276,5.519283840864917,0.546950300943569,-0.07287369029473162,2.6592266669263434,1.3417646298370203,4.129894667554831,4.196783513374998
-138.0,2.0039396936094906,0.8867914559146453,-1.1171482376948845,-1.4078655042198596,1.606964006108747,-0.10755443686860255,3.4121084434362134,2.8205198535671268,0.5055546077494866,-0.8343378511180014,0.23844985479035063,2.1086478606820513
-137.0,-1.2379703965058595,-2.194467906718122,-0.9564975102122759,1.68284973815661,-0.1744398522616487,-1.5709701121081794,-1.7375984794402612,-2.2029713694034117,-4.2809259568463816,-3.855512488467868,-2.1849801099244766,-5.752009331809617
-136.0,-5.0344774229472815,-2.4912605137142236,2.543216909233073,3.736968994898108,-3.8257836867305755,0.03318609756433549,-1.2344369027318587,-3.736224479789318,-0.3236196893152299,2.9856091143814365,0.6533258644167549,2.6456091390456993
-135.0,-4.0536978212412675,-0.7250201644345629,3.3286776568067262,2.4488942086125576,-3.653477154023801,1.3165384099481237,1.8759879960745995,3.5811658378284905,3.179715408454043,3.0019934251763547,-0.4201726074660758,-1.0169426010911082
-134.0,1.71675231856793,0.09448993301601671,-1.6222623855519045,-0.918892116289785,1.7034561089175668,-0.817794374286391,3.392183260134725,1.7391935328252588,3.630915695688267,0.8950947873969612,2.3793457779389007,1.7551125426721625
-133.0,7.362428850036401,1.3381313540536095,-6.024297495982789,-4.358207124144053,6.646171317260114,-2.3080485682863427,-1.4227476053814363,-0.732618689199124,-0.22600086920892992,-1.356905194175091,-0.840807851706627,-1.6990838177076548
-132.0,4.340562021474614,1.0692747649062975,-3.2712872565683013,-2.708096066682757,3.837004736206876,-1.1366563907398803,-6.32707648669476,-3.754655911434659,-4.223232904399847,-4.317137050961529,-2.5011496004850065,-0.06174066333390671
-131.0,-4.953142294013267,-1.5300877545769267,3.4230545394363747,3.2423773259649122,-4.23439727241194,0.9942300469750937,0.7275395481719777,1.2872051799287654,-0.3097824278881669,0.4514360917807929,0.43452768181924517,1.9918216619396114
-130.0,-1.508875709339147,0.3157068683718548,1.8245825777110265,0.600064589032498,-1.6316910824080897,1.0401438175254583,2.3273701216511284,1.4295924762730112,-1.227087661159219,2.2264284894232995,2.081345816288554,2.4414924772462125
-129.0,-3.023047338365396,1.3125724509640813,4.335619789329474,0.8596837922221514,-3.6415612801245834,2.7921601603699893,5.300308796718984,1.0038409489135103,3.785146811860397,3.738211519573825,1.833881784403232,-0.5027737373363012
-128.0,0.43305333718398464,-1.7020761523746861,-2.135129489558696,0.6376704801846125,1.244747953842059,-1.8753757974156635,0.7239116206372573,1.6190037350168267,0.020477265464440952,-2.612060199567539,-1.281501411820115,-3.562587094857675
-127.0,-2.244220620681194,2.0731188655836297,4.317339486264799,0.08491389124376508,-3.3206324429236997,3.2346213047288606,-1.2014309657478757,-1.284810643532065,0.7062783500399363,-0.7232407183717702,-2.4466394674809333,-2.391253985449246
-126.0,3.993571700303377,-4.488262464191324,-8.481834164494698,0.24064230259532082,6.273483270259988,-6.527354899255847,-6.633068280139308,-3.2670034666798125,-1.9595689261621807,-3.0705339096909743,-4.287690946833822,-2.574243429747556
-125.0,0.07616309696416823,-0.9444648513578713,-1.0206279483220322,0.4200034286293361,0.5787303516744808,-1.0262297292142297,-2.541585064578992,0.9793202257158653,0.23148531791526294,0.15949711577204018,1.023486835943527,1.3943969703025667
-124.0,8.33138390559958,6.399698157591593,-1.9316857480079825,-7.387040220795645,5.07626272508896,2.2694962282804823,2.3650681918568255,1.119644620483081,-1.7198818858919522,3.6912798394447863,5.984796864243037,5.304117728278457
-123.0,-3.2793742738909812,1.5886069858673566,4.867981259758338,0.8970499721290488,-4.057209694194305,3.265794090355512,3.2219024202878264,-0.8024160596667249,-0.6563655467559646,-0.8001055757482034,1.3351262201938279,2.1100557248466965
-122.0,-7.6737063488126545,-5.294117523812925,2.379588824999733,6.4543160568187705,-5.016109507618045,-1.4955480957836325,0.5564128319414263,-0.18941393734143508,0.3561834883566453,-0.6882414473865937,0.5376152400011075,0.8407099854235833
-121.0,-2.1472737854956305,-3.3631205563197764,-1.2158467708241343,2.8053403678756,-0.45916849853830044,-2.2459710930366716,-0.8600244243088561,-2.579328703103455,0.19490413155271685,0.04494880238761173,-1.007450635521697,-1.945647723632225
-120.0,2.751167472325856,0.6196021432514538,-2.1315653290743772,-1.7101171616264854,2.4461260788809085,-0.7888306120392522,-0.04340186706332694,1.296112368963935,0.6547229754373489,-1.5855999291622478,-5.7086542019385265,-4.129287164799528
-119.0,1.50141031093142,6.323795899513463,4.822385588582074,-3.93198266083856,-1.6555671542068722,5.5418064419132875,2.022027960449039,4.555085746838743,2.7366076945357842,4.256768343777889,0.2087800160675819,-1.5150493469469808
-118.0,2.521284083176,2.5268324518443745,0.005548368668403747,-2.538297208750543,1.2644285690276844,1.2362158298226604,0.6756358154590141,1.456319076859055,3.1797956696495584,-0.18032902626039737,1.6117899783770366,2.3760215381794154
-117.0,0.3559211249875678,-1.4818213764770267,-1.8377425014645956,0.5521262692492899,1.0275155863208765,-1.6089900189681954,-2.2267694963630147,-1.52155570361735,1.033446592032071,0.8423090303197421,1.1422405510441551,2.381182169612918
-116.0,-4.375358188748023,-1.110383928984881,3.264974259763092,2.811370784564708,-3.806428292114064,1.1314268866955448,4.7026032514479255,0.9273994047426839,-0.8602722163185421,1.7706396630976688,6.4897396964167005,3.4066159743608058
-115.0,8.09867018216417,-2.560161033303718,-10.658831215467968,-2.782445876991239,9.398660892509524,-6.629845274633224,-4.025271134091043,-2.7560627568549254,-10.714990016217351,-4.98290791063603,-4.06733050925652,-4.250932074033086
-114.0,-3.8807826615293934,-3.1099621991620303,0.7708204623672827,3.4755829687198743,-2.297747003514912,-1.186213469239624,-4.906710663601507,-2.3600821677796846,-2.381604617150806,-5.414061501630229,-2.860204179311407,-2.011993906981408
-113.0,-3.9337410446608057,-0.3250485859556994,3.6086924587050504,2.0999566240136573,-3.7338098104492237,1.6263441354624342,2.213853839389238,-4.055666615820094,3.7581534035044926,-0.5834076009035944,-3.351492641742248,-0.31416609575252064
-112.0,-4.525068545763518,-3.7793973370629095,0.7456712087005908,4.190375512154483,-2.6678156158700244,-1.5352226900809374,-3.3524214566492065,0.4491387476216647,3.8216840363702187,2.083760840697665,-2.67434305049908,-2.1041128361461086
-111.0,6.4294329126789656,8.83470138059502,2.405268467916078,-7.683054369594142,1.9861328950366457,5.673220133651783,2.7053300523445856,4.7577413184140065,4.3383521282391175,4.760640425657152,4.217788301804777,2.2451624105797063
-110.0,0.12297390203573277,1.3295346826796104,1.2065607806439307,-0.7055692956665012,-0.5649504166891024,1.2324677585774944,5.669944871915371,5.003106960168979,0.5475395020488905,4.732608405789053,5.432039258194423,2.468246571444425
-109.0,0.6060797564604623,-3.1235527401397416,-3.72963249660015,1.2774962690858254,2.1437709919419508,-3.472464190812005,-4.354857898187847,-4.513607306369147,-8.065072042730737,-4.910583583105346,-1.478171238601988,-1.543681981188844
-108.0,2.3072099894191895,1.9164219700389395,-0.3907880193802331,-2.089438169069723,1.40023883382121,0.7883747743536846,1.0719936498584541,-1.7436399572721166,-1.0342518552368198,1.3035358241421386,-0.22054974870896432,1.216050249193147
-107.0,-1.190844238395411,-0.18498809544034933,1.0058561429550192,0.7180758330321795,-1.05123606290007,0.4341714391880005,1.5532744291498357,2.2394707344450953,3.3449002052442967,-0.9600792813625727,1.0495688290282095,3.6810168815719764
-106.0,-4.683965089643945,-2.916180846056316,1.7677842435875308,3.7607172650294616,-3.2607857466159973,-0.5460923479293702,3.185087845264544,1.7042514715537453,4.408009816693654,-1.60953141078769,-3.245559022970036,-1.1155149722320565
-105.0,4.31691092099538,6.533592853345066,2.2166819323495583,-5.45689581893342,1.0135950157271916,4.412059165456689,-0.34124932751931425,1.90387776936932,5.182486971879361,3.263145209628563,2.5009426509168033,-0.8219947956835092
-104.0,1.891579213002089,0.873477370081909,-1.0181018429202704,-1.4100374103906743,1.4971840431994552,-0.10460849894730978,-1.8214180028873037,2.9090416705129094,-1.2875287762143153,-0.7112626392767826,1.7502235250863851,-1.663388580141743
-103.0,-4.165953361848048,-6.8847876863093695,-2.7188343244613042,5.576739904147198,-0.7585916719046816,-4.828145141474654,-4.841605561870983,-7.057031729347735,-7.717327447224216,-2.064926717298084,-3.092544310890863,-2.241335283391127
-102.0,-3.89738410176017,-7.0142718783334015,-3.116887776573098,5.425685083375259,-0.34457686569092394,-5.092534164014051,-4.047597774734719,-6.4805684949757,-5.824619502688307,-2.7438495723043412,-1.686075459363253,-3.638852436075187
-101.0,3.817036723448825,0.8739132811361903,-2.9431234423124413,-2.300567086656742,3.348873208505414,-1.0691505310519618,1.0520468640205634,0.05395534357065923,-2.513520204066771,-0.2610248717299408,-2.4381481071118403,-0.4371577489199089
-100.0,0.8425341059656544,4.147779897360737,3.3052457913952686,-2.531748777524305,-1.2612375078434819,3.7585982789088743,1.4047379053947964,0.8983778934814426,2.016619768513697,0.7673668510162428,-3.8697208798984803,4.201241527810192
-99.0,6.760536923474976,11.627430715351426,4.866893791876544,-9.152510088674706,0.9962638807754463,8.266842597604736,6.685378822167966,8.501936878614629,11.717729407544942,5.681279750262865,8.07000372047465,6.690440032804685
-98.0,-5.581995334042545,-4.252583129669865,1.3294122043726295,4.881455291362313,-3.4852026644849157,-1.4503270926991858,2.04510206808527,2.305523079628804,3.866531999965037,-0.2761151407350324,3.5530277473107046,0.6504290492833498
-97.0,-6.434784732635843,-6.4362329237120255,-0.0014481910763690653,6.48116687829322,-3.1683286076502517,-3.2094332738462725,-0.865611197161372,-0.5787605020242754,-4.36651825194189,-2.5970046000460085,-2.035813770237147,-3.9407707395374096
-96.0,4.406191488692665,1.3925805999940915,-3.0136108886988358,-2.9296517470380663,3.677903963946539,-0.7964249340118497,-3.922441931028112,-3.710717811069251,-7.648591235083126,-1.9579926777993886,-0.35197568067218626,-3.8435157457909304
-95.0,4.5261808345863725,3.3920644684784307,-1.1341163661081677,-3.987473864472438,2.796000375181085,1.1517708243224232,1.2012011621352365,-1.1890822290515555,1.7334016767880365,3.274670309415895,0.298954581651399,2.447846184289868
-94.0,-5.628487320214456,-2.2166021535673357,3.4118851666470524,3.894834972518731,-4.478030418676521,0.5505696225364407,-1.4594303110977238,-2.281835140453869,-0.3941671675004058,-0.09455153142579364,-1.482943815183427,-3.142699340033943
-93.0,0.026311361341398776,-7.841625700670898,-7.867937062012185,3.958332089612593,3.9081814810292212,-7.896357699462337,-3.046116966565011,-2.698138126361214,-1.7161625121106854,-4.7908379484818315,-2.7458340207587035,-0.9066118688645457
-92.0,1.4924648223842865,2.5062529811868433,1.0137881588027984,-1.9495515226811226,0.2772229668419328,1.7974493260818307,-1.9517909613198188,3.2705011621263287,3.5361787292719473,1.653517134541128,1.557850446068673,2.3436947441528595
-91.0,2.7360679411544755,9.347278184821413,6.611210243667149,-6.071674236900117,-1.9011097112818056,7.933393966211649,7.329338286251346,6.765697026109689,8.86105101737589,4.274524694497173,1.618861840104751,3.889370838540119
-90.0,-0.13529755221636208,-0.7802736299523012,-0.644976077735862,0.4265291630012409,0.21144442571218702,-0.6866882739379023,-0.22761960600137465,-0.760270081376373,-6.104701560821725,-1.7166804368618727,-1.8688901574325114,-0.19174747417991878
-89.0,1.644549561643808,2.2816099239270664,0.6370603622832127,-1.995907844774927,0.4593535370677031,1.478932008880412,-1.8476809018527989,-4.742099207022064,-5.291893442215914,-2.775734490221338,0.5197606863073624,-1.3762681646781805
-88.0,-5.216846952847107,-9.38582252586026,-4.1689755730132445,7.345369812659445,-0.49041715504098055,-6.761141930158081,-1.5218746177319367,-1.961125858949193,-2.7402950183510413,0.8293902896938394,-0.9991181911925782,-1.2084482323681143
-87.0,3.0994360455821894,1.498824457342991,-1.6006115882393184,-2.257150201481863,2.3832270653401784,-0.03424754284373854,1.635087735922571,1.57494095251743,2.513396118799911,1.7924227847800371,0.8941980569687217,-1.954885103766513
-86.0,-3.9081897759978856,-0.4470211730930025,3.461168602904778,2.138775495117377,-3.7295197149928025,1.5267972587781444,4.1245179494907225,3.148120820539468,6.5981499974805295,1.5368700612028747,2.056724765361138,1.3306990461970138
-85.0,-4.749162279811667,1.9848630133974627,6.734025293209039,1.3413494191510216,-5.70563830594085,4.304116620672056,-4.071727643683805,-0.7042772513871061,0.9395142709036737,-0.768200924818682,1.030854604426975,2.422613186706072
-84.0,2.148381495016893,-1.762234437944881,-3.9106159329618304,-0.1569617585049425,2.989996062647048,-2.8893560906661673,0.2936551900846107,0.35829000077897133,-2.0743914659154163,-0.8968370497247258,-2.3513612207403023,-1.87828377944968
-83.0,7.576724007710111,2.9959788931643,-4.580745114545825,-5.251933463244516,6.121922510062428,-0.7663247237653616,-1.2982784731117343,-1.745378429383626,-4.331016776188167,-2.088883136811927,0.34742643603198886,0.24227451481427964
-82.0,5.897388327820383,3.197443320495986,-2.699945007324364,-4.593323877118853,4.266657657827217,0.2732814731321055,-1.9767453410033309,-0.547684372309911,-0.8241020166083077,0.2860260400395168,-0.03322196821897294,1.2965350991567377
-81.0,-0.4300265006420467,-3.2506173721791107,-2.820590871536977,1.8716764249135758,1.2439507163877868,-3.0132760782758434,0.27636459985927575,-2.8944534165974285,0.06044906461235611,-0.6315580613091412,1.8185707720980688,-0.7572311680976163
-80.0,-5.78024173228929,0.10471785419746005,5.884959586486812,2.7890423000945397,-5.863411783826692,3.0152679061752945,-0.7496302100844002,0.4631653999160403,-0.6546130018515067,0.8657920915057622,-4.643460432323248,-1.8732278103441602
-79.0,-7.458344448817786,-2.2566534730212364,5.201690975796588,4.886631218597449,-6.364563000967768,1.412973377529306,6.702433830929391,3.5824955274885424,5.478913082213672,1.0830664253395148,-1.2372334362185897,-1.378582858073843
-78.0,-5.681942917119136,-3.314655397316484,2.367287519802628,4.527376474835011,-3.9864805428946832,-0.45529209659760417,1.5509939513316087,2.057372492878726,1.3182482416796817,1.6481200753742997,1.092997108655984,0.9778711114378953
-77.0,0.8571154824189748,-1.581633168644784,-2.4387486510638725,0.31381085084878335,1.6005501345484974,-1.9927605922527478,-2.5857224472129485,0.3234891157632813,0.9395542788597058,0.6424593694606784,3.2731908738296145,2.4394487722027844
-76.0,16.739173404967875,5.7349310962188955,-11.004242308749104,-11.20394420072057,13.897724489732326,-2.618761674478503,-5.696314909674594,-2.8632325524564215,-5.771428896397165,-2.3596775340402956,0.011557308711599878,2.6895275886683945
-75.0,2.975850303997829,6.254007691947212,3.278157387949304,-4.656150597557783,-0.12727360309561853,4.7011778519751575,2.1760092505013873,1.8316133677312205,0.8325846249760005,0.6791578114548378,3.0076764779738303,-1.6889574566209313
-74.0,-3.4393257232599366,5.944926763295687,9.384252486555635,-1.2096022643548894,-6.386064546513637,7.676569239308214,-0.738343899278765,-4.984061355258065,-4.092198893610687,-4.713532930917509,-0.9694220437026403,-1.4361987793715245
-73.0,-8.903314136562203,-8.877375776986703,0.025938359575573777,8.860847013022138,-4.512391200864908,-4.4142871195349995,2.0051694204305597,0.9235341605524359,3.8687886349136695,4.839514135288693,-3.8813200835948147,-0.3767653921635816
-72.0,-3.2116794614275737,-10.218454268345868,-7.0067748069181786,6.76941849241639,1.9355884283579927,-8.599364709002469,0.7652611018723325,2.3846317846837293,3.7044851523509235,0.6378168202651233,-0.41901749951387846,-2.1180748254790673
-71.0,4.2162061212072235,2.9996295522180363,-1.216576568989071,-3.6297023286392864,2.6825599963716664,0.909312426894552,0.8611696383177282,1.1298181966736134,-2.2579667757294093,-1.4121613893193468,0.27848362855939723,2.270069391576996
-70.0,2.8429119414361086,3.791969788538907,0.9490578471028415,-3.3402902078025694,0.9182485684709716,2.3948863053146727,-3.1564326294658143,-0.5133337783776527,-0.5440156198557847,-0.2040308846691475,1.4493646085615364,-2.3036122590985286
-69.0,-2.465401167961336,-2.158004131398662,0.3073970365626675,2.2838367128270525,-1.3335098433659667,-0.9725372070723493,-1.5631374783488352,-0.9008717825616659,-2.1716417087034174,-3.004957369548219,-0.9807642195638958,0.5787174063475375
-68.0,-0.3239187479712847,-2.2231244693961703,-1.8992057214249072,1.3163859477960986,0.7626651184265265,-2.1024116178852017,1.046663310256985,0.458210948399575,-0.002702834808869903,2.3871679865496107,0.9351382171574737,2.212272712611238
-67.0,3.957637531445582,3.2084810963068353,-0.749156435138757,-3.6280109320608807,2.328448538864412,1.270714154551929,3.680245908141885,-1.0160734257772805,0.5102038530782587,2.405452574997192,-0.7634247755216411,2.0830556470567463
-66.0,2.527329534292828,8.20958087730134,5.68225134300844,-5.342495697071071,-1.5232693046022296,6.987596014978637,1.3781667706020237,0.009707172325494617,3.818104074046296,1.6373660424953131,1.5093832100961697,-0.5101690041616904
-65.0,-2.6973019302562866,-0.7056375912030788,1.9916643390530713,1.7225296917022033,-2.3675217388844514,0.6039949103166395,0.8551474579821194,0.6857123846923006,1.6010842800603018,-1.8826510775936127,-1.9034862652302817,-1.6985880320899014
-64.0,-6.268374888803171,-4.700253245981818,1.5681216428211902,5.503909027556756,-3.9387062200681764,-1.6086224017676753,-2.5357696935066563,0.698875141108695,-1.4922721167913053,-2.434304216386967,1.4674937307644713,-2.4094703639558217
-63.0,-0.10173840938741208,1.11226014277499,1.2139985521622865,-0.48450537592998355,-0.5969095018105625,1.1955235531065131,-3.8571760088922127,0.23600513075815477,-1.7325022678698185,-0.5458059890924747,1.0374339164747208,1.8161764669167941
-62.0,0.05429616073872923,-4.028420215966806,-4.082716376705491,1.9313073739616544,2.0519140869322463,-4.0259711866585866,-0.26578564427771467,-0.4722580386239808,-1.0360996794774142,1.322178107979198,1.1731436815417868,1.224015906623845
-61.0,4.779388801241347,3.1871499007108692,-1.5922389005303108,-4.0370721912744045,3.167479099804094,0.8260563586070986,0.5336999784510246,-1.131762373808292,-2.4354790595765627,0.5262276012413809,-0.6305940989635088,1.5147934703729662
-60.0,4.405403532270949,-3.2529115256043912,-7.658315057875129,-0.550133622241223,6.0082185524494855,-5.5047879160716136,-1.499054601421825,-2.318066900517615,-3.2769462628794046,-2.798358117998678,-5.650630494242679,-3.84753647710009
-59.0,2.175794205502632,-1.4791171309944815,-3.6549113364969648,-0.3214520796959226,2.883574128738056,-2.613553906565424,3.7925361977069447,3.9661442266807585,5.327744098984437,2.2316039082138315,-1.3036868154871284,-1.9838426881205933
-58.0,-7.318921821867667,-3.763224339992311,3.555697481875343,5.569054698122836,-5.399322047612181,-0.06779545981660207,2.2506160470843115,0.8744093098451236,2.8975340354697563,1.4210575933787208,2.5932298475839324,-0.1831886529525274
-57.0,-7.821156414743281,0.8798459987663332,8.701002413509483,3.500419656861572,-8.230394779470394,4.830598879899832,-2.058220140113591,-2.286177583276939,-3.4327907464542893,-1.7238917653502615,2.8600847272634624,3.292315519877966
-56.0,3.388543364957343,7.640452856037551,4.2519094910800685,-5.561212697664363,-0.40450820990402026,5.911378540427659,1.1224871755880632,-0.9493141212889402,3.6246155571529712,1.6927099808638266,3.938546911485953,2.388066046959372
-55.0,4.944234323907244,7.468075141346984,2.523840817439645,-6.2505490395004575,1.1599033500200022,5.0421618525028595,0.23145445176155288,1.232488766239626,1.8546468865281371,0.6197406691949746,-0.13134767096061162,0.7969645514476964
-54.0,0.7869579395509336,3.516689846822017,2.7297319072710393,-2.1152628749485207,-1.015931070559169,3.0904166998491096,1.995683758725032,2.933386738585195,-1.1040374962082637,2.0829591785823505,-2.5371392683694887,-0.04197274300964299
-53.0,5.6100959858179,-6.200013058474763,-11.810109044292673,0.2551923425308914,8.753029138169213,-9.041002186187628,-6.390044850897942,-5.087161591503392,-5.273801411577273,-3.9991056809121495,-4.703549111192884,-4.83529307561599
-52.0,-5.535795334299673,-12.741816705125382,-7.206021370825696,9.180998818315818,0.8873466351438615,-9.936549976962953,0.19303093953117134,1.7530780420635836,-1.184838348796161,-2.1981347308686505,-1.223404246800127,0.5402875953536923
-51.0,-1.073881236706788,-4.408718950676052,-3.3348377139691587,2.7877720537326263,1.1109914129685499,-3.919281463098173,0.5965274717572137,1.5364365346025461,1.5570557840114214,-1.9321799744315158,1.4513849350683132,-0.4902194062863977
-50.0,-0.8058300425590685,4.46287838862038,5.268708431179597,-1.855806330717496,-3.0546664478662144,4.89234791803663,0.9518778017162476,-0.9147156085777193,1.5340091650622012,1.556095899328993,3.566264548276982,1.7005493205833697
-49.0,-1.7742217055182625,5.735738306982732,7.509960012501096,-2.0032103470210223,-4.663902750161963,6.647926949830769,1.9987148468439921,0.2939740616157491,-0.05161309760831112,1.8820992246172503,0.8024211444220095,-0.37052292738902015
-48.0,-4.225223722580369,4.175076047841694,8.400299770422048,0.0063652488960053155,-6.345226648913579,6.315198743801194,-0.06347128760025855,-1.4066302587317117,1.9560555330920255,4.207900333047081,1.6874534199945384,2.7025161232933024
-47.0,4.0607352993151675,1.1318586014576395,-2.9288766978576586,-2.6128153911224192,3.5264140389512697,-0.9441056371189274,-0.42332204352594327,0.9517436666099531,-0.5706871623167578,1.191394708952008,-3.4528848559994647,-0.9133916749151477
-46.0,4.145612608949382,0.3872195178905913,-3.7583930910589816,-2.203413809218358,3.9684261067748876,-1.6453365989431723,-0.19090049079898758,0.9559602002093049,-1.1972038613322373,-2.9365959808269255,0.2220020049646938,0.13209020531464086
-45.0,5.473079731163137,-3.480996386406762,-8.954076117570056,-1.0119387807339046,7.217986576754139,-6.249474143189566,-3.102423990534041,-0.5426861532695885,-1.1284161754358377,-2.2204211033465655,-2.3691349212619155,-4.180878820637615
-44.0,-1.7708526370621196,-2.5897489786025467,-0.8188963415404888,2.1638240018310406,-0.47771265017833153,-1.7315637023109702,3.068950125862164,-0.2963589348414417,1.213923482694232,-1.9270653807855742,0.5138216550932697,-0.9795729560570074
-43.0,-7.086346805615468,-1.2486517078733028,5.837695097742177,4.150226806663958,-6.463023297516608,2.269952464970399,2.424093982148412,0.4235099428609102,2.981513345162025,2.5151198657041514,2.393893269797867,4.048046975232178
-42.0,-2.8550763672124524,-1.0373499463528706,1.8177264208597106,2.0065472536614735,-2.330628216822278,0.4458817099107496,-3.5249006941371666,-2.2772596398154734,-3.6936752818738166,-0.5677130377136632,-0.49984238485515997,-0.8111957206532523
-41.0,-0.29887438903983243,0.15402296995961726,0.45289735899957817,0.05214550440513488,-0.35957242104504905,0.281922441795476,-1.4908458745271673,-0.7499280972088754,-1.1088653971654154,-0.5046063602815618,0.02868354593714878,1.9174975325427401
-40.0,8.824647605094064,7.25774893116952,-1.5668986739244657,-8.064428724114451,5.144655112621424,2.9047436733195813,4.496880132391088,4.956157263083074,2.5331139117240684,1.5077699375661573,1.2892776994026318,3.1143925586887375
-39.0,-3.4213159905302852,-4.383306867162288,-0.9619908766319626,3.8749856841065844,-1.1927831962303626,-2.6898924599349665,0.07173854802665303,-0.6546365204103122,-0.7247439330965849,0.8639113133982321,-0.20524936192376203,-2.6590572711681935
-38.0,-3.422764057742735,0.8052088312683612,4.227972889011082,1.3553644399108804,-3.8620786003222225,2.5002071235126606,-2.569189704447099,-0.8180988101509301,0.29094370010939197,0.38003350065566843,-2.4115372455410404,-2.424624052739217
-37.0,4.22631788390918,-0.34752285966259977,-4.573840743571811,-1.9764025231375988,4.442385120100233,-2.4790874370843645,-2.9049730167975576,-2.100572909245102,-2.261756977173944,-2.797319506372604,-0.2477327464717327,-3.5933922296443286
-36.0,1.4280236356044502,-0.3104558361173929,-1.738479471721864,-0.5211513249010474,1.5426040754556016,-1.0485833486782647,1.1413495832205502,-0.360046884073537,2.994341450169448,-0.8176594511159421,0.08240432495643463,-0.36851234059453564
-35.0,-3.0822021528781995,-0.19946445598966644,2.8827376968885066,1.6755089415547477,-2.9516157675164303,1.387348708639401,2.2924305337068325,2.0945246452262714,-0.16073096086522698,2.185657973543395,1.228719257964963,3.7047479505955145
-34.0,0.3299347336728262,4.2949128182644305,3.9649780845915004,-2.3582277245213517,-1.7949044362201558,4.086464630357776,1.476192097276791,-0.6775449309549696,-0.4511593119699618,2.205699213209495,2.2104653327407795,3.8425898037617494
-33.0,0.6944254496952941,-2.845490289422364,-3.5399157391177893,1.0291648845060672,2.0540988004920715,-3.1670786622786204,-3.918039802343621,-3.163908304677664,-1.9650379381582601,-4.029133648313687,-3.6737757968281595,-0.3942220033448667
-32.0,-0.4146782480366608,-2.4380631932938486,-2.023384945257269,1.4594174267940012,0.8164886167176826,-2.2118189768354957,1.7859730161592386,2.8992822478480136,-1.639624157638754,-0.32657871688325946,0.1073164642824489,-0.8766294824180005
-31.0,-0.9549023080161448,-0.3457242430279672,0.6091780649881896,0.6854622523058677,-0.7686076322687558,0.1480614624278136,1.6502369927757972,3.1476493153902125,5.071633065652286,2.5056945924666314,2.2831118981047207,-0.7031057886275308
-30.0,1.6016832152631606,0.9073555824148225,-0.6943276328482397,-1.2944594588557383,1.1678932473694,0.04563564882079191,0.4759998859568983,2.0295878374641685,2.9598771833706192,2.112157526092126,1.1269134424929343,-0.24023451661035178
-29.0,-2.987228075210235,0.06406829443306028,3.05129636964341,1.505358257889118,-2.988842956127626,1.5799507604184733,2.029274949347142,-0.5856018110134247,0.12042780644491624,0.21771552338316968,1.6658180948855725,-3.641886672116655
-28.0,-3.15554911527008,0.21063369510447083,3.3661828103746276,1.4430406353580278,-3.296898454727918,1.8158550533338527,-2.3548383515930054,-4.564221512114322,-5.80603920002676,-1.7160729314178897,-4.252267927765861,-0.6955417979650591
-27.0,6.326626508916867,0.49103883449756747,-5.835587674419333,-3.433161204590794,6.056252593867278,-2.641186442460046,-5.94198105869189,-7.6713155654916845,-5.002928696095966,-6.3510706823784995,-4.495302621200328,-1.3547968262145549
-26.0,0.6065410026136191,2.9506342703189734,2.344093267705234,-1.720642064496379,-0.8861852640251624,2.599994445279697,2.603581872446777,1.8460071456550584,2.5182150944989203,4.778592698156391,3.626227226051406,7.306030825056027
-25.0,-1.4728188363949446,-0.9065139847289394,0.5663048516658518,1.1699964137080536,-0.9561738946165128,-0.22107357103056302,-0.326870565784546,4.347615825369666,2.6000850671632545,0.8561231989555971,2.3177567526403187,4.105285544476583
-24.0,0.08636294533024513,-6.826135118599054,-6.9124980639294495,3.3486938690770507,3.4802978844002554,-6.847884351666052,1.5800627964222715,3.549710991509172,-0.15252297317285324,-0.6372684813945297,1.274698813215216,-4.748530252068362
-23.0,6.99307859942358,3.4619185843839175,-3.5311600150396827,-5.252408301156207,5.234222930891454,-0.019724136371289447,-1.5912796042423298,0.1615100418058657,-0.8492020596249008,-3.0117272209034454,-2.7101500382242834,-5.509105233893554
-22.0,-5.046724564847505,1.934957779423298,6.981682344270928,1.6049335503800743,-5.975207142310398,4.469519906832831,1.5807302617118832,3.58910841134336,4.573201760022199,2.1278688016537144,0.9791404250686297,0.47686273502174314
-21.0,-1.0774512862193808,5.336577543447068,6.414028829666653,-2.163702502385413,-3.7977826153748877,5.88791490428357,3.4392313215080517,0.02567799808709488,1.3266719856404505,6.610579912963233,2.1118197715795044,5.9595699475182755
-20.0,-8.154289364757341,-1.942652655340793,6.211636709416778,5.090184908440661,-7.166063358084494,2.154216682400503,3.4037020639379607,-3.0679295585912065,-0.5412078317281234,-2.67200507889604,-3.1474156429123052,-0.7669858435054753
-19.0,-0.46496202834218225,-6.658420134196803,-6.1934581058544955,3.523800712987118,2.876286069924849,-6.473487813845218,-2.445769817852358,-3.744252603758376,-0.9338085244641159,-0.8857383321159926,-2.8014364332844903,-3.253124324855617
-18.0,3.7086856287765144,0.1617874505242245,-3.5468981782523206,-1.8935740800417105,3.6412093904843883,-1.6483288337725965,-2.224670864015195,-1.8188309591295946,-4.261462866069673,-2.6556822185100497,1.48608932845293,1.6887820827143292
-17.0,7.749698705745043,0.7538433596715275,-6.995855346073755,-4.287523187688071,7.393470303152851,-3.144323083330907,-3.7149889633712565,-0.2863396833032975,-2.354581800064336,-5.126757691760065,1.2448780310114274,-2.7890833536637016
-16.0,1.470002512347893,-2.4833729084420355,-3.9533754207902194,0.5501211210718182,2.664843798754512,-3.2351690075943798,0.34809011013471847,0.3248060967441515,1.8998208606163334,-2.4391353464772623,-1.885122326090615,-1.770703726619269
-15.0,-5.223653879446,1.0765185817435075,6.300172461189341,2.0366389787192185,-5.717879426628713,3.671875919580647,-3.559561100181946,-1.5563290171621504,1.1930256042078238,7.425131850044041,4.7234254749469615,5.24121177209944
-14.0,0.5973130312366313,5.087424291098062,4.490111259861459,-2.8833381826613875,-1.9712470789692698,4.845422718748559,0.06748738002508936,-0.19736411057962644,1.0277636304617748,7.247819436033572,3.9008724307654257,3.038429975493384
-13.0,-1.9177339332489003,5.0166173878956215,6.9343513211447,-1.5175253108377946,-4.445701214083945,5.943703571139952,2.7347859983841882,7.177813997688216,0.9792020463100157,4.927468024013432,-0.012912660303302181,-0.683747587826802
-12.0,-2.081099931465933,1.1365093695988242,3.2176093010650026,0.49786975403559736,-2.6695356331209776,2.13450546506737,4.362284185012969,7.067106779382067,0.04365197530326825,-6.291727078058667,-4.25389482831845,-2.320282331987827
-11.0,1.6625664752234228,-8.899434901480275,-10.562001376703511,3.638748785343353,6.165099749112155,-9.703201562296075,2.258346229634442,0.8052864421090917,-0.5116913316610712,-6.97380339692116,-4.214574670780092,0.7918522014658691
-10.0,8.626258855658321,-2.114530671933125,-10.740789527591375,-3.3172191267502926,9.64823828901015,-6.40435749771699,0.6974304581227928,-8.52684077410004,-4.66901783853437,-9.056534286021181,-5.045477961304659,-4.430196363330648
-9.0,-0.5288974660155734,1.4812344115636438,2.0101318775791723,-0.4586889080555441,-1.2368439512425846,1.7699451871276715,-4.3672484505030775,-11.727586426575169,-0.8164151950016643,4.113095654137079,3.9166737220324563,-0.418783442416089
-8.0,-9.150848035883698,-2.121743155403932,7.029104880479727,5.656858212922137,-8.067440100466788,2.4828416172816965,-3.419324040675003,-2.8028769212471643,4.1385510861133366,5.078529165087506,3.8147728841588826,1.0102782651957116
-7.0,-5.096397107844929,4.025838550634822,9.122235658479735,0.5613058076545556,-7.173301732001441,6.530668586165254,0.8781064165419168,11.7410682160005,4.715057042055595,5.485589784329979,2.2235095855864735,2.1293322501298517
-6.0,5.146453342060493,-0.6669269895598702,-5.813380331620392,-2.2857011677218515,5.490462253578767,-3.2787690512533567,9.709632614645464,12.140052576008102,4.92830042879756,1.7553579799998515,-4.191865255365272,-3.638919778902044
-5.0,1.1008949661145024,-3.6116034773109345,-4.7124984434254875,1.2162756576890406,2.917196418710417,-4.199096487251525,-2.9567298307717547,-0.909321139192051,-3.583345782502347,-4.499383763140967,-3.9896712241812042,-1.4751441821912914
-4.0,1.806304787073263,0.9235968217749558,-0.8827079652983829,-1.319573134217588,1.3590767718941503,0.06050168429215841,-4.895322580667291,-6.286232252653697,-4.082933445976495,-1.9771014234038264,4.7210396170789775,5.4756222837429585
-3.0,-4.831082622195465,-2.8474838614363964,1.9835987607590386,3.8880773204912105,-3.38541154184506,-0.3953895932564053,3.8772293987138604,-5.8296491462084425,-3.690471580544595,-0.3498431765065808,1.5518495322766062,1.3868946820772687
-2.0,3.5936555969779724,-2.081349937474388,-5.675005534452326,-0.7859867823397826,4.586658961278152,-3.8450868394748894,-11.948838497762981,-5.974385299430482,-9.9881915488182,-4.479914863344896,1.0230428970400998,-3.909106624314849
-1.0,8.13626583025652,8.539297131844844,0.4030313015885043,-8.371440191055235,3.906839853912337,4.423709274128186,-4.325472611690471,-0.3244845068684279,-0.27418162459809636,-0.26912369582594753,5.213485239127014,5.656785461177404
0.0,1.9651168758004212,18.968295283704542,17.00317840790445,-10.429279943068284,-7.549995778141188,17.939099153858244,13.224877065711054,16.505334241497803,16.511198815085702,14.483972272176931,3.893503477701783,3.7437960491843474
1.0,-0.7345065610537217,6.280588123650185,7.015094684704265,-2.8246726377186526,-3.900710084007244,6.683590825397638,3.0335750897418867,2.8544375727407107,11.299315328877649,7.200204095166395,-1.6655259776591798,2.9527330837274643
2.0,-11.335240510448772,-5.405720678536456,5.929519831912506,8.386895622117246,-8.577098262686306,0.30358627065236354,-10.999687772782025,-24.017229611446588,-9.275067632087532,-1.6422221550055958,-5.015334399396118,1.67616951171276
3.0,-4.053458798494585,-14.538629879027479,-10.485171080533124,9.30413648787195,3.1927850514907044,-12.541962004133467,6.470422377784863,-6.954390268302364,-3.7224439092629913,-8.985246438281452,-3.7645026695654638,-6.331745434941933
4.0,-4.302932841814826,-29.200330986340845,-24.89739814452663,16.7562244950233,10.273419767466292,-27.07266524227097,8.523191278454489,6.2940068109047,-8.222438509298938,-17.96495205684904,-12.731585613770369,-19.72037147623736
5.0,2.8401256801639727,-11.341883164149746,-14.182008844314598,4.258034034637744,8.564986782369878,-12.703459341416956,-1.9393124783659657,16.546948941289646,-2.4961077008078925,-8.561852229328442,-6.240450918180422,-6.693975412976162
6.0,5.927515823539588,0.495797273628507,-5.4317185499117135,-3.1963574332972406,5.654028421648677,-2.488989321010301,5.3600796316657355,16.72188254597509,6.5224193841548015,0.35081622368616494,-3.364725361999552,-2.13457488257838
7.0,4.884119643328088,13.98003075117865,9.095911107850474,-9.405158410264594,-2.131899833797658,11.511293840765763,-4.682790990430281,2.9031798532196387,-1.0377122423681824,10.329850247807363,9.215633411466172,8.588869041373396
8.0,0.48196293592398165,29.48633205896923,29.004369123045816,-15.023895585904079,-14.208852488285098,29.20893643331854,-10.820491413128444,-11.449305215331124,1.234514466220486,17.033888823585805,21.103971942256315,20.12676404577098
9.0,10.218351693742832,15.606616504520058,5.388264810778679,-12.942491476596086,2.3877047560509954,10.52802930065943,-7.182377093485899,-10.515656847111693,-0.09621232365923671,7.184997749758663,9.121480193632646,13.86369445140231
10.0,-0.6734514316651978,9.799273590662427,10.472725022329172,-4.5871703617532775,-5.602501599223582,10.15555176445106,7.77364174287744,-4.923684809269066,8.0130411678893,6.637313796482145,9.23392456671867,3.952997273593679
11.0,-7.896096760363185,-5.890928177710978,2.0051685826530887,6.949654569344814,-4.90493726042349,-1.9312371831909676,-1.3100433648516638,-8.44232378288367,4.38708270858297,5.418256790555105,-2.019003731193594,-7.9799627530804065
12.0,-10.040870827606462,-7.64147593874792,2.3993948888582572,8.817225550831068,-6.258563214204115,-2.6128564392671496,-1.0739961785896965,-4.123233380493894,0.31225279834174235,-1.2434441166744943,-5.484825354925294,-5.439215316643331
13.0,-6.857041352228045,-15.084414088924866,-8.227372736698083,11.022756058735851,0.7184920242315576,-11.646723801618585,7.0697568075394095,9.300689207462817,-3.4921030308560064,-18.94878537289531,-18.961467796844182,-8.533467501651769
14.0,-1.784196179314022,-26.139440062599988,-24.355243883287407,13.932184048580355,11.31065860425973,-25.31249025136599,7.952159202387876,9.009711117861777,-11.311877705356052,-31.367357810690386,-26.007290582002323,-14.24382425718479
15.0,6.449943619707193,-24.25257282967402,-30.70251644938242,8.869298342836512,18.51402306968513,-27.457415455315157,2.865941530765577,7.718586354672791,-10.949770568995266,-18.07633582984262,-15.701331844970852,-11.92926395821287
16.0,9.40195625343139,-12.504488894320065,-21.90644514775218,1.59618624033132,15.663009515819901,-17.17788529933618,2.752629894423799,5.368011069275375,0.48450849645984295,-3.599261269877137,-4.830660140324883,-6.903282126775384
17.0,4.809995116741319,22.60383917225275,17.793844055511038,-13.742394461985914,-6.488362223623127,20.15525927202536,-11.128869092885333,-1.406888990556836,9.412698141759511,29.841247045870798,28.022392679206746,10.797633806747031
18.0,4.013727151771937,62.00856356554211,57.99483641377013,-32.96995205499227,-26.988135183534553,60.04406147624005,-9.455259228036804,-13.94307945820707,16.406719332518275,50.007824707370375,47.92306691521904,32.14739324628108
19.0,-8.471684633848866,19.766618840747718,28.23830347459713,-5.688082770123433,-18.348623776052996,23.97237756196382,-5.348054072320275,-11.639834024989447,-0.86781280654845,10.775275315201739,14.662827488232654,15.44224969259235
20.0,1.057334193488332,-14.820127296766602,-15.877461490254031,6.91522856526357,8.48261111122964,-15.295341833587509,0.3785319296719234,-2.6240982477007635,-11.666794078772382,-13.07987278649976,-13.79618667350838,-6.714227115268445
21.0,1.3352930426536327,-6.767886458313132,-8.103179500965863,2.6660063442680357,4.7465843422539225,-7.4582708756368365,-1.8208791735613392,3.0351960609122437,-7.811558495996012,-11.898543779487424,-12.214846167300855,-2.3307356127616714
22.0,-0.44282685690968737,-8.150114950983866,-7.707288094073579,4.3190893495072356,3.5935789908264546,-7.951603619516344,-2.8369642082780437,1.0255905710541597,-4.216675476998143,-14.084859851818756,-9.999441644199472,-4.1757247007364295
23.0,-13.086181266617354,-35.72408257821455,-22.63790131159721,24.422278928603895,4.747603626078925,-29.20670738279445,17.371652936485216,17.52287368629178,12.148298771052023,-19.976989012289568,-27.5881936931789,-20.256766807119163
24.0,-1.8876549612411542,-21.76768950208171,-19.88003454084121,11.84052948100258,9.05240311940845,-20.775477226286565,17.36003334395282,16.92802915015038,15.721520565753156,-7.023510244182397,-12.0320423185116,-17.348521429659193
25.0,11.235717694471884,8.278447571984518,-2.9572701224882394,-9.746701592184206,7.074087626236026,2.6250918268712233,2.7899230933442407,4.267164051089539,5.314840282162043,3.961818815240685,5.491983702075591,-1.329101504831458
26.0,2.4855889074710875,21.296632518317374,18.811043610845708,-11.959644661612188,-8.189768938374314,20.092883839301148,-2.2500054111747145,-15.808442493742275,-6.6438399651705655,11.793332229942052,17.774510275736308,11.335558057708393
27.0,-2.693377819462896,22.842732254063606,25.53611007352658,-10.061836661749485,-14.148836230006866,24.14734335510638,-13.064611261951132,-25.162308720317096,-18.477626854046502,7.383390661974936,17.12801182481465,19.901859867972725
28.0,-1.5258725747053399,11.583020168679145,13.108892743384667,-5.009919894585948,-7.2790905266491714,12.382131032031541,-13.668458444527419,-21.51525470898619,-17.628561604335545,0.24414513770522284,7.639472898910096,11.71629639748968
29.0,-6.2300836284039764,-9.071932887207314,-2.8418492588032436,7.6786621773461965,-1.6588194741273279,-5.920196341228138,-8.161933904095273,10.34241930282367,6.971605282068907,4.482141814160354,-2.700088120516405,-2.5234091105819214
30.0,3.2709670113928455,-11.007337289803132,-14.278304301195917,3.8284800747272643,8.811498938254017,-12.684731397000894,-3.031761089352207,22.627591973182813,13.78909048012139,2.69069903415101,-9.427466970465886,-10.054254352324946
31.0,12.873470987428167,-9.625649531879985,-22.49912051930804,-1.572819389220368,17.64978435012751,-16.105788532742803,1.6610665228740333,22.474183498413566,7.9179791693626065,6.931100144578363,-2.2866355744648343,-5.871028356476327
32.0,2.0111852593979247,-9.386440749503109,-11.397626008901046,3.670281379869606,6.67482772317224,-10.360277588071629,12.639650520491688,4.73528928450898,1.1293635427194042,-4.193332780552002,-3.2063866171391924,-8.343412877828818
33.0,-1.939488431937005,-0.08563096198410491,1.8538574699529091,1.0014227064043353,-1.92047813965225,0.9108497400481284,10.13445459334401,-15.476773851112583,-7.584690995601981,-12.00445498310929,-6.65456745335737,-2.0075088139153703
34.0,-7.638875321596699,14.888485781402563,22.527361102999258,-3.6353637859730012,-15.025689781264743,18.651089778904037,11.791969230523394,-9.192564164967896,5.240715618135934,3.4816609700464776,1.3412564468142079,5.499537527787325
35.0,-3.3369464796966986,11.961795167898064,15.298741647594762,-4.328112435938374,-9.340860080740848,13.649576333536839,3.1992168321594057,-4.701005316732141,5.092114486356813,-0.5148819199301276,3.5481855355389005,5.7726327937070945
36.0,-3.527104336446381,-0.32322594587486275,3.203878390571532,1.9000949169511334,-3.3938879014673056,1.4608743268952455,-12.392228924109874,-5.163399886476385,-1.6354875563824434,-6.962042474303811,2.492501630579918,5.855674618623474
37.0,-6.558467266640188,-11.827761768505592,-5.269294501865378,9.235604613680973,-0.6016878542369355,-8.522322239607425,-10.348900552072417,1.263875922397384,-8.375617857106963,-5.704854566642069,2.2852954367834473,2.297727634331515
38.0,8.366397327169366,-0.3311767733954287,-8.697574100564776,-3.9856110022402924,8.4887987277693,-4.557691664000821,-7.594665456813302,2.1554626007412465,-5.425161195052215,2.4019049372221155,0.028785410914945242,-3.986230786872795
39.0,3.6027347422815676,-0.6468745557435258,-4.2496092980251134,-1.4539790437956817,3.956612785010276,-2.40209316255216,-4.826438620496062,-1.8598660656177497,-4.795918898989363,2.404422326147156,-0.9808553155153268,-6.541068522383844
40.0,0.820776649619618,-7.804961812322765,-8.625738461942355,3.4323930443490736,4.752140464262164,-8.238390784759382,1.8245335661321418,2.8087604871552,-5.433782508083736,5.418687810833251,-3.3169694810273636,-4.407079708194754
41.0,6.5268910342355735,-2.3158772976153186,-8.842768331850746,-2.088204708915973,7.637180550596553,-5.596237670471609,7.8781533655722855,5.5802694644398745,2.9152912085863267,2.979265977821613,-3.6255905346465354,-1.0822224525374846
42.0,0.006773895161958254,12.10584789827347,12.099074003111653,-6.116469984930831,-6.010006358204957,12.087115809891277,12.04194860822695,11.291208794004833,16.08860341917204,8.735765849289054,7.573283895793503,7.8824731087904425
43.0,-2.8746116652454803,7.595813875544586,10.470425540790144,-2.3376085761896794,-6.709039266102424,9.01516055812232,4.912823668256897,2.4765426804613426,16.82708561146478,5.434074187948566,5.037921350838388,3.706522613457972
44.0,-5.837834649234694,0.09433327867879493,5.9321679279134125,2.9023183151297642,-5.837707513403184,3.068822354185298,-4.2842284440159215,-4.552781380314565,-1.1993317806847754,-7.789294413596518,-2.4881437914980697,-1.6088646205884407
45.0,-3.6838055697938614,-8.6649261178673,-4.981120548073606,6.215204156145797,0.6195068727253483,-6.8520042532146235,-8.359906724011081,-13.409820083356008,-13.122973160482937,-11.06807774994391,-4.097591500964243,-0.8156338259592092
46.0,1.1345168579000182,-2.1791480608604967,-3.3136649187606952,0.49599239475524914,2.193598810375937,-2.701407251016173,-5.109286316685562,-6.260984335126079,-11.177212343868646,-3.743193463584328,-1.9177420926604327,-1.4911387506688127
47.0,10.18615063161215,4.15642367499999,-6.029726956612258,-7.1868139241572315,8.15145910758368,-0.9734562963238318,0.10852132727281028,-1.8363482262439481,-4.657941039242365,0.6382240193383382,0.9484971104929509,-1.0691764862401212
48.0,-1.7321015733184488,-4.242621124843931,-2.5105195515254994,2.9796588410254965,0.3471759887684742,-3.3362256262767,3.3497004782339084,7.5181345692806225,0.8995285877888328,3.1530164304833996,-1.917677523921158,-1.5391529671135045
49.0,-4.361243582424563,1.2430326973448929,5.604276279769508,1.5547803336674602,-4.952906932640101,3.384317315692099,1.7881031935148082,4.292747717832668,7.835033419992825,3.7879587383162217,1.0876738713045455,1.8228595826391165
50.0,-4.1313240166755,-0.09432226332831217,4.03700175334729,2.1071318859984287,-4.0591551829502786,1.9310109590118347,0.7290444980869326,2.940898751730118,4.033929628737377,-0.1359861564009326,1.931274901837107,3.027589719059541
51.0,-4.540677055932192,-1.1278991388258663,3.412777917106444,2.8233393083721516,-4.031724871361059,1.17953243685155,4.554416535833912,1.3562720150738956,1.2479247869038055,0.45494112840989365,0.9052429627368959,0.05947141398356304
52.0,6.76250177941291,2.154960726127773,-4.607541053285022,-4.398532039969407,5.711770231995792,-1.190666571364236,-3.4533257441825183,-2.5948040871792335,-3.584148724577698,-2.644057508314957,-1.1729704219063273,-3.822377750175625
53.0,8.622527767789306,2.8286980646759705,-5.793829703113239,-5.752483084580678,7.24176659011814,-1.526913342646297,-2.4610431573246956,2.350929053869466,0.4995079865359483,1.1603782474296462,0.12901547670161737,-0.35573625268167963
54.0,-4.524086288114612,-5.254086796169988,-0.730000508055304,4.854398859363425,-1.9329108422626264,-2.9583558928418237,0.9713596245727252,-1.797436434739056,0.33375050424743324,3.69569979447548,1.334178937564547,1.2296282207183769
55.0,0.8929375135572448,2.8775194981757983,1.9845819846185928,-1.8478806351188448,-0.5719893363399757,2.385720361507214,-3.863768191920877,-6.908165166201545,-3.0657267715039738,-0.40891696237973485,-2.9572936087708634,-0.9096412427051687
56.0,5.196578662456673,4.556380011688118,-0.6401986507685427,-4.844696757057061,2.978843218221683,1.9912909985950829,0.9764527314873934,0.07308007122584703,1.7827725344551706,-1.5399387492309053,2.1578891684179795,3.2977744219204608
57.0,-8.75048119396078,1.4977359601129288,10.248217154073718,3.574756889355996,-9.513503141915937,5.905383671967287,5.0443599674953035,3.694523666375649,5.7138072718340736,-0.6723317054844227,1.1951971839167193,0.1899238350539667
58.0,-11.543394632784974,-12.728890832252045,-1.1854961994670612,12.15943558004029,-5.193769018471453,-7.005505188908494,-1.426282309699244,1.892051591922235,-4.005533537246492,-3.2830673920113016,-3.0288830574221075,-4.993718420874277
59.0,11.80202843749477,-1.606008335665269,-13.408036773160052,-5.15616235154823,12.584846844113457,-7.479954842796931,-0.9674198828793941,-3.8638136188581997,-8.023338424229022,-2.2874580726964626,-1.0406491684767354,0.0371827696712026
60.0,3.281776587067374,6.760305103080958,3.4785285160135357,-5.001207935038313,-0.12728202338396954,5.063420968561418,0.37357310516204134,3.598244438362265,3.853151923249541,1.7777038420121571,2.0221635774575897,3.404882384888436
61.0,-1.6991009880398327,6.50336272086254,8.202463708902352,-2.3803465133665047,-4.910835770803188,7.3715790826645655,0.28062040680416944,1.2910862761140116,3.1656435976853197,5.8651919670297845,0.7182930126165351,3.843768002984091
62.0,-1.2237236395006077,-2.805677402994892,-1.581953763494257,2.0412771379301327,0.21021696963544523,-2.177531458129144,-1.2284208630306837,-2.334579233317618,0.04445019991866439,2.7481562943559363,0.7690299238340433,-4.264254001801046
63.0,-0.6396850167838595,-2.9894487294935996,-2.3497637127096747,1.8478171940640773,0.8798693897008381,-2.652887427975764,1.8464638549546042,-0.01620429950166269,1.6850027862424244,-1.0599409371643367,-1.5938747786175802,0.17707191522335508
64.0,0.7951553815485972,-0.24205761611934196,-1.037212997667832,-0.3153322854443259,0.8590653341477003,-0.6195429685360863,-4.794671981527498,-3.1532186706349052,-2.0417594840203215,-6.040226030293846,-0.09465870192948844,-1.7295679717055132
65.0,4.242359223013528,4.877755643654326,0.6353964206408955,-4.593981578418841,1.8247351640948435,2.7031675689688734,5.0527486804326625,5.781907810482087,3.4741868754441576,1.2362385006114733,3.0255446770409975,2.8616942580681473
66.0,-5.550551723606944,-3.715387091129412,1.8351646324776216,4.601051899462691,-3.748353793017628,-0.9095597348060169,-0.4966981558913781,-0.7512463236108484,-3.616946841031094,-3.6060494360015336,-3.7451946791637027,-1.5780356448007145
67.0,-1.3196811376142805,-1.6402241371196817,-0.3205429995053636,1.526341327076921,-0.47217305127874765,-0.9467067976340655,0.4074006123073652,-1.9248124892171634,-1.994632537360781,1.0724862286043992,0.42040379103492853,-1.6167028298135495
68.0,-2.5739463143339933,-4.187172026048904,-1.613225711714934,3.3468040887435255,-0.44673328950129576,-2.9455662949811265,-1.0590316481531254,0.7878932775594956,-1.117085754367936,2.85752668509414,-0.44046510797484817,-1.8342739101261125
69.0,10.860795076466452,3.2493394107457085,-7.611455665720857,-7.010723708315318,9.199108980958194,-2.230099622703332,-2.9574421976363467,-2.641850115856801,3.065293125334069,1.7881724287293586,0.12654957573394246,2.5066781060696606
70.0,-3.243137736597993,2.047121545874505,5.290259282472369,0.6433570358944318,-4.215711052012566,3.692934332096863,1.5892823661377045,-0.0702964128090231,1.156682283045881,2.3753292514298714,1.6616896498041465,5.523475827953169
71.0,-5.883000446596936,-1.2141246195593984,4.668875827037456,3.517480742814654,-5.29460476423843,1.7469975794006378,0.2783392050267538,1.2116875426468814,-0.434352636811967,-3.6169648959372465,-0.7330001436724596,-3.6895826126972313
72.0,5.549080441825251,4.956830928143542,-0.5922495136816734,-5.281750959450174,3.059373768257738,2.200769753270327,2.3790541445419793,1.9780132175021166,1.883658668390466,-1.5600609206947875,1.0574762378671827,0.6564170187852549
73.0,1.726430168189837,3.0608150040377513,1.3343848358480708,-2.421736698440035,0.18912645194929534,2.2199691574296008,0.10750986613887181,-0.5042551302607425,-3.4112875328991548,0.10750905421426205,1.066663707461656,-1.7615365151994808
74.0,-7.691105444566073,-5.276746353274394,2.4143590912919146,6.532642597224179,-5.058658141738701,-1.4787859832324106,-0.6743213676173376,0.6983285750790532,-1.2121024285582782,1.283214361077409,-1.5147856196993277,-1.235844417567104
75.0,-0.9733973317183238,-3.387969229158191,-2.414571897439659,2.1461266333831177,0.7127660495974824,-2.858146875572027,-2.1786901148042563,-0.9919320298973902,2.02138984700697,1.8916335232135388,-1.6711757636685196,1.558633103555335
76.0,6.036809301373361,1.5723708668005538,-4.464438434572739,-3.766604358672398,5.239348118796108,-1.4691351484075525,-2.2237191873825184,-4.243026736525595,-0.971372876306853,-2.197047713285463,-0.345929250147081,-1.4076162365733151
77.0,-1.7209712550567997,-3.4365433075774017,-1.7155720525207014,2.5315566509206757,0.06122794914277696,-2.5886498184796727,4.677850741940085,2.874370041623295,0.4462683260915586,-2.3223013969160746,-0.8232786084776023,3.465835108680528
78.0,2.810124029215201,0.6487304204837293,-2.1613936087316628,-1.703050296986786,2.468300957886332,-0.7621283847253352,0.6942828572839681,3.364898668230621,0.1119070808325345,-1.3196648649168312,0.6782414058886539,-2.311265276201152
79.0,-0.868999072957181,0.977822859781352,1.8468219327383122,-0.030850410867295563,-1.376895859906871,1.4092115435319839,-3.3664130247447086,0.4700570144727454,4.020506656076972,1.7000415713327128,0.923610402193262,-3.028790816146736
80.0,-1.2741005732499593,4.627751140324307,5.901851713574188,-1.6532484834538446,-3.607918045532133,5.261050958149621,0.5913886126654342,-0.7065169157426918,-0.6851241181842862,5.774426877410218,5.993974149878953,5.3795279985166955
81.0,0.7012124524276617,3.511169004004265,2.809956551576633,-2.1585722127132985,-0.9968375684636372,3.15421498349598,0.6281704146852918,-2.08906636120547,-4.544537705129477,2.076791934210109,0.42796839631120176,1.4738629261068432
82.0,-1.0483670762505772,-4.264586054566948,-3.2162189783163013,2.6093840163225686,1.0603671542873427,-3.671380011312307,1.7930512346965637,-1.511232305555446,0.20858606727379003,-3.195282189204482,-5.598570661332072,-3.4038619498807456
83.0,-2.1752179981547424,-5.555586794081033,-3.3803687959262327,3.9045611202568766,0.5754133867250377,-4.481441051816269,-0.7885615920061537,-4.791631474683309,0.5034640416511684,-2.3892434829187184,-4.803654976152581,-3.37611537439723
84.0,2.3994139617147763,2.375063856216102,-0.024350105498635033,-2.338753828839086,1.1804492784441911,1.1574531368935492,-2.1966726971553094,4.166811510863399,-0.6838766647320897,-2.7719817704144574,0.6985401435955865,1.8347894075107585
85.0,1.482793066120901,4.679406988955883,3.1966139228350228,-3.1010122847659516,-0.8132913314338213,3.914339899932064,2.23955824456842,4.219344599302254,3.0530351741626642,-0.1157859101553711,3.83636792600263,2.8070373778889013
86.0,-2.9572976863548237,0.2976243712591824,3.254922057614062,1.319919908208522,-3.064222901868189,1.7452864381871382,2.9526152654793885,3.8001692983072077,2.4535113219363316,-1.38150966339613,1.9634692096621524,0.22876761805568457
87.0,0.708188896706432,-11.12378323179318,-11.83197212849956,5.205746917926484,6.234392061325489,-11.438426189761726,-10.471061786879476,-6.561024458208875,-6.187466466691676,-1.853490002927777,-4.207815131980994,-4.759262004951134
88.0,3.176899296202869,4.11144348195849,0.9345441857556591,-3.6421514616381625,1.0896682256629124,2.554337025137942,1.0767952426932634,-2.1105837434855967,-1.2064669565533714,5.040123320925883,2.347726561655508,0.8878287049802842
89.0,-4.873650322510718,4.675969877009071,9.549620199519804,0.1001148928315796,-7.157995020976232,7.058831255550027,7.556824787501285,5.146301585935295,2.1803341144357984,8.459484325793731,3.232952701529419,4.7587735615990985
90.0,1.359521813508231,1.852524292431615,0.49300247892330207,-1.6103019463494292,0.41532927012886534,1.1934953346845973,1.3607213214341334,-4.355238311469458,2.546511289062131,-0.7422492115472088,-1.5215436545899177,0.6345992998033949
91.0,0.298280796708998,1.3532030673377164,1.0549222706285941,-0.839262801621796,-0.3900321839799807,1.2234389586324437,3.5654729662258307,3.100247107968795,3.240020086287362,-0.9859391162197432,0.4460406279793133,1.1188809604645409
92.0,4.61487888352193,-1.0714708220267197,-5.686349705548778,-1.796186053084987,5.142516432638489,-3.3588191840242017,-4.380986359350267,-0.6018559240255027,-1.4740495479006508,-6.704643911707202,-1.8356279117988255,-5.918692796868676
93.0,-0.8026008207253228,-5.1994612811059815,-4.396860460380724,3.0448554810333133,1.7888336354432375,-4.855237853374023,-6.361065328022277,-2.714316543961016,-3.361212485949909,-6.6745841113484286,-3.362859371278575,-4.49989530068814
94.0,-3.668685367540922,-2.4279693426679256,1.2407160248730174,3.084017381969167,-2.388790857376252,-0.5707894955640271,-2.497640764292634,2.474699178891058,-3.2853703526900846,0.07336124118449794,-1.222656992742995,2.5638176791016765
95.0,-1.3944997472927403,3.3680260060372276,4.762525753330012,-1.0348289257151486,-3.099936903971376,4.088030172081972,2.3833468451538975,-0.7265981573373276,0.6624365943846,3.7652345010027517,3.4927051662997566,5.290571778919595
96.0,-1.5040315381807616,-1.634743586258202,-0.13071204807740688,1.5979533638499,-0.7194044362589957,-0.9400762051943132,5.137542839028941,0.4652351383353206,2.6041126182249137,6.077653043021539,2.450777048524903,0.7766202298702849
97.0,3.567613240806326,3.464909927619843,-0.10270331318643577,-3.566639071735012,1.7907022068143874,1.7006914873514412,1.9536225960841813,-0.6214953233205719,1.0889685087803522,4.322647944530943,0.14020869488315202,1.0015268112268192
98.0,0.6665209337345179,2.399311798787223,1.7327908650527521,-1.5039731512290424,-0.5079002759857479,2.084693846872224,-1.54012372562081,-0.38601270044697866,-0.9979759498525125,-3.6631875745795845,-0.04808225595940713,-1.512067311702077
99.0,-0.6913011155736835,0.44418375417754197,1.135484869751244,0.15292419664131374,-0.8917139708691058,0.8097134415203303,0.535895485900062,2.1105327199390738,2.8716924139117137,-2.993668193730281,-1.1668858137701243,-3.083092177941817
100.0,3.2624827717405505,-0.4376805283448356,-3.7001633000854057,-1.4619122434709044,3.5064332484449734,-2.1236100731434293,-2.819793818705597,0.5873386814814924,1.1329870553610724,-0.6866340481668254,1.3720434737195093,-1.5483319363102228
101.0,-7.12217013089539,-9.397033596594401,-2.274863465699055,8.288353352656452,-2.3888740279113017,-5.8048813094538145,-1.9161632217987,-1.243431060161521,-3.997490498572954,-1.4161990709186882,-5.153805051033881,-0.15426305283784492
102.0,6.361913119204706,3.7686799229501373,-2.593233196254582,-5.115489164841827,4.4465249114457714,0.6275666771565733,2.224892304660902,1.4232938346465236,-0.049168264191223,0.797801316561805,2.6899544611020576,0.7689261012533126
103.0,-0.840576484220495,2.1517342832481092,2.9923107674686307,-0.6261520152664998,-1.9355671911299082,2.54195125859354,2.821781799999882,-1.9600762590850473,-2.800180652233704,1.5407852310749457,0.26547977228142117,3.2570630749124803
104.0,-4.654418353231739,-1.4683882943467628,3.186030058885007,3.0931609747718625,-3.932407729185724,0.8358062780579716,-2.0706402479092745,-3.0395563361143556,-0.17453776859901293,-0.14000545712918178,0.05771287645947043,0.9130229934328815
105.0,1.8209608924341336,3.292838652554176,1.471877760119983,-2.5216870112205374,0.16199706712852135,2.3632791588913373,-1.1876424877034735,2.1617722985438395,2.6794494350828146,-0.5132657589751636,0.44405503670324287,1.6955390644383046
106.0,2.190660783912039,2.7548452065032514,0.5641844225911061,-2.5127181677978236,0.7930874206880136,1.71959813661435,-1.7021056229442066,-2.8508364072843353,1.1115763214537908,0.2833310892368451,-1.5992048493240274,-4.506667913908904
107.0,0.24637523179730425,-6.3745235298716345,-6.620898761669041,3.026647572446408,3.4796058876046825,-6.518853919872358,2.5756507625344542,5.828925753711365,6.497168107688657,0.8757625802863831,2.2184361411575555,0.5055525526566613
108.0,-0.8096661201195298,1.2925547735421836,2.1022208936616895,-0.27802338438808916,-1.424143947853697,1.672324985061028,1.2286474606904876,0.7495029888008511,-3.854779961957423,-0.7535678857011137,1.2389251401936303,-0.6124433937138402
109.0,1.9760878559978083,1.6084342629118131,-0.3676535930859591,-1.7508530346681728,1.1128207962551004,0.5917626809621698,-2.589998372351471,-1.2036682202921116,-5.3696797746913525,-1.9404999465618022,-1.8545183216365717,-0.6793468083255311
110.0,-5.03960686146957,1.7636595491881375,6.8032664106578356,1.677494010775402,-5.9090017260252345,4.3319143580735044,1.9508550350584022,-1.033853162838384,0.17253629065259846,0.6995141352395637,-0.7770660354764035,0.5220688672451088
111.0,-0.5772018923877704,-3.2665878453593216,-2.689385952971396,1.9587058506443333,1.0674000206096115,-2.9286646007510666,-2.761182148804969,-2.800849800739608,-1.2955991881107363,3.53708665371066,0.21774959359642299,-0.4877127023282386
112.0,3.6649180790696296,-0.7356244817399279,-4.40054256080945,-1.5102923863110025,4.048650425182581,-2.594676325049199,1.281344197049721,-0.6741280177169986,-0.4159611687161883,-0.7644857483738672,-0.7211678857324427,2.5906791398240454
113.0,2.014742025996484,0.3779738944459871,-1.6367681315504838,-1.2471106369939766,1.8500861909105717,-0.652766962979938,3.5846248934572484,1.7004869569092163,1.2940123552609735,-1.8025970580399664,0.5842727940416371,-0.22146690881108966
114.0,-4.144027535658337,1.4956334332615417,5.639660968919822,1.3455959529870456,-4.936940048537625,3.5460286623680046,0.1316871803510301,2.991436661651839,6.881443154636306,1.0567062470975963,0.9378863196190259,-1.046795482413423
115.0,-1.7117944482145897,-0.09840861176380966,1.613385836450671,0.9189783695626372,-1.70039316902802,0.7347812659554018,-4.359673263149639,1.6400702824350772,2.1205327153398574,-0.15359262305896867,1.2422133526123713,1.1167657020043467
116.0,6.9953012339014755,-1.097590567482595,-8.092891801384205,-2.942299524250537,7.588174570085825,-4.543589070586537,0.18161443548531442,-2.393004245384792,-3.0557220473497275,-3.366857684304994,-1.5545470583142422,-0.5160220037879135
117.0,-1.7514030999284165,-0.45782719066668054,1.293575909261642,1.1053130756103504,-1.4802119388427237,0.46225981223412527,2.963822182355719,0.46495989881961153,-2.4630798209859313,1.9545830013704186,-1.714118225258939,1.2733239831957026
118.0,-2.0358403718868505,-2.0199837903271978,0.01585658155960118,2.0251713893688588,-1.0682911883490847,-1.0454610177678547,-3.666718060549442,-4.066051897433074,-5.29348092997164,-0.9662350996506727,-1.888810606893061,-3.8898664535248026
119.0,1.7531412445157417,2.400327868198839,0.6471866236831383,-2.0801149409214674,0.5025490421064704,1.4712060107869682,1.469176735711097,-0.6666211394848738,-2.2628277481671617,1.5125137041181047,3.709682228556357,-0.14279069286868218
120.0,-6.416844083377114,1.7533335783907165,8.170177661767967,2.330273309281172,-7.272108125582706,4.980705029179375,2.5341929981005005,3.6072795938019886,7.021474683322157,2.9725737312322713,4.718153847233891,4.860324772083889
121.0,6.321144839256478,3.5427085381549634,-2.7784363011013418,-4.929780515403073,4.568486891731455,0.39774672873267636,-3.5986582547120456,-3.4155106896941563,-0.1926462997618641,-1.859588460757369,-3.484906456119424,-4.161087226890756
122.0,1.2771469455486835,-0.582400248764066,-1.8595471943126465,-0.3410199309967874,1.5906471417181363,-1.203490410094157,-0.4806915974845389,3.4019404627056744,0.7781609984435416,-2.1680386026708076,-3.0430659455305578,0.721177500378586
123.0,-2.9590842454727184,1.2707178848261025,4.229802130298822,0.8541377004569358,-3.5620857476476355,2.774758642378679,1.369170798071031,3.094232700269008,1.4486163014882458,0.9365424678676653,0.4580397856969147,2.559237981710704
124.0,-6.137334184903607,-7.965562426146861,-1.8282282412433342,7.063571975449457,-2.1864593572439053,-4.940650624624273,-0.5017382865755815,0.52874541416822,-0.04517871643715787,0.4391357115167606,-0.2113323598712306,-0.8150347441017829
125.0,5.271899738416161,-1.3222312282727717,-6.594130966689016,-2.0408003677911237,5.916460486800745,-3.9120419905751094,0.7027744911055198,-4.752919813678306,-3.8171035650864753,-0.15993544688984168,2.3237982618172612,-1.8566259429814207
126.0,4.31517510852806,-0.9104582985585056,-5.225633407086612,-1.6895671990444467,4.766149235892583,-3.091924895925777,4.926015405698969,-0.659636459511205,-1.2496209624828034,0.5932325046557161,-1.4705009131917595,-0.49373707635178143
127.0,2.259478447041535,1.1075659059607552,-1.1519125410807938,-1.6698145427567743,1.707637409437454,-0.04191769587969399,-2.4280871701936255,-1.2125941136382652,0.6477362434405531,-1.318589001875994,-2.164743655045902,-1.6259932877341887
128.0,-5.748815136381291,6.590183376766661,12.338998513147956,-0.4035273214531556,-9.04324242260255,9.44390143614237,0.011053581323786421,1.851036325355404,4.4739762913464505,4.0331153633647405,4.650849011530309,5.331799010150023
129.0,-1.1038557581275903,0.7826001327106669,1.886455890838282,0.18467537776901133,-1.5027145115106681,1.3091955995367242,-2.0830164265738467,0.16631201622442604,0.8849435131508847,-1.9577345520789156,0.8499963208996832,0.613070473103422
130.0,-2.1579908220432378,-2.2196174660578762,-0.06162664401459672,2.144126482510779,-1.0688178171329175,-1.0929424546433664,-1.5651528410049966,2.561777703371872,-0.6544419766736363,-3.871836375705864,-2.8988126767333524,0.7572827382375567
131.0,3.212959964162395,-1.9695521732402554,-5.182512137402606,-0.5759734083278096,4.240847204938956,-3.532559168724265,-1.8568760466306546,-1.6750867477229996,-4.09707887172642,-1.5640393249501783,-2.249925307262051,-3.2032567881272884
132.0,-1.4910550300510945,-1.957685780160112,-0.4666307501089415,1.7024681055585584,-0.483117979000387,-1.2486248694080861,0.05502006145637252,2.555978203756257,-2.3475740139836114,1.4333857946903468,-0.4332769831377872,-3.582573290712986
133.0,0.10364887473405493,-4.108310514901052,-4.2119593896350125,1.9889374380956635,2.097332838116244,-4.116227509643646,1.3821904399923506,-2.3936345773075454,-0.5716352124568882,1.578255327992541,2.9180185839622017,0.41462730225246225
134.0,2.6614616110719043,12.813925660177555,10.15246404910576,-7.746420797240785,-3.7336460346658336,11.451190644211401,5.6514830929786255,-1.830640375959833,3.885760734579719,6.374305167048417,0.5576885580718713,0.4958167338753702
135.0,5.2367827361938994,4.905091022611854,-0.3316917135819679,-5.078867106659476,2.7942219007939313,2.2566500582623217,-1.8706076611749545,-1.299300398713716,2.4643797220939674,-0.8303004916286798,3.120720907980883,3.1485395718014355
136.0,-1.7710348771661444,-6.017358484233408,-4.2463236070672465,3.8842368361363633,1.2496283276371107,-5.162436068166949,-4.035552271449931,-1.244071256859553,-1.7511374321359523,-2.7135920639403763,-2.915422087621656,-0.7169424793149326
137.0,-6.279910266875567,-9.85552149968712,-3.5756112328116068,8.1331891462723,-1.335520509333347,-6.671020407925264,4.389292995865597,3.5508614561706744,2.588327090768174,-5.688573522301432,-2.2587194443512764,0.662314919449505
138.0,-6.692037482784878,-5.831298269862613,0.8607392129221616,6.245126914741098,-3.832576891878235,-2.4469308954489106,0.24745577423041343,4.815758293355314,0.6225926211912816,1.7946044033556925,-0.03592439897011168,1.8823507282648169
139.0,4.086200928199219,2.147721017318802,-1.938479910880488,-3.136027954700526,3.0410409786795785,0.05656107561429913,1.2520333779515003,-0.5170884068000094,-2.156123326805251,0.815774414417122,-0.6498047812292989,-1.2010673953254702
140.0,7.602531072691555,11.51612692264174,3.913595849950202,-9.580191273037576,1.8001788515313124,7.737814668558372,-4.59398169847678,-2.892450284126279,-3.864307535291506,2.001609908353513,0.8714507694233313,-2.9207700641076997
141.0,4.676676816537809,2.708810983273395,-1.967865833264316,-3.6363347262642627,3.361913512867369,0.3870287521187956,-3.7539335425253144,-3.039569475588067,-0.7574090413341583,-0.18745385849131124,-0.08079242950399623,-3.0130650638718075
142.0,-6.541978493950863,-1.3479639574970101,5.194014536453971,3.9210524580945165,-5.823919283725094,1.8571326064076334,1.7872966138190387,-0.5234940720252705,-0.41662463357372,0.21856369406146603,3.026976424591169,3.1936804460186523
143.0,-3.467525297338165,-1.1288568770941825,2.338668420244059,2.272531556307826,-2.9345029896053347,0.6178915572534572,0.6237383718743524,1.2876357340273195,3.72423347914292,0.5195868870237798,1.0537038860727328,4.639518845488086
144.0,0.34430301326947,1.488605616910003,1.1443026036405586,-0.9435627773771196,-0.4299582287353214,1.3339317210510488,3.9393513083052776,2.949773107067825,3.934843337427573,0.8553387424192955,1.1668587997420847,2.899244742802705
145.0,-2.559106419421465,-8.865051854426204,-6.305945435004769,5.763377728622503,1.921315701853787,-7.559697600634388,1.9002394300448597,-1.4929146654791925,-1.895694899779202,-4.267862160624781,-6.170986182747473,-5.100514158282547
146.0,3.288158339547533,-2.756713887761553,-6.044872227309164,-0.2917198170751769,4.632465027998334,-4.364696716435188,-2.8906086693708497,-1.1014500076253415,-1.7868381717646693,0.038177027596486335,-1.2916157721800694,-5.438320471028374
147.0,1.988611185341712,7.65107070755994,5.66245952221815,-4.763832593338046,-1.8756302129873,6.6234983111232095,0.3387028961996861,1.1866423078584813,0.27599008048873963,3.369784885135147,1.7224787548765572,-0.862392281173304
148.0,0.3442876289443684,-2.0154954551207185,-2.3597830840651346,0.8169683912596057,1.3874529156759783,-2.2154012375682672,-1.2358185248187834,-0.6260623342357698,-2.693938105126816,-1.9667517282159013,1.9489511386938945,1.1365389671268495
149.0,-1.197968497445912,-3.147286146206972,-1.949317648761087,2.1572813827343316,0.4080961621883764,-2.5763405645670763,-3.006645106790578,-2.7256704813422172,-1.752889444232351,-0.8514912604801785,-2.4770132316288507,1.4153000566756266
150.0,4.844001390857686,5.959189457318535,1.1151880664608582,-5.416184345299744,1.8177262975961734,3.581835398758906,2.9583441833312483,2.4953731007666278,1.3476470368790716,0.9635099631658572,0.6503565757944941,6.16015405186923
151.0,0.9394137314676756,6.730860298541414,5.791446567073766,-3.852524678796583,-2.391752895418035,6.217147429093793,3.2328338918524278,4.695982999818351,8.615453213750628,4.0625167343683355,4.765770790968621,2.342234418001114
152.0,-13.904946312193536,-6.489538435132943,7.415407877060646,10.252375487128148,-10.62245843230537,0.48714539391155,1.0195270890670416,1.771244953474231,-0.034557064630599044,-1.6468720796854333,2.155180888955427,1.3442586816605413
153.0,3.3766741741374844,-1.6392380162839335,-5.015912190421336,-0.9007159807108649,4.157963742115414,-3.3112033089546555,-6.816118400931251,-5.560950957222264,-6.271912036908692,-1.9273941378429615,-3.8505461320846113,-6.251490514295972
154.0,4.034006271075495,0.026413506200309467,-4.007592764875103,-2.0707065044051753,3.982516488604102,-1.9770400048682226,0.35762970962174645,-3.2287524876504348,-3.992685824893184,-0.3478972473415116,-2.5189214229810846,-5.383850600900673
155.0,3.2318908072246533,-3.775009585582133,-7.0069003928066955,0.30331439957349693,5.156333902917153,-5.374574433270225,-1.1150650124583534,-1.808244252795663,-2.407456340044855,-1.5114729437512846,-1.2328803127432002,-2.4531821817622124
156.0,0.27795044584551176,-1.4612125509961065,-1.7391629968415523,0.6203127459230351,0.9601740526698879,-1.655147692311747,4.702233324361681,3.1938676054754636,7.341313218730697,3.483279267024107,0.9188572244418582,3.2657484253182334
157.0,-1.4302457040653918,6.897944911243384,8.32819061530881,-2.704689466420683,-4.85666165203743,7.646614370638849,-0.4770503421039054,-0.08029764442769527,1.853713719512764,-3.5850181679994773,-1.491291643700423,3.6409991052140396
158.0,-4.016340980260391,1.0086488931436852,5.024989873404068,1.457019581782971,-4.504847239381075,2.9811549183217405,1.7721176424550396,3.798902217652124,0.49394482480238944,4.205271880829779,1.8980321541529876,4.032510323219666
159.0,3.647380331272246,-2.5504011654593493,-6.197781496731645,-0.5136221770881316,4.934571610627941,-4.323813680975174,-4.179362496831859,-2.2915461667499253,-4.918628787879798,-4.605244111097746,0.2427000717763652,-1.7680597367686675
160.0,-0.33937394893735773,1.9120479907510108,2.251421939688296,-0.8290620295130913,-1.2837097639965616,2.0569421658402254,3.979492022872744,2.598649567950616,2.5014647874830365,1.0495391612318514,0.7196636686667631,-2.346641517919178
161.0,-3.6584994730450404,-0.08032320150481681,3.57817627154016,1.8251250627381461,-3.604206056606117,1.7243206529669164,1.835573576409556,0.30779602016335406,3.183739199399676,3.674292751187491,4.4787772382872,-1.4467307337912734
162.0,-4.075965597797396,-6.121435452929473,-2.045469855132114,5.129328890238838,-1.0763765526410776,-4.110293597444196,-5.10256618880384,-3.2186132140622927,-3.690743974767501,0.652775023702685,-3.471866667395811,-1.400637433109844
163.0,9.70064604688081,1.68346603930335,-8.017180007577451,-5.666093214106554,8.879297182334124,-3.118001587914991,-2.410790872402618,-0.6660812685598174,-3.265729657515559,-3.3136060329908443,-0.9867299621590606,2.8989958380309213
164.0,4.563196349838712,0.9450938291137048,-3.6181025207249564,-2.7320700822021387,4.112024224373267,-1.2901384035207524,1.4963594698539162,-1.2137886526136847,-1.9862423311923405,-2.1614599911711565,-1.9229328804514363,3.0947358560551974
165.0,-4.239939836023675,-0.03419074958174828,4.20574908644198,2.157050274340582,-4.2809222668877815,2.0520089690135714,0.40589216616670987,1.1728077793552663,6.0856170145300865,1.969339775776241,0.6675628639492244,-0.5284651596203755
166.0,-5.632855654456797,7.124823637310196,12.757679291767019,-0.8048453095358017,-9.175925744016688,9.90674834789258,5.525911524372034,3.799867672766703,2.978125737101715,3.8102871405430947,4.539302171686044,1.8311437343335926
167.0,8.054993171271219,-0.792785369209914,-8.84777854048114,-3.609648820085389,8.470230817471553,-4.777184733935576,-5.463159704147461,-5.422462105491496,-4.910353885381246,-4.068364979929253,-4.217696839021809,-9.778811520880316
168.0,-12.177590493920532,-2.6211634451053882,9.556427048815127,7.344923365715227,-10.846742783398998,3.429338760296977,3.8312567101942925,2.530240928411433,2.1283580618493527,1.6781073239028492,0.34256689658753703,2.5800628016455005
169.0,-0.28628587075888534,-6.885182319161989,-6.598896448403118,3.61392773189634,3.1800493080442047,-6.7062418328323155,-0.3396242903660218,2.3141681631804962,0.11205547087713531,0.0577920044236159,-1.5126071449323013,-1.5077559544129049
170.0,5.346179031909566,1.2147433986867688,-4.1314356332228375,-3.2475269168144827,4.68848923405769,-1.507659049926961,-5.782113037091439,-1.6953206993202659,-0.9378143814310008,-1.8043951097881346,1.774678633888441,3.1930750206708662
171.0,5.697009208767126,1.0647678313102666,-4.632241377456894,-3.3428979877528744,5.197627676188407,-1.761205598456984,0.6010279541211827,-0.28219441253724553,-1.2046095635494298,-2.0825284588658803,-0.42364091472242627,1.2417212391826933
172.0,-4.284388645687507,-2.1942746410032754,2.090114004684189,3.203010227399584,-3.229614612944789,-0.03530993426772672,2.7151897173399773,-0.3108405392391831,-3.490586595199791,0.09557393060467767,-0.8638335549014508,3.6105758620784125
173.0,1.221797817920796,5.154487062570411,3.9326892446496005,-3.221658107307235,-1.3959081955380688,4.557478263766072,4.073042913804619,-0.43859451428528656,4.726415108575314,2.977283235174052,1.5300357210359266,-0.4357592994448227
174.0,2.3698907237698585,3.9817693802485143,1.6118786564786554,-3.2087479621805266,0.4181478291405991,2.7332275739454355,0.38301019271197445,0.4021369035960199,1.1644023539429063,2.089357861677153,1.1267973911825453,-0.7862152702153578
175.0,2.766913575467985,3.201526003886803,0.4346124284188344,-2.9398556047246776,1.2057100193431443,1.8389875793118575,-2.7656321202267233,-0.613276163621298,-0.12071970536700061,1.3725164313816296,1.1705046222289008,-3.2145548166015274
176.0,-0.8630017589575586,-2.520905342950669,-1.6579035839930827,1.7334665802137381,0.43710252008071676,-2.0590683184740217,-0.2034511198386637,1.1282696649741928,1.0022220590001698,0.1468005924048833,0.4532060896195654,-1.5003799284825106
177.0,-7.101148529730494,-5.961432023802692,1.1397165059278433,6.490601836344892,-4.160385004206946,-2.3695606526196493,-4.565165455276002,0.808281248363458,-2.940469745865334,-3.6133881706941433,-2.9374177127090997,-1.4018163630181255
178.0,-11.565158550783162,-9.335620150842114,2.2295383999410827,10.484964342018147,-6.940006074069582,-3.58096570763018,-2.621555495292553,-1.9774306303157498,-1.7843877386720424,-2.713743025776283,-0.747580759986272,1.7550912538976686
179.0,3.943225551055142,4.317692857620808,0.374467306565687,-4.177806972982865,1.8155622261435207,2.3233277042652065,4.030876864594855,2.759762699235058,1.1222091221651995,3.661464397915873,4.331234987366511,4.299470979668621
180.0,7.271676129750004,0.04376910733268402,-7.227907022417346,-3.6288383466141316,7.19593086541655,-3.6157241992460967,1.3543447644285245,-4.920026775445771,0.8912652308403674,-3.202394694022388,-5.018688257760083,-1.4519178695825432
181.0,6.292113490340457,8.271504270021413,1.9793907796808874,-7.3330525816389125,2.1755092061365704,5.095101662820603,6.1896028568073955,3.5466674209169367,0.9911001506674024,0.48779881603380726,-3.3945598157041523,-1.1244164393577818
182.0,7.6543517448350675,6.479834306558454,-1.1745174382766876,-7.03928838669429,4.430668692053185,2.6908657471169777,1.9162789120779422,-0.3075668641974857,0.14109606483762083,-1.7564188435173165,1.0158110886024247,-0.5421192383209584
183.0,0.9522448236450018,1.8002275801522738,0.8479827565072192,-1.3461846288666095,0.06975445047122064,1.3520263323372186,-4.646341938049542,0.5398624811074565,1.117089503040668,2.5971145664729454,2.3295695552809055,-0.8643517085824138
184.0,-13.37693304778768,-10.932743465266274,2.444189582521398,12.188798192544882,-7.887479785371777,-4.2234467271584375,-4.353835838897098,0.5565818502799162,-1.6776838115820327,4.538870371234148,2.8919277762163436,0.7737852948006088
185.0,-7.485615333012461,-5.000341267748157,2.4852740652643432,6.202931070858718,-4.954926961127633,-1.3172833197584495,-5.885921604747312,-2.9808096353136477,-2.808176423344033,-0.7680633399556935,1.9024261253659311,2.436621101402309
186.0,1.4392353935578148,-1.10226466567971,-2.5415000592374546,-0.2039180729411827,1.9484123638826547,-1.7991414413232536,2.614913455566069,-0.05173663938610562,1.4643235831645798,-1.5740775848103297,1.4696206348369891,-0.08230631971998958
187.0,-0.18051617571642137,1.0947593703237068,1.2752755460401985,-0.48866631526569415,-0.7674611642636002,1.21566138130851,5.152080357309251,1.8775473734622972,2.4824650439123683,-1.295582461850431,-1.6845785779293558,0.320214896942888
188.0,9.564204281052278,5.543689211413863,-4.0205150696383605,-7.503631500037893,6.750359748330962,0.7228979354766226,3.1035274687395358,2.586262951244672,-0.8126875595784206,-1.8592085588929095,-3.296845489157837,-2.7698341506522794
189.0,0.8948869613551302,0.8595340439378911,-0.03535291741720825,-0.8243330413319034,0.49600363872645303,0.4599843354185651,0.4412392071838207,-2.5449575022093374,-1.8930200033675173,1.1470299101810313,-0.7904217072837438,-1.664002516200893
190.0,-2.366649867490238,3.084386002943369,5.451035870433603,-0.38262486511038496,-3.884152915329223,4.240524018066094,2.102876980066236,2.0624980908603154,5.322657353782809,4.707445477079684,1.2463887656746244,1.0398429215010618
191.0,3.6687600521701835,-1.8010805387766187,-5.469840590946813,-0.9560953334993241,4.590845728101376,-3.664301340711416,-6.9101262168298225,-4.95237854198393,-4.077759430170266,-3.1436926936501552,-2.698827070887597,0.30278457566049805
192.0,-5.0911637855265,-7.845446147041958,-2.7542823615154646,6.4467254783362575,-1.1448324436663389,-5.334934728429347,-6.311972226014639,0.3436498693070049,-3.6213570338838696,-5.196292399726474,-2.0726016270781016,-0.7209065164180636
193.0,-5.056978363684048,2.0821916784094903,7.139170042093546,1.465708987215021,-6.145844129072819,4.645983773074751,2.9917330854584123,1.1619534775698668,0.11297491157358985,0.32391790374943996,2.211999484500617,2.138925702173745
194.0,1.2535421971238456,7.064780528495529,5.8112383313716895,-4.102667232091404,-2.2370535629438635,6.465952950890205,6.451641785116866,0.8804058905981038,3.6677395078511847,3.5936998113311125,3.252621447186818,4.398549598548806
195.0,7.318097075182003,1.9415907715967782,-5.376506303585221,-4.652871709526307,6.321603636847415,-1.693235098572082,1.7876215797155508,1.5404664771043295,1.2792018941071919,-1.2027577608935531,2.140841719163479,-2.8281327686621767
196.0,2.171102853586399,-2.8700507756912446,-5.041153629277618,0.40407548834702456,3.589144703609384,-4.0091563875503,-0.13631901419057968,-0.31143756611335927,3.2536971611105416,3.987616178954582,-0.8198813898902355,-2.205058191792965
197.0,-3.0816647640576127,-5.925078767331932,-2.8434140032743125,4.477130401845768,-0.13191861878992128,-4.35424600588088,-3.986649613247561,0.5366162675618801,-0.7171279147904916,1.951561899826994,0.3413454579232736,-0.30125415183326587
198.0,1.2103991789725408,3.2196751008283666,2.0092759218557905,-2.245082241755715,-0.41306099826425247,2.6507146446521603,-1.0872102998116877,0.20660339746461898,-3.8303640026950885,1.0439618252684366,0.05256645031486973,0.08442676475980615
199.0,-6.414495455759523,-2.5183014158945287,3.8961940398649286,4.430531933241613,-5.095217169585069,0.651107775241978,-1.3287470283913412,-1.2715107873207878,-5.212016138081589,-2.7769816323670553,-0.8150668956823381,0.4613657078930148
