Time(ms),I,II,III,aVR,aVL,aVF,V1,V2,V3,V4,V5,V6
-200.0,-4.8363997810840464,7.158615282768597,11.995015063853126,-1.1298580569526184,-8.361667140094049,9.617796478886993,-8.203186593595293,-11.64433991704869,-4.086093601041783,-4.324434351366582,-0.3189621227742069,3.591789414996467
-199.0,-4.147754787636701,-12.179587487011778,-8.03183269937473,8.199989714396674,1.9170041750890983,-10.143306286454465,-1.3737279167392478,-0.9381115202572508,0.27046972066766717,2.01335589213884,4.3403263723712335,9.774269916337587
-198.0,0.1743889963754719,-18.395729438518217,-18.570118434893683,9.073492535966281,9.428284791763474,-18.520351827409918,12.164063261526309,6.208840863031018,-1.494493125562672,-2.0856777469608305,1.8255359260880524,-3.324386337252976
-197.0,7.727315126180921,7.484290783799881,-0.24302434238124704,-7.639494700537512,3.9671540126354756,3.6629521543879697,9.022553675151537,10.614743037379327,-1.775851435221759,5.129778019277097,1.0826424410107744,1.4715608606461574
-196.0,5.761094904467345,1.7884726186323614,-3.9726222858354454,-3.808050699848646,4.854419316032912,-1.047351251045486,-9.071172657853396,-8.528488694994977,-16.545391509293413,-4.942983165542239,-9.731367685659531,-4.353787365454163
-195.0,-6.902950866788111,2.2553022853564806,9.158253152144168,2.366614502789835,-8.038706419855135,5.67641768560769,-6.541573514419538,4.0030483022640775,3.36049114177493,-3.222018072515994,-1.2372616428242607,-8.526009690086676
-194.0,-4.403044774088105,4.916564169885808,9.319608943973819,-0.21865208110731338,-6.868155282646646,7.091650536193781,-1.9128503848487668,0.8254775881679928,1.9692192401123272,1.4666320864067355,-2.5298058672146952,-9.54448727485114
-193.0,1.34671128385022,4.249464171891368,2.9027528880413795,-2.8436238782968575,-0.7874512098065249,3.6310721677111006,7.831920050845908,2.135661410257663,2.661273968731609,-2.7994142545263347,5.610274827010974,19.170400038605912
-192.0,-0.06706166990764101,-14.338994713330205,-14.27193304342224,7.2329239463776975,7.086919970580633,-14.329287807918393,-0.06768789547118725,-0.35234967171122333,21.608550273674012,1.888072992802784,-0.7512164997391708,4.979378595033278
-191.0,3.085043955105183,0.12701548815540153,-2.9580284669496377,-1.6553308433365763,3.076508861415669,-1.4426637537455909,-11.79139348189263,-11.573125020510625,11.757744740162313,-3.441805193264298,3.1459188432240595,-4.462717444816192
-190.0,-1.6581556913287372,12.43455468225838,14.092710373586991,-5.355844800520444,-7.908040012076907,13.230466528337804,0.9478144844764835,-5.45374353832384,-5.558476204513897,4.335292926620372,7.735609273043001,6.880350564511633
-189.0,-0.5754587085898153,-7.624880503667746,-7.049421795078282,4.138284114067082,3.2750398853064904,-7.298486742669504,15.646059042109815,7.454531129928091,-21.749639030378944,6.199114758714483,0.5040848601796284,-18.711418077193326
-188.0,9.549217801491366,18.972712338554707,9.423494537063116,-14.29441259849894,0.01552230526133358,14.231206512463565,9.453096870227895,5.42589946220979,-5.444286227770895,13.532750631576185,-0.8174905397035273,1.4849935936410086
-187.0,-0.08973944447154425,-0.5367288484446631,-0.44698940397310727,0.28639919357377597,0.20490747143941535,-0.5398653816572554,-10.98080441666284,-1.0937954301760966,-19.409343130989992,-2.026623163575427,-7.181843346873276,7.426472373363385
-186.0,-14.786266384838981,-28.388403116728778,-13.602136731889566,21.64329801772245,-0.5696680627273968,-20.963052521234815,-1.0121281485378955,19.46071885372879,19.277213583646656,-12.758481472629832,-5.463534082777144,4.574000298082196
-185.0,-2.885631251903445,-5.236257689105097,-2.3506264372015195,4.038312783556385,-0.32680043122959507,-3.7568056809612713,-6.252827825076231,-11.867233313029747,7.894969523710582,-11.05961450800918,-3.1912805831392346,-2.5673187994898474
-184.0,0.513373707463938,6.65364556541371,6.140271857949704,-3.6100624576065834,-2.796057088659473,6.3600960804711635,-8.173297995844683,-16.247383503756577,0.8191855958509358,-11.617451285593566,-2.701286100127803,1.536423353454831
-183.0,4.048762034317592,6.697877227239523,2.6491151929216876,-5.406767074123346,0.7163090503267706,4.640165205392357,-0.8470470189306383,0.7232240504446157,5.702407747310819,4.142518561433427,2.4940912513883724,-7.3799751446848365
-182.0,14.411647169124196,17.144998939885017,2.733351770760569,-15.740839096639062,5.856325513499872,9.98440025703813,2.5470736677273016,7.234640073510723,3.060887409750448,16.37625302306612,8.59239367241764,-3.0972187713297226
-181.0,-0.29364795938219235,1.0787535544974212,1.3724015138795758,-0.3615764379233246,-0.8919782306076742,1.1874694314466296,10.228502038380988,1.2448620264588226,-0.4185291247868954,13.149882416078615,6.4541735900259685,6.483011291873453
-180.0,-3.809399266551206,-3.2746003018036967,0.5347989647476337,3.569365076148938,-2.1478548542250286,-1.33721222406787,10.518769406354533,5.814316391036742,-11.535483226212465,0.4087088149242124,6.737932732760909,6.316307246954928
-179.0,-1.9271859993198106,-26.13905523821095,-24.211869238890934,13.981510611427755,11.172118761133763,-25.23035848745275,-2.8352694674495647,-8.559404615853364,-17.667271027778753,-20.55628082696326,-8.989112131538826,-7.836544705480066
-178.0,-18.187568591695282,-9.175063169875818,9.012505421819641,13.711163673797005,-13.565039738070466,-0.06390090453983532,-10.884585579794189,-4.741768873211514,12.527952918140153,-3.3624388487455157,-4.368120340317205,-2.1751272736176244
-177.0,9.64232667618994,22.5845776920212,12.942251015831367,-16.15755890775825,-1.6905029609495124,17.779587407073496,-0.15560379003242986,4.780684929167106,19.103076277282163,11.485242700502376,-1.532325526692107,-2.0337271402343005
-176.0,20.815335768680473,23.497660161431433,2.6823243927510445,-22.194465746754776,9.025883495971122,13.111690025146936,3.964710032867437,7.653980656116383,3.26291837851523,11.634486852739782,2.1598704112043774,5.791543990597085
-175.0,-7.1429421527066115,-8.650717595414086,-1.5077754427075403,7.9445353519208215,-2.7829662631638166,-5.04600745112432,-5.6126831809148925,-4.381920224934158,-15.467843131604184,-8.135556160823487,-9.875588289806593,-0.2840368946593528
-174.0,-12.072979270967622,-6.839793978258023,5.233185292709374,9.51109817794916,-8.70283670231196,-0.8340696012905757,-2.8353323711818677,-1.6673048416526313,-10.335122193574076,-7.379185650597973,-0.6641408713613175,5.286895631955234
-173.0,-13.842736381472584,-9.276722179866722,4.5660142016055625,11.541566247436927,-9.180734506392048,-2.3721650988370073,4.312837174122145,1.730432916481834,-2.7007543279489266,-6.218615260724754,7.66757710790989,13.958334547822867
-172.0,2.3226099407598984,-10.944259504878538,-13.266869445638672,4.29571724041181,7.815752442520722,-12.112999006278761,6.243025008398696,1.7889552531344144,2.8233241216548652,-8.226055333357532,0.17753495274504427,-13.51211941707767
-171.0,10.13755616169567,-2.3081603716119403,-12.445716533307769,-3.931165835633505,11.314177104245223,-7.381870642971364,-3.3924020193211355,7.2132686520263265,22.788836623952,15.848482473580178,8.63775764084604,-10.453448246894673
-170.0,9.27914350603399,10.540340586463138,1.2611970804291524,-9.932697251397183,4.036896262796367,5.891322920909549,5.225768808054841,0.9103965241753089,14.284786392238697,13.151841325744225,4.291415269232124,-3.3568380802580764
-169.0,20.546807339527103,15.880466158985106,-4.666341180541933,-18.1687437567866,12.563032233836847,5.587952672252072,2.5621863065332837,-7.9901590474622255,-16.507129363488634,-4.429183178080427,-3.270759040200958,-4.085961675983121
-168.0,-5.089778864973368,5.696842248080308,10.786621113053826,-0.3505801516854632,-7.975334527606617,8.289606178916262,-8.648679163568728,-19.208172346233205,-28.081549580612986,-6.359030154663535,-4.3297886118259115,2.0911141826383304
-167.0,-24.545036177702773,-9.272687399370263,15.272348778332766,16.928063304511724,-19.864025414631143,3.0369595020841222,-16.814470286833423,-15.756153849214693,-2.394134396475483,-4.938839100816159,-9.03775717171466,9.079419381314327
-166.0,-10.217764362959816,-7.830080597196194,2.3876837657640237,9.034263058820677,-6.338379257208636,-2.770250709589468,2.4883556770506683,16.461175228109685,12.506617475086163,-1.5545628669602074,-0.5675399631149283,20.67643262331405
-165.0,-0.016784370477834543,-10.059359662200535,-10.042575291722354,5.045187717690231,5.05011056966317,-10.024276629659216,13.080590723655659,23.99473617416603,11.81865535644489,3.7347450498073735,-3.0184947217325395,-16.2594607937735
-164.0,13.406980188446507,4.629115108357572,-8.777865080088793,-9.0080967451144,11.042412792459942,-2.124925151356112,3.985760735565136,16.203165872451205,3.9072642177639505,6.609308120547019,6.445270908797286,-2.923736270770255
-163.0,1.7029015994337016,4.944416938202623,3.2415153387689157,-3.3060463759573446,-0.749151070253153,4.126652437971338,6.464309194772834,0.11853603353448605,-2.684551332135629,-1.9859382217055974,1.2425759851062192,-9.583891534360443
-162.0,7.884989514705299,11.726119481345215,3.841129966639763,-9.856593847379955,2.0357863086903607,7.747145806778574,5.795974548156031,-6.983780036154435,7.577834006988066,1.9075667625324084,3.267331275863522,5.330215971631071
-161.0,-6.758940901848324,-8.190064345880053,-1.4311234440319205,7.512083754284648,-2.652606476854548,-4.757790632401673,-10.329126564264945,-24.91696637521499,-14.89540881130824,-15.086883704510099,-6.753988741188836,7.11196776366735
-160.0,-1.8461180445400953,-10.525563373374924,-8.67944532883499,6.152290550179224,3.4291839577903636,-9.617442944462985,-6.113329233154498,-10.32224271683621,-8.548753129189297,-8.275894256981376,6.326114796285521,1.2683694257612792
-159.0,11.888177827657906,14.184695709416873,2.2965178817588194,-13.065430202749935,4.812029528643395,8.235391837718364,-7.465493543377013,-8.706876338774752,6.712418876203907,3.3232104849127864,5.041689612645323,-5.849721634968905
-158.0,-13.87010551782991,2.1264316313653815,15.996537149195188,5.92352939767133,-14.991698970078183,9.062896629852613,4.308809974237127,23.69096356155721,8.466542020526559,16.401536954767906,6.127300531526363,9.619842814881075
-157.0,-9.712117695908953,-5.179264755130174,4.5328529407787705,7.419178351203227,-7.0991122645125095,-0.3197121188550267,5.1461359898193795,12.73242581898585,-2.3525530101018335,23.66598178620611,-0.9325476355898882,4.728233780125927
-156.0,5.409881474148929,-2.60391241039662,-8.01379388454551,-1.3502693363833616,6.657672686967287,-5.308458605066832,-0.487016328393878,0.6008839300466278,-2.13360318153993,1.6155822507174875,-8.857305887930949,-4.12685801709125
-155.0,8.875959081482627,-9.782501979596768,-18.65846106107928,0.42849974222336823,13.791791208653876,-14.227862783621205,-4.252489385281349,-7.02006421280869,-1.6794868548860145,-7.437454653812841,-9.106075165606812,-17.50088031392757
-154.0,3.887044253927822,1.1833787465399848,-2.703665507387628,-2.5577764960557055,3.3199538636612287,-0.7782853806699084,2.1026868478181324,-0.26615817321996893,-2.674908759792781,-20.216407664751255,-9.910054330164545,-19.83493361807327
-153.0,3.943115445178583,6.813274440018901,2.8701589948406023,-5.398048958339775,0.5621663026876775,4.812358332828769,-3.056494532618898,-18.553833492332252,1.079068691346469,-30.388100010969456,-7.9550707284746025,5.4719378818490165
-152.0,-0.6638293614750905,13.72351385600765,14.38734321748295,-6.468548605764633,-7.4975108375246124,14.095760131260711,5.614602298409814,2.179049224913731,0.8175873600847696,-6.837480332111614,17.26995492030531,25.128625833139647
-151.0,-19.700766053304793,-5.247246937940611,14.45351911536428,12.457652570141756,-17.12474214255257,4.638323609485779,7.948185728273033,19.46744910143855,6.514703299893882,20.151688405035646,20.01954678059543,18.391259914454317
-150.0,-9.927147134846575,-10.662509785601474,-0.7353626507549302,10.277361869910663,-4.64060826334321,-5.664731265818794,0.45829848368914816,7.737355845871135,-0.29133792229377375,27.316066092656733,7.604079281254846,3.649669864641794
-149.0,20.799593341986096,4.170271643725748,-16.629321698260465,-12.506310620035746,18.750736183159944,-6.272119183226798,-2.840287040802914,-0.9905499240215332,1.4388993607865042,10.555655291481632,-9.226063864706102,-13.36621379002391
-148.0,3.427851682515911,-5.427374931306021,-8.855226613822028,1.0504237087170782,6.100964612133278,-7.180933914056503,-13.088263563104327,-14.144451220613469,1.8870775567151743,5.021209596402695,-15.78349274758543,-18.227010111667244
-147.0,10.340572909442804,7.610373784600561,-2.7301991248423043,-9.012374801520407,6.575850844399601,2.4028474962673716,-0.07219403767114141,-4.439370661931298,-10.194841949684506,-10.4469526412254,-1.410913603253448,-5.705536016133237
-146.0,-9.832425665483644,-2.7438006494101166,7.0886250160735385,6.320370596932242,-8.41683852705432,2.21515830470236,2.9557103493565493,-3.0127155335251374,-8.153291213405401,-19.018690791869147,4.119380445661822,5.852870257261295
-145.0,-3.9149965735812984,11.556074228519643,15.471070802100988,-3.875652406369412,-9.724146761192745,13.55671072563459,8.619233436190884,6.612685303658526,10.1777261986199,-2.7429929102910435,8.081470643755702,11.97922887429434
-144.0,-3.450767912709816,-9.681213021768592,-6.230445109058783,6.583785172935413,1.3623835645082663,-7.991264482224451,-4.084943890786225,-5.28056676163636,0.37538824278246485,-7.243119067076227,-9.878310204873937,-3.9378158737173528
-143.0,-7.509929859126453,-7.6819288563311225,-0.17199899720476436,7.612030938854106,-3.6156916522009763,-3.883321749475576,-2.8822556386853666,4.452171590879173,5.5684078354693956,6.425372997103077,-3.416030506473573,0.02335772300656558
-142.0,3.139196615732373,0.49967970425650376,-2.6395169114759334,-1.80046014117436,2.8631530234175493,-1.1046417610320143,3.4029312005359778,6.650245678727014,-2.4383203609379036,7.188234930305825,-0.5170712606662606,0.13383861615525494
-141.0,10.08594801767595,9.302666458352466,-0.783281559323473,-9.6686575078961,5.404970887800193,4.225030570749377,-0.6704569054557299,-2.722744930245904,-7.98152932132989,5.823647328509148,5.886167368408008,-4.35868502086784
-140.0,-4.587286524031346,-8.655882807015775,-4.068596282984311,6.577213520284117,-0.29385503052045614,-6.318784693410866,-3.7567531786549697,2.7106722381608988,-8.008733532587168,-4.022780557844347,0.8730462025155337,1.1943932607759213
-139.0,5.700531687056412,-12.203407613467524,-17.903939300523774,3.215807136718449,11.842427539210515,-15.090493076924169,-2.805894167241137,-1.2335668312407964,-0.019494467134757443,-11.843302707195468,-3.3361981887292957,-2.9180299699448176
-138.0,2.9473062157433425,12.435144534777706,9.48783831903447,-7.640968740924267,-3.2310079985066005,11.000962676363223,5.527003686482953,-1.2523313214729273,21.075775816253042,4.967417540745374,6.295469696862732,8.985711699645233
-137.0,-1.7340795475152397,22.903768445135825,24.637847992651096,-10.608533772587446,-13.222009332581512,23.806934529911164,8.990348009107167,-2.8148732150239084,20.309221424636114,14.943973858700213,7.467544071091147,6.867569919357451
-136.0,-9.200809017606897,1.5799791868635733,10.780788204470392,3.7893591516133105,-9.940737432189202,6.133750705247048,4.630720777386355,2.6032175080796356,7.8046500143407975,6.312017776950222,0.5620034853909506,-1.4709013609092718
-135.0,9.59965063951893,-3.9241092401323847,-13.523759879651498,-2.778885550240061,11.542116859143954,-8.77462504503989,-3.6853818826392586,1.110567545092739,-20.871212842365935,-2.593097745717322,-5.493912101975528,-8.807412217233091
-134.0,11.403019581708536,0.12078759659415539,-11.282231985114553,-5.781172690747165,11.33080424623937,-5.555634155921073,-10.602977913399352,-4.649104152105919,-43.39071585216508,-4.6128822956292055,1.6472072063489085,-0.2200272981056992
-133.0,-28.607386314300754,-25.0799432215911,3.5274430927095928,26.825007786035194,-16.07558691154182,-10.751638196285672,-4.237334984382721,6.169527029644475,-17.089068067157527,-18.645056142668004,-8.629729223495547,-3.950668998957836
-132.0,-2.154082592603478,-10.67964306158059,-8.525560468977076,6.3990424349439925,3.1757306366359113,-9.574877552474371,-4.680621595295625,-7.918652669943043,13.006575771395386,-8.303469440752838,-9.70552731316339,-7.052872177902327
-131.0,8.608723033419858,-3.546527399821283,-12.155250433240974,-2.469303133680889,10.365274375812866,-7.895035287092483,-3.675056399200016,-7.775852112572849,25.90998552321436,0.2394796185460586,-1.7204680642799104,-0.9738625219898329
-130.0,-13.665695260506787,1.2752325780615736,14.940927838568546,6.178695314018536,-14.32924262427179,8.15235561686409,5.374714237525424,3.5973052139536312,35.611462656733366,19.47765819789467,7.2947197452554935,9.598617753646895
-129.0,15.95464116428062,9.933981553216135,-6.020659611064334,-12.961371677244115,11.031815800168438,1.9327605414205706,5.314330276006528,2.919037721790831,12.962130727373705,6.799816205156166,-3.2431326779922234,1.379182128075402
-128.0,23.669231119477747,32.2900680114076,8.620836891929944,-27.998370042933605,7.562726628446777,20.440789867068915,11.889602547706662,11.165953582396229,-21.664968804802893,1.2769975025855995,11.388541858965011,9.108714886909674
-127.0,-2.9544307113301667,3.77706453607151,6.731495247401713,-0.4325126246064759,-4.806269050036251,5.245556022662521,3.555266915051165,11.504127600078823,-29.829570414016878,-3.113356622783787,9.702129933675945,2.75479554952141
-126.0,-21.541405677408342,-11.502670269726627,10.038735407681738,16.577021058267043,-15.831209353128372,-0.7393015377984309,-1.471730826791113,-6.441530961666762,-11.288811547813992,-4.207396034414323,-1.4727772091283895,-0.3705766537173867
-125.0,-15.522542818971163,-18.12875177236281,-2.6062089533915778,16.799913649110344,-6.4977063085592714,-10.29960248331421,-10.364226213153158,-14.863559663033927,8.05237723948478,-11.18460263509994,-9.192511969817957,-9.914394557138605
-124.0,26.47550934789763,18.099510399708926,-8.375998948188693,-22.23561797594052,17.386660231042107,4.842898605691267,5.995711693941749,-0.38932143554593956,17.827838374869113,7.3631861306302415,4.927936244685219,1.8757732580603141
-123.0,22.17224199164001,8.156516191881938,-14.01572579975814,-15.191898424130493,18.132266589449124,-2.9595647437420975,-2.986113507812698,2.211218467639548,0.9330277573887908,6.356657151743134,0.9938423396918763,-0.7087576147183223
-122.0,-31.687412397145465,-35.0936965134878,-3.4062841163424835,33.362076348795135,-14.104826875277467,-19.29201278350959,-18.798533358974673,-7.154740796723445,-12.025284968187737,4.468439639875429,-9.889852853257379,-12.99849075107569
-121.0,-6.702875003080097,-0.12328826944937887,6.579586733630562,3.382631354891842,-6.68656641111617,3.254588137380326,12.817978331856944,12.12562459023539,10.216231033524153,-1.6646280912438005,-1.3570571930326452,3.616547888374944
-120.0,5.0389219566293795,18.091661847836825,13.052739891207345,-11.520353335371233,-3.9742608927968703,15.592774419802089,5.95516685576279,1.3552224786117177,-5.881577190470778,-13.465660169936228,0.8810332059561986,5.7211874148202355
-119.0,0.13775948172652042,-1.7845815664160334,-1.9223410481426129,0.8635757166550428,1.0641524161605656,-1.8326617259065436,-1.7910849398679662,-1.0161631568111922,-7.973786299678236,-15.505603917301302,-0.42993268977679167,-0.8194620523935345
-118.0,-1.298576844400423,-13.236038665725975,-11.937461821325567,7.222737435978363,5.278275340093343,-12.559618272832797,-8.751740408003949,0.13677118632110874,11.268545662480397,4.891538322492903,-3.3497739137548885,-1.7247609033821174
-117.0,-17.148646814727893,-28.098312264332122,-10.94966544960425,22.650870529806618,-3.135992546374222,-19.564851102913305,-3.3580100286133954,-11.898315812641613,2.5569699878166134,26.204867645156877,-8.388430881506132,-4.46856603903665
-116.0,16.401214533752068,36.58124829846059,20.180033764708533,-26.54944116621322,-1.842407086960029,28.35218187387857,20.358680289720322,3.689517543618723,15.301245805705175,21.5783771755855,16.41666568578654,15.31788464385198
-115.0,10.103875120683899,25.516062296985744,15.412187176301858,-17.795200852738727,-2.682077850077938,20.44673704232516,-6.434751978904002,0.4186994334988632,-5.062502843811208,-6.571616864116665,11.551900498682405,5.009593902693098
-114.0,6.384598119106197,10.29071418949227,3.906116070386039,-8.32627328167521,1.2922038442401196,7.167065890416234,-11.883002144698796,-7.475237787716161,-21.782012756131998,-27.667506511915434,0.15522995305620846,1.0388152116596232
-113.0,-0.5512633110099944,-13.547686632280508,-12.996423321270623,7.06081486760147,6.196844315350075,-13.280185742947713,-1.238871334589378,1.1808668673572438,-24.36090816513859,-28.007146563603555,-7.583397346688278,-12.891511199693365
-112.0,13.051579407092436,-11.852031621982375,-24.903611029074977,-0.5850797544777233,18.949936100391753,-18.389760571490008,22.25055325729314,28.884107850293788,14.063614816046327,10.620004674495377,1.0813274349546544,4.383433861703653
-111.0,-1.9657650412680518,-7.800942717654722,-5.835177676386861,4.903744665745002,1.9038144717061818,-6.838868366744553,10.190904387316847,8.492675474024551,19.246960203210847,13.231835846573365,0.1562790685755422,7.729161100514227
-110.0,-25.215183665642975,-23.67802180747759,1.5371618581652338,24.394432725056095,-13.331826839005684,-11.103323915068025,-26.832763273956417,-20.0021201375457,4.799967640968671,14.48964605535288,-18.600080612257084,-19.717635896433208
-109.0,-26.7528248643544,-5.059090074264505,21.69373479008982,15.937306372238336,-24.181791104375506,8.350463429576536,-9.899399618022963,-8.21394727837257,12.770529857059376,9.732003667905385,-7.072181446246223,-8.674275171117046
-108.0,12.144451378357898,25.900661592583436,13.75621021422548,-19.067783859784015,-0.8449637806498504,19.85081378899207,16.062774284903366,0.6646601159021195,11.08252349398565,1.9097975515095147,9.241642925470362,0.4716146170691611
-107.0,11.972730202383218,13.149142579309867,1.1764123769265442,-12.527787991637867,5.4367464008172615,7.178084860445818,13.014477834465193,-6.521689359908376,-17.09180793333551,-14.62956218616389,17.333137386223683,12.945015806635272
-106.0,3.153970127174846,0.40204666920388377,-2.75192345797111,-1.8253207142697274,2.9118348899716624,-1.1625930580798975,-9.261159015531048,-4.176186679806667,-31.171543855036802,-16.10235775057183,4.693284548376134,11.870479046614236
-105.0,12.933480305692733,-3.694207197175762,-16.627687502868735,-4.589449894830624,14.738262873724699,-10.227006984713285,-27.389649733756663,-9.713461751557992,-10.77954036355883,-6.890821176345115,-8.288676552222633,-5.35105054440344
-104.0,4.240625905087693,-0.9152689373652816,-5.155894842453272,-1.6317480608078343,4.73343050132128,-3.020686924002379,3.035136555040011,10.764950103548404,15.772458518165381,12.64631527268327,2.317597865288331,3.7529045778132057
-103.0,-5.006817388676687,-2.839986946502328,2.166830442174083,3.9576441142302103,-3.552218317531864,-0.31905031957943386,14.610755233079743,18.886959304606307,8.508717236036263,22.078436959125153,-0.8387636623053121,-2.7536463702598826
-102.0,-13.643029389953295,-15.0534893865257,-1.4104599965725535,14.309062955201988,-6.159451348180761,-8.212350874088242,10.567554405396205,7.939627924070212,3.0839908188198066,2.39918281175685,-11.756137801418259,-4.7226041031293455
-101.0,13.254927663358814,17.90162737380215,4.646699710443332,-15.611447543676832,4.342670025819785,11.216260690941517,7.692932093206268,0.41180610888222713,17.072600497058684,-8.828391682079538,-0.9025464211922785,3.778266256207731
-100.0,-2.8119834899637364,13.133517138710937,15.94550062867481,-5.188502333685449,-9.414209455460059,14.560941793628071,13.266021715412768,7.181356309304972,19.757139480080923,-6.926639110512422,14.24813590045835,6.609180981515584
-99.0,-10.722277761931569,-28.163997076258376,-17.441719314326612,19.49814158450912,3.408554226073215,-22.780892987801863,-14.604106002006946,-27.194677683309457,-28.900652674543306,-23.593990136896874,-9.852140392132755,-18.546710809152454
-98.0,-8.050405720831877,-5.211626540976361,2.838779179855674,6.609421549572735,-5.4694706521542,-1.1633443322422954,-34.70019260510465,-26.618812157985275,-25.48869462714387,-4.06995744101917,-1.0972811683604864,0.00020649454009991075
-97.0,13.426719067992984,18.10306254139506,4.676343473402131,-15.707645390343972,4.353540017896273,11.336183190935937,-9.581118751771692,0.9843345470673981,-1.5451332999488443,14.401118242470918,0.8765733110553211,8.512094853717254
-96.0,-8.803501637324407,-15.608725583280313,-6.805223945956005,12.18238691083137,-1.0201883149503406,-11.17835972753955,3.9693581316507176,14.060319414579272,-0.785637892604103,6.901083087949395,-3.0181887634213354,-5.805022961136756
-95.0,-8.953353600729336,-0.25796228691039536,8.695391313818682,4.577236319039492,-8.768844590898915,4.173146496345967,33.01742829269263,29.43956441717962,30.01772901473166,19.43513196785774,4.432603797536482,2.725988868859133
-94.0,18.298058479285054,22.290655381189502,3.9925969019041747,-20.32969831385453,7.12505176827405,13.180220712728973,18.129107035968026,12.734736874429743,13.66478455426934,8.96398153827267,17.17724055394396,7.217506367107335
-93.0,31.45268789572921,18.294096323654898,-13.158591572074442,-24.83828162194762,22.35088756291719,2.6119064076622927,4.784455162911234,-0.7076605620024967,-7.500709298912346,-4.0659613836947255,-1.3224614104675423,4.8581630930186845
-92.0,-5.802674382385568,-19.386357713447524,-13.583683331061863,12.62124139553036,3.8510180168291708,-16.514929230595087,-11.987381647210398,-17.77404466169892,-16.905332768059107,-18.000784869427076,-14.167205571404768,-0.9266344598851823
-91.0,-17.140391962863273,-12.073792745696384,5.066599217167122,14.626692593795795,-11.147706340458026,-3.530736918564638,-10.792942219269271,-13.863050759964823,-6.676898038141193,-10.768574750108566,-3.305440504400128,-5.04826998310121
-90.0,-24.60200415875408,-7.828705777852987,16.77329838090143,16.151410426242336,-20.6551002929307,4.445366192652084,-18.138073242552412,-16.348635997869938,1.0700795442315387,-6.25428458076953,-1.9549160109828518,-7.578243207565203
-89.0,-6.27239112902862,14.345924170424126,20.618315299452966,-4.023751528685735,-13.410916018560805,17.531631212676352,-2.7554715909970433,6.150171801683631,13.113711405745267,9.940388440351715,6.360456879588817,5.854142178478006
-88.0,-10.71832100701625,-0.9620663892274406,9.756254617788805,5.8546984538143585,-10.27556703632079,4.363656372763955,-3.210310294193987,2.0911536984096077,4.374319528408226,4.377191066273817,2.021308418456372,-6.603721213703806
-87.0,28.573889605438392,-11.810877073748838,-40.38476667918749,-8.362389803936715,34.52902724824613,-26.057745285011503,-7.2772711147314615,-7.48528326350327,-20.973127790947444,-9.235950606566435,-15.777854007730086,-13.765441599927016
-86.0,14.472415703289652,-3.5759822272208104,-18.048397930510887,-5.50078896586358,16.241679781859823,-10.777631242957824,18.767923831257704,23.055022302588874,-1.127387114990567,4.626901259370696,-2.513939170040291,6.253755558307548
-85.0,13.230294684821638,18.165279918645183,4.934985233823231,-15.663304817901986,4.1376642463894555,11.500746708565575,24.73680951057272,20.627535651536803,2.594020647082819,9.381006340173021,17.101767177721428,21.064947205126128
-84.0,-4.404793023831814,-1.0863071410190202,3.31848588281267,2.7879778864988634,-3.8668957357178755,1.0624867566113307,2.288498886404115,4.544304353988168,10.658910711405435,-9.297918083046696,9.880237528338565,8.286159021459689
-83.0,-22.19082995948645,-5.667098805448639,16.52373115403796,13.898576243481024,-19.363149769616278,5.4510711920184916,-2.8422374189348987,-11.4323354499058,17.971576883506934,6.869022576770978,8.666173943447983,6.002609663297424
-82.0,5.892700016560989,4.137431985037736,-1.7552680315229736,-5.0427064958062635,3.812303696089497,1.214081698549256,-12.20301873940673,-29.2859934591442,-10.36549038994194,-2.3248049845858736,-18.646565168443324,-13.47675621456433
-81.0,-9.74250524997943,15.243461574953722,24.98596682493337,-2.7787588324648564,-17.385419626384092,20.140817014508116,1.4546770354122014,6.659098482638029,0.7325336510762117,12.204660948182081,-8.537391117601977,-12.918743738772594
-80.0,-10.882037508851472,-16.421411802131434,-5.5393742932798595,13.699082503137417,-2.6247426348923764,-10.94916859613603,-9.139395595011731,6.879363504768702,-2.0297446473301957,16.166478904961004,7.972780351392137,-9.82785847329733
-79.0,7.9617970650562,-4.2444127566191066,-12.206209821675344,-1.894018406740439,10.12020739590283,-8.267528418171526,-18.42141024497393,-13.389530622721697,-19.632996687994577,-10.319457483183344,-1.09546346075463,-7.082979346620775
-78.0,10.302239844406103,-12.91335991274801,-23.21559975715418,1.3458537649478433,16.707833964778374,-18.103336482354496,0.25176581759764183,-4.134319846789073,-11.73051921401431,-36.84801456614194,-8.851575181406462,8.056491309595533
-77.0,3.0232086818628865,19.22867160965482,16.205462927791963,-11.087082731762166,-6.569870518698043,17.75688141941899,22.918685139942905,18.800419545354295,24.29071094913656,0.18793635252754548,13.510400358105404,30.495815796569445
-76.0,4.573186004088642,9.545208915085599,4.972022910997108,-7.09897074265659,-0.18275619503318952,7.215998080138656,8.129124873513394,5.489172409446043,12.639950916176703,-3.8449123176974718,-2.9562642357113678,2.110656229862599
-75.0,9.448111669873489,-2.2763632342820586,-11.72447490415529,-3.624882808495898,10.52109258892462,-6.9702940862172875,-6.73662866570294,-5.062171039954885,-1.8591018366380947,8.04882278706398,-8.955789618782536,-18.88676175959255
-74.0,-18.693650725272967,-16.860111669806205,1.8335390554669475,17.816937686941447,-10.251563336231698,-7.4892179321809484,-0.9793014107419529,4.768823177127559,-15.717429015697412,20.2628339073445,-0.12423008824575743,-8.535420608834949
-73.0,-13.561746212371856,-23.186923682640884,-9.625177470269044,18.334770615847578,-1.9555620513818255,-16.464330457321143,-7.856483648913056,-1.434536295260033,-14.738674667909667,10.713460129537543,10.037981362554184,-7.403889346128866
-72.0,-1.637348424268625,9.248349898663912,10.885698322932322,-3.768494129917473,-6.24516940948293,10.088263847948838,6.821835236422585,-4.284245430829603,14.759558440005566,-1.1779560000702354,3.4190489400012996,6.106431342842763
-71.0,15.211282164694545,25.811675305896433,10.600393141201575,-20.477482138801754,2.3286543876415697,18.233038770777487,1.3292417717570393,-3.341297224551682,9.20428507750966,-13.845224051879736,-6.323124356941437,9.388184669450517
-70.0,18.98395181209384,36.505925351733445,17.521973539639387,-27.792584803570133,0.6849680807393801,27.050726611036787,3.447548621225651,3.267889625345603,16.956670767234183,3.277987776866187,8.960441279319692,13.828719303612907
-69.0,-5.344882530017831,-14.071026610263377,-8.726144080245518,9.658777123694133,1.7341325534762955,-11.429158202693294,-2.182812992648251,-3.240220039336807,-7.288640439138097,-6.082613330604566,0.031554667138383584,4.914781523005553
-68.0,-12.918668300382812,-37.26533768358346,-24.34666938320048,25.122626909953723,5.68887709201943,-30.826514586686617,-5.398565611546248,-3.615214229209811,-14.857854697004118,-4.261078205795028,-5.769318213007044,-13.703507511116275
-67.0,-8.09445644475079,-4.89595109255983,3.198505352191134,6.530112572889088,-5.664006258511171,-0.8629692489696428,-3.6403811347314075,0.9108554321551418,-8.566841171306354,7.085870871398538,-4.588068486793418,-9.58015747627424
-66.0,-5.171848767392253,-0.8997307151765526,4.272118052215767,3.0777213727823263,-4.735845571809827,1.6733082934848431,-7.342090501090266,-0.903255068689897,-5.439902391845847,-2.246649122228279,-14.044850246645861,-8.757364702801869
-65.0,7.7167249325751825,6.774003165140018,-0.9427217674351445,-7.274236351682408,4.393637119009746,2.8996383014061378,8.037388690004,9.855282772318171,7.0117846394529,-4.555161802120191,3.6324131440477965,4.473872349219515
-64.0,5.600826935427816,5.022004388891217,-0.5788225465366019,-5.334041655844908,3.0694208800305263,2.2781811982050817,11.54101353729978,-1.18943686692658,4.6732551863920015,-7.036423106315702,6.647188332794296,3.8055384983105776
-63.0,23.132145941907773,24.20963473653724,1.0774887946293856,-23.69139586136104,10.997531815738537,12.69256640246748,4.18041641021531,5.5711627064338645,9.476914630156791,11.683913415180957,18.519888194434877,5.978215969241995
-62.0,-22.75149183339205,-17.234720866512625,5.516770966879202,19.96932050245702,-14.096909581931204,-5.896542597988811,-7.216130628936885,-5.058446531560472,-2.4446198767397087,11.131466700746662,2.421930884490788,3.0826309296874213
-61.0,1.7438316179440632,-9.615635695974124,-11.359467313918433,3.9824792588668525,6.498179237107467,-10.532415847331064,-16.95682842748322,-10.092027625837645,-0.8759767286255875,2.4910631597982835,-15.092977722135904,-2.0874872653934005
-60.0,-12.468125714363614,-10.75754333356628,1.7105823807971579,11.64756624168253,-7.073762218050216,-4.4956028837025634,7.597700968102361,8.289816658522511,6.188774435783531,-0.9818091420044004,-6.557006142919835,0.5813071221768642
-59.0,-3.159191994955542,0.37088465568882434,3.5300766506443138,1.3372535656830786,-3.334257135968298,1.8960230063764967,8.555093326722943,-0.4914173744860084,-0.7390935447920595,-17.73614952812668,1.826574277374891,-4.440552022601645
-58.0,8.036940090169006,21.814425983903128,13.777485893734186,-14.915167715651322,-2.859375885305518,17.82047512187763,-0.6524251942564239,-1.871855744771758,-13.35224051084192,-11.30349909360326,1.4418995429586983,5.71510640437423
-57.0,18.162009539899458,14.819095367691869,-3.3429141722074043,-16.487591331263857,10.769386124934341,5.7676580265579975,-8.574780143470033,-8.746817987842253,-12.193684428463126,2.3020863791460826,1.246661286028544,-5.640665529009396
-56.0,8.945086746539902,13.246439294587796,4.301352548047978,-11.095133121315179,2.3485840933624473,8.813180229185077,3.6971293609682636,6.003274450927137,5.187871950348428,13.416129722822395,10.223920233572313,1.9777239792775871
-55.0,-21.3248390333776,-14.719713401285896,6.605125632091561,18.026084833816213,-14.006118022073954,-4.084089158486195,13.80138547985006,12.164676188136605,25.631695069717654,16.919448776152098,3.642653233884513,3.3662039323539865
-54.0,-4.148700316892961,-29.02468543604546,-24.87598511915279,16.598146936526444,10.3319280319437,-26.964468828101282,3.2047974003372834,-6.013050441904249,-0.574685818036528,4.0502870951124486,-14.211226169056577,-9.602827682472707
-53.0,-7.156456205315609,-6.724501876012093,0.43195432930320976,6.961830518482712,-3.8195675454888884,-3.1510256786161364,-9.725847831462577,-2.0574197055003745,-9.393944496498008,-3.461652973247982,-1.4424586103693144,1.9304136898570232
-52.0,12.351162720745034,-6.786796108604662,-19.137958829349785,-2.8302762754483477,15.80095941977114,-12.963481563049472,-16.97187371543515,-0.08183252391019269,-3.521996384357593,-22.632437627524492,-1.8570647074399944,0.37277745866723866
-51.0,-12.474637915684504,-2.1729136959183597,10.301724219766323,7.360488587335773,-11.410177070055518,4.060416261867887,-10.482603917454659,-7.6818976109226424,-13.112823211972108,-16.519671656734754,-2.450695611220059,0.7841743016918683
-50.0,-0.15546050313553944,18.743438180477394,18.89889868361318,-9.334861083085036,-9.471822614960145,18.80886981796963,7.068580627486998,3.106703745182644,-4.488687688678821,1.6394528899362593,2.8579331315421754,4.504486505630197
-49.0,5.783708228088373,0.7457807186432568,-5.03792750944489,-3.2306622103075195,5.38478963142724,-2.1694935131450404,9.43564657008744,2.031255401544267,6.657292708003732,9.208180875791257,1.615487320153377,-1.9465244024092665
-48.0,19.53075002751633,30.675082158444827,11.14433213092864,-25.154768106787028,4.163292576413001,20.954298030434078,24.52323679612803,6.85626051102386,27.76536991933638,27.976051999437704,10.888675834682193,10.61340331112942
-47.0,2.265149888688608,20.13969426192977,17.87454437324125,-11.18336160472224,-7.7612344438112295,19.044012657377507,10.07441916412578,11.371312272857635,11.104530523177878,14.977265439391347,8.584993847749464,5.538779347397132
-46.0,13.500567996319031,-26.223523537619265,-39.72409153393821,6.3750257262937815,26.570250527314407,-33.01905849293796,-33.14422468891863,-21.429634952126115,-31.612241201792614,-25.829994303918813,-19.858909120758703,-24.014894330564157
-45.0,-31.825312727076486,-27.70860261052119,4.116710116555485,29.779462950591107,-17.941803621821204,-11.761923816891864,-2.018887597316297,-3.837504416793231,-8.45474288559852,-11.093075805318115,-3.2160471911745905,-2.2657113574808427
-44.0,-4.884372455190524,-14.423281641503014,-9.538909186312315,9.670259921829594,2.271104299748443,-12.023003260530391,3.24093805703853,5.1109434795416115,3.398199951296789,-4.0521511400296895,6.163672369195174,2.011148288161028
-43.0,-17.228486286165815,8.61195766239293,25.84044394855879,4.332280528209738,-21.51574055219726,17.26612189550607,8.42891871335396,7.517855437120609,15.260365888902836,7.253231363381819,6.500430511051906,12.362061899089035
-42.0,2.4631685586150507,17.66616989897628,15.203001340361105,-10.11070912483011,-6.3506925533530385,16.39749759366594,-5.610790719234226,0.9919701552675786,-0.24813923562459017,3.976660488068379,-4.38853922623116,-7.251084599861324
-41.0,19.883706816854758,0.8520377125472081,-19.031669104307817,-10.40679958797616,19.48223269816214,-9.127096474444699,-2.6548750695531185,-0.3953317554523599,-4.8353388994815285,0.49882569761908613,-3.0867417822078513,0.13892756717868915
-40.0,11.09118544649691,1.8729020652172235,-9.21828338128007,-6.438462655286859,10.188275742053504,-3.6328768110377885,-4.728179613009639,-1.2107556018524663,-1.7583281074246104,4.713834969416924,1.7601530143683486,7.946491826687655
-39.0,0.48387833091595667,-6.870123359037656,-7.354001689953984,3.1580674901876424,3.8838951629228546,-7.074254301855841,-1.66581778588707,-8.107752058943735,-7.667157522266011,-1.855051052358267,1.9800909139977656,2.8519592089601855
-38.0,-6.293484001802334,-9.80077218053908,-3.5072881787369674,8.088372596766552,-1.419741218088718,-6.696231846470625,6.691882852493666,-5.485787765588491,-8.678157632690517,-12.268915266504745,-8.537428811955657,-12.574797567127973
-37.0,11.025570446938081,14.584012884926329,3.558442437988257,-12.845481036177379,3.711390465581234,9.107818515894387,5.3972402729999835,-0.4474902302478625,12.82609668932531,2.2966848891976848,7.0337057690401625,2.8832579390532898
-36.0,-19.858908623617324,-2.018819550195171,17.84008907342235,10.974790874294019,-18.871760211752427,7.869677311499614,-2.3599108228078647,9.113087982528512,10.826614505429315,3.410423600257394,-0.21347303862251676,1.8297680670282666
-35.0,5.481252394162322,5.164275994930381,-0.31697639923165966,-5.286837978325412,2.951867244279331,2.4631472149060336,9.708323934279626,11.10550449401374,6.984746709521405,0.27141093360966195,-2.255083140491741,6.726347298352136
-34.0,-4.619017375838626,7.894811231102871,12.513828606941823,-1.6784827502051347,-8.519297913003697,10.16648742758061,2.3841702102310154,4.02414523901678,0.2989000112243989,5.025028856660261,6.293257836318239,-2.374185651506093
-33.0,-4.6444584745430895,-7.814647469295496,-3.1701889947521695,6.192717837358373,-0.7745431495097992,-5.450875951010271,-7.740179888082818,-3.1731131607991907,-15.193432701834084,3.282546359970507,-2.837694359356418,-7.3210531284455
-32.0,2.7006297663239613,-13.497274695490614,-16.197904461814478,5.444343977207531,9.407079518124709,-14.88490219950325,-12.791041565981224,-11.665529366002657,-11.413925939177611,-0.380620869386631,-3.303250101487782,-1.6556888411835438
-31.0,26.503770991288523,2.0866491018518953,-24.417121889436714,-14.324670899409346,25.493701522404038,-11.202680775566112,0.10552240686308867,-1.85822858640259,5.465282719606297,0.2541808787293911,-3.647878677239894,-0.032256123354724164
-30.0,-10.0220444169893,1.4448448424553628,11.466889259444429,4.339341744166443,-10.713121247062643,6.498088292611877,3.7400485913604475,-5.37301289662541,1.9462031656963008,-9.510334393665776,4.1813172917554855,3.243065717612932
-29.0,-10.719325788423625,0.7710258209074092,11.490351609330723,4.945199721764455,-11.153134165493361,6.175780214763638,-2.7296749499128987,-1.0276722059900851,-2.1109309902823985,-7.05246858117604,4.210085288804076,-3.360963087088095
-28.0,-21.092862511112273,-6.010486935764153,15.082375575347884,13.51937092484359,-18.05746461653033,4.507299184305725,8.808367353189398,9.671066818875438,9.861143606336954,2.9876081242843027,1.2386414641917152,3.083638835156799
-27.0,1.9325115374779847,15.113522618063174,13.181011080585094,-8.481680466999936,-5.672809027074661,14.124996094794996,10.34558633809907,15.198239089465497,15.616143366853374,15.933584776023979,10.783895960212753,16.10211796552736
-26.0,32.7685143040525,3.8958641115796304,-28.872650192472697,-18.375223678642307,30.85114136657715,-12.50452284595573,-13.396120161016484,-17.146812835462836,-13.373487509972735,-8.665047085508407,-13.075887067198257,-10.978901767468475
-25.0,10.699472365320156,-4.89036050829561,-15.58983287361552,-2.8734605627507843,13.176041399293009,-10.173536753963031,-7.336631395312518,-10.739846388770312,-14.288030902402392,-7.955232186355214,-14.825330434514232,-11.534715625347594
-24.0,-21.11132218616297,-8.419773440900574,12.691548745262578,14.794351237546657,-16.9474601927028,2.1236625141247476,8.039283832896125,13.746034445376736,7.42455372081731,18.61867531319412,4.4376561663910294,10.305157768887094
-23.0,-14.192662506415196,-4.220355712089594,9.972306794325666,9.157352160407797,-12.048114288593393,2.858798407355078,-7.755775983182863,1.7293800590115902,-1.748682763540767,-3.3898679435797936,4.342403525482168,4.32928405336358
-22.0,1.345718874993791,3.3199298992105724,1.974211024216709,-2.2993602242541504,-0.35713482915873573,2.6205070412859137,12.519855313266742,-0.6360834533667077,-1.7484750934861517,-3.7065397771381354,7.876101655046697,-7.568447208747703
-21.0,19.900591332745787,13.561657674291997,-6.338933658454006,-16.77017298831712,13.156331795204187,3.573130195442773,6.8949708492693125,5.905944830433272,2.032094733060511,-2.2479497790425103,5.447312188764032,0.08245706116014806
-20.0,10.769366147127135,0.1824531099405835,-10.586913037186775,-5.428866169049507,10.714027508837548,-5.172277157918451,1.809003894814254,2.4849959670610544,5.500138798608502,-5.914160273738095,-7.927699776950395,-6.952055359001188
-19.0,-30.401411991493937,-12.866960796618311,17.53445119487545,21.609346224772636,-24.013173673982486,2.35770927975816,2.016026396546409,-2.14935412480133,8.074707485257203,-5.238412889552634,-5.558966986799472,3.1279532026725163
-18.0,-2.492687809938827,-2.166916931638889,0.3257708782999176,2.3097304106941046,-1.4582695526458638,-0.8958735772771195,-20.043430336511484,-15.971224832773352,-7.5106176077643045,-0.7340022476279895,-0.35783250858869176,-0.4450248301689741
-17.0,14.69898542886645,7.951393347285233,-6.747592081581104,-11.26517606301908,10.748746664638919,0.6338937516313039,-12.643156606831209,-8.192634825400534,-2.348757114512984,8.4854086353877,3.933369227074763,9.33283010980939
-16.0,-9.832818775709619,-7.114689052595953,2.718129723113734,8.452240123225945,-6.253380768560384,-2.2336883706052983,-7.481419202735976,-1.7056281065105414,-2.0008012945852713,3.8493346469217578,4.022593194839498,5.4712782682073975
-15.0,-10.526516844649475,-12.454157688924543,-1.9276408442750825,11.462250650767182,-4.278732107745134,-7.214775269251948,-0.3944446879576753,5.754579219433499,-9.600311095181446,5.784845242090826,0.819340174523578,0.13264818430949088
-14.0,24.98087695530151,9.192080373320321,-15.788796581981266,-17.123462211845638,20.406407051065862,-3.3142683659954812,21.80004206939573,9.95020323423763,-1.4710258480263203,-0.4882769807881462,-7.130914410188262,-18.892939434134227
-13.0,17.436129770906838,29.444798898854238,12.008669127947432,-23.407529085406054,2.6590160581237985,20.712891821099532,27.9404875191155,26.825266752422774,21.981159966952724,16.178128400455922,7.21425798204684,9.542356938445778
-12.0,-4.914950447477643,2.4260625707701866,7.341013018247942,1.2712226226661372,-6.101059406813644,4.944330286679741,10.719967113808222,1.3190030288866748,-0.8200983962242407,-18.002399870814273,1.497304117310463,-1.2553916800655163
-11.0,-17.235321508323715,-16.656123292320746,0.5791982160031166,16.970939605264423,-8.956872935875886,-8.06509216417373,-10.774022834677531,-17.83411287448948,-8.180619931889828,-20.306957156117775,-5.215192444985719,-8.62098654020112
-10.0,-14.390405036467277,-11.213107022554965,3.1772980139124893,12.751820566756303,-8.753728888384085,-4.054883984639798,-15.277691832155302,-13.074957106796289,5.967269657563267,-6.013373505674998,-6.22685835577871,13.680963408916988
-9.0,-4.127388356754539,-4.303664242978504,-0.17627588622387091,4.252176225506306,-1.9456194067705725,-2.2070050166357746,-21.43974542612088,-8.40861976350296,-10.288311263547106,10.30280250495524,4.111576623036396,10.254793227933424
-8.0,19.260554726090447,-5.57998755367357,-24.840542279764023,-6.8723384135813,22.00081630636816,-15.181948625660226,-21.451115764341516,-6.963616804625875,-5.517187924439252,8.317023684255311,2.0526408924774113,-8.019629065465082
-7.0,-5.468289425467646,-1.86002363303159,3.608265792435974,3.641841947692103,-4.510434835238902,0.8244040486028217,3.9560842987968794,11.26669040695274,2.554801777167683,6.3175145957955445,-4.741072593372157,-17.81621789145543
-6.0,-1.0419927909979712,15.769181485682017,16.81117427667985,-7.300113398397965,-8.89992867314562,16.32469407477511,22.531669285329976,16.573348805590733,9.112014712029612,18.740889634489125,0.18841746770981038,-0.8640250865651167
-5.0,1.0171066041420418,7.893398260671805,6.876291656529694,-4.467935749728744,-2.982993707633007,7.4273619673819535,19.688031414202495,9.092740808318881,10.704545183929522,3.2248152166093638,8.10223221001205,6.726715373813713
-4.0,6.255981707225999,0.3985703745327731,-5.857411332693343,-3.3425720353770325,6.080230833190315,-2.7582841919398016,12.954941881907327,-7.234389853138591,1.4698972084161337,-16.755006973798004,1.8204741672252078,5.742785041439946
-3.0,11.16302063532721,-1.5078979013863738,-12.670918536713746,-4.850105190821042,11.937715477963241,-7.11440588400312,-6.6812365070275614,-13.467519351456371,-18.732638355990314,-25.093210986666907,-7.269094995377024,-1.4210442678495356
-2.0,-7.782265180022381,-1.4421601989956683,6.340104981026569,4.5796236011166105,-7.044435353300217,2.4229357026279397,-15.137799670530384,-9.675535895120607,-17.735421547147318,-20.41268380864681,-3.666420043724415,7.276471594600792
-1.0,-22.178415423958455,-33.11575855724466,-10.93734313328632,27.682997099662224,-5.687405349095882,-22.057820910920555,-22.83601650344775,1.1070161297892946,0.8871140048098693,3.175075930213282,-3.924015028072971,-7.2513861839912215
0.0,-1.2697632153082026,14.443664933507723,15.713428148815918,-6.559096567691329,-8.484335917669982,15.119122033742498,16.585905472647546,21.514443622039316,33.013108146434895,48.923859532446045,17.522373587221914,6.808834333638362
1.0,33.42104668211781,28.980414616426945,-4.440632065690744,-31.177473809393952,18.9354981696286,12.305078816575406,-0.9379011914805704,0.780386949806724,-0.5863352159706068,12.107581480984187,-0.38444516018775854,1.179216077114952
2.0,-0.2825457354091565,23.55543244571167,23.83797818112111,-11.614594665015971,-12.054363950493277,23.730462359339224,2.9703750220162553,-7.610972659119822,-8.96948896133372,-2.3064771013576895,5.678452784401371,11.30626120883989
3.0,-17.15369363273385,-9.613609065908985,7.540084566825226,13.327155792416715,-12.334932824805316,-1.078491126791075,6.753831944817758,-6.161696000428146,9.468099555287008,-7.399856631029759,1.3184887441589783,-3.0104845253312025
4.0,-8.62375391913421,-23.222914048512575,-14.599160129378074,15.8675657471928,3.009935872880721,-18.94589428568328,-0.2422330018772998,-4.662675378954879,4.077068433545897,-17.143098389686966,-12.89926879176946,-10.675548856256261
5.0,-2.105022951716972,-22.75517116920433,-20.65014821748724,12.453424314466496,9.306971613400464,-21.650610451283594,-7.0705238527192895,-1.2596933546858775,-10.310026721102776,-16.00893298663712,-15.25397362459769,-24.580440572322786
6.0,21.734314056949444,-15.384369963049092,-37.118684019998625,-3.1513394775557853,29.3928749398492,-26.271460075040718,-1.1578730566168511,15.496318390332096,-16.231511144817606,-9.592750295886566,-12.395579906054579,-16.696719393580814
7.0,-23.825496362199946,-33.20922828156392,-9.383731919364266,28.5421933385559,-7.24833887834511,-21.31323519914001,-13.344296244101574,-3.4142750402048816,-28.479868781549506,-4.927772722220709,-6.511454664912431,-0.9470677753589496
8.0,8.005774853902693,11.465545746963304,3.4597708930603606,-9.707932611842182,2.2457061452534717,7.444327770630143,-3.7563717466345823,-2.0833070593623346,-1.3644340631452723,4.672159311233308,12.962191753587,23.994758520700863
9.0,25.62970719637566,70.99660883201068,45.366901635634655,-48.359367415515,-9.900862461590194,58.23593389136604,31.482291887061493,13.814325847142005,39.20337590566467,24.123007898923763,31.06111109798366,35.567505469762516
10.0,-23.991363905810196,40.744411659541356,64.73577556535082,-8.41638226855245,-44.32438035241019,52.70583007501627,20.3108404219187,-1.155286420920017,29.479799691921503,30.557295239350815,20.346683432841694,21.874395358246524
11.0,-5.327513000929348,7.543245767133303,12.870758768061954,-1.0618277406153815,-9.066201462592344,10.240339672414503,-20.251903253989614,-17.54988127001136,5.770271199924338,27.34587849885677,14.19393920558263,2.8165192536991137
12.0,10.620250860656661,-10.50502301924303,-21.12527387990016,-0.08331799826325792,15.90279102104763,-15.870820979963431,-18.192182634215328,-7.424898237105045,2.1770104192875923,2.7543608967270163,-8.132055679725847,-30.3676084557062
13.0,10.78981977629316,-20.73763117275452,-31.527450949047548,5.032726202985977,21.1893652648946,-26.11661090965975,2.676187075258502,5.43767003793295,-20.332809623016793,-39.02043096371027,-24.188181909432707,-13.907416663065955
14.0,2.369963834450973,-48.184604622785834,-50.5545684572358,22.8907705451908,26.416926239920535,-49.35612152880828,12.341269612939591,14.237936224038902,-13.163671120410655,-55.663789035759706,-44.82627923354988,-28.89879123849463
15.0,-12.227436408227543,-70.32247706807154,-58.095040659842375,41.25848402986459,22.89078110429999,-64.1926660383527,-15.505762317505782,3.392528919319192,-24.835922769029555,-49.01400466566428,-39.324797154959725,-21.03710525431331
16.0,-14.121991071196398,-18.106888960794688,-3.9848978895977343,16.094585437340903,-5.11122873106304,-11.023078679417896,0.9085698283005859,-2.1477569161952825,-8.580342268238098,7.9317546089776965,1.5901003463480858,0.6270223377577033
17.0,-15.442345226857245,32.921150251466926,48.36349547832307,-8.765150351971204,-31.86856823174591,40.59501944763587,-12.46574181786278,-24.760376389235248,-9.858159108074384,42.17787728881842,40.706100156159756,23.07298493984564
18.0,12.373380883635416,97.4301648666376,85.05678398299986,-54.85524286669147,-36.30986206242778,91.28280143164635,-3.9908903509841496,-18.896726699025095,8.653639487479,65.38413079097074,66.7501064049482,49.0010128288029
19.0,6.448076087200977,43.386686560667144,36.9386104734641,-24.954395870503426,-15.215125499554603,40.12815016237152,24.304976395255665,30.77629496385322,44.989571346071074,43.93066881392045,37.94408768285165,30.373200149378548
20.0,34.48214023801173,0.3223089931691092,-34.15983124484333,-17.361958915414498,34.27240318888431,-16.95227143123251,2.374543100166859,3.756771962221862,-2.4994689750802657,-24.152931053695294,-29.058159534957515,-14.175996328367535
21.0,-2.654987704577522,-21.26728544539436,-18.612297740815695,12.003547087324264,8.010236710955798,-19.89699624022399,11.197185444321988,14.423199480379669,12.647944926571617,-33.46504231946689,-33.13942983708391,-22.976479954352744
22.0,10.795542748936505,-20.772056925676146,-31.5675996746109,4.956444981176393,21.214552211107694,-26.21004283519103,4.8829798938970175,13.013562288150364,17.584341924641166,-15.584064577610931,-16.40372399302047,-13.704894335491648
23.0,-34.97487937478314,-67.92385474896744,-32.94897537418261,51.422246261848365,-1.0590713482329388,-50.402074058649916,-13.548894466835991,-13.736603008514729,-23.93665099295156,-19.92896044180783,-32.472911475798156,-43.29932412996932
24.0,-27.264111833775953,-31.509305000583986,-4.245193166807116,29.36220689428194,-11.55880957816769,-17.84581616967251,-6.875252081547092,-4.47938056602149,-5.065587368386851,-1.4534289052987788,-8.516974752392283,-11.18502280597281
25.0,1.2177751655988107,26.265213130799218,25.047437965200572,-13.68804322659307,-11.891401029738951,25.686171546302848,-6.165040105107138,-16.803061459413,-18.825606781120385,3.903303838390939,20.235588837528244,28.87980519477794
26.0,15.107346746816752,36.29979422962639,21.192447482809282,-25.7330880819745,-3.0263778891395994,28.695971617890137,4.457402484515295,-8.39274407975884,-15.68251275486298,5.025832585671788,17.52712151705549,32.811032574676304
27.0,0.7349805311183548,21.624221219193164,20.889240688074175,-11.215536378335901,-10.067362687959495,21.204457864980526,3.012379629933002,-1.3897338327276696,-5.7193310173824266,-3.135098299596267,15.327793842046741,19.6582125633536
28.0,16.826741345927303,33.07173761740639,16.244996271478186,-24.91315277680026,0.29701491812414815,24.681264299580015,2.895742949037932,10.6115660939719,4.849579680185348,16.46373098304121,12.828107055499252,-4.431752320310622
29.0,14.236508544328217,-14.491510857919952,-28.728019402248812,0.15834584463293844,21.488553256602554,-21.59139091119397,-9.585109438331006,10.7872456678929,16.325088758696722,-7.719972531724665,-4.923437388004491,-13.952118070284776
30.0,-5.672265442667742,-50.95467431088342,-45.282408868216095,28.341624272432057,19.815084412028167,-48.10421924108614,-16.454474676369138,-1.8743079404365766,11.50257400723982,-10.387682064981732,-15.311549727240466,-27.974306889353667
31.0,-0.3459649213902569,0.6673820533592298,1.0133469747492647,-0.21130679681205322,-0.7422633915370787,0.8528353989955448,-5.0897257827524856,-3.353650370279013,8.585269313744194,27.576098052346826,-0.00829357169686773,-0.6141549885831665
32.0,-9.779242804468966,10.698946907889054,20.478189712358095,-0.508281875018449,-15.105724499898514,15.52404519568434,32.015605072374846,12.646257690617361,10.883571053543644,24.26717596920053,-8.153871689351961,7.88769739079799
33.0,-8.642448086135909,-1.1658138525217696,7.47663423361451,4.938071225626754,-8.03073018373768,3.175582645305168,9.474216618143746,-3.7220751947495367,-15.411965853925484,-12.448612373950183,-4.517234503802617,3.866376119900554
34.0,-11.024990730183859,-8.06254274722358,2.9624479829608905,9.582109983941622,-6.961567686953545,-2.520330426060525,4.340314428076613,-4.047587643794693,-9.91257041343118,-30.22349813746096,-9.707709928564912,-10.546670642024072
35.0,-7.722943049036548,11.289208520293267,19.01215156933048,-1.8189932119313805,-13.414089640302151,15.191661740969364,2.146245553610237,2.4020027856034503,8.379373855553787,-2.07724079424165,17.977557280995345,13.491819100144944
36.0,11.828934811568878,10.509437006910488,-1.319497804657848,-11.122291415322358,6.524605870817625,4.567336481855733,-0.705678423185625,0.7271643930555642,6.529895099665266,-2.710982766943741,8.419366356160054,13.844359202231885
37.0,29.18948957719661,9.686679016803158,-19.50281056039333,-19.46710942938819,24.370317296389256,-4.929670706118561,-28.920563274327492,-16.562259110298896,-20.840803186898945,-8.984939001430742,-0.9119604676948292,0.22494265325077922
38.0,-3.150946279312752,16.275441575936362,19.426387855248883,-6.589944865136115,-11.269480310474847,17.8292367448767,-7.5226205328801985,-1.6561118734368643,-7.025446106580665,20.89724276392206,13.961873757407718,3.7701611657332617
39.0,-23.007481123879543,-26.840900457272745,-3.833419333393518,24.896483120325776,-9.571057069686269,-15.365182185364748,-5.518095075559971,0.6094658457156612,-6.148596086054733,0.8354285118748912,-16.961125644482276,-10.741347544400675
40.0,3.119108010364611,-27.850628099686595,-30.969736110051464,12.416003250980857,17.059816796572274,-29.37029385730079,6.6983579545556315,7.460710822411056,5.629394191562767,-11.085399129309238,-18.713865453565262,-9.879347738599547
41.0,19.154597723885765,11.521423976280758,-7.633173747605092,-15.288803016108156,13.410986988665513,1.9717659985755596,2.8195940719941497,0.6625144479029164,4.765138608522875,-2.661666422006764,1.0485985636748172,-8.786221303461502
42.0,-7.36993318967684,2.6772678397874783,10.047201029464391,2.315714331118878,-8.767426277919643,6.379604984329759,18.678796823188733,11.067608524216938,17.538479814788,20.50023376660292,7.426555566587867,0.22686458959315603
43.0,1.0122829856960194,11.006915640803546,9.99463265510767,-6.041526811602801,-4.468673208540448,10.43388051965283,19.320266694705982,9.517884700703648,15.141305695220073,5.243864747275145,9.15716494153271,-1.7636057570168804
44.0,-5.9561296213328605,10.361412623943382,16.31754224527643,-2.236411303310288,-11.191233718510109,13.352204366514458,-1.9566511306670407,-3.122089792777439,4.843825231713577,-3.471244697623056,14.905754445701914,15.963277948580437
45.0,-15.364252774437714,-9.149653109631075,6.2145996648068635,12.299422989965471,-10.763641603527343,-1.4473031057345995,-16.416845234298144,-15.370462913074816,-12.12941235261814,-6.398800939187789,-6.208624091928136,3.0022325703954174
46.0,-4.705404771634406,-8.282961098058404,-3.5775563264237746,6.533529334495294,-0.5362304016977353,-5.897091972986442,-17.648778729456826,-8.482221835270659,-14.283079456993889,1.0357561520047138,-12.935829134004312,-1.5962860705772002
47.0,-5.656023330341323,-22.608001684223964,-16.951978353882446,14.08897147711981,5.678798991042145,-19.80958052708913,-15.504292203419077,-14.276044253321214,-26.492636573590207,-14.589982653202194,-14.837034847608225,-6.380295773892213
48.0,18.417760368002952,17.971458729008077,-0.44630163899476827,-18.162961317803372,9.388473780434026,8.748930220237373,5.360073281897144,8.29257131414666,-2.575509950056471,-0.865368933411089,10.66774848470675,4.035290355447889
49.0,29.798880701982895,31.517389782465813,1.7185090804828982,-30.70949716558219,14.080232107884967,16.61711802974225,12.726724601979893,16.495407114462505,14.912320816740593,9.647806218952834,16.101623389073936,12.028105534523373
50.0,3.392629080863097,2.6268679016752863,-0.7657611791879182,-2.9862616406144316,2.044707342191643,0.9370582039650923,14.39236460370289,14.996794002267444,19.514046162415767,-0.46669646856556923,5.9374858833067,4.052294011717901
51.0,-13.873593283361517,-10.17543132274251,3.6981619606188816,12.045393026617269,-8.817630628712624,-3.2314597166653205,14.783316897019478,5.969302077229273,15.381254820713957,4.543010129529022,-13.83004686981411,-9.688575894776747
52.0,-19.57594590028539,-25.122897586397144,-5.546951686111875,22.291336580605027,-6.966348176471011,-15.333598077009475,11.56607358982775,-3.1434769449854634,-0.28217685640375656,3.19199742835356,-7.762638529673277,-9.204841898434353
53.0,6.927632029335491,-11.20218929198681,-18.129821321322382,2.1609368199558894,12.498378559913233,-14.675634890513134,-21.621487623834746,-21.490814955742838,-20.75367791028975,-5.875896121988433,-8.599750789072207,-21.392456752736813
54.0,-19.687463047018525,4.6707561918403435,24.358219238858805,7.538262083011486,-22.052770413305456,14.491200108732807,-21.446420851261212,-12.718076920665643,-11.338054481087935,-0.9788381144516477,12.548540036213481,6.183287161996472
55.0,-1.5880287495721541,17.140131258560324,18.728160008132434,-7.737661811667849,-10.107912111594072,17.97617196617734,-22.630239250376697,-5.557100041534186,-0.2561080133173004,-4.7483601207915225,5.994534604684086,10.90532910053777
56.0,20.33916431208407,3.099632402587064,-17.23953190949698,-11.750987714198192,18.841720114838736,-7.117111897376439,6.777537681323327,4.710871694460386,3.2258750876143556,-6.04049713357806,-5.969487973914163,6.473580292838637
57.0,-4.061862926753557,5.9489646980801325,10.010827624833798,-0.9682296582983501,-7.060864737176667,8.005937695636407,29.71623768560857,25.915224989045765,12.572620151258537,5.102642774030034,4.3009820375249905,12.536505106000522
58.0,18.617789512915714,-3.266399434943811,-21.884188947859396,-7.6967445829685275,20.22630844292641,-12.549470733749066,1.8999925995099822,-6.337445953291187,-5.205842734409775,2.102769004846791,-7.573929040697169,-10.903577862198166
59.0,10.782234335989159,3.5431249112373533,-7.239109424751717,-7.183431881917237,8.982579021481193,-1.8182450371065029,13.3802957756122,13.291510008358,8.041881125863647,15.863663417521401,9.700336712469301,-1.0863482992082205
60.0,-22.90086269757908,-5.904994960784742,16.995867736794363,14.459154666984801,-19.983021063904054,5.5021107065943085,-3.3229183912454854,-10.366323889036263,-0.8730630443117025,2.377738817432713,7.2932569823536095,7.466742284869957
61.0,-1.028250748420426,10.136969668197153,11.165220416617506,-4.57886328752928,-6.060744183981095,10.612529560754563,-11.012678128785987,-6.878751978835865,-3.798458456006323,1.5793431829423017,-1.0786574397876483,6.596931406192899
62.0,-32.727809701578856,-28.67331574697971,4.054493954598957,30.75413709339211,-18.362336952518135,-12.267302879489597,-21.719412777427344,-7.693271933442851,-8.278507021416138,-15.812911776870932,-13.251615144668005,-12.859896012094692
63.0,9.376132047876384,-16.88016749995997,-26.256299547836555,3.7279849127490046,17.840990106486814,-21.606291077691587,-3.787356104722658,-5.561405474528587,-6.104226679282723,-17.055449874885685,-10.82855826396039,-12.829599304684232
64.0,21.351427564510633,15.62602841723382,-5.725399147276916,-18.510408085289377,13.484535118762414,4.987207391972842,15.03354045620334,9.779214377647214,4.284261958246576,8.543426002854595,7.782967332511405,6.3402208103825
65.0,13.070708833354352,15.338344682967055,2.267635849612711,-14.22397060051362,5.430077658570765,8.756825201626054,9.604031948748347,9.139554236039823,8.31035342672035,-0.18658650151245793,0.48844258198834334,-5.318940771496774
66.0,12.277337498088375,25.555642490268866,13.278304992180514,-18.85651106899479,-0.4665407749733368,19.446676921685597,7.683747435612152,3.761254113213253,2.5683617703648185,0.4668607128006892,-0.7571007707058479,-1.9702583370890845
67.0,-11.224571516753594,-5.233491322668847,5.991080194084703,8.208362487200512,-8.647854039694268,0.40817687076453524,5.282199232610935,1.5423357863103417,1.125443286112503,7.222074957644758,3.6883295292737968,10.827921881064437
68.0,-19.271105310934015,-12.133336111565166,7.137769199368764,15.676921497538885,-13.242259868468434,-2.466319379624472,-3.4496033655940663,-1.8691116699916415,8.976678900517514,18.446877518040125,10.774615674034521,11.040791599018238
69.0,4.374550184282073,-9.505763649076354,-13.880313833358542,2.533801203739067,9.167173810481346,-11.737160676298073,-19.81957847051115,-11.19936889603142,-3.930394148581259,-5.777459488980366,1.140779274028644,-6.699411290400788
70.0,-8.133619358742777,-1.114950452131085,7.0186689066116426,4.664549003102374,-7.619195976196865,2.9102263766347285,0.3407740199867284,-4.746573406468521,-4.245583671567196,-4.788390490190123,0.4750448130894209,-3.972158770019976
71.0,-3.787661374393921,-2.960036216316672,0.8276251580772847,3.40927199695467,-2.277341302158221,-1.0285490090675369,-8.103360816589987,-11.770942780701363,-26.44029032259408,-8.306097263035854,-4.981459191128994,1.7743509598884613
72.0,9.900229799083872,9.791383925783444,-0.10884587330032991,-9.890492671709971,5.029812671947306,4.798570927087285,-0.9233023304070609,5.052713348728567,-1.431364193166985,-0.9854484632604414,-5.664641850254714,11.084220217804457
73.0,7.29700632192943,-14.490865495952335,-21.78787181788169,3.633873105750334,14.564264581668157,-18.106183822330905,3.5485359323424697,17.54505300935049,16.057928219875368,-12.06102300136153,-11.814207354643843,-3.4909896816776596
74.0,-15.94561763290715,-16.498558972043273,-0.5529413391360913,16.18708841809669,-7.754782919427569,-8.495249820329427,10.835130801029496,4.899645347378751,11.947895022712888,2.2380466285246072,-2.36212502904393,-16.84748818804483
75.0,9.791412826950701,28.503668634404512,18.712255807453754,-19.17309774197475,-4.440072953652724,23.558532460672073,14.706172893505984,3.4446337947387438,2.009978798202429,7.5187084952068135,9.268865933179997,-4.738838980685584
76.0,23.633308108518996,19.892645622195992,-3.740662486323135,-21.699763818076683,13.708298966253775,8.106309655008747,9.960607987725991,3.408332739860125,5.2265220326281305,3.785033803092306,10.025628587147114,11.887629786193004
77.0,3.1846349304233037,7.572297896525775,4.387662966102276,-5.385941393904245,-0.6575391098535035,6.013321607666528,-6.377983812058184,-7.405727609699797,-0.7108423849136285,3.8047454677590418,4.497812012046555,8.262815562561418
78.0,-28.706628947452533,-37.50822934495524,-8.80160039750291,33.103502883362054,-9.928014144776247,-23.19606884237219,-25.34169835744784,-17.94996891971262,-16.73095493017131,-0.5711507349449265,-6.440418238875937,-11.10279334184882
79.0,-27.862678481480803,-17.950050673660108,9.91262780782051,22.899571863079185,-18.860762758159666,-4.0553894001838735,-11.207040231977514,-4.97642438613045,-0.9392112071948269,9.742289624941781,-5.014559132997356,-9.844767895644216
80.0,27.23726434749994,21.22508313678072,-6.012181210719278,-24.247761072639783,16.576166590347025,7.652417417286271,5.110687273481426,5.097889201471618,-4.090313587188268,5.87276514594555,0.34573892339305257,8.606345311476042
81.0,24.25401001732515,26.01707470732377,1.763064689998739,-25.167516980773467,11.279882314031548,13.860202256226685,18.42931332971928,14.144180880051183,1.846910782941492,-5.688998171634544,9.370923810063662,14.926775167643843
82.0,-23.887969444417564,-19.056930817756378,4.831038626661498,21.501303547620346,-14.320473450281813,-7.062189072638107,-2.821121206253517,-2.9086181761570344,4.769334087586922,-18.021942832649632,-6.977749016830267,-4.9827667968955875
83.0,-3.32616742922944,0.032631272055495764,3.3587987012853278,1.6591734841341603,-3.3781109076868456,1.668640152098864,-0.5263920736491379,6.672122567871686,16.879982639133956,-8.100594395876957,-1.839522719212932,-1.5519010908097666
84.0,0.8150475777530573,-4.477110574312879,-5.2921581520655785,1.8322583574629356,3.0205583211774454,-4.911628732188326,-2.4657774398540497,-3.15197152877201,-7.147359478107928,-9.261587478834105,-5.96072012863979,-0.22875394444393926
85.0,2.271531641586571,-1.8064634474304513,-4.077995089016813,-0.23475850845289803,3.2210297368839536,-2.8910771881617987,4.658025680332726,-3.4571308010781467,-2.8379392930970697,13.725174636838956,5.849669392564996,1.0449117997408481
86.0,20.340800928889262,12.248091210125644,-8.092709718763583,-16.291980892349443,14.18310138482287,2.0490431666015216,6.413829779453583,-0.9459597650041838,-3.7601187455614165,15.18099772634639,9.253301327665918,-0.5031569911721205
87.0,15.566542896689896,5.232858638169267,-10.333684258520718,-10.386130376116006,12.914601174167283,-2.580219514146489,-5.674499009167023,-5.36301801874785,-9.148894678545625,2.1536703719846333,-2.8304133946557224,-2.306394147332691
88.0,-27.577001224133113,-10.489903945993444,17.087097278139513,19.061217478796493,-22.290038941986694,3.3466421534462363,-10.956356356280015,-3.1558752624565574,2.486916054333729,0.5751949236332923,-3.058639663900156,-4.859465083804563
89.0,-29.396703146638327,-19.901175439046405,9.495527707591801,24.611356593664173,-19.403813029242773,-5.233898453938824,0.4498952386697175,7.599790071971984,5.502639013211812,-2.2053881671198035,-7.801382132474166,-6.190080428405387
90.0,-8.470528710053388,-9.145803678112866,-0.6752749680595747,8.780011549005529,-3.932375013966743,-4.862678509252432,-5.1701450731337335,-1.944576913986328,-1.258220337133153,-13.287073764696771,-6.046569599615419,2.5688684441992695
91.0,18.78691466167931,5.28947395822614,-13.497440703453218,-12.062377947139389,16.18812215257744,-4.134353797156709,2.3212117659882803,1.3918540556255237,-3.594588547781393,-6.577028508106599,0.3570768344725086,1.2962567242440368
92.0,21.257067419012383,22.006508353801582,0.7494409347892432,-21.578171439599387,10.221562710793183,11.348140518677218,10.657978497176002,7.40874809327968,1.9269263443385958,9.456186821383202,10.040657625488057,2.2847569736625593
93.0,28.613873204740976,37.26770685300566,8.65383364826484,-32.96971430196427,9.945792579044145,23.010056165399224,18.036888370480835,6.122856475551054,11.905783590667383,16.480543990852194,20.032849827330317,7.811858895202546
94.0,-8.571391499238503,1.2196927688755537,9.791084268114291,3.7216866160720254,-9.219847335506696,5.476209715420336,-3.0764691487556206,-5.443712477001705,3.8934511741370734,-1.5346113912545212,-3.3592846124674383,-0.800864088940358
95.0,-10.48160621694538,-17.61376056022736,-7.132154343281732,14.012784879601075,-1.6398657241767327,-12.401646297268078,-18.32993393639819,-13.17848210275101,-6.858563868232595,-3.3007536584324275,-8.74114455892931,-2.0229981634587917
96.0,-32.34454871584889,-26.099956524375294,6.244592191473766,29.267235550975002,-19.263694515309993,-9.876665231589037,-7.431706512955042,-2.2474221244737613,3.1507074324056186,2.7621327865472978,-3.7144542436889854,10.685260671722505
97.0,-14.78073167377982,-24.994271632878828,-10.213539959098952,19.857873708831185,-2.2536577334599626,-17.6302914465561,-8.283555157799036,-5.750134934261461,-12.939302230419637,-21.361766741759894,-19.02399632913678,-7.112491763874081
98.0,8.001863425736692,-4.065398945014184,-12.067262370750901,-1.9917738397700813,9.988241551436492,-8.012826060394605,15.85773764261953,14.597268061748489,-3.908485544555216,-3.666150431466778,3.7929232722784025,2.5541679672153617
99.0,20.18009913719752,19.444337414122423,-0.7357617230751661,-19.82929739069084,10.495046751948271,9.328970505531712,12.229135459174955,8.35650523433306,0.6070618251035826,-1.8445556290354754,9.538649182355536,-8.123620414140523
100.0,24.013850802740528,21.458275961683302,-2.5555748410573167,-22.669260798422524,13.247611751323612,9.423792017901057,4.242137897898761,4.32461954572735,6.468679560359475,11.716076315432115,3.346250469074125,-9.36131462223323
101.0,-12.421880583909875,-6.858991469172983,5.5628891147367945,9.630705258186529,-8.94887549394053,-0.6803668543331707,-20.003855253258944,-16.051223111751113,3.0387798596821716,5.068166116160899,-3.7181497089832645,-9.036249887091783
102.0,5.374668718587898,5.45555378082366,0.0808850622356827,-5.426729592507937,2.6091943383692735,2.8079598930830167,-9.179690897586816,-5.37688247255956,-4.090894571726243,8.783333958635133,5.18450628968978,2.5323021237179324
103.0,-5.928474473386178,11.061946793933279,16.990421267319405,-2.584765924330431,-11.503947727792639,14.058665357939303,8.83970562840782,6.6498320583384825,-9.692431472128154,3.475266810343969,10.527247939207253,20.20525424007056
104.0,-15.39162327939178,-7.083935754477885,8.307687524913913,11.20950215591966,-11.82482338580736,0.559471793665776,3.063098888033938,1.6896604764322876,6.092686095709136,-6.542284946767601,-2.4062336165511606,6.345421522045161
105.0,-4.552855830027829,-3.551563380591384,1.0012924494365212,4.090429032460942,-2.761378801595572,-1.252331285843841,7.063457904330599,2.083483430970454,17.333045365627108,-0.7522394064295277,-2.9901991068329763,7.221454794177096
106.0,10.555111830844112,4.947718645944617,-5.607393184899456,-7.724874433806193,8.091036252037519,-0.3071255574972156,5.927562678914546,3.60777609232385,16.61299528909646,3.5582860217457606,0.08805527220113252,-2.4742326119830995
107.0,10.030151225799926,-13.75211302119184,-23.782264246991808,1.8003008668939184,16.915136847117466,-18.819826411648513,5.8068946280538345,-2.1155542039049946,-7.206861639750715,-10.070947164655223,-13.552472706940224,-12.746058659586687
108.0,-6.9183079471511855,-14.631462908569974,-7.71315496141893,10.78961730726575,0.41060535818922794,-11.140076653094274,-12.208854334987384,-5.640501247551455,-22.056912425215312,-14.598854179673394,-13.978229184227953,-12.153757207378991
109.0,-0.2343398315148082,14.340942365919918,14.575282197434603,-7.036195510566884,-7.3838928571856215,14.497780684678467,-11.31158477510907,-3.247413526600708,-12.59627078111985,-0.5200034077222258,2.029710395881405,-5.227461383882556
110.0,-5.657022389230635,-0.6954152740067032,4.961607115223877,3.2002904183237426,-5.358406492006792,2.1011201867722367,-9.823284922417212,-1.3629684686971033,-8.514429084427654,7.840082972060447,8.932200303335119,4.733769530909679
111.0,-11.75903335483869,-9.694150706776547,2.0648826480621514,10.759543343341388,-6.953508182619568,-3.841186866603394,-1.004875867128955,-0.15461364580350268,-7.01919875759375,7.64303417832007,13.435875381162406,9.299120900777956
112.0,-1.239746075728339,-10.200769362832578,-8.961023287104117,5.68179966969022,3.9031409506085897,-9.6042782875609,10.040795913412515,9.245851563720686,5.393904571030454,-5.533498342035148,4.068088839128576,4.023187148573406
113.0,18.09436378691654,17.650837932200805,-0.44352585471549966,-17.908223715015883,9.236084936786991,8.660325061244277,17.584018468556305,7.380785971945038,40.563300720661694,5.270041916340296,9.397164686293637,7.148165215105894
114.0,21.985698301289325,35.4101934772756,13.424495175986513,-28.736520034142675,4.3291358610873765,24.395748568475046,14.42639457436942,1.3931645820315826,23.214336730436777,26.85255002173398,7.914538532658506,-2.9313607835198785
115.0,8.667414018298832,13.672000338782695,5.00458632048395,-11.137365135909734,1.8042284730107314,9.317522446161703,-3.069926092412369,2.5181413394014176,-3.3604117318172175,11.404409305312416,-1.7462314732466218,-11.803902286309972
116.0,-19.159523587698715,-21.376207718280064,-2.2166841305814806,20.290094581112754,-8.416111056270708,-11.7366025820464,-26.04114455756276,-21.477307191421286,-29.96163918927572,-19.916390789853935,-32.605909635477836,-6.673581316014534
117.0,-22.9456961430636,-22.651848439316915,0.2938477037463443,22.811722493013843,-11.639479922601385,-11.195043570476955,-10.21364650676162,-12.137984844253506,-15.344151107396513,-27.877275081944568,-12.394728706816919,23.594661825680546
118.0,-17.03467648764928,-31.20669520170202,-14.172018714053097,24.127571636833977,-1.4487219275807988,-22.702210181362332,-2.381676834580622,1.2626428898948747,-6.343734998593899,-22.90284547294228,-4.856307174954025,0.8802178821811957
119.0,7.118343363193581,-8.219838575125545,-15.338181938319334,0.5557154114993654,11.210449939982537,-11.789221488653624,10.601795165227653,13.86697804277189,-8.766905501438732,9.362369924383016,2.9532181691744035,-13.846414790558025
120.0,22.736631038656743,28.133488918782316,5.396857880125537,-25.42834147925986,8.648446887953362,16.756479737665526,13.85715038184519,20.456057369994497,3.8213665113858255,18.198366937777507,18.378106024165046,-4.70657187153333
121.0,5.138169382766796,19.788426498073633,14.650257115306893,-12.53118619722058,-4.704860464552159,17.211021979550218,5.503631452880939,2.2536561480873836,5.862368112270059,1.7219165180612421,17.522450976432594,-3.165984065094522
122.0,10.17863437161271,11.369597788742853,1.1909634171302272,-10.758033753194317,4.459325878247792,6.271586093570068,-3.157140247779047,-4.958927402850469,22.1144294204682,5.141632787367358,6.730531447694055,-7.231604186264978
123.0,-8.02663899997769,-5.000733234801546,3.025905765176181,6.535202086609505,-5.48770546076012,-0.9181101238332356,-12.09481045995321,-17.44972692330228,7.2149891818499725,5.285774046647134,-3.6712476981195596,-2.843242419402842
124.0,-16.760822713384055,-9.00638341657476,7.754439296809299,12.91041499112105,-12.300392778190286,-0.6366081816916691,-9.080507212494894,-9.880790456958588,-0.9168140406754741,-5.437784440590366,-7.065507336826195,20.398487832191375
125.0,-2.4167757054988357,-6.458585765714891,-4.041810060216067,4.390851167871338,0.8500498960589145,-5.262991076291932,10.5187208402889,14.024008662063459,9.019217050178312,2.7530281856344923,-3.6885282409753835,31.244583035561295
126.0,16.24710304757087,-0.11046692007596981,-16.35756996764683,-8.03145857922839,16.266706693552987,-8.250513782775059,11.118205466006676,3.1615148112362834,3.9308783090539414,9.570367934506734,-8.715570284061304,-1.8749688776373734
127.0,-4.313279905292392,-1.3636733535320973,2.9496065517602545,2.801316331198845,-3.5799231715580877,0.7711957164080872,-3.487467312154825,-2.210896351011489,-21.988150843014388,18.644837124706235,-1.8751802615813329,-26.914662728574804
128.0,-7.173067942804794,2.9355493422708516,10.108617285075507,2.164741941791121,-8.658978435809193,6.49430206558702,-10.253393557050192,-6.302113846602286,-26.79288910649151,1.102529969963002,-2.82623078840655,-18.709108502658403
129.0,1.6812666755660284,-0.4488774968551992,-2.1301441724213253,-0.6451075918223822,1.8949069765146676,-1.2438375615020578,-7.188887877376189,-5.357320614369242,-12.38916426630145,-28.851785830632554,-1.3586717162136588,-8.391957111975199
130.0,5.52763961265485,-1.4762760355820859,-7.003915648236948,-2.0515155614028737,6.258489844129376,-4.197663697415656,5.810579016517407,7.386102567864879,7.196005161626015,-36.62006790368376,1.0489559144849094,8.772026099442186
131.0,-4.186891858288071,-5.82432685155841,-1.6374349932702437,5.060590328520994,-1.2834019667626237,-3.7678891587245076,9.498540668429829,9.826011271440958,14.848001604367761,-29.68546512826697,3.05740215170555,1.2658416622700805
132.0,-1.383034546768723,5.710801356106825,7.093835902875558,-2.186830894687319,-4.2531873381835785,6.445314784169931,3.2146762311324917,5.253118044428291,10.4754409696314,13.917379700227436,7.011518799009951,13.634468220672785
133.0,9.652201424377997,8.78389622309317,-0.8683052012849162,-9.241611207642986,5.3147921650487335,3.923916441572651,-0.5741522268505945,4.100091266782543,26.924127465628118,55.61269926734445,9.412079414431169,16.01004464654971
134.0,-1.6626375164348501,-2.166379206628501,-0.503741690193741,1.9675660144991944,-0.6145539628714172,-1.3677109324900267,-9.305352114915976,-14.183749948251313,4.958579671930508,18.264811518010646,0.10027318192275159,3.11528821083665
135.0,-5.970943677355297,-5.654887549980254,0.31605612737502387,5.783743802912972,-3.110154276625812,-2.7020217845561483,-3.2190371557555175,-14.034647317181093,-9.46892068851472,5.2361121975456975,-4.859089081976649,-8.103615898641124
136.0,3.6581099049423758,7.360675907814238,3.702566002871961,-5.542864915667552,-0.07563849682704249,5.576953428098701,8.29726154853104,2.9372521032318843,-11.956730053197937,5.092950141140301,3.504763656471777,-11.53835821711494
137.0,-2.089102467448242,-5.141780379950166,-3.052677912501748,3.6565006934981312,0.5025008061244105,-4.052826044911882,2.922851070718681,6.0124635546314025,-12.489548691089878,1.9577282282682482,-6.630630729525844,-10.737117321950807
138.0,0.696255125893544,-8.081725018745837,-8.777980144639235,3.6520005814345127,4.756895248517854,-8.464780557942616,-3.175569372805955,7.885012407845798,-14.347135348328859,-28.342051060892114,-4.702476438337906,-2.886677305474123
139.0,-7.010296258371229,-0.2785774684624718,6.731718789908886,3.681519455719197,-6.84899445337655,3.2699678155301086,-8.260581591428405,4.249229488557977,0.2560506848014361,-37.41767455045884,-11.68355099659745,3.440169329022413
140.0,7.923389190961426,9.709328642023067,1.7859394510616562,-8.777663355014095,3.016181640699706,5.711338443434861,-0.06726335470663702,-7.08473448019822,1.8032094805248455,-11.163625003912042,-0.34747555369909877,11.543302359226349
141.0,-1.3590801851295962,-8.589558206505327,-7.230478021375835,4.93824745677824,2.9665055459152163,-7.948341857389421,1.468327338689004,-6.52899765676007,7.995070132490731,2.9697242010302163,8.578000331604134,0.842183005601834
142.0,-12.965151365877226,3.8739507920252816,16.839102157902293,4.51528906009738,-14.94652255753223,10.393960152589353,-3.0239375030392615,-6.554475300386334,-0.9285787186371621,16.181672849250305,6.491423006368149,-0.07417848226047496
143.0,-3.971979268597434,6.043255571596125,10.015234840193392,-1.0590932490517604,-6.957798071146523,7.984961437380533,10.31020827488784,10.862584463445241,15.04123630612549,21.03271651783183,8.395572211311677,-1.199888504433385
144.0,31.653641064068765,7.5068565250545864,-24.14678453901423,-19.51761587556797,27.93490929736081,-8.286936447348076,12.571758507544857,8.739606666780709,16.752748874928542,12.753677137144923,-2.409271159171537,1.0851314364332054
145.0,11.115738555408218,10.797085072235573,-0.3186534831725911,-10.96537583774263,5.66961351454969,5.273649273624687,1.196210342330437,1.8118866251100147,14.4508842738449,20.323073709766717,4.070079417374954,11.876761063987608
146.0,-16.213283110729726,-22.790376255179602,-6.577093144449726,19.498900882383452,-4.792035189258989,-14.72334210724896,-15.806404116316836,-9.035660237096064,-24.69203668628782,1.175511422233667,-15.243329347418374,-6.502887493608823
147.0,-8.460562605126931,-6.346313613231137,2.1142489918959706,7.404208068007972,-5.345256204091495,-2.0695603555351196,-13.071834155863492,1.0127807598589111,-28.996537727512184,-14.222496946668638,-6.303841212321372,-14.571189118581621
148.0,-18.49610517037888,-19.800306207028456,-1.3042010366493964,19.14911818900064,-8.578297741368878,-10.576165004553443,-0.6821228104394521,-1.4291930278992826,-16.460421650591663,-29.96304271328564,3.841577976035781,-12.24394390968626
149.0,-1.6406420549050003,7.055784914032836,8.696426968937939,-2.7108176943571287,-5.150397250029515,7.859755896545043,12.410001728623367,1.719390530509067,17.231607421816122,-8.857815784822417,11.898673231065583,6.43350390519039
150.0,11.59284468932001,18.906133244740577,7.313288555420591,-15.261018809650695,2.163016046641914,13.098733450413736,2.0704182353143104,-5.451235125514687,23.374666597729213,-2.5653244622201843,0.6823932540637241,13.848697195680545
151.0,11.347979914528132,23.353511215253366,12.005531300725192,-17.37338296387616,-0.2963876738041562,17.671240125579875,6.701032813681489,-2.1079540555237415,3.6368211541733153,-10.714931386998948,-5.142459679856252,10.028772879069216
152.0,4.851102678620247,2.17665694037602,-2.6744457382442888,-3.469452568048162,3.7276617681613216,-0.25680820504541213,-5.130686960361295,-0.8143510451001079,-4.951204660341531,20.99890720177293,2.553443149183561,7.864318495390528
153.0,-4.085844894291955,-15.990162217367901,-11.904317323075997,9.994054279175941,3.884869434378864,-13.877671110585172,-5.022708368663832,-5.886420968546576,-12.54506333342708,14.502500054009358,-7.214605019498633,-12.254361571177208
154.0,-1.5923116722368293,-15.138232660555053,-13.545920988318233,8.394769695824518,5.960429434858883,-14.353695120753072,6.740771147334577,19.006688048965717,9.43682530395704,13.311747390099574,2.012999337745594,-11.43663475979698
155.0,-1.8120934263503017,-12.135613634627656,-10.323520208277301,7.003559381286393,4.243422057778919,-11.24482882374345,-11.388697821091615,-3.830217007543915,-3.7266252181648882,-6.591255570766894,-6.97018881509311,-9.411144930117505
156.0,-7.014217584372538,2.210994201603115,9.225211785975734,2.3580133099946057,-8.052989178968678,5.697625627692243,-2.7047949526130775,3.5593493873360176,-5.2985506896905905,-3.2358802264969166,9.85644520188994,7.20459786115504
157.0,-1.8631480524208168,8.782958984867856,10.646107037288683,-3.415722087420136,-6.269238363313306,9.686995118417792,7.943287608241411,-0.015893257120819904,-2.433083036399885,0.177810941003127,1.2003230027606162,2.3046284678743727
158.0,6.408536244845854,16.51243386178823,10.103897616942312,-11.484931605088859,-1.866436394840525,13.350606644885602,6.462103861915068,3.125782108617649,13.492068915099345,-2.4654996864081635,0.8419674676582227,3.0608210638173885
159.0,2.87770038245281,6.899201459224149,4.021501076771247,-4.904256246198266,-0.5951570382284372,5.492886254060881,4.7081554559884715,-2.9573261211141193,15.665165103988686,-5.190348165788914,4.315940200239355,10.385941345187293
160.0,7.675614493104632,6.68451960715416,-0.9910948859505582,-7.190622216610147,4.384863936799264,2.7903244977835073,2.9185905614283802,-5.920475087499544,-2.1251830642194545,-3.8692659245401506,2.443777155487958,0.07862251821849586
161.0,6.342863816950462,-9.197040227993709,-15.539904044944235,1.4175375248336755,10.911122392235093,-12.355541794823502,-8.622923619020426,-12.358772951605616,-27.287767699933312,-7.355460616110705,-8.511827933621664,-9.177962303974882
162.0,-24.92703891241591,-34.72549899667509,-9.79846008425919,29.892413360264037,-7.517787366944723,-22.2566968291543,-18.712551023894836,-8.740592434333191,-21.604369938870548,-7.0318878003590815,-19.088315217474985,-5.561605596114721
163.0,-7.599756185387335,-5.756247333279163,1.843508852108199,6.659211815522406,-4.7549046332122735,-1.9559999138472648,-2.1106289627034958,6.831424812840011,10.802571225887528,6.23521620757901,-1.8789307525688113,5.644466260017284
164.0,9.40776991659592,19.966125050844806,10.55835513424891,-14.713709574520824,-0.6085259197651873,15.261104147478822,14.4049430884677,22.1188977474003,19.173463471130148,12.53419849649849,21.606486557994046,9.465517630174546
165.0,9.008099255499438,8.008497754452224,-0.9996015010472519,-8.543322017673752,4.972131158234266,3.5054334225423567,4.008811025908689,3.7308289071481706,7.206741140343075,6.845891757696462,12.812147795953202,-0.050558093286619865
166.0,-4.921066652025349,-4.378597953444574,0.5424686985806928,4.686398769900174,-2.681298615678952,-1.9116627718561174,3.2090805499765294,-6.848311450581786,7.591621332780206,6.224384664225512,-7.539141301999393,-16.778387158722534
167.0,-4.876252188742152,8.36990877326655,13.246160962008599,-1.7153827693534618,-9.005507712960853,10.822303412334394,9.36538006746374,4.5523580446757235,9.386114410999705,3.7406054759537786,-1.4739880202428752,-3.3599694288418505
168.0,20.419820186737056,21.891912913961093,1.4720927272239654,-21.12728847774394,9.456603394291202,11.62663558490908,-4.012229172568993,-2.9933986174365765,-6.976381765791946,-9.040825131268962,-4.961514283985531,3.7888046357435625
169.0,5.67289342304035,-8.554701790134903,-14.227595213175245,1.3896751870357216,9.937092182487003,-11.358747131676768,-8.377728436739762,-16.847246659850217,-27.22998241445804,-10.927496443593782,-7.578303698422751,1.2166331945251296
170.0,-8.595905809879977,-14.593143202614188,-5.997237392734149,11.543379280838417,-1.3125204104092814,-10.255136642678362,-17.390919811612108,-8.00724866686522,-20.83156205845005,-14.31399735220269,-5.130750936859121,3.411409844564222
171.0,-9.497938344491821,-13.809785885951385,-4.311847541459487,11.682271025881466,-2.611969917408988,-9.094214564266299,5.056521281971344,20.952663752638447,15.73590139764613,2.6377037285063087,12.15355415093439,8.248091204643
172.0,-13.4943544516711,-6.753958088795059,6.7403963628760994,10.154063181673422,-10.147589176977645,-0.03769652934973067,10.23902480780267,8.513764139170757,18.23703452927653,3.150963318357692,6.71563285996319,7.050218220451283
173.0,-3.90638663431346,-1.366882946158815,2.5395036881546718,2.668868948930739,-3.189294030011448,0.6340883539052171,3.8046859774325794,-9.945870301429267,-2.2059603257687037,9.287911815525632,0.2569944133843265,-3.6045647386199176
174.0,11.635468837186188,13.820475679354054,2.1850068421678728,-12.771352225989116,4.74348407935389,7.9702244575670935,6.913782759495467,1.3836493406945687,5.300341489378983,13.201072290781367,4.937682031398011,0.48858779122049345
175.0,8.562789300869522,8.811386481506036,0.24859718063652547,-8.726829924350199,4.162571588964713,4.4959937479141,-8.066728340233379,-8.382626101937559,-5.354913802252881,-7.085221646833855,-20.146447213802468,-22.031311783853038
176.0,5.470645233902209,6.15062426119589,0.6799790272937031,-5.768019149155112,2.3928650217223564,3.4601428595811843,-9.73890396205394,-6.299195393926016,1.8175101019062119,-3.691487480302018,-11.06116193326801,-3.7154592846195733
177.0,-5.818057773005052,-6.760569315286733,-0.9425115422816466,6.334862723401706,-2.4425561665758972,-3.8042078337618417,3.842227036338614,8.03494048963746,16.66973638890203,6.073733460444559,6.073309491305026,7.849833812700206
178.0,-0.9792266485882812,2.14716908901282,3.126395737601132,-0.6155208120871869,-2.0548582393509363,2.6100149135731083,5.681257543009992,9.492681980422441,6.835345169474575,2.77780001195261,22.86359941362523,20.781996282227038
179.0,-5.43252705367933,3.319778962088472,8.752306015767811,1.0248602366955475,-7.088185740524332,6.014854915648558,0.6480405448805846,4.37088281219934,-25.430911157469335,-9.101964501274704,7.349674647709728,5.049060729896361
180.0,5.164647804571081,-3.2813494908544447,-8.445997295425512,-0.9745579970794136,6.817542048315272,-5.880023412614074,3.5919857576038634,-6.7129772832231325,-39.75846479770017,-8.39949940752032,-8.639973472510402,-12.042558162646092
181.0,8.087205813028142,-13.378734255506666,-21.4659400685348,2.6894781640859122,14.718153865363234,-17.436055962290528,-12.75058012901283,-7.783659302519753,-4.065623600974076,-3.407614970977188,-14.815777348255201,-21.47478164536189
182.0,-15.539371564606302,-11.265541048532835,4.273830516073488,13.444163689059247,-9.879040670082734,-3.4312356004609095,11.777523162883373,7.819103574496593,41.38418394733432,7.833710379944825,0.004429477408704585,-3.9014678571284493
183.0,3.705446492726309,8.848111333556574,5.142664840830302,-6.315188140727801,-0.685102625384161,6.977700932307467,-7.188435127883063,-8.32996920290798,24.34342963917333,-5.107083284577056,-1.9637001549877797,7.595770113482837
184.0,2.528563131796131,11.920501349400702,9.391938217604624,-7.184971398091379,-3.4723044121101987,10.632397155844725,-7.322664700503694,1.9871254570934567,11.063435927056878,7.257656205685964,5.386268157572795,20.95447402675917
185.0,-4.627818444759955,11.527170838827637,16.154989283587632,-3.4895047682935805,-10.349931972758412,13.809652068448912,7.997538784245359,2.993143511194472,-11.864138700289878,11.025510271703023,10.727308220526192,12.573081063991552
186.0,0.6449649537742358,0.03207179480633471,-0.6128931589678954,-0.37925944549726553,0.5936381983661803,-0.2507467012352107,-1.783894710905194,-8.376482866198188,-33.671396903830015,-3.162431896293425,-1.2374358789902544,-6.687687187550917
187.0,6.442913474051738,-5.201835286208489,-11.644748760260303,-0.5837707769825637,9.087803601778388,-8.389995223156188,5.324890056131295,9.53369684430924,-8.414453044577353,-0.7265563256965784,-7.25513521509807,-18.327424936298176
188.0,8.427550534474559,-9.059188882055125,-17.48673941652982,0.3513202567837469,12.921405663880353,-13.322621725459774,13.190812170576374,9.768543603886123,12.14807931489706,3.1280409440317047,4.966509598156208,0.27905873252564994
189.0,-2.9341952402557987,-5.37623783385158,-2.442042593595964,4.1110565796166485,-0.2839488084809556,-3.8818772494221045,-6.458156359019551,-4.4578221758837255,5.452942790885661,-6.98579829674061,-5.30380601855966,4.0557435154328845
190.0,-19.141828301996703,-12.977127664651945,6.164700637344561,16.093671052625655,-12.615059913063368,-3.378729726495513,-11.968731208811887,-5.1161291318002755,4.588822619677765,-14.707028210128627,-10.45843918284806,-9.426089246266557
191.0,-0.1950230856752162,4.328717310987715,4.523740396662868,-2.1115034288084322,-2.3236405588520217,4.376707916821108,-1.6436088214953815,-0.2252549265265933,3.8901885933822564,-0.2262069987366031,3.653976939816078,-0.02301295358288491
192.0,7.415764725876604,10.928089643470903,3.5123249175943876,-9.138190406547768,1.9070016625006345,7.173544266036304,-8.312991407862327,-9.392606627586117,-7.404489834754934,-1.6808907787860903,3.6615794663151395,0.8762600590309453
193.0,3.164825653911529,13.268458204669777,10.103632550758467,-8.184229686907784,-3.4361979835764473,11.721847276563604,2.677537174404385,-1.5754660197812922,2.3533526529911755,15.296529621306608,13.918017553597046,9.932180331056458
194.0,6.138598081678744,10.568776252528416,4.430178170849904,-8.402865791301924,0.8084598122006267,7.539440105802997,6.66157805835476,-2.085534487131641,6.210398203196625,15.28623188017244,2.269975317737023,3.6620761176206216
195.0,7.526935462130176,-3.1662763208929205,-10.693211783022937,-2.155106095765768,9.143035121124443,-6.88614085083338,10.996997158693816,9.997401909724163,-6.194887811436381,-3.3644396277492845,-7.333271541470267,4.433941166500981
196.0,3.6542491373167483,-2.3081964768813084,-5.962445614198069,-0.7315507225148019,4.841055103005559,-4.16888982385553,7.726034474779511,15.054929627773445,-6.768264382370142,-6.72122940561196,-3.615721341165885,5.442802704572136
197.0,-15.525593640917513,-23.667455873683387,-8.141862232766059,19.612724161535972,-3.738440448255297,-15.940232053724134,-7.048475282936637,0.3575199104557214,3.1312427868972534,-11.174249626666217,-10.196970837702718,-14.28937470178706
198.0,-21.99476617226286,-14.763939291409613,7.230826880853001,18.394296514464273,-14.65977403289095,-3.808302770752352,-8.929468505896454,-4.00661715363012,13.408706787519113,-3.0621211119638847,-4.739350692426948,-18.272892427724024
199.0,-7.039218339355996,-6.806411589406172,0.23280674994967043,6.940343312411808,-3.6037267968937137,-3.2592047249471916,-8.237951918275918,-12.693550246004499,-7.185369242230318,-6.604918691616332,8.609010616684444,-3.727756219233468
