Time(ms),I,II,III,aVR,aVL,aVF,V1,V2,V3,V4,V5,V6
-200.0,0.35906569637531405,2.1407732150170387,1.7817075186417526,-1.2358983314892251,-0.6806610847554468,2.01369223121201,-6.44322694441947,-5.06021474714234,-1.2483674529979312,-3.5813367949708086,1.414029210615905,5.1666181399231705
-199.0,1.8980304114733273,10.431018001490685,8.532987590017244,-6.2295664821271775,-3.2946420710315083,9.450131147896066,-8.882684853010876,-3.5401185878525148,-0.5342296360365789,0.9941492786462334,0.7902025174334261,5.838581539406309
-198.0,2.8636294516821943,-8.396224599434786,-11.259854051117129,2.7834288606531126,7.0788941331181885,-9.784035810560203,5.660109990152419,6.622820075897708,6.355478993615913,6.525155075949542,5.187624862632308,0.7960791453474876
-197.0,-9.710576692548244,-21.5748085889061,-11.864231896357929,15.66620853907537,1.0134030292118865,-16.754238477411306,9.82580287982519,4.879798223604703,-4.215681420637128,-5.410708041004789,-9.183074366116063,-15.057014302616977
-196.0,-4.604665513441106,-7.497362666493441,-2.892697153052241,6.082636964770041,-0.8378074548227166,-5.149010037806266,6.878451447917895,6.061058577893913,-1.8437800084695128,-6.30305936237429,-10.35147908015833,-6.6891178313549995
-195.0,2.7863713652849054,11.403084348194003,8.616712982909329,-7.133533462967965,-2.8897602370454454,9.979546356327356,-0.6583758812864788,3.549388479633367,6.3626948233338805,4.8044700123979895,0.5231148289902414,2.2217063989619046
-194.0,2.1342659058233124,10.092880525251113,7.958614619427919,-6.145281289730604,-2.876558093906953,8.996719178131318,-5.77712549381822,-9.008593657813261,2.9683119992669136,5.136382652512752,8.177730796832833,6.518356781127073
-193.0,12.693380479437492,5.014491994386942,-7.67888848505075,-8.802005851663768,10.153967751546986,-1.361656917812648,-7.974682644550764,-2.6166887282063476,-0.11906796587068247,6.827118864398311,11.29493053942663,11.474613415795094
-192.0,4.612946120656107,-0.22226392461854783,-4.8352100452750975,-2.219785767392879,4.701280818369836,-2.4814273265085416,-2.640267353410337,-3.2806191239207303,-7.113955720396721,-3.3501955613766277,5.503777627724391,5.384239647847545
-191.0,-10.468590060361812,0.2431607065343694,10.711750766895829,5.088469192598038,-10.60695000785497,5.521997211584827,-0.972027586343402,-8.778520427634115,-16.825610895820766,-15.630698891167974,-13.3597336470373,-8.58234506340426
-190.0,-24.40237499424449,1.8646110354335572,26.26698602967804,11.322128507371414,-25.349491655808436,14.02880994864967,4.086486539953756,-10.160669503135752,-12.604354340078634,-9.713778167246124,-11.883291610137013,-7.376042660512725
-189.0,-5.84621914169697,-9.227831281397627,-3.381612139700205,7.509538982432969,-1.1701792610261403,-6.344112072471406,6.871885685294045,8.457654955516768,8.40857158646907,1.7583084502563566,-4.762845750557363,-2.1657661853929637
-188.0,3.714989317424661,-7.087434748678806,-10.802424066102763,1.6564304690197962,7.237209245636551,-8.907682142585337,5.578815215913007,10.821729039491103,16.11228407680477,6.862774496208328,2.95545234125053,-3.503149878096261
-187.0,6.750825104281966,3.645430082621728,-3.1053950216599837,-5.151937294909413,4.978120424384128,0.30499231539912497,-2.1418134633182135,4.022189174182781,12.074269047741227,11.788668404963172,13.08762539278644,7.662294807730801
-186.0,27.717813810289943,17.86086928240493,-9.8569445278855,-22.747030582902042,18.749544045697665,3.9551846486272977,-13.158080824702449,-0.768407438840792,5.779596575836399,13.428760935978584,16.80039133468823,9.549004890286358
-185.0,20.385802538477645,-10.459932072962966,-30.845734611441618,-5.005183707241082,25.567603900985056,-20.624949225743556,0.5508067924833915,9.95924992643392,4.610593506544878,4.644426724760365,-0.5413757164172086,-2.024198540876913
-184.0,-7.216013414961003,-39.040005967914574,-31.823992552954383,23.077650027423346,12.324091934414511,-35.48785101221175,13.718799275964434,14.875328734621053,1.9251476348747074,-7.812544735024359,-15.803569378684092,-20.943795774613186
-183.0,-12.36131755835861,0.24949929367184787,12.610816852030624,6.074550112866071,-12.475000107090688,6.448014570240579,3.34203596675405,-2.382046110744577,-9.21690599742632,-10.937496927413065,-8.226078352693058,-0.3674638317430752
-182.0,-13.772353292850216,30.99898918093931,44.771342473790966,-8.604213767022076,-29.266627170140893,37.89915706389316,-7.587886159917576,-19.64276585245501,-17.864344926406435,-11.269659956900387,-3.189636250811785,10.19267317868739
-181.0,-7.240516022240756,47.322083049656044,54.56259907189817,-20.038440119146845,-30.897734060471194,50.95471462454102,-20.718573908549644,-30.713770388530186,-27.039167864655145,-13.564527846769721,2.203301015331191,16.732833174358248
-180.0,-22.307097872580833,2.29569116385726,24.602789036438782,10.006426715223977,-23.447806572213764,13.462626573467915,4.430666386285844,-12.205493747704589,-2.5193332566953277,1.6941286648493699,6.075500273805114,4.628007748156888
-179.0,-7.606922406511154,-31.671063512799222,-24.06414110628816,19.644458102985553,8.242866197618977,-27.85104316908887,15.316568418344094,15.061515275183048,18.74826546740087,7.395073165284463,-9.386246222631215,-17.58189187391015
-178.0,3.359645779343754,-40.4416635044407,-43.80130928378516,18.557057159272087,23.525075477930933,-42.17935336937195,18.2202870981599,23.493602323605124,34.57138358851614,19.31439558287346,3.2119260917398207,-11.338124861781317
-177.0,39.81059319324202,0.23559484168153233,-39.57499835156109,-19.992890443921688,39.724953512397384,-19.64428262785363,-12.271230742662524,19.346211236198094,-2.3809103228371775,1.8450938167965294,0.15771871586329334,-6.62741316804365
-176.0,19.580995480745816,30.728907030809324,11.147911550063142,-25.189147698931784,4.255169254247754,20.889469971320796,-12.905196490783885,-3.746266685024093,1.8230651134984264,11.516034275510828,23.06180295230088,21.323648504212365
-175.0,-0.3489790718501382,19.702710070363903,20.05168914221399,-9.699908845336445,-10.23762415378869,19.911577391067073,-8.341088047257777,-12.500412156308112,-8.662915686069672,6.19553521345965,17.428378655665046,18.085545424171134
-174.0,-11.635442381940518,-10.230398663915679,1.4050437180251372,10.915530757751718,-6.558445321760134,-4.372925292458962,4.855318246247041,-6.825315878294335,-7.112757881893632,-6.411345296060937,-4.072470420383317,-1.8082654609095679
-173.0,-7.630196279341263,-39.56277806182521,-31.93258178248351,23.57864910749487,12.188290062953378,-35.780125062877744,13.081416614504162,9.946895916187083,-4.521069552488738,-24.003671259737047,-33.015536835832904,-22.322143270996598
-172.0,7.801601235685265,-23.080886716876165,-30.88248795256124,7.694978447700363,19.2965718148084,-27.006728329346906,4.366199551050811,10.231547058590605,-6.163528711731399,-27.521737367014467,-32.276269158529026,-24.636114072002755
-171.0,-8.922917324300066,26.29021483211808,35.213132156418155,-8.637130767099846,-22.036642460056736,30.81251646694985,-6.2072625102686425,-8.98101205094021,-1.102974848944775,2.341113933203152,2.9343461283096097,4.686351972456974
-170.0,-22.675654569869195,38.75453643991531,61.43019100978438,-8.081652402896085,-42.020113989970156,50.07967296021594,-5.021467941411639,-20.12581935483331,-3.018899520607793,13.640558837181558,21.22400654021802,23.30493468452866
-169.0,-2.484921742477894,22.5114438335564,24.9963655760341,-10.06474261717233,-13.703309458591544,23.742908002666123,-4.749804952651164,-6.975075162726674,6.378321655331709,18.44590791401203,19.790766176394058,13.49888405475748
-168.0,1.828877679476446,-2.0272003178050184,-3.856077997281562,0.1194215824846756,2.806860058165494,-2.9553119952963414,-0.046686191551335465,-0.6216917764248207,8.043619461168232,18.4426007005571,12.419380154964765,3.5588841539228664
-167.0,3.7750595596343643,-8.464350136064834,-12.23940969569906,2.3612939597004,7.976077626790827,-10.372131124378374,6.928315852790014,7.607063524301417,6.437868659309646,3.0428439096807605,0.3289104301875643,-3.2269080880485075
-166.0,6.062838146963946,-28.79143767532569,-34.85427582228921,11.381219110406448,20.428345674493187,-31.85174846701135,8.358982851027912,16.31147370650688,3.713528334687448,-11.616413223561993,-13.33575054185914,-15.044781884522944
-165.0,13.568265193282896,-25.51389346179742,-39.08215865507975,5.993527250435568,26.370396229063417,-32.25626432624465,0.0800350852513767,12.538059704313035,-1.587441164421473,-13.360253061613552,-11.409922980269119,-10.848266276058222
-164.0,17.458973096550416,-2.5913672466030704,-20.050340343153,-7.485634378531675,18.714292558565297,-11.28432247950655,-10.721771748825478,-0.17422243639339108,-5.998444583056317,-0.4718724233404412,1.6275982035764365,4.8377314809836
-163.0,0.4227288100955704,7.802775870788084,7.38004706069267,-4.078658763565782,-3.448499731638777,7.626671080725449,-6.67317901381742,-4.487346882760644,-6.395504132850583,-2.0547921952879804,1.078065875529377,5.70795681001793
-162.0,-13.118158901843676,15.244074750974237,28.362233652817544,-1.1007212225879464,-20.717385796277746,21.761925169497708,3.993265512862024,-11.883063254585455,-6.7109228521891,-6.112456597390177,-7.108711231747247,-4.397379780511739
-161.0,-13.347568990197665,14.157888111502931,27.50545710169998,-0.43706735343115977,-20.408393016298803,20.79480716251258,4.513434592316076,-7.348571838903009,-0.32240881392490994,2.757961003082052,2.237584724970673,5.180326412680774
-160.0,-14.155987810771066,-0.6126775965453106,13.54331021422514,7.435654899002189,-13.911487713588155,6.433393163473813,6.93710595915156,-2.4776445358573174,3.4214089630473223,2.0804201753719234,2.353586058581638,-1.162966693580465
-159.0,3.7897900136302898,7.297382754996927,3.5075927413663948,-5.489419120226033,0.16015317813226915,5.453894387214881,-1.8425493822784489,3.5764032029164596,9.374757512324361,7.560127849121496,6.330550141053202,3.065597968457244
-158.0,7.856605092988746,-4.154930784286075,-12.011535877274737,-1.8746280743705257,9.957794991502354,-8.1066499981288,-4.015552345718107,3.235934957229978,-2.075414213840057,-1.5494451479600428,-2.609240898438581,1.0146550069591918
-157.0,7.131866195723762,-8.183889573330521,-15.31575576905402,0.5005616642325601,11.17474661629701,-11.691260685253283,-0.9812594221438307,3.1319379398574583,1.6016620253349787,5.509405927588302,5.234687840949942,2.3239330732064016
-156.0,-0.6693882579942265,-16.003283614483006,-15.33389535648852,8.30692510443375,7.367770024308671,-15.686485567860487,1.7773423188896018,5.98270618657952,-0.9084962751538654,-2.0182483922767354,0.6337957884771002,-2.975582807144013
-155.0,-4.854921116685471,-4.866947374954972,-0.012026258269306922,4.826363224402541,-2.3816221719366046,-2.456575773921047,-0.9312818127987698,-2.1387420840346154,-2.5779053940255894,-7.485395262130909,-6.6258393128671,-9.187203822875318
-154.0,11.22975396627532,22.374824051182777,11.145070084907541,-16.76259787067638,0.005138711151383646,16.741561908784163,-5.801808337836164,-3.7886397119738837,-2.790146232239117,-3.502045131008962,-5.7485254070071665,0.9896188921016149
-153.0,-3.3784464474737415,7.475485681424117,10.853932128897878,-2.0108142551727664,-7.154617870908721,9.142575938349497,1.8339524095561814,-3.9392009748259755,-1.2794174150248412,1.5298045888377172,1.8525380630380628,6.079082546651569
-152.0,-7.676818373481651,-5.763216200637326,1.9136021728442234,6.759065100749199,-4.758428317252521,-1.8742968694141062,1.2724317691946472,-2.305525724013794,0.20023510483426898,5.231676831333059,5.88496985269605,7.107698088001129
-151.0,-1.882009550838343,-4.5021980116359614,-2.6201884607977437,3.1564298904700245,0.3228259178369175,-3.5186514260161568,2.2026211553978587,2.16690861808757,6.757243108560388,7.899491326032922,8.487799386013425,1.8373736133744425
-150.0,7.561195683323254,-6.309407946215654,-13.87060362953891,-0.6566193172544583,10.745286156122871,-10.135191765561617,3.163864299270242,5.517336183289061,5.595442387295578,3.12939254565701,-1.6194834444917001,-8.921052879617694
-149.0,9.194014065533718,4.151668732382953,-5.042345333150571,-6.699683144481726,7.147196647209195,-0.4992372373666125,-3.6690392671805,6.549461378073189,-1.143462561499631,-6.184684318759591,-5.244400625102193,-1.1997438044621127
-148.0,-0.5063842648595889,6.5590823542592025,7.065466619118887,-2.9729410466115085,-3.754111734998779,6.830404804095508,-2.274918449395098,-2.772941988525046,-4.501693660354826,-10.464579665492947,-5.922985834449644,-2.897905929188516
-147.0,-13.877105011926767,-10.181909864527611,3.6951951473991196,12.003044674790779,-8.82795430044817,-3.228079234037873,1.9032724499771674,-4.428848974815162,-7.769870232660134,-2.2085595150207507,-4.883971110876363,-2.5990722504192822
-146.0,-8.369796698455898,-3.6416555272255255,4.728141171230247,5.976236855944006,-6.584956000909926,0.5608657356785987,2.712164896071303,-4.199617580340254,-2.5956571657998264,-0.032327110529740466,1.9258195867762038,2.999296448529881
-145.0,0.7537503271935968,6.623848624221559,5.8700982970278055,-3.643293204210036,-2.5105875083499636,6.272159035127734,3.5608256660928843,-2.9546921512954696,3.7198425247491422,7.535046413647809,5.80567480062242,5.141172157536175
-144.0,10.143487665398744,7.136677636280465,-3.006810029118279,-8.597976042511224,6.546802400774501,2.022509386236871,-2.6262572535852278,1.2305639196892988,3.414240188204861,0.09582723173091168,-0.29839785770878624,0.43641552463501565
-143.0,4.913137136409707,2.480654804388357,-2.4324823320212445,-3.7359398117525346,3.6452194019799022,0.07214175007183465,-4.094569389956552,4.188364367655399,2.063775632632258,3.8548801857631707,5.636116709042877,6.609029105386275
-142.0,-4.433828254442729,-10.14459228492372,-5.7107640304808625,7.2489924928129374,0.6890612635100863,-7.949477681251909,-2.356294978121684,1.4709917845526554,1.3379614690040995,0.21459904728731782,1.7305694332158312,-1.3253965057344979
-141.0,-3.773920128245123,-6.292568293881862,-2.5186481656366486,5.071905126143792,-0.6566356284178125,-4.424033373541834,1.8045719764616195,2.9722468134288746,-1.6262793008858438,-3.2697115978312343,-8.567666434492127,-16.796270403915965
-140.0,7.262352990132779,6.827055677914996,-0.43529731221769574,-7.083229282586643,3.898256028960906,3.1743554317849694,-0.7713186036310299,-1.9874362021940404,1.0255012999717357,-0.7135895377227568,-0.6838626046039948,3.0060533315082028
-139.0,1.8617923584243754,4.021006296295751,2.1592139378713577,-2.8980388652260816,-0.17762009002635545,3.0601676560867723,2.235957643583894,-1.025947401871258,-0.0828997059290213,0.099596765152977,3.318425344825754,5.83003336394603
-138.0,1.428080805314759,2.0610467738401157,0.6329659685251756,-1.7753675242128608,0.3693924868466225,1.384848159824271,2.7593164272575326,0.29869467235071423,-0.3749363415541176,-0.08953554981701717,-0.2568836659276881,4.022106863124323
-137.0,-7.023580248703977,-3.985119503092784,3.038460745610922,5.557717598013333,-4.980078016254277,-0.44578817329296583,-3.3742474813748835,-1.671276596532894,-5.723433147099806,-4.510956134301274,-2.321678519029577,-2.747162373262718
-136.0,-5.0503984838019385,-2.938963560099222,2.111434923702602,3.974455799519949,-3.6094331440514322,-0.3935273949107404,1.4178523484896826,0.7430591314026586,1.8522863584453741,5.041461454021539,4.727076747243808,0.9568776862387374
-135.0,4.236087272051014,0.8859898449074763,-3.3500974271434325,-2.577627045091519,3.762455246591389,-1.2154687911277895,1.4647316891490016,-0.597832915832751,3.910119672634017,3.948613406472064,1.3884205073400717,4.453454882532071
-134.0,0.07653937556717882,3.016334302820617,2.939794927253687,-1.5618108206817531,-1.3869497556238635,2.914983141697311,-3.0145077268803027,-3.8053688798825736,-3.7377175342187803,-9.113090719706436,-10.542888207595826,-9.115043557088375
-133.0,-1.3088412060266341,-1.466304252675958,-0.15746304664908328,1.3708415510000957,-0.6140761501819292,-0.796030565786584,0.026736687959798555,1.8693255435234089,1.0047641552582385,6.536221431623108,8.43167859478801,4.597247967270333
-132.0,1.159157518153365,-0.2788182433157127,-1.4379757614689208,-0.3814299492897628,1.3342558789404375,-0.8425246700473086,0.3303290832502962,0.9378805497750331,-1.1744619837293213,-1.1141092887276831,-3.2552506136755066,-2.7899982213022545
-131.0,-2.854004267943185,-1.4287145579535436,1.4252897099896533,2.117286303568105,-2.108596465911163,-0.0648808177104987,2.0789966996118294,1.5991496986251297,1.6497948107922942,-2.286949144394781,-2.1324034846230204,-4.92443657651573
-130.0,-1.2936811924751128,-0.7856148253985928,0.5080663670763872,1.011890748520599,-0.9529231196018612,-0.12273085629181635,0.7954699966775645,1.588123532648603,2.470210712948625,-0.5854805346789803,1.6058233720919295,2.996813331710769
-129.0,14.448889333243349,3.721310233130775,-10.727579100112793,-9.036620345300168,12.611195360774223,-3.484215247759959,-2.8944476105455705,2.776989276764801,4.939657812583761,4.137650903558725,6.989009905768983,11.201481480524809
-128.0,4.764388870195409,2.6387059116897364,-2.12568295850582,-3.7329402509389604,3.386732983022345,0.281968019993144,1.0568213267246778,1.1615622256190337,-2.8612491797589383,0.46568824999234426,-1.5935125891837747,-4.4644310127162425
-127.0,-11.741865839308144,-0.5852407300913687,11.156625109216701,6.2108654127472605,-11.429221655797015,5.3212884865000705,-0.4294560011039248,-5.415450570967554,-7.648890533635622,-5.156021604452427,-7.641869022843062,-6.696265326903449
-126.0,-8.086297875580309,-5.777097044697117,2.3092008308831824,6.900722308103941,-5.1753774122546465,-1.7649867343140273,-1.1707582595937167,-4.939838591879284,-2.91913706510374,-0.8747445288999036,0.46614106716969905,-0.8516645277619883
-125.0,-0.6309361560772544,-0.7083425638420437,-0.07740640776476271,0.6392142613406882,-0.2493931697602405,-0.41247868205826854,-2.0550294916983622,-0.06416165289237741,4.355957903538928,5.208457612033225,6.367856595652824,6.961717440452132
-124.0,0.7899137585663856,1.5887982633765112,0.7988845048101754,-1.2191344697534052,0.029277968828985923,1.182347718348483,2.425757180288832,1.042498028699097,4.087290593661906,2.6830577446012653,0.5669581903071961,-1.9100675484095184
-123.0,1.2577296378958502,0.8762470144256055,-0.3814826234702192,-1.0169165011870867,0.7803150736963652,0.2390270933505499,2.0156642936770774,3.000466317708266,-0.5135831319105284,-3.3478229882219948,-2.5108269703863373,1.3549529774231557
-122.0,3.943729798927403,-4.272325616972968,-8.216055415900357,0.21621019529120367,6.043612864086971,-6.254571353889696,-1.2197673961994995,0.8106199592561838,-2.5207708393843045,-1.661466840693581,-1.6324744459718497,-3.4647315005571175
-121.0,1.7469393048502662,1.9735035567470176,0.2265642518967388,-1.8846663469108174,0.7233884050416539,1.162298765233023,3.575250386558618,3.7610694722062967,2.7797655828176735,-0.20531611692039986,-1.1500869929271968,0.4009394163017741
-120.0,7.46367064174501,12.442219984435209,4.978549342690217,-9.975112351582029,1.2812687430448217,8.685489484102877,-1.9137263714748192,0.8309772031633427,-2.7869930861538013,-3.535218602480315,-3.4365579828341986,-2.2399590702440637
-119.0,-1.9971988159384866,0.9068778728676192,2.9040766888061023,0.5244387990186303,-2.4157736638952216,1.8716786913489756,-3.2188652196076806,-5.1183440320375615,-0.27657933581430894,-0.5502514424039852,1.134819671723805,2.731992768929583
-118.0,-4.6309828787014045,-11.776300524398533,-7.145317645697167,8.183271663872494,1.211297433028684,-9.423855815262158,-0.25697161609989205,-2.276962080931323,4.670871956293183,8.501839546173601,10.304442766750352,4.080584290638094
-117.0,-9.078258536626901,-5.459644117817525,3.6186144188093214,7.326962151982416,-6.313956972079242,-0.8898537569575709,3.296846363483474,0.8004800350825132,-1.7230097192196927,0.6042057575632178,-2.7618728326067172,-3.7685661083336712
-116.0,6.523556568180769,1.8932303909108317,-4.630326177270035,-4.229476895411883,5.616906883859952,-1.4209488508426826,-1.5246571623437453,2.242503587698998,-2.221085285748658,-2.174044451028827,-1.5968868911091585,-1.0230738628725145
-115.0,5.18639049923558,8.673750867594384,3.487360368358734,-6.950841103236971,0.8189510607969954,6.104581227151892,-1.411451468389236,2.5200454464329662,0.35019691275006815,-1.9184908907669502,-0.053028099044820864,3.02823791810097
-114.0,-2.6496490543819093,-4.876354832005151,-2.2267057776232395,3.822074167414435,-0.23310306306323025,-3.6065708601944055,0.9338917902775283,-0.7168077397421786,2.256276720075655,2.033167563032898,-2.606016493116252,-1.8906005742960648
-113.0,-8.11421942107043,1.8188874799416799,9.933106901012172,3.1293767081961255,-9.037651402394468,5.9014862747432115,0.7822467977156667,-4.593824859312628,-2.0299358766277784,-2.0480987750586332,1.3167177114685986,0.5687850435056887
-112.0,-3.583154441926192,-1.200401345568871,2.382753096357429,2.3743313591374267,-2.9918487332665973,0.620457200574736,0.7929779124613144,-4.180716007490098,-1.711718245899434,-1.97146777751274,-0.8446620862998564,0.32181636431597066
-111.0,4.283099959186621,-2.5982387247675405,-6.881338683954039,-0.8603220575252435,5.575537565984265,-4.705308387893881,-1.1392472338628084,4.446028868190966,-6.273141214549309,-7.627802250487013,-8.256644163367296,-6.887633069724468
-110.0,3.616041176377661,2.0703245108757304,-1.5457166655018608,-2.8630598218859,2.6525386389505625,0.22339343123986022,1.6533803229955641,2.5035348788658673,5.576085428149538,5.427563229732661,4.520036752057584,1.0591662582643908
-109.0,11.160816403237016,2.1875658004201415,-8.97325060281686,-6.618535482450268,10.057235788601426,-3.4278184640453415,-4.3575093192698455,1.1364866601025032,6.194312847351222,6.463728640331682,5.420378152717513,3.845346800734358
-108.0,1.367962446314381,0.31762802079208075,-1.050334425522355,-0.8697206685950736,1.1944587185606306,-0.32141609048344777,3.6659292623081567,6.231419659193578,3.765190065721672,6.228754510051441,4.196893403015045,8.023128125002776
-107.0,1.754902131739462,3.028833763942287,1.2739316322027296,-2.3438971834519062,0.21878278596031783,2.115371160214902,-1.5181452171711027,-0.5875333615278568,-0.40936551864770454,-3.0044371698031704,2.5183405602322435,-1.1182667071568866
-106.0,-17.027991129296687,-7.894928362720316,9.133062766576282,12.427219085597118,-13.110965185356987,0.6566307736118779,3.5930512759537128,-8.564268340226127,-7.5452685431330435,-3.9136838464673134,-5.540997012896893,-4.566591829697391
-105.0,-8.649608370097884,-4.167752022790498,4.4818563473073505,6.371717547383831,-6.5269179249345965,0.10896551622868278,-0.2743267661209552,-7.550430680588194,-6.0691396755814715,-7.030958374528007,-9.100873347674401,-7.896229932823298
-104.0,2.717905394480301,13.214738248477467,10.496832853997134,-7.926053008978828,-3.859519619727927,11.879578555818487,-4.410754934174293,0.4371725859820801,-0.2917764262597644,-0.15589537556814292,3.6433509434396205,4.877720053110196
-103.0,13.641316382039957,6.4143699675948085,-7.2269464144451705,-10.066045032661568,10.378491130600226,-0.38757010134639724,-2.015817171525109,6.822197619533423,3.158512163810739,1.500652646941109,0.8145349466367671,2.741536891616932
-102.0,-0.1582039015361527,-4.084323767654079,-3.9261198661179595,2.1643615500019093,1.903264664642558,-3.9884781873170843,2.502739678380439,3.51238705568252,8.14353916373086,6.961417355268863,2.482519353625265,-1.397186435066699
-101.0,-4.334920362394817,-19.11410732953621,-14.779186967141367,11.693645389207212,5.24096094784689,-17.006974010489824,1.028925638610205,1.7341206759637386,0.03979701596373708,3.41710724155185,4.240273287008055,3.930699463024539
-100.0,8.895331887315633,-5.241605487293008,-14.136937374608642,-1.7727745618819908,11.537322377406262,-9.665769290198202,2.9057054922450307,6.719410505798243,-0.01850015185383236,-3.507398034765595,-1.4105861756408458,-4.480136317950931
-99.0,0.30082809183131864,11.636190756067482,11.335362664236158,-5.987054988854037,-5.570724611327959,11.516797405988733,-3.5848683432915136,-6.169538459474189,-4.739286532921144,-6.594595541406985,-5.050982453344286,-2.4457308015018633
-98.0,-6.750453232096753,10.612962762411478,17.36341599450819,-1.9455274153420823,-12.027131110352677,13.948937142176398,0.5457272559686388,-8.384798604191236,-4.191609079146592,-1.550976673086366,-2.6727898842774716,3.649090132008256
-97.0,-4.53066233886562,1.7265606858613465,6.257223024726901,1.3889084941842995,-5.439165315614164,4.039098314288153,1.2055692207012316,0.30995195875871495,1.8512408427304865,5.149863813497946,4.505032576798449,3.1418978776069126
-96.0,-3.044443753628446,-1.2348156450395984,1.8096281085888037,2.124186749378933,-2.3913948210693006,0.26121827337356374,3.399861976583449,-0.4497973948288998,4.902911600875818,5.5402122428501945,6.401616342863841,-0.8213139837824794
-95.0,-12.782067531656033,-6.153843536900872,6.628223994755147,9.447599635514381,-9.669440953325475,0.21298023004674704,-1.1367914436948663,-1.4051477686421616,-1.2313086732077592,-4.539412307289552,-6.993952955633714,-5.33972048647901
-94.0,15.938766182437185,-7.511472135434167,-23.45023831787131,-4.1613064028288065,19.649352982812115,-15.506672025236455,-7.865067012790788,6.387097823956338,-4.9192418685466235,-6.275268684045025,-6.465791596576403,-4.663807541820312
-93.0,12.69727279713723,6.220707594565673,-6.476565202571495,-9.412458434324275,9.61646983312432,-0.07964689859847507,-0.3258587571474765,4.069011551354229,5.439962563319663,3.4955610364679037,4.849876946079627,5.610987814207881
-92.0,6.0400813439615995,4.199941994718607,-1.8401393492429712,-5.1570533725452705,3.8855637902441122,1.2214190106758966,3.862169840735322,-2.6105958181944433,0.104160574202248,4.060729523258976,3.1852520737002914,0.05405762737672748
-91.0,-4.930288628704152,-3.091101639497498,1.8391869892066275,3.9698668888524087,-3.366118903041654,-0.6711054140242303,0.8014243219550126,-0.3880014402628644,-1.4740909996027085,0.09925172516867176,1.5422574812350527,5.326349520534218
-90.0,-8.216812488832854,0.42913195451058594,8.6459444433434,3.928769844857693,-8.41736916074429,4.562981021565847,2.2530757388425817,-1.0412415880168342,-1.5212470830143334,-0.5283551875374651,3.362648746642865,4.381988810358351
-89.0,-11.828027007043953,0.7053137809915058,12.533340788035432,5.515253825111955,-12.169393943490634,6.558667210512661,3.2817545563514314,-2.8279051811197147,-2.341363345427458,-2.3263548057058228,-2.7453496747621484,-1.045230499020119
-88.0,-1.5864777707552715,-4.078487203204287,-2.492009432448998,2.863799476140085,0.4634611874342003,-3.272339579625828,-0.07953532053624868,3.374515480315218,6.95295521686991,1.7028370436042046,0.48629651873304125,-0.5720705241852011
-87.0,7.90358696527246,2.313407492666405,-5.590179472605944,-5.077159844031572,6.758601995994553,-1.62696268915918,-7.246914583117238,-1.3831114418945167,1.9870464091329199,-2.456563276204896,-6.792976203200113,-13.274916313033431
-86.0,3.90551322974115,-0.8496978750215131,-4.755211104762505,-1.57371870898788,4.265042046512418,-2.7876731348351327,-0.013320572562082855,2.9239359361393684,-2.135856360311961,-0.9531170017659776,-5.328683950879041,-8.86909813746558
-85.0,5.386344828204697,3.783209566869429,-1.6031352613351517,-4.548838697434447,3.509702991865286,1.113147418425112,-1.334032470567249,-1.970481804694529,-3.9625655689832904,1.7898963819476692,4.0270925973987834,8.66233699344625
-84.0,-5.927325838829631,-4.986899010909962,0.9404268279196164,5.418047624293894,-3.4180113016788796,-2.066841795377985,2.3450745428266377,-4.721569855961386,-5.211368684156317,3.3499913366895875,4.888954923210925,8.85390377237094
-83.0,-0.8509982646991445,-0.9829876438678882,-0.1319893791689446,0.9601736505753539,-0.3433582952341036,-0.5091283753890037,1.1612253557115424,-1.1177584912587477,-1.014400697572666,-6.845528979907172,-1.9934381680385513,2.7284706976361086
-82.0,-3.1623989706582587,8.205410223285018,11.367809193943078,-2.5549414235785073,-7.248971445168562,9.767466733917635,1.8620735168118778,2.8030089733423726,3.8808838877389844,2.488156403773699,6.2288019139502575,2.3054305100986054
-81.0,7.0818900966997855,1.0954717095447404,-5.986418387155141,-4.043505505480517,6.471725759621522,-2.458198595567936,-0.6822025972376875,4.275705642214298,5.903960282098946,4.2583134553167685,5.878471713861354,2.2077105595214044
-80.0,3.3201105327049287,-7.343735862317438,-10.663846395022349,1.9754597122837347,7.009275721739258,-9.016599946732626,-0.901019746041873,5.206394525958882,5.422014835734913,2.7336003849514965,-6.570958515519255,-11.089370098709935
-79.0,-4.771690095577782,6.443053136659124,11.214743232237018,-0.877022507025194,-7.973598296750122,8.809568290578811,-3.6862948307305197,-7.306279697179535,-6.299836511837812,-4.721644907146233,-5.4885198074368144,1.0128016899782262
-78.0,-9.005131306365174,-3.963341951458906,5.041789354906397,6.515667497436276,-6.999842003163055,0.5874566152402769,1.2550837734839768,-3.174985103189949,-2.0232670004677877,-6.4999163082208105,-8.323080398082798,-2.6355173311097975
-77.0,0.04735563943154997,-7.71385546141548,-7.761211100846908,3.8593663939131098,3.854749727064596,-7.781025185504133,5.53936656580066,2.2275308158759595,-0.7586076718466264,0.13778115637784927,-0.6787787993258259,-5.2764335400806015
-76.0,5.783192266830355,1.898832438878256,-3.884359827952048,-3.818018868427594,4.869645430956673,-0.9692207470824512,2.6198896279609696,1.549210256824686,1.0928393546430941,8.589804701934025,11.972281903761832,8.852424549211673
-75.0,7.378436071953116,1.799606120565286,-5.578829951387846,-4.644772904738932,6.442564622374947,-1.8742449339661893,-4.554222980120271,1.3683232573358572,-4.760736336887042,-2.3203821535673654,5.225677090774663,4.161699540031973
-74.0,-6.592159526839845,-0.1651176359151676,6.427041890924631,3.404935664239915,-6.461005008170341,3.142587205813379,-1.0203660897715052,-2.2949223507064156,0.324683428707762,-0.9578694275726544,-1.7158650867734355,-0.8989905281086137
-73.0,3.7616892361728573,4.251157998606132,0.4894687624332197,-4.052845596737519,1.609969477249868,2.3820557492471677,-2.4781949597415895,2.8921135182208975,9.820631200444751,6.1340629362854955,2.1400058746450092,1.3626280612929014
-72.0,7.581857200175815,10.423540356940109,2.8416831567642378,-8.96281213225689,2.345336986209357,6.567994482166348,-2.5826193910945507,0.48001481864136547,2.115528996364312,0.04144024260162116,-4.191263927402854,-4.678125806973144
-71.0,-5.597030627714144,-0.4281691000173935,5.168861527696711,3.0598241618864237,-5.330421430462746,2.3873076924948506,-1.778042786527205,-4.736373547185432,-5.739486381793053,-4.6473199427037235,-7.411481634034172,-2.572498412398953
-70.0,-12.963886356310264,-11.929219553180847,1.034666803129392,12.420116641189486,-7.0295006490210925,-5.428432179104735,5.80771094578913,-2.7285485406650416,-7.258598692974218,-6.111443291545016,-0.6629318850863912,2.438071822694929
-69.0,-2.3533068296550166,-9.279887164892475,-6.926580335237463,5.791261807589707,2.250777299505063,-8.084005411200842,7.459989267808201,2.367695721720483,-0.0206451196766122,-1.3447133885640052,1.265245486521825,-2.371055641071477
-68.0,1.5644573071300545,2.876586850281387,1.3121295431513653,-2.249469101584593,0.16299649625453894,2.034039235256108,0.7217403090185552,1.1111130666013949,2.1444973335958037,1.1607949924195826,2.287915950782157,0.06037343052599589
-67.0,7.543104977544177,11.405220278554657,3.8621153010104945,-9.43189215221177,1.8720275447822963,7.6510815402970636,-8.364302589361497,-0.16813579051642247,0.153934343269984,0.3577463406771546,0.6450152683564294,3.998481890595486
-66.0,-0.3472940852248678,-2.5759122991263483,-2.22861821390151,1.4159127345260503,0.8896752453076378,-2.384904335090333,-1.3932447728521793,1.5371602985400803,3.738602738738532,3.3583170567667,-0.5715564004896332,-0.9749616242238339
-65.0,8.65244922510278,-1.977988222304591,-10.630437447407422,-3.3120435395607433,9.667122402145857,-6.285038163331482,-1.3461147646620288,3.4088967037131295,4.743419387528762,6.474297116735445,3.1332207567409256,-2.8564548181188254
-64.0,2.8959834517869205,-1.4870971075227033,-4.383080559309695,-0.6830173164158735,3.664400356347659,-2.9119784096279897,1.3438572285296875,1.6442186793699007,-0.6313211867909772,1.1304944827550334,1.0970806286344907,3.5552435623227354
-63.0,-6.135395184037524,2.7189403160950145,8.854335500132464,1.7315860108692456,-7.548994616107409,5.736642566439764,0.7331952449409516,-5.95968672365449,-3.919003400664168,-1.0898119309542182,0.24279382420160356,1.6850727454820482
-62.0,-7.053187573416631,-3.627274163001383,3.425913410415199,5.292360899728329,-5.215255753750586,-0.14412684728034186,5.527727776216327,-1.2817054692819272,-1.2247773561474768,0.4522969703591073,4.442451844103358,2.2356773160949808
-61.0,1.5704351672299648,9.653077234713809,8.082642067483853,-5.569429723329088,-3.2324623563710695,8.90972131126854,-2.736613104160582,-0.3794885340897576,-0.3943817156692959,-5.098348295244512,-2.355096735090434,-2.6544799694486763
-60.0,-1.9999197225119345,0.5646272013818778,2.5645469238938583,0.6940249757717439,-2.3380214485834405,1.612114362849654,0.043545004244172736,0.47601407097183446,0.4605175177667711,-6.916363159251215,-7.569101629910442,-4.57077000433527
-59.0,3.3878419443455154,-7.871807638019855,-11.259649582365286,2.229932565299216,7.346787664732616,-9.593147930419805,-1.4967333321409342,2.9353328076954472,-2.967267554543274,-0.5507857278574004,-4.951730229984296,-2.1221749537618293
-58.0,-0.05923446836754409,-3.1744365073342653,-3.1152020389666797,1.6133122653825542,1.5528354732435243,-3.171278844611026,-0.7125166657715137,-0.5453312811924977,3.5890385546210606,5.863544429790425,3.6819730229302596,-1.1800021813696269
-57.0,-0.1414339057295233,0.8499289479560352,0.9913628536855441,-0.352890452627011,-0.6160517411731576,0.9703704396224566,-3.079783292129782,-1.5523071082894009,-0.46119732595920904,1.883442039692357,0.3697358826007928,5.866267920036891
-56.0,-5.968143458000704,-5.303202962490769,0.6649404955098723,5.638834710909259,-3.2807698137956627,-2.3541977158851264,4.690881215569883,-1.42747176432104,-4.66451517184956,-5.958812659439883,-1.5081025144720677,-1.765620747801968
-55.0,5.924002078164387,6.920534709232884,0.9965326310684419,-6.419073896080588,2.5076660061506706,3.915019989614762,1.5661552140301809,4.146080887280398,6.5383800266827965,5.417944283914144,5.1349403549955674,2.5131209737095705
-54.0,8.12528282961436,6.765213802864334,-1.3600690267500732,-7.4423944042588595,4.715769041494807,2.7289473769405888,0.5328859864509927,3.729771580524397,3.952785075183321,7.243288718709839,11.859861117209428,8.94675663658348
-53.0,-2.907104218064662,3.371947224406923,6.27905144247157,-0.2293897060431771,-4.614248258688965,4.844964558947991,-3.9958792726322043,-4.16030723882286,-3.5655478016493083,-0.7023993222511051,-1.2937601543449544,-5.53796496615948
-52.0,-6.0505361958424775,-8.315098301555631,-2.2645621057131846,7.186568611268827,-1.911926082164576,-5.27339814280653,-0.5512588329109953,-6.110572766701374,-5.474141365578231,-6.882531443756413,-11.202832134861143,-8.84341834527427
-51.0,-3.0096717276266287,-4.976346583593903,-1.9666748559673233,3.9971604590595975,-0.5418608743433848,-3.4534315745599775,2.4134743078468777,1.3526468558534588,1.5309745860746276,-3.286914221405327,-5.439492073478289,0.3047050975975356
-50.0,0.6481220846282079,0.610911562358881,-0.03721052226931865,-0.6266856927786488,0.3970274220084959,0.23198614472558043,0.787074588593914,3.093877032622198,2.213640019121695,0.3886147859246578,0.9482844259182324,1.4156361390604493
-49.0,1.6289314567870357,3.273483546994728,1.644552090207792,-2.452740171777365,-0.03711880118432931,2.491342998967693,-3.9645635051839263,2.782616827305409,0.2756404484624305,-2.406720276092713,-3.4603195475370536,-4.357985823122805
-48.0,-1.01402588780317,0.8825848427957343,1.8966107305990725,0.05622747069116496,-1.4101010018666487,1.352314722411653,-1.2304391781419928,-6.031021655323604,-5.159672768416705,4.386706638815646,7.755384983139551,5.747536751090624
-47.0,4.564050991636409,3.931900892653122,-0.632150098983195,-4.268309116420969,2.5619065186767234,1.6994334263150663,5.5181723332194,4.729209130867957,5.113192161474993,-0.24809802432972683,2.6957403263879383,6.255438831901396
-46.0,8.29538405554925,-2.591082256687031,-10.886466312236287,-2.8841862454208984,9.632361507567737,-6.762106634680139,-0.24711842938476702,3.1321047297731885,2.283663811780518,4.031214398267285,5.094797976665633,-0.025697281452611076
-45.0,2.9856861581227996,-1.214613494152922,-4.200299652275831,-0.8486391970718131,3.555452201909855,-2.727602628316877,-3.7469906441970977,2.163107751357675,-1.196357600918882,5.140411343945387,-0.12477683341538004,-0.4649942433489045
-44.0,-14.73095809198144,7.203165436140454,21.93412352812177,3.795317932106907,-18.370213584154353,14.549238699309523,4.0985907339784795,-9.652614274679072,-0.2520949611409997,-1.0574045704225157,-2.361936291769428,0.10584432052610149
-43.0,-14.914991578077055,-20.744853792365753,-5.829862214288768,17.861374399432716,-4.502057675633672,-13.229126496629409,2.17376713943817,-4.6880476517141325,-5.93114273090929,-14.046907444903885,-14.912533038380401,-12.991987847587605
-42.0,-5.149781437220809,2.3484700359947936,7.498251473215602,1.35829571823413,-6.284620258182801,4.9004165619921,3.08892497782813,1.765056079455019,7.29426380330952,4.306543403409014,4.927009665809499,2.5374443880349062
-41.0,25.189373860414552,13.888854302393371,-11.30051955802116,-19.57369302247113,18.204217677787547,1.3464524462926606,-9.80866226244915,7.9903687955771945,-0.2964118042446362,0.7483317158000129,6.338411327442273,6.674934792350982
-40.0,14.039469787024483,0.46544266190114314,-13.574027125123292,-7.2003583041251185,13.764895083883438,-6.5853590070883286,-3.540655320746693,7.6401344155697615,-4.631539107749879,-0.668823696853857,1.5185600409381745,-0.7155838475345564
-39.0,-5.558478943035654,1.1644312210052696,6.72291016404098,2.176058755568314,-6.104104713785697,3.9072019245102383,1.3837535004894463,-4.961419439242494,-1.3125652069944627,1.77574493745387,-0.5508407397463819,2.3869434832089826
-38.0,-5.458029325256345,8.054693540520072,13.512722865776487,-1.3172230563493628,-9.44792770677816,10.742046203053699,-0.31061607532349145,-4.841431739516967,1.7515598030082027,4.964725973114999,-0.9393045708309656,-1.337319960949198
-37.0,-6.835660793725768,-2.393330389722878,4.442330404002926,4.594001036002436,-5.678418394715013,1.058332081820116,4.409384330610877,-3.344840820389941,4.2621866146628395,0.19361713955606819,1.3493848548868979,1.680429038255439
-36.0,-9.697929313151889,-17.767361182683864,-8.069431869532007,13.786710861182694,-0.7727354488436404,-12.884079776447194,5.354470362711698,-3.9223579427860464,-4.850293988133855,-4.3555605043761245,-5.24465498654033,-2.1827382030431526
-35.0,-2.379766456450759,-12.730902769643262,-10.351136313192585,7.5256146614756245,3.9498972557481773,-11.501548341838495,3.5836674478638653,5.9135669850425785,1.2977311760750705,-1.5505317725630352,1.4887386241640743,-2.503172090594782
-34.0,5.519602177873556,6.295923528775872,0.7763213509022018,-5.862850564579901,2.3356214811441274,3.50608743865759,-4.1994449365114885,4.088242848938582,1.6473547966144872,-1.3293963402345619,-1.2370249100357067,-5.902879549439041
-33.0,5.378396233890244,11.90320485398433,6.524808620093987,-8.676536075187654,-0.5328493607146148,9.195313123609644,-3.439860519357109,-1.137613583521674,4.218136656581629,1.4525135643900045,3.3105985502277173,6.421199038242802
-32.0,11.227219197049244,12.744263975337441,1.5170447782881258,-12.02055458455058,4.891105340602996,7.1227497134092,-4.801916699460872,2.41678147529431,-0.4381040226058943,2.438919275852633,0.11047917385136463,3.767628480342796
-31.0,5.316864091628814,6.256765797096421,0.9399017054675907,-5.739314310144644,2.140238814622775,3.5983143590584685,-1.1235013524170063,-2.560835023856206,-5.713549945312349,2.0783668129980812,0.5991779112591642,0.9343982971041767
-30.0,-7.212439149512946,-1.9873298841276332,5.225109265385372,4.573860202141351,-6.193634002451944,1.622505531864128,1.0057539381066063,-3.435583390001014,-4.543572063778344,-2.2503622860828183,-2.069479787438236,-3.9007984336289176
-29.0,-9.078963535849311,-11.174327770684615,-2.0953642348352153,10.184555061238017,-3.5489436201343922,-6.6319392337818766,3.5484085169264166,1.8446047443219573,3.2944522339763886,1.1386686094098446,4.358260399473709,4.088754342028664
-28.0,-7.3383802617744145,-15.4444830503414,-8.10610278856691,11.373646731466291,0.40550345414693956,-11.776456744886602,5.540058467396021,2.3278724103960524,3.633356140617471,-0.09600876246990578,0.31736132417281204,1.0660677742351823
-27.0,-5.723354962663057,-10.598712484137163,-4.875357521474081,8.14238220446287,-0.39753393171504353,-7.744019871201666,0.7633050520310696,-2.7247288162777465,0.6053263498849364,-2.3712891826240234,-3.8526353173476657,-6.788209488607017
-26.0,7.000559217983539,7.321165825211738,0.32060660722816925,-7.184987554382794,3.3761268837855263,3.808006126522638,-3.0685622631818137,-1.2960035334121858,-2.205637272965318,-2.4900321230463316,-3.5330207818697885,-0.613423528066388
-25.0,12.515884535331512,13.899051661788464,1.3831671264569159,-13.240720006739904,5.536940224973734,7.702230750583595,-4.565399806915642,1.2893954405812218,-1.068866079660354,-0.16334067422186715,-0.08237869006778498,-2.9926008808434603
-24.0,3.082213807472775,11.320122971215001,8.237909163742213,-7.166005563986526,-2.593145436970309,9.758243167775246,-0.37099075478283705,1.6887104571895,2.475547232966658,1.587189459175591,0.37127903305289756,1.5148331466719387
-23.0,5.247370635086579,8.030566267331466,2.7831956322448863,-6.612272607540968,1.2288434078561132,5.384293489065389,-3.220587737535135,-0.8976994303789323,0.00717809204226505,2.2643588173742017,-0.0018170192517550365,2.089886832817644
-22.0,-9.602559505261599,-3.7292356287021358,5.873323876559448,6.688519802055084,-7.733787157978043,1.0482944217081824,4.014172583928192,-0.85753994059597,0.15462424327786803,2.947628555824691,5.423222294784547,9.159072902600238
-21.0,-11.63303357419299,-15.298037478400337,-3.66500390420738,13.410762653308392,-3.978614312714321,-9.427699636762943,4.114099933106434,1.0242909381919327,-3.3661193326078522,-3.111517867328504,0.7523227046902599,-2.7753248725823783
-20.0,-2.402261445649395,-8.87579470339504,-6.473533257745686,5.66902533230367,2.0360477609038625,-7.701178478719056,0.8346045704127065,0.21704136601667645,2.7657730043601623,-0.2799077327116368,1.4936419846540379,-1.2849177586249274
-19.0,5.10177293068105,-0.44901810095296213,-5.5507910316340485,-2.2878861471064376,5.316786185016968,-3.0284574644206623,1.5244208600357259,2.62188333741284,1.57622635125488,2.0979416333810414,-1.1665359517832101,-1.894338626589799
-18.0,6.387962250903578,1.7285097001472838,-4.65945255075629,-4.090274763580525,5.501778187467131,-1.4175691155775267,-5.044558669145982,-3.588729700789342,-3.622842526036832,-2.954986020310096,-7.147125804045587,-5.994355605976617
-17.0,5.896355354418497,7.588793759926584,1.692438405508115,-6.768888968197659,2.1467099211857574,4.607470114220594,-3.9989581271558032,1.0636627940438887,1.0178723234648037,1.1697320024761717,2.479638153127266,1.6872905281421895
-16.0,-8.691349391998568,-0.2926058731950052,8.398743518803627,4.468085204867407,-8.5881112619039,4.096506253466641,6.373809398973796,-4.246723776623373,-1.688801077671072,-1.7765603471435296,-0.8168101356447315,-0.2276746480782842
-15.0,8.942769280610381,10.566459692732609,1.623690412122321,-9.778529903023164,3.6908228632621034,6.0576977204334845,-4.525147583771851,3.327669296645332,3.1851375112367526,0.9086833678175373,4.718700353153647,6.606596047357356
-14.0,-3.102343787853851,-0.241525869581392,2.8608179182725406,1.7262314804678356,-2.9498168883802194,1.34899071056604,-1.1720621097926835,2.4235564628553297,-0.011816856419222255,0.981364726701641,-1.2915898041448233,1.7700445342771896
-13.0,-10.333946094309105,-14.412259606949704,-4.078313512640575,12.42819725177914,-3.1706704784879607,-9.286558578990942,5.8842553533456545,-0.7268691465387751,0.7681001235753413,-1.4580066086838024,-2.6075780955929315,-4.500756894676041
-12.0,-0.29554932383333643,-1.4687419585853503,-1.1731926347520374,0.8613487820715715,0.4803345363051248,-1.363505617078479,1.2139889619175959,0.4516504479610227,-0.6880710341586433,1.5383315485783537,1.7958698035520648,0.6651456538495057
-11.0,4.594359518215419,6.075257201823891,1.4808976836084131,-5.351412702759246,1.5243713468798799,3.8142094134896034,-3.5784543640228463,-3.1746985045825227,-2.972614553822639,-1.3583300523269863,-0.5735010751350411,-1.0540227795380201
-10.0,3.860299699507826,4.769246843965663,0.9089471444577677,-4.3275123464641885,1.4460581767773217,2.876604208922614,-2.953344033183714,-1.1524267839354954,1.1039360120709216,1.265489286737421,-2.558364556555691,-4.675682223336375
-9.0,5.157193943478426,-1.023991277706482,-6.181185221184968,-2.0774355530361164,5.640090245053448,-3.562763007956568,1.6196880020415747,2.5355833112332453,2.1744689104606714,2.7444963146542545,1.4436465757314356,-2.6246911468620597
-8.0,-8.754589668196779,-10.484656018467108,-1.730066350270365,9.607936921866669,-3.4632785438216573,-6.144343737027954,2.139096285623398,-1.2710548306963498,-1.9113782738929375,-6.409689624030311,-1.8104055834514068,1.7092354134883092
-7.0,-9.358230503130434,-0.3733244140470271,8.984906089083376,4.850771565811223,-9.123040015470187,4.268827865506226,2.8202956265228605,2.3356088941623563,-2.6641064843801123,1.0030651619140594,4.139610402590244,8.563242765098481
-6.0,11.745907335992555,10.516492961777654,-1.2294143742149015,-11.072234438460477,6.45808438085015,4.6037478271598875,-3.032734344714921,0.7944271567080257,1.1834029151594259,2.0595614601894736,3.642946639637283,8.887078130115158
-5.0,5.483878741798411,5.117619334952346,-0.36625940684603897,-5.325728008380626,2.8971440606072494,2.409181607635402,-0.21398758687939434,2.4329755819363763,5.6506785797529595,4.000371678051533,5.177870139490743,3.8806712390188225
-4.0,0.9193641149552705,-5.725223498894527,-6.644587613849767,2.451590879118344,3.834530196643243,-6.158281091446124,-1.3158720170404614,-2.383954348634705,-2.4838281050455944,-6.358128785877714,-17.12797528413688,-25.351697724209696
-3.0,-5.548236550177021,0.35985842208470276,5.908094972261702,2.558917201679679,-5.753716511637059,3.1538381059239344,-1.1576770566476524,-4.484582223235451,1.8702026082432206,4.624406110183093,4.717158017987855,2.381235229499236
-2.0,-8.771472325721561,1.287162678820927,10.058635004542408,3.701175043851366,-9.441726659746687,5.687319913189242,2.593769376005816,-5.613068456895683,-3.053008529064818,-1.7902576242189692,0.4031335970102362,3.8744247551321696
-1.0,4.3438696628407385,-8.133678645660595,-12.47754830850139,1.9262675757393997,8.381417588598051,-10.373418284613356,-2.423682311427658,5.16663067897072,-2.333941463102942,-2.015455904553083,3.3049345128875953,0.7878079797097051
0.0,3.0762931937233646,-4.4083988642052825,-7.4846920579286005,0.6908260663227208,5.3270233389706485,-5.936872683573004,2.8141524763599173,7.8962446608275405,-1.0181211928296456,-0.3471742305465302,-1.5170887786883154,0.9555704942273664
1.0,-6.219230965322234,0.6458736256195035,6.865104590941875,2.7271871894185753,-6.576122716466115,3.7661868503185345,1.5529782439573285,-1.9372223329783815,2.6587414388535873,3.5101301581299253,1.0695896880440767,5.130256710316771
2.0,8.092908282224837,8.010161797927639,-0.08274648429706355,-8.035032376468061,4.133010699951174,3.977757224026587,-3.193083627828857,0.39872636178389886,-1.3635217690064252,-0.8121947469499393,1.41755940165038,2.09239599926665
3.0,4.345082288340979,7.482275796000677,3.1371935076597186,-5.895642553061038,0.6513339104281618,5.329329804873464,-0.003117282647136177,-1.314691860452607,6.3904183012197375,4.110973019360383,0.20178813266456885,-2.28734488439396
4.0,-4.002827026564112,-4.392900290014321,-0.39007326345031057,4.2224358012335,-1.8352584459557075,-2.4432986774771837,0.5551339227872384,-1.743134852268036,0.5654105959492723,-4.341896247053758,-3.71616126384652,-5.662946403486423
5.0,-3.340404891981705,-6.113514361698891,-2.77310946971736,4.683720488020817,-0.311793346849923,-4.407880345598213,1.2201062942850842,-1.409105174616907,-1.726950971217881,-3.433690633050316,-3.7046758975750906,-3.1729443688257786
6.0,-4.9096789129786735,-1.2197231401802715,3.68995577279828,3.1135699980231806,-4.330295935122151,1.200635546316421,-0.6831050509846827,-3.6016791443377594,-6.803024683582263,-3.032160943194991,-0.5521162604124215,-0.4957957232004595
7.0,3.2580309177546614,4.419826882975457,1.1617959652207461,-3.8559723142855273,1.01245626515764,2.843388557813852,0.8080364524258019,1.3709625893803226,-1.471378362236739,2.033957948881194,6.388718989526201,7.0379557104955435
8.0,0.24028716754685908,5.540264693049188,5.299977525502389,-2.898074266139214,-2.493045379818459,5.400877680910606,-0.1382314950760641,2.057734203140046,1.318085146288154,4.57527060700985,4.261643523128837,4.099325541186037
9.0,2.8648718476877337,-0.4724242166947523,-3.3372960643823575,-1.2006007691475609,3.1328225959395266,-1.9192354889641199,-2.3616678706610945,4.135129748312093,4.140326664803263,5.192513320466055,0.8117118848489857,0.1725580420081978
10.0,2.80775637160428,-9.26184452695384,-12.069600898557985,3.2196715003631557,7.468221508626994,-10.677644019379622,0.9003977749842295,0.18266540138501952,0.5513767591874004,-3.25410906590506,-5.022338629869885,-5.0776355761077685
11.0,1.4249527085977642,3.995053264694718,2.570100556097029,-2.7254370932356817,-0.5422614032135167,3.270743097456985,-0.3550473418112089,-0.609922751571771,2.8520311404482177,-0.6463867523354436,-2.79088923230013,-1.8528676920648666
12.0,3.592575505856339,5.137960601912836,1.5453850960565023,-4.390901341437685,0.9775797341833683,3.4066528086990373,-3.3252747233526327,0.038486405216105246,1.4243686372979218,1.4865040594637535,2.5792970388567054,-1.2695568103266304
13.0,-8.367696627536485,-6.837562556056373,1.5301340714800875,7.646923737406783,-4.992607964606051,-2.6709985231364253,6.433914470660443,-1.2450765712640075,-1.1716802193695748,-3.4312250907076787,-3.85122587312745,-1.719633208860723
14.0,-13.98073772372893,-8.568617170213642,5.412120553515244,11.314340955186339,-9.738947092913968,-1.60017032752602,2.346203310678275,-6.990108465001334,-9.427819664580316,-5.486910838967697,1.2390374490896359,5.001156411894452
15.0,4.231803773938097,1.7258752514320688,-2.5059285225060943,-3.017296863383267,3.405299714197847,-0.4171745819095545,-2.2506851782975925,1.8383640550159286,-0.894553320525671,1.975241040465061,2.0853547626674556,4.672118703095517
16.0,12.492437054567796,7.616743965551359,-4.875693089016472,-10.009422618468333,8.720704312244063,1.4170283091398193,-4.949082827550912,6.471363677870546,5.032634804842231,3.4240010960403424,2.1888406975328634,-0.6506535861199123
17.0,7.7829993298329905,8.492295237080311,0.7092959072473772,-8.164673829321377,3.574480096169639,4.564415315974223,0.42987639051465454,0.36551272799221035,2.1669684691824806,1.161265481341856,-1.777371148182977,-7.288232545459204
18.0,-5.1998084907866975,5.623865250678343,10.82367374146512,-0.23380263190342898,-8.051335683836896,8.26370200135009,-3.0611735974635192,-2.2050484459893966,1.1715165339485734,-2.986328782453617,-2.587594272883204,-0.46711207962342627
19.0,-10.529077080860214,-7.648511421790348,2.8805656590699105,9.068783919598033,-6.664951812009858,-2.423194556314889,5.291064106174953,-3.8340905632479525,-1.4400032812883736,-0.6064440217459889,-0.8228741700806798,-0.30545942457950814
20.0,-5.309595688554027,-21.05872900969658,-15.749133321142537,13.161798735195523,5.179039225119335,-18.36301476925228,8.073224515778312,3.0992490355318307,-3.6790577036427936,1.7536298892782607,-0.38388576447965644,2.238928808125577
21.0,10.103376538966474,6.320207718043841,-3.783168820922599,-8.160943350035181,6.897034044089194,1.2330407289171417,-1.1144139653209595,3.9989143481051577,8.549654479775189,10.272183304508886,8.771140122847388,4.79864225265406
22.0,10.041940751970422,14.2049735878756,4.163032835905244,-12.079462006291486,2.963147204682622,9.229372856842726,-10.507831743890698,-1.068073311984765,-0.5214609653866713,-2.528921849491659,-1.2044369672768664,-2.074091784458569
23.0,-1.0468807085287644,5.061043152118356,6.107923860647219,-2.0480197654029526,-3.563935002094556,5.551663352670766,-3.629619219670351,-4.582516815107003,-5.197110557407912,-7.027411535537602,-1.7898609305654332,3.3505442034844046
24.0,-16.43713795417727,-13.105897387453378,3.3312405667239537,14.726569692345041,-9.879525271768383,-4.922080128886078,3.903730421968232,-2.0978521151118468,-4.650085122022961,-4.7661537657728985,-1.0252900146349422,-4.386271476804582
25.0,0.05572935037019189,0.9786943111293809,0.9229649607592108,-0.48450737662826526,-0.4335880299251924,0.9900594037220029,2.595729211356379,0.1902045907205432,1.259804144241127,-0.6945829295805037,-4.896716694885268,-3.1526399067734125
26.0,8.774763966377424,4.578032932588476,-4.196731033788958,-6.6420164969258835,6.487013052533332,0.22261038140495598,0.733313133043517,3.806527338195249,1.57263833575968,1.9168527932497637,0.28279118483350363,2.2358098503322426
27.0,0.052178281868494825,-4.265252008959383,-4.3174302908279225,2.0656114356241746,2.193245487435558,-4.3469897123928805,3.435597331462435,3.7247764450963237,2.458980599523403,0.5619694652299561,-1.3987087875258828,-1.9697168597170358
28.0,1.5462358119182091,-2.4826939827694248,-4.02892979468769,0.5095830294998385,2.807511451162582,-3.2418296408745686,1.065096711126648,-1.1549165284594491,1.3804863776861034,5.232257528620284,3.9872351967670503,2.6387977839940873
29.0,0.5356473794167065,2.9821070852456764,2.446459705828924,-1.7945140342989996,-1.0013094944796956,2.720430195461986,-3.980596955755683,-1.2408020376740891,0.3348977617397473,1.7959950049454112,2.5485968593785087,0.08368627738598056
30.0,-6.007449522198012,0.40871723983575436,6.416166762033782,2.8411261264531786,-6.167929231400336,3.4135472445572184,-3.462509017874413,-2.8041843060913103,-2.5606721514213526,0.20625506544106975,1.2209263574924707,1.4824614913498366
31.0,-3.678776906396551,-2.110813408163488,1.5679634982331119,2.8531782972839825,-2.6519012308982903,-0.27139306335090607,4.081761846665355,-0.6378532676474435,-0.6138442708744398,-3.464116985258118,-4.477890812133115,-4.972635235014287
32.0,8.349628060534009,6.215053738938905,-2.1345743215950845,-7.330498798373062,5.213709127381582,2.0437403635788782,-2.61333981504388,0.1277476334531099,4.509724686890127,-1.0844090894239624,2.6003262191789362,4.666696142898612
33.0,4.102340646978101,3.265057857593054,-0.837282789385057,-3.6589456742498623,2.51428808045877,1.2252222955406213,0.3963391921445476,3.744837706210859,0.3796678353293582,0.44466533600540803,2.6911679253503955,1.2416541242170298
34.0,-4.774029738926664,-2.5827716329497443,2.1912581059769387,3.700957575676056,-3.5270727663927484,-0.25192456663115603,0.5171781404697626,0.06244162319213031,-5.046984464422169,-1.7718511030487738,-6.458270430264926,-4.585863571294187
35.0,-1.2613910397357808,-1.2347139035765666,0.026677136159262593,1.2740244865199595,-0.6214204745555956,-0.5684387846831715,-1.8190779592900503,-2.7293815917571056,-4.112118342109312,-2.1429482048246764,-1.9409850973437268,3.5285482686812726
36.0,-3.867202544605237,-6.485844625582633,-2.61864208097736,5.211500447632119,-0.6120883150556014,-4.504143185460412,2.993790588961758,-0.1630421673510013,2.8686270638688334,3.3208125477868418,3.5739675729816964,1.0602843545789937
37.0,-2.184345958064984,-10.353182074261024,-8.168836116196028,6.237393628972087,2.9974262176773525,-9.282081037242666,4.060624715040013,-0.6439667436642619,1.73620965199021,1.035376162576617,3.9126448359568835,-3.4348962671995764
38.0,3.2196441561600837,8.880248959781255,5.660604803621183,-6.06906804523997,-1.2180031074858675,7.253884005471558,-6.584627894190204,0.1941137351191013,0.6057460428820338,-0.23038231008367593,-2.9687083122254254,-2.7385990125576196
39.0,10.63701721713415,11.992924509835326,1.355907292701196,-11.325499076775834,4.644270057255337,6.656373585132577,-0.431208263650523,4.489287982342239,3.606406671246214,1.6195858500371125,-0.9554121960625053,2.147283598960742
40.0,0.7706618575910724,-1.5617453933359213,-2.3324072509269853,0.3878363451738389,1.5592270156641834,-1.9719283095799787,2.798746707281019,-0.3195140716515388,2.156007978470965,3.600969736964353,4.894179166528059,4.215499128947228
41.0,-11.280111050343846,0.3454186021346788,11.6255296524785,5.456648322528922,-11.51854939596766,6.0296577159286615,-0.39984322291494956,-5.741350744006877,-5.65131507481657,-2.427561651837375,-0.5572637709180015,-1.2135774380456397
42.0,-5.067690112234044,-10.90149760791221,-5.833807495678247,7.96690914700445,0.401728900608358,-8.411457177366799,6.184916250219212,3.144562293336219,-5.524867738985123,-9.022156394231567,-9.383480693340216,-1.0703630375783706
43.0,6.7177569906217816,2.066624278402087,-4.651132712219778,-4.339347871404514,5.708585978168161,-1.2628936863769415,-5.263805816327007,0.9441580931804994,2.850744592170477,2.6706891123064387,4.393143044747943,-0.13104907083248585
44.0,6.329582013980368,9.500375142352974,3.1707931283725665,-7.869074365715081,1.6086559409065155,6.364799423688444,-8.27378006465341,-1.9580447113028132,3.6267075621487845,0.37161583767608003,0.01846039784740361,-0.8581885307447903
45.0,-4.639856991635777,-2.504476055479172,2.1353809361566647,3.5351011818618696,-3.432507275715788,-0.15033804355733005,1.3690390582560679,-1.6058127688841577,0.34474599220163715,0.5582171751951948,-2.2366710937138503,-4.532204420591354
46.0,-3.7274981461793373,-10.828843911051827,-7.101345764872358,7.239802294093054,1.7245463318704823,-9.001747662208583,4.758680414249735,3.6137961187011864,-1.1302154472863073,2.4445015893244886,2.0346344117942072,3.320145604646523
47.0,0.8550457350740557,-1.7777569888582843,-2.6328027239322074,0.5027622109438443,1.705362392048187,-2.2343825028942277,5.729439534360569,1.1445824408711818,1.8474528081007993,5.296410736366514,4.504285761729943,-0.42384833192179605
48.0,5.141468584303901,10.747941377581684,5.606472793277875,-7.979432043056513,-0.19107371393320638,8.152442385369673,-0.5996106313580136,-0.9353538528000664,-1.0461093939426764,0.1686669727459229,4.165245338036039,7.351952284541517
49.0,0.3807340774367731,9.070918253993534,8.690184176556716,-4.7568441722202754,-4.191812069041959,8.934233482519247,0.9790356399908181,-2.094286088670156,0.4907744725965495,-2.794485142316377,-2.731526241666801,2.710109857728111
50.0,-9.059814688341586,-13.738984016877566,-4.6791693285361395,11.451631483233687,-2.2273892056032074,-9.238669434820434,-5.0142503718974485,-1.2972915569926051,-4.6154736907920935,-8.071196538681278,-9.152701229035495,-9.377428542000956
51.0,2.1366224796796844,-2.2760094617323654,-4.412631941412231,0.047983582286114324,3.317104907771234,-3.380741198340676,-3.4745195775018445,0.1577982839910972,-1.2243850625811266,0.057712654594817,1.814007636485993,-2.612079759803203
52.0,6.332257025441643,1.9506428105713236,-4.381614214870445,-4.080349928713772,5.4016552461071115,-1.1797557436818344,-0.549127969420053,1.2838721101406567,5.376432610481877,6.903610434115084,6.266808043126239,3.8497850040646155
53.0,-1.3258550930137907,2.266544323410864,3.5923994164246054,-0.4863284143915524,-2.4895839702014775,2.9608828601739896,2.551436871600307,1.189278902507675,0.5948424552142262,-2.0524246494094935,-4.018198920052397,1.257640573602616
54.0,4.214969472655668,4.318413645456182,0.10344417280051865,-4.285092240256089,2.029184384815789,2.241021370955629,-1.2202735877769773,0.9163332134348651,0.16586168363287312,2.4364120433406296,-0.2939030022845779,-3.037733284322135
55.0,-4.977059498865646,3.8528322660829057,8.829891764948572,0.5363926870472036,-6.8487078521830975,6.293575602238309,3.6302212133425487,0.1203155874383271,0.20614225105555592,0.8991088644635192,-0.9733021100237225,-2.7933879899606344
56.0,1.5559597770844609,-4.777225529396459,-6.333185306480925,1.5734995212711422,3.920424699388216,-5.522929315253391,3.3571215230791736,0.4160142504243248,-1.6463429971828054,-1.4588256755131366,2.3288437670851327,6.732771322951873
57.0,-3.5414100284310597,-3.638652863057468,-0.09724283462641914,3.618672539140312,-1.7498293042563717,-1.9142754167528135,2.6429972579804932,0.41832324779423113,-1.9137871986329387,-3.4009258241457907,0.44505000295927855,3.8173195120807715
58.0,0.527576570503449,4.943815850230138,4.416239279726687,-2.7181105354333,-1.978536040359711,4.632177631354093,-8.281924810165277,-6.059237680684911,-0.19636017535895078,-2.6179605278149416,-0.5275970648577855,-3.389578152675228
59.0,-11.78638296294576,-2.697778951655235,9.088604011290514,7.253669999142838,-10.400531662744179,3.22402250668424,-1.4126758366226917,-3.649943179340598,4.473548871464057,4.690516300148368,1.156343584722867,-2.5322431691197975
60.0,12.3770114630722,-17.55790994560116,-29.93492140867343,2.602676078275106,21.18651293359204,-23.719110488574408,-7.909863112808413,6.749387372570289,-8.12534533569658,-6.386436942246863,-6.149219796330004,-7.57479685466276
61.0,3.857634420142788,3.3771714019927863,-0.4804630181501093,-3.598471776266863,2.19635490861842,1.476873253305806,10.738393178242589,4.277518666385783,4.489625018023991,6.134411313967682,2.8788778120518637,1.8384770495200073
62.0,-1.0410355667213325,11.457750912211205,12.498786478932434,-5.257833492469304,-6.820333731532935,12.01091497614577,5.303197201512268,0.15426050585875206,4.274586579229655,8.626124218260992,6.887895992729229,8.35115941332936
63.0,3.8271580562853784,6.774769423469383,2.947611367183944,-5.261010191852781,0.39458990542268246,4.821192418319249,-0.13508009632843798,-1.4120877686886484,1.1396690745250762,-2.3328137875619173,0.5671680932296401,3.7530638223403243
64.0,-7.781539296268036,4.792246759984259,12.573786056252306,1.463944653000865,-10.135725110469826,8.649455144831464,-0.314924648405444,-2.550922944160644,-3.1095524056883685,-5.044804072357492,-4.779108948661026,-1.7463088550151173
65.0,-4.6332492999812445,-0.022316041776447304,4.610933258204833,2.3010770910796507,-4.570609609698639,2.266123301060439,-3.6401340878828985,-5.188232630780309,-3.21271218561679,-3.3518363353757463,-0.4459985344302262,3.411587861977022
66.0,8.41532810362055,-2.4633428602842184,-10.878670963904723,-3.0025162077096064,9.627891454166377,-6.616581951249121,-8.398944997471306,4.290846579618864,0.01111597310322665,-1.6870761586926664,-0.6420032197955146,-9.725415205030599
67.0,3.1557614943546266,-5.907342856434817,-9.063104350789413,1.4260712928090211,6.0945049095190384,-7.506697238763927,-0.7794104549918655,-0.718456571142611,-2.9829422441164644,-1.1690480713735805,-7.279493970495011,-8.527384478844935
68.0,-7.595834034453148,-8.313473974102875,-0.7176399396497111,8.002966639518373,-3.4556154594076185,-4.534263744586774,5.243097352244645,1.5673410594407688,2.413156715469378,2.586690854276221,1.6413377909164935,1.5873289492610847
69.0,-0.29998122385361237,-4.269696707608154,-3.9697154837545066,2.253894304807553,1.8108057269797488,-4.056377004333036,7.273119625039745,3.5927767294341977,6.519271902101946,5.476564318580751,5.878107003005412,3.963857177540457
70.0,2.042077295996343,1.6435963236825968,-0.3984809723137107,-1.8725393759927103,1.2632203265257786,0.6106959365166422,-0.3546314368585848,0.39015280268334074,0.8009386562923209,-1.4774874811209946,3.6795641164699417,10.768266699757572
71.0,0.6201319578625886,9.368455595724592,8.74832363786203,-4.943069680446628,-4.112562856968466,9.049217034396385,-1.6667157891688613,-3.9519826662781563,-2.616972646788425,2.0869152228872596,4.210203430249932,4.606827747217838
72.0,-0.6488266362107531,8.703711160849132,9.352537797059906,-4.053207879721009,-4.980126962230606,9.019198960397041,-3.7958698789254006,-4.900624776558906,-4.591124496080461,-2.8284492548718085,-3.2031111047281495,-2.6848654270282855
73.0,-1.035351372092307,-5.299324750260132,-4.263973378167792,3.141733343604869,1.6311774781344766,-4.7940196500044765,-0.8347013334516298,2.7248887712792293,-0.8989398619484485,-2.8725315183972167,-7.859365228568143,-10.118508636547102
74.0,0.19949743765847439,-2.174790414626097,-2.3742878522845094,0.9601097206638313,1.3073668588366574,-2.2943251967071747,0.1281768139078483,2.391702646585697,3.9868027307778067,1.4302738051649089,-0.18241852745240017,-4.975108289654284
75.0,-4.659744481002724,-5.7446370215141505,-1.084892540511367,5.249698992021268,-1.7571524283822035,-3.3662457575073335,5.4009830373019145,1.178304882372768,0.2320544941447933,0.6291489145981484,1.6594213087870417,2.7396203617168142
76.0,7.3352082138659895,-1.502188443901436,-8.837396657767398,-2.8736169687657775,8.050709242592093,-5.211559576856345,-1.474880673041129,1.0747406042127257,-3.2905618187022823,0.6316904602900854,1.426731947041442,3.0403082670893817
77.0,10.215205932429916,7.6588302334586125,-2.556375698971284,-8.977413614837111,6.362180291443644,2.5779726815576445,-3.926731195379175,1.0363706375241928,2.0369502499168184,-0.13791983406409325,0.35930435980937414,1.322614338922658
78.0,-4.70155806601125,3.9910930703287395,8.69265113633999,0.31119616260023575,-6.713093240512393,6.36187311893562,-0.6763908190071088,-2.1721569405543795,-0.2202825867430993,-2.260557904118159,-2.6012275988191673,1.8456055125148494
79.0,-12.270568810589335,0.9460287841486836,13.216597594738017,5.6947733283506,-12.758191982370668,7.0207438527118775,3.2327268848539195,-6.025229518372336,0.9912654474539879,0.4636369087399076,6.573781206035791,3.8469218788886868
80.0,-5.929802894063281,-8.98575222865854,-3.0559493345952804,7.4896552780724885,-1.3776286546021144,-5.9993031863843935,-1.40744382104719,1.1163399334717723,1.8057406424489175,1.7472493856700357,-3.2317589977019443,-3.509995769168363
81.0,12.030240484298801,1.1834371328409885,-10.846803351457858,-6.653088766211182,11.409556772090312,-4.802680138903051,-2.5375614258007593,2.965870294438268,-1.1305245743110697,-1.8038217319868852,-2.300723369632409,-1.9958015886090017
82.0,1.4671266637768814,-2.5198495087332597,-3.98697617251021,0.5598918233934926,2.7650439040133685,-3.215215135441777,4.097262477330869,0.2578573284883996,-0.7032112046721245,6.12558288403325,5.442134380133209,-2.939082737871911
83.0,-3.9223714015675095,-0.8050065254431963,3.1173648761242267,2.397543534118479,-3.572123826491622,1.1235219172390822,1.9629922540575344,-0.7155177316167343,-5.265795457479794,-6.636734870796993,-6.651731693509383,-0.35088816422246016
84.0,-0.8732067712141709,5.394117440135865,6.26732421134996,-2.3066500473978957,-3.552679701287364,5.80192516891551,-0.2914291493023142,5.19419608152078,3.456437165586663,1.829678043002147,0.4548429568393013,-0.8264892234888741
85.0,7.895845885194514,-4.168068266040825,-12.063914151235394,-1.913193679662411,9.992864624413121,-8.146304574950072,-0.4425335326496157,2.6171305488390146,5.1829113808806815,2.8737299302228614,2.843025654027946,7.2720646193707585
86.0,-1.0155927234255535,2.3966254467013166,3.4122181701268586,-0.6651728330827766,-2.2002813719729,2.946626485969178,-2.116014719182372,-4.0785961887702555,-0.6351403833125033,-1.2063235991590262,2.3277311620344268,1.127078463281539
87.0,-6.147644605017633,4.6733262796494675,10.82097088466713,0.7590020302025708,-8.543524621035768,7.702122852771794,-2.5427915165869193,-6.854693131938761,-1.088067926943533,-3.069172836918141,-2.5106921840083327,-3.8272234650848023
88.0,-3.639611909790743,1.6929280650415823,5.332539974832384,0.9939727250634903,-4.456262503765785,3.5389974281267493,-0.6717153446459532,-2.5257091449705142,-5.8323655231121965,-0.520858520880865,0.23082309361345243,-2.7310537955420835
89.0,3.863032632500687,-2.818264363641473,-6.6812969961420965,-0.4996190797850163,5.314877754001914,-4.72726023263737,3.308420889755565,3.191476596868458,0.02694557574691725,0.1653541521183052,0.67946041317876,5.669693270707886
90.0,3.3046814961445263,-4.214992945976391,-7.519674442120873,0.40470808347587595,5.389268633372993,-5.843871387595132,0.3466434084283332,4.423029437470808,-0.16991771198313502,-2.289974288634327,-4.773547069685206,-5.509286928368315
91.0,1.3095835718514663,-3.5029502972833946,-4.812533869134849,1.054296264735474,3.048909154704002,-4.129837811402522,-0.15984432517315583,3.0252438343881187,4.7895053707452675,3.0914415007721012,-1.3854482929127279,-3.720292319975191
92.0,3.7267972739362714,5.582985253044979,1.8561879791086837,-4.609490858882474,0.9293609266296314,3.6739110084977513,-0.6899881460477452,1.8424490472229322,1.5601234455100483,6.4817147913452,6.044008987874315,6.733989669496401
93.0,-8.885893132266908,-1.7744125014333842,7.111480630833471,5.383610912314327,-8.004174081744782,2.625719849189506,3.4126359099969914,-6.6775572285396265,-0.30022615893998994,-3.160219572902182,-0.4963086478070058,-0.1101140846885671
94.0,-8.593986261955623,0.5751657618326348,9.169152023788186,3.989121139064355,-8.892257976024851,4.906789520281414,-1.7328509593841146,-3.591271398767308,-3.3132395108954444,-3.2807631078490522,-2.725929607291153,-2.5094377277736255
95.0,8.25997773347954,4.801454385798105,-3.4585233476815036,-6.550733994885945,5.917749962404164,0.6220588381812919,-2.9905541624857284,2.4276947282956636,5.71937386043147,5.191883488207877,9.630506097766718,5.153426289647536
96.0,5.546494795378459,-5.301729093941667,-10.848223889320185,-0.1474380369958448,8.165336016111876,-8.052776695361201,-0.0030792470216889356,5.8468674834111285,1.2120001644164233,-1.056336931228979,0.7889842945202927,4.3682867914923245
97.0,-1.4226596976210466,-4.6123402134433205,-3.189680515822319,2.9831229629715597,0.8400280878267687,-3.8847166088443625,3.199733872085452,-3.113577370511831,-10.791517938917881,-8.674495730919118,-12.980488029931681,-10.541727510004767
98.0,-0.9470429084939279,5.053661713568003,6.000704622061894,-2.0200524005467466,-3.447378412465626,5.541487122521362,0.7433914014091793,-1.9350363814820628,-2.0988902206387126,-4.419036835310841,-5.38819258134781,-2.5086984196167794
99.0,6.73143544799874,8.255530955639621,1.5240955076408502,-7.470035586661407,2.625725850817357,4.907132086738008,-4.06203087202129,1.3748760351953513,4.10401580921101,10.96995642865625,9.120415998646218,5.709754192916299
100.0,-2.8915390635930214,-8.543141775107983,-5.651602711514978,5.734798766999713,1.402383419918642,-7.072992280593596,-0.9353323942047156,1.0706260827729526,3.2464396087782372,6.603686121734766,6.558413079218554,-0.22842020553577336
101.0,-8.320612254260272,-6.132625356278728,2.1879868979815535,7.242898821848763,-5.306730789028362,-2.0181456709797603,3.0987874620234765,2.6730088299538743,1.4870889951657547,-5.9040146513684855,-6.6719140174066265,-4.869642531958444
102.0,-5.239056565732369,7.275927084790568,12.514983650522963,-1.0780463887198897,-8.845338867142138,9.856580826128289,1.788397134933833,-8.516352149657884,0.2833053408368249,-3.516470998789279,-0.6373848860133585,4.184866201166951
103.0,-2.561383859648954,3.165024676814335,5.726408536463298,-0.2778512539222621,-4.1082451989875794,4.488570453994724,0.3337706392424401,-0.015508622732818722,2.9423707377727246,3.6809148360631605,6.259057301543848,4.8419763031290275
104.0,13.487586542179546,1.5908903712913092,-11.896696170888251,-7.5109439438970815,12.64927083091419,-5.190702752523615,-4.151794512258339,3.52537916590524,-3.600417598271172,-2.882991443952074,-2.0108388176941454,2.5142942530181656
105.0,11.730733950065684,-2.5803392427337464,-14.311073192799494,-4.6237988427179,12.973522534135693,-8.410841287518648,-0.4210396907582148,6.244609618151368,-2.979401482989431,-2.1760455611787464,-8.37211715258489,-9.882855308248391
106.0,-7.595637693890772,-0.14431573419667698,7.451321959694044,3.898737777514759,-7.500493612820573,3.6800274455392232,2.119415539929726,-0.09780042357042085,1.7599379496284677,2.814814788371286,3.8115189665216365,-1.645012485757226
107.0,-8.771502488336857,-8.357384626323473,0.4141178620133701,8.510510823611698,-4.579524887893529,-4.031927318153858,1.6144126874951232,-4.146256422426936,-5.452111197448526,-0.6192294291113116,-1.1101030272036427,-0.7937751760209244
108.0,-2.695141421817736,1.4255795194934113,4.120720941311161,0.65494144897947,-3.4022846013278847,2.7862861257689704,-0.00822160952730111,-3.5494750987646935,2.35328448192518,2.836167264654381,6.514316528152895,6.8570266948816645
109.0,1.923208690251896,-0.267233796077469,-2.190442486329338,-0.8110107837140357,2.0599136701466376,-1.2164569619157302,0.46685073864843674,0.15949999050968788,4.051238871948569,1.1946982038078477,1.8775571315683557,3.4498182770502965
110.0,4.922889965101062,5.4022049961973995,0.47931503109635565,-5.145791742828677,2.229015816788438,2.9576078398052235,-3.601007087273466,-0.13595356599828717,0.21060912886245076,0.05323409996950479,-2.3132973503459118,-0.9655881939588276
111.0,0.9536200718223773,5.625102573020043,4.671482501197675,-3.26984607499011,-1.8411823625576451,5.174076066940381,-2.529327893049819,3.77168165188714,2.5737061138079698,-4.3103156667331515,-2.241257679240018,-1.501666359273878
112.0,-8.013283255435693,-9.785576007624702,-1.7722927521890028,8.923145864832152,-3.166769514119199,-5.820476542771228,5.90814199769471,-2.160751677352705,-5.537761538606633,-5.84983520658889,-9.8287707835458,-10.816281769185997
113.0,2.6641117988553504,2.3641259608341794,-0.2999858380211622,-2.565891045427289,1.5300486175125922,1.001827858418178,-0.7233379390332297,1.752867571053414,0.4019983360489148,-0.10679591286696466,0.6883171129157049,1.4235769786858192
114.0,7.643005878265054,9.36159081997571,1.7185849417106764,-8.553796025807822,2.944085862887025,5.597292184102252,-2.172552353496712,3.0481694269145843,2.231478018564293,10.989420207121771,12.070117587858547,8.847344818873038
115.0,0.7573436518665271,-5.606390353620054,-6.363734005486563,2.4483504435832804,3.5491796629745997,-6.002218509931334,-1.5599580819990209,-1.6009498850042223,-2.549766962902344,2.4951487684950706,2.407220738161439,5.045040862319151
116.0,2.532951839822695,-0.22238722895234408,-2.7553390687750348,-1.137668446474502,2.632290096260186,-1.506504185997057,3.8657418527218437,0.1627867224392967,6.069228973669067,1.8774384571788443,3.5090540287545666,1.5095816317254926
117.0,-10.172244205572639,-1.4402629683995707,8.731981237173045,5.816894051761738,-9.471185664374051,3.623480799276582,2.224139848120255,-5.7114635034728884,-3.3314997092093823,-6.636924930872225,-6.902965097922092,-8.196672393113037
118.0,-4.408613082358288,-4.446998656411312,-0.03838557405306764,4.432932300278178,-2.137108250413369,-2.19376128057042,-4.640550967784658,-1.6247188983625298,-3.1127486661417847,-5.470010953165371,-6.73082730907223,-5.774143012465885
119.0,-0.3080022641045188,-0.7381400531861182,-0.4301377890816236,0.5257347361053806,0.01743873029797216,-0.6221508128435208,1.8811670917880332,5.163281512904783,0.40187405049462943,-0.04405796799926254,-3.6627283708875193,-3.355308926927871
120.0,6.21570280015075,-1.3244729840352631,-7.54017578418598,-2.441778140330152,6.902150768544962,-4.398789424155078,1.8044867529758473,2.343216022498674,-1.8813178257101324,-4.225921675373009,-1.8955112200507698,5.308907743802335
121.0,2.9570329440502943,4.000763661846641,1.043730717796422,-3.4705685780822546,0.9741214468336414,2.5506547048198325,-2.5659323233204616,0.20651708189126183,2.368343314732166,3.981903581851141,8.754022161960238,5.9531602077729575
122.0,-3.247134480157161,2.09169585235069,5.338830332507932,0.5143007641780315,-4.277415627922479,3.66220493902668,-2.158505791278906,-2.5890235606855447,1.7490572664002246,8.501106337287542,6.605210692695618,2.646616441921303
123.0,3.1702188399637743,0.4031826847835194,-2.7670361551802203,-1.7627539036373658,2.9863623229570795,-1.1567088989397467,0.7797037581808186,0.012547543057143673,2.7448320362105543,3.1316934260678204,1.8256716891922609,-1.8929703050295603
124.0,-1.8306789700310673,5.376657774772237,7.20733674480328,-1.7396219448282444,-4.575311689478008,6.239922335258757,-1.9928258894216904,-4.535093928263456,-2.4853215930521033,-2.9136668960235608,-3.6603319785847885,-1.6031694691242344
125.0,-1.1378512277556045,-0.5772684978113999,0.5605827299441446,0.8215821457843593,-0.8996556520500449,0.021476894198537932,4.343454506655819,1.0994350997826343,-2.895738790144803,-5.306990924237557,-2.0606590478181714,0.09761319685497072
126.0,-1.4858404067974216,-6.165452535638275,-4.679612128840921,3.8767994239992776,1.63155366225999,-5.388140050748957,3.5459262313115474,4.6928099152500025,0.9187052911082583,-4.4704347937716165,-7.388824289159191,-6.242529636858429
127.0,6.982840860991234,-0.8713382597640451,-7.85417912075531,-3.07719993779898,7.460009565963708,-4.4016423822733195,-3.099071216704486,5.2084846450053535,2.598926016074942,2.7680318734481526,1.2724471809614641,-0.24483909158269768
128.0,0.17926945124676963,-0.49654346168654184,-0.6758129129332722,0.13993664914902826,0.3976079989542196,-0.5408915261889549,-4.04734028864165,-4.6848249064832626,-2.0522114340069924,2.7990433682534706,-0.9360298293819994,2.9748314031516543
129.0,-0.9581726455034719,5.829428865843966,6.7876015113475345,-2.4557268556789027,-3.81687423675405,6.279136300877738,0.6266580969158309,-1.520993618748015,1.0472689739144243,3.853947636371051,11.078888186321617,8.373812006598072
130.0,-2.677240499992806,-5.020919185451355,-2.343678685458436,3.9021730489092836,-0.1838279296622658,-3.7101949089534574,1.9373298735193152,0.11268123495515425,1.318499057768833,-0.05384710892476474,-3.6552343284228517,-4.4221760524825
131.0,-9.885766804235635,-5.737399697840725,4.148367106394991,7.777033866515226,-7.031607671704306,-0.7456144580127164,3.2791734338532192,-2.2141875843888874,-0.3508451139858364,-8.635500335023803,-3.425802688550226,-2.217670640810976
132.0,-8.801155022646617,3.0644839245217304,11.865638947168373,2.901881142361746,-10.349697676287171,7.4297330219182856,3.1394679633393716,-4.863791087378701,-0.6940314300737096,2.493185782784326,2.415385888683436,1.3105742119547064
133.0,21.538016256741287,7.009214984090219,-14.528801272651084,-14.329135647732082,18.01138257336161,-3.724616912949263,-9.409724865276033,4.973438687888962,-7.600598325049324,-1.1991563815637503,-3.6921121369832957,-7.554479759656427
134.0,6.7389294769576535,2.1750939759070587,-4.5638355010506295,-4.44146530292009,5.621531423654753,-1.2474221789339457,-1.2536086690573254,5.68030054804206,1.880383668228982,3.9601968434628256,2.442644890517487,4.066605445176606
135.0,-10.639032884966808,-2.7070603569982117,7.931972527968575,6.685534118396901,-9.243735020408653,2.6294566376290014,0.8431539493928983,-3.973008167780183,4.709782759554579,2.2637698864961395,4.575917326031885,6.147622244647644
136.0,3.200066225033621,-4.614186233717109,-7.814252458750735,0.7222362753469884,5.544995864659957,-6.203135766812622,2.017266386662979,2.7764051779721113,3.2006358622216977,-0.027152648519509492,-3.2330734711385314,-0.4449221030923409
137.0,-7.219154096434858,-3.117866191161462,4.101287905273393,5.191952150328536,-5.622052444625963,0.5010658934762355,4.091156829323927,-3.29819182150552,2.5309069565567253,-1.798097475699447,-2.4334057296612026,-0.5501177605498456
138.0,-0.24871008320977817,-0.26445758447878376,-0.015747501269012254,0.21360256819613932,-0.1532860057285088,-0.12792045440660282,3.758412322857344,-2.1677002126335765,-3.444819074337313,-3.911344928539482,-4.020500775756418,-8.371538480227029
139.0,4.682974282246647,5.49912209446825,0.8161478122216017,-5.1201469791419365,1.901655703819345,3.176453314228454,-2.0708203704829913,6.542778897279817,0.8315856837942626,-2.2489408690823725,-3.0944102742131387,-1.8260458892212679
140.0,-1.8260783748034775,7.28682636094739,9.112904735750883,-2.6681955872557803,-5.497320146198716,8.148873775196606,-6.271857177967238,-3.9184713006836454,-6.259934512137616,2.8321148737369795,8.239810408981047,7.311298417911811
141.0,7.698111306202446,-3.1360465132313715,-10.834157819433775,-2.289139654649395,9.318351152044576,-7.026542237462101,-4.309613818524075,-0.40329092330650285,-2.238380969102955,4.411730054966363,4.171091893826615,3.562796263583197
142.0,0.8601797451164228,2.575143777341349,1.7149640322249935,-1.7233000851805702,-0.4553871134123577,2.191094698364632,2.6792807339131226,0.4343897826316664,3.9596392654976458,3.3047306071538634,4.951042503048575,3.6055751649102996
143.0,-9.540637296017785,-10.275397257967613,-0.7347599619497707,9.898221942861404,-4.43404564563298,-5.4521783192531705,5.028888053664461,-0.5585512375692289,2.8257031803850223,0.6859686198187402,-0.20305755581339113,-2.4284546596085397
144.0,-4.396342145286314,-4.825105189281243,-0.42876304399490206,4.591166371644475,-1.9392258654812045,-2.6485197295376044,2.2478139261062218,-0.7723630841588767,1.1962207022671194,-6.524667796619722,-9.392048586663385,-7.00724842978655
145.0,1.1697286893899852,1.031247311196147,-0.13848137819381878,-1.132824630251808,0.6970690171144878,0.426133647028214,-0.8602475630877071,2.4035728882305287,-0.21395582322751205,-4.2515337300688465,-6.141229360913993,-3.1013698771290157
146.0,1.0676339037524678,8.043190778244263,6.975556874491787,-4.521330536621093,-2.9892655100332806,7.487852569329833,-2.595575713862029,-2.0277083126980737,-5.462772023175241,-4.477340365227468,-1.8442418228874722,1.4871311794029949
147.0,7.827883499703566,9.6705675769307,1.8426840772271111,-8.723841579270175,2.9594718172176124,5.7323831097759905,-5.46516163274257,-2.372387254306858,-0.26420150679826837,6.236871032331983,1.7613186694880727,5.27817074786696
148.0,-1.1694778371527992,-8.028629125974273,-6.85915128882151,4.621128525711549,2.8932596735619605,-7.39177006040424,3.363044089076179,3.219861538436926,3.5738729662569657,5.186407619284318,8.011973291455437,-0.4875697882586034
149.0,1.3540656108163374,-2.966696808471868,-4.32076241928822,0.8302293369551549,2.8092719543429263,-3.670659205777098,3.8670092575964516,2.114407489023062,4.516827275476519,3.750244126165169,4.87515788641632,1.5977396489196052
150.0,1.032499301804774,-1.2707388087783251,-2.30323811058309,0.06936856662537794,1.640329282284997,-1.7324445410824125,-0.7632629144172556,1.1806364144526023,-3.1729445411657013,-2.795723656087435,-2.3813584683798226,-1.836118813615649
151.0,-4.674981415165725,-3.8751927058367026,0.7997887093290648,4.231155347909422,-2.687609538070897,-1.5565232171586019,3.144471457835132,-0.10472611859959285,-1.019425118721006,-0.281908213132835,-0.5905618073584318,-1.5991835361299247
152.0,-9.667590478598873,-1.0886281350000393,8.578962343598892,5.417523451795498,-9.155651215858027,3.7328252237501425,1.4021726781750985,-3.7285076663013323,2.750342782447495,-1.9658775900394074,-4.0811914831055285,-1.2588386862413512
153.0,7.029709242225782,0.1422039574426568,-6.88750528478308,-3.6226563020949367,7.000098884051414,-3.3795781523491657,-6.167135155390148,-0.09471410262847346,-6.356439652996323,-7.888999579429901,-3.9935387032672818,-1.4374574540899228
154.0,6.150940943470811,18.08045022292088,11.92950927945008,-12.072564462714704,-2.9321501473668476,15.000468013526241,-7.026002286753789,-0.6790929859209053,1.3760913058075226,1.518928752780873,4.43868928967903,6.262743076722784
155.0,2.961989632850376,1.8947506176565572,-1.0672390151938198,-2.4635674148175566,2.0451091263491135,0.4076078125543283,0.16647677035897113,0.43398491489360086,1.267781371898928,5.561720053037949,2.2668263805389484,-1.1283343128523782
156.0,-9.95502279232973,-11.724275192197318,-1.7692523998675784,10.883562241137245,-4.1452988182825035,-6.758511364728534,4.18399709304592,-3.901936884894426,-5.6943759122847535,-0.3163237070695333,-1.6627506893358586,0.13789672745205775
157.0,5.182344330844162,-3.534607907464884,-8.71695223830903,-0.7798418750720835,6.973912839661763,-6.0672524042804445,5.109036008268567,2.357782193237522,4.132660667889412,0.9678329276019282,-0.8134290871074692,-0.40113311598602286
158.0,-0.12901175458125247,-4.994616202518074,-4.865604447936786,2.526090941139117,2.3929342626593466,-4.959981704481532,5.598966554512579,8.203615255607996,7.71051760495503,5.012054415441602,2.397958491685445,-1.0367601184487205
159.0,-8.52858863778808,0.362395218198055,8.890983855986171,4.044388122455194,-8.682756567161558,4.587873892468478,-2.4617853733426918,-4.7155621617683385,-2.1397665347946373,-6.072925366055099,-3.7455802994696668,-1.6514745937425044
160.0,-0.9488927052625193,-0.2631667181597409,0.6857259871028196,0.5622785716038304,-0.8658206145267666,0.2446458191273475,-1.3696648033751557,-0.08969470833902071,-1.4953438498580571,-1.2405400482245184,-1.7161221571639973,2.5035909371025866
161.0,9.726108194256504,7.881104066241669,-1.8450041280148177,-8.774624928912852,5.818266397240834,3.0483522807865118,-6.79316253179653,0.01304978600790907,-2.497518680838813,-1.5259385412761006,-0.23671928962804134,-7.347463326645471
162.0,4.058066940789633,4.943604423970133,0.8855374831804999,-4.477057029320049,1.5407191160179667,2.86689582680668,-2.194572207558932,-0.31406211166402653,0.8365455069281102,3.6782122455590205,9.765320920044516,8.53958883222859
163.0,2.1617765389662997,2.9139297688602843,0.7521532298939788,-2.5169645062924837,0.7361860321678673,1.8681823970502387,0.35364088156149154,0.3540352491781784,-3.591213267752851,0.4543501780716469,2.2267152269359345,1.594593546302963
164.0,-2.656448591895746,-7.30209031485955,-4.645641722963824,4.999882167284355,0.9437977364108974,-6.011395478920277,3.0144584580736593,0.2857303755598443,3.4745566623394453,-0.7801082750392369,-8.697808492299739,-6.666947100871566
165.0,-6.655212860608569,0.34621164021263384,7.001424500821173,3.1763623716673997,-6.803899337727557,3.7214166486986104,6.341731225306839,-2.627167798467094,1.845844796278562,0.262178234288781,-0.7763630769694312,2.57179750867988
166.0,-7.689370398933242,-7.695645384713163,-0.006274985779967324,7.636592994679919,-3.819240737045149,-3.8772029982334795,0.9792064378425516,-3.584624960798379,-0.1969679980154866,-0.2510024296429687,-0.07947086540721182,3.7028879714327614
167.0,1.7038865630296112,-2.9973375257655106,-4.70122408879514,0.5901576110146318,3.224986449329577,-3.8735058547833243,-3.724088742108856,3.729749655858283,-3.5518160152313705,-2.384499159256572,-1.3455760169690412,-3.1875115782784236
168.0,4.014564576524453,4.537192466953927,0.522627890429499,-4.255957448394778,1.7704915026003525,2.58282838090769,-2.991926556911186,2.7891136940101227,-1.163559269356064,-1.6675404369652393,-1.073453844220642,-1.10184182572052
169.0,5.054452832801717,7.800416861301497,2.7459640284998086,-6.409915188522557,1.1029742728588432,5.242277801103815,-2.0646892851667396,1.4964770328112547,0.3186473662730311,3.760139682077349,1.7234528309716324,-1.3070123964803608
170.0,1.0899498853628367,3.23875056805714,2.1488006826943207,-2.147264348701582,-0.5780858250890017,2.6553251992931246,-0.7284194542639029,-6.044885876822143,1.3618932403055553,-0.6395365758372786,3.1321522696945565,0.29022780159654576
171.0,5.278277145147914,-2.8172565034449626,-8.095533648592895,-1.2103304543134863,6.718651144145034,-5.424471879183578,2.867718618017901,4.820569955776998,2.312799927633002,5.148435493633999,3.3123293224316104,1.0532958529700194
172.0,-4.801951881878134,-6.129984187952709,-1.3280323060745913,5.4929116687153705,-1.7042734688977421,-3.7045577350525756,2.350490249643248,-0.640725212239426,0.12487674092967826,-4.825342323080161,1.2203260780666119,3.6822643714846537
173.0,-3.7098844040123833,-2.5791679915462744,1.130716412466115,3.1017697820664383,-2.4653805008271426,-0.7049955632054032,3.0279197126915216,0.1881804532677171,3.430837544678152,0.3969573210449544,-5.354495448015323,-1.9475380246464535
174.0,-6.635227667075011,3.9049336136521906,10.540161280727203,1.3314537746902375,-8.552318826932044,7.160702609915548,-1.1431465117083133,-1.812245219065995,-1.4279409682772513,1.4896486035146956,-1.2363388138144704,0.5806482460908794
175.0,-2.808130111543928,-2.5430009778814284,0.26512913366250235,2.72751745746266,-1.498713222806101,-1.1215150880436304,-0.1037729559222389,-0.33949041415243464,-4.4400673162612945,-6.036043788493987,-3.171432181458509,-1.652627948692522
176.0,11.431403103717201,4.935195026781349,-6.496208076935844,-8.206620307767695,8.925780438233561,-0.76025126480153,-5.384742592618701,1.1836515513438282,-2.4824008697916415,3.8055531894619143,5.315626474098642,0.18334920949819122
177.0,6.084012336606433,4.104233594746661,-1.9797787418597634,-5.117320121595161,3.9959906953318187,1.0869379532824897,-2.12196365711483,-1.3908952877115084,0.9506399888640542,0.37934468188178894,-2.9254381499976096,-1.8730155270315965
178.0,-3.535150337148308,2.4406952877004473,5.97584562484875,0.5220222771420908,-4.712069514363429,4.159708887469308,-0.04949311396366429,-1.4509010414814114,1.2893676741351898,0.8209356064714515,0.6545487532769751,-1.3823369234182896
179.0,-3.2674133284240017,-7.953803332125749,-4.686390003701799,5.661753656700385,0.6728641976684369,-6.362463850219161,4.24579862176721,3.3755878488912074,4.33869413068714,0.2254833867590823,1.3057348819124839,3.8763840576153523
180.0,-0.9788242336089061,-8.64956530509035,-7.670741071481526,4.863963529184291,3.3851456634898756,-8.11690260206754,3.902347917284944,0.6213148142034082,0.525100170315286,2.1800692528736243,5.7899859093661155,3.6556997157304307
181.0,-8.195680738216144,-3.5238749167190533,4.6718058214970055,5.830906692200226,-6.477211607810107,0.6246674134270926,2.0052105826679614,-1.1424575207912162,-5.718205987130961,-4.075240828250275,-6.328997966856829,-5.128012300243876
182.0,3.7036899701806734,11.660423143452237,7.956733173271498,-7.709865226253709,-2.095346903905911,9.78804551453321,-5.441785263257114,-0.34226800663559265,-0.7151905177680233,-3.9542857210528766,-4.093993943093106,-0.6254431544965684
183.0,3.551472835472296,2.1963040712285764,-1.3551687642437367,-2.9007204955179784,2.4807377263971038,0.40655873209382154,-0.6228656608746399,0.14837645170454472,2.0450019486407642,1.19197816153507,1.7836647639654402,-2.6806056906096765
184.0,7.186078084987592,5.94577848232161,-1.2402996026659543,-6.514016595943839,4.158613590049378,2.342985863467166,-1.4406796623208644,0.7769831517798278,3.775795779824575,8.515698745355715,8.396396648946258,8.445216755790085
185.0,-2.365390196127675,-6.7239663756839185,-4.358576179556174,4.516493096439136,1.0178606654770388,-5.550001430145981,0.9500237192054994,-0.9336061583645534,-2.779427491294966,-4.025433893206233,-5.175278295331977,-3.8299699472535456
186.0,-0.414726742262319,-0.5088185753216687,-0.09409183305927371,0.43109516571829176,-0.14193902323799956,-0.3126283256549063,1.3894562106257584,1.7871914941771396,0.05368478406409094,0.11614757258602793,0.7628543203222553,1.0315688616243608
187.0,-2.592386664461171,0.5338852816231676,3.1262719460844046,1.0741577699810632,-2.8439804097442005,1.8923532079792644,-1.0355078272606544,-4.156947578476055,2.6456214513549274,0.989948037144535,-0.8372551166001472,1.6872075596100915
188.0,-11.338951487832915,-4.91570030512647,6.423251182706492,8.168781607222455,-8.947381426451615,0.7304494594080351,0.7342226220272109,-0.5546589865135105,-0.662003667970507,-1.3650005733317956,-4.314617892410455,-6.559344497792938
189.0,-0.7165129259951017,-1.5436658074162595,-0.8271528814211273,1.0891435894044021,0.06595000408889451,-1.2153589089021868,0.7157761664181115,-0.1564794163125824,-4.527111677416168,-1.763338642911971,0.39275582199116155,-1.603440285386205
190.0,13.959341271323908,5.5873653026225405,-8.371975968701346,-9.818301952954624,11.17680965058448,-1.4267155399666183,-1.27896621044427,4.421553745986857,1.1681042072721965,0.6175317624703496,7.902239469867183,3.4299236403220306
191.0,15.445408876847809,14.48583724168878,-0.9595716351590164,-14.936317332647914,8.217754968527137,6.806815514189616,-1.4287411418800018,4.541082034726772,0.3088704221378959,-0.2341148245820977,0.9822341428582595,7.722504701947485
192.0,-5.4731130386568925,-4.642078111551686,0.8310349271052582,5.08197817053127,-3.1286280850697326,-1.8579470542588878,0.49771193417871884,-5.127636100165576,-0.20693247642255308,2.8250785603306565,-4.110478170397032,0.6642906171576586
193.0,-17.512601599985015,-19.128253157211816,-1.615651557226729,18.3397733321589,-7.992262503953862,-10.39531099330213,3.799991180187101,-1.5342993145285808,-2.08155349140787,-4.78405967773627,-7.885152338564916,-10.301292038630976
194.0,-8.487374519442074,-8.85803183028279,-0.37065731084068876,8.60868687325723,-4.010463165479035,-4.6279489934828355,1.5075282534603993,-1.9974235775757363,1.4092332932345282,-3.250734922122283,-1.3494839374184648,-6.472435769907921
195.0,3.9592403857957006,9.866722755004577,5.907482369208839,-6.901700319518614,-0.9932295651899938,7.88242067514922,1.3945487889766004,5.334432147347138,5.603874819086253,4.625287089296955,7.592217341630553,5.352074699126312
196.0,2.4666421120585644,7.93938614794905,5.472744035890402,-5.19320289961688,-1.5140811695989715,6.706828775807791,-6.669172189503865,-2.1000808141534497,2.584537864484065,5.895600544111048,5.3377106977823665,7.862683907111332
197.0,7.223784153489035,6.766513676431544,-0.45727047705759327,-6.984187328740235,3.8323780244398975,3.155675052533645,-3.833017924709768,-3.4668231090655737,-3.3496087899431757,3.215629960148846,3.1906120789709145,3.1659798610501286
198.0,6.846810555370263,4.318478273017989,-2.5283322823523355,-5.567781415567433,4.6770653005210425,0.891048162930349,-1.9216111141481222,1.1674916674716027,-3.427523308542055,-2.602923437445266,-2.165320398207796,-0.848089685771855
199.0,1.53048672071953,-4.070563798349571,-5.6010505190690765,1.2910432138967152,3.549132555237029,-4.848985838146524,3.7368449301079796,-1.515732909334966,-4.405526163859555,-7.562649803150458,-11.04845878202243,-7.474230613645998
