Time(ms),I,II,III,aVR,aVL,aVF,V1,V2,V3,V4,V5,V6
-200.0,-26.082247205794644,11.943987036529993,38.026234242324854,7.110589939286683,-32.02366220915581,25.022992631071315,3.779393708636097,-7.806752483141109,1.4492384593296563,-16.20974965448889,-7.365986269714568,6.22324815552418
-199.0,-8.296193461581693,-17.928390120407368,-9.632196658825546,13.075855963209385,0.6250056610544164,-13.74611852034176,10.037902719750427,4.2888611176022575,11.419455384679104,12.503983340677976,13.60647454592719,20.495242931153683
-198.0,8.946931206917595,-22.569483275198227,-31.516414482115756,6.7755627494340676,20.27198348089408,-27.092403179022433,7.83669861982659,2.8952147602476117,13.015403657397204,23.796555185456114,25.850632557079685,18.0704192226826
-197.0,-0.10989681646841287,-15.749766458418426,-15.639869641950083,7.894330480082621,7.730624825667801,-15.670891238250249,2.0077442483220986,0.13530729426695481,5.421457812536132,6.004063171376821,4.082731309889189,-7.175948714286516
-196.0,3.262710793128833,23.189452288733627,19.926741495604638,-13.182965080237562,-8.283629626557284,21.57711523717594,-11.511429623600792,-7.763285856760012,-11.699703567345969,-5.037119380204403,-15.046636584903013,-11.06209784371602
-195.0,11.68881687523956,44.77226897051335,33.08345209527358,-28.18746630856239,-10.723510330514603,38.86481598088313,-16.66637225421852,-6.890302949753225,-15.959454221651628,-9.896718521815414,-12.861611069259837,-2.8716264252194765
-194.0,7.207376387572143,32.469740288775164,25.262363901202797,-19.874004928129267,-9.049515354611358,28.88115596442725,-6.889732404899147,5.053986124448641,-7.136657202081312,-7.707692929377331,-2.5055867470599447,-1.5628511638664415
-193.0,-4.283916763250549,-30.161761526382,-25.87784476313164,17.26621353513736,10.857196253755552,-28.001874405663322,9.803709016640383,3.4726304817537006,7.409621455867698,7.512061708618704,-2.377870514327248,-11.681585485695502
-192.0,6.7153175842893384,-29.18946487467159,-35.90478245896114,11.200734476828064,21.293395033023433,-32.5230755656042,2.9685752332740813,5.148280213606319,16.531078443311813,2.6788320938276304,1.0286702379327703,0.49332539548503895
-191.0,-17.652872704963695,-34.26336576811809,-16.610493063154617,25.91896034815461,-0.5385074712436317,-25.404664403462622,15.170063147210264,2.887091644310146,9.943443031705357,-1.3840605143775875,7.491295090226844,11.283370183389058
-190.0,-24.595119108168497,-27.008381475926488,-2.41326236775806,25.83644416233024,-11.111764538935233,-14.74896215358001,15.165248405849974,7.802538228175828,0.5284549483458143,-8.798904867234523,-2.523098792385273,-2.545122880856872
-189.0,30.01035720890691,22.778601550597635,-7.231755658309222,-26.366119544781025,18.594335090902625,7.741795528130227,-4.551054970974587,-1.8356640472770844,-11.006109906650373,3.617983072596915,11.731971948465144,-3.1310364106889157
-188.0,1.2402272711585987,29.809168953932065,28.568941682773588,-15.581466943337904,-13.619434621836323,29.161029381489506,-13.21813437995744,-12.159889915830883,-12.303228744396456,5.481969342520346,1.2458895583642153,3.453413555516763
-187.0,5.019316161814006,36.13881988252166,31.11950372070769,-20.561754226293534,-13.012247334639614,33.68081203295922,-18.680632373670427,-8.871942767916245,-5.905695563050312,1.7864527474609542,-6.3981000610745316,5.518437964338995
-186.0,-7.269955426145664,15.030675779504897,22.300631205650486,-3.86441262852688,-14.832486247180816,18.638105735824087,-5.745631473181771,-9.933446031539916,7.763600438584004,3.385255235486413,-3.245246329463834,5.943045456181685
-185.0,-9.644817302899217,-12.344008973859221,-2.699191670960209,11.013177626592352,-3.4467553011855365,-7.470600957070777,0.32275499366675,11.00671186156579,4.101741365812519,4.304169476674966,-0.4353357981393673,5.095638800576307
-184.0,0.5911342383789089,-24.79189087816231,-25.38302511654142,12.047175213133755,13.007902615812796,-25.114033809925047,13.623443701062492,8.063569441516822,-9.061342404244895,-10.166126580634216,-3.6398391879445415,-7.9888509362983795
-183.0,5.0843471639723035,-20.33271128935923,-25.417058453331823,7.659066904887419,15.187310251347032,-22.89875244302351,17.679132854940168,0.9443106690770531,17.524798609581847,0.8455601750109265,9.929126487029777,-1.7863792487919632
-182.0,8.032153531949822,-28.527893050490064,-36.56004658244018,10.292323268718853,22.305855400654487,-32.48570210256587,-1.4372075942063756,7.379175481870373,4.422839170926898,-4.102715940588965,2.6648505476276805,-8.887772997476022
-181.0,-4.937801645911256,-7.277284559808233,-2.3394829138972337,6.080449894352155,-1.2942250124067058,-4.8262995268490005,6.11768496531032,14.668756010313606,0.347263479564611,-6.106449056144483,-5.656315042219125,-8.030078643553795
-180.0,-7.765719135026923,16.276665936930907,24.042385071957753,-4.27969039782199,-15.90168342453388,20.141863145999537,-0.7457844237024402,-7.9937577416347585,-9.397650251891601,1.8866318532060533,-10.05840689768479,-3.054430480932182
-179.0,22.358994773797978,68.86484613618914,46.505851362391255,-45.63805627346399,-12.070008134125246,57.664817046693976,-25.857017128384314,-16.363315224180223,-3.2012649358779646,12.166784778298291,2.5122137840315286,14.900641769788244
-178.0,-9.868861814014576,9.933055298227409,19.801917112242183,-0.06357841962957167,-14.82680719248329,14.841250090690533,-10.567032885331878,-12.56706351910485,-9.100571025560209,3.379932953827068,5.061523068577347,7.09654110282737
-177.0,-2.487780435736567,-18.576943671623685,-16.08916323588684,10.573557024662458,6.817689960894407,-17.287795074388004,2.8057980073901634,-4.5455396775262615,2.657620365176771,3.290404215042281,9.234015833903143,2.7383449802268283
-176.0,-2.6807096095733383,-33.45245392249658,-30.771744312922973,18.10378849078477,14.072032216436606,-32.073939181523265,14.513749767663024,13.085486090804531,8.011539495951112,-9.60136951936064,-6.487494484285398,-8.848120649871491
-175.0,-9.463362112287781,-13.916895919208407,-4.453533806920497,11.727033845769215,-2.5493444297572836,-9.231312220686451,9.742714971109447,6.507848917123546,4.8175743081037865,-8.106913894082048,-4.005324983668692,-0.9227791100608225
-174.0,-11.004530835353227,-6.568362518231945,4.43616831712114,8.747667084416314,-7.761146133531784,-1.036642703597062,6.419384647397418,6.150639631307426,-6.676773309806586,-5.244056015616964,-4.201371501160281,-1.6585853603562732
-173.0,6.539253529005329,17.56894314886685,11.029689619861184,-12.088420761819444,-2.208968079644285,14.2490816233583,-2.4650339217488355,-1.2058430192034546,-7.155341167851926,0.16404913557037393,-2.7227771626119264,-1.186223156664869
-172.0,21.743488034990207,18.23905911966537,-3.504428915325164,-19.943604119150095,12.653763081306469,7.3965372340338815,-14.39877835670828,-7.017643996343102,6.030000683847973,11.36888991053229,5.478783481658148,2.438995867214757
-171.0,8.653899045221214,5.656254877461386,-2.997644167759973,-7.186131793471487,5.7678514423137,1.359975139289439,-10.395102109171022,-2.8705639269289662,5.384336493254263,11.558395833002546,8.506505045029522,3.5621904598391283
-170.0,0.6968324645724469,-10.76591839106237,-11.462750855634741,4.9998210705410475,6.092306769943933,-11.161164274099082,5.68541365362288,4.765577425502656,3.0480299213505297,-0.06206956557700227,3.5894790072959917,-0.1681506145416788
-169.0,-15.104012367692011,-21.00046595286159,-5.896453585169344,18.09022895286993,-4.595697321513268,-13.416203643221799,14.957609317549847,8.902418931289143,-2.437236088540795,-8.003003376368467,-2.475534912880983,2.0681451706887213
-168.0,-15.215126955181413,-20.053153418596704,-4.838026463415007,17.587616340825257,-5.17880221405416,-12.492953211377007,4.6295007440450995,-2.5538414746090807,0.513753556270979,-9.257927893989791,-6.975112832210318,-2.5669890848085775
-167.0,1.7973020981257708,38.74708119102126,36.94977909289574,-20.24256469127957,-17.558338621717986,37.87794051507751,-9.603460811884275,-7.3659527681279435,-4.571422660350159,0.42945867708672303,-1.448653884608425,-2.7768127218890886
-166.0,4.046930243424917,22.330910790883863,18.283980547459123,-13.156886337216221,-7.087696979720492,20.334620702778736,-5.961382610023574,-6.376514482152222,-5.790992758035651,4.045052124182339,2.114383178255617,-4.187649080453948
-165.0,6.04562707359389,-3.285028966782706,-9.330656040376608,-1.3410037872174128,7.654616400193879,-6.361584903302456,1.06670646978298,3.7212357278914685,6.400662566682196,7.451905136044887,2.643221238843679,4.475576288651114
-164.0,19.12916693216043,-13.842554490920772,-32.9717214230814,-2.672906162920605,26.02901538411289,-23.3836919402912,-0.5694054056196163,2.142146892643926,5.1835371573938565,1.6977765573478374,-1.1542936038598919,0.04348886605996327
-163.0,-7.682530659496514,-14.339223916061643,-6.656693256565472,10.990212458480627,-0.5274570015433184,-10.475373964637148,1.8822088433070632,3.1321592313157933,-12.275697261977427,-11.097376252120217,-8.389434322804798,1.6563182698548196
-162.0,-20.34915817866026,-10.978267574534428,9.370890604125464,15.647748080849352,-14.873977971565909,-0.78148157981264,4.2806313795240785,-11.691008686850745,9.424678199052464,-2.138455588008445,-1.3148080678929734,0.037749035689256694
-161.0,3.019695399827553,-7.631911363844849,-10.651606763672728,2.2888379766113545,6.895636865811311,-9.198467149248964,-5.597083657482334,4.460733568389753,-6.521442665096745,-3.141259774353951,2.5699498129007843,-4.889860838306325
-160.0,-5.992700495407295,2.123448056625476,8.116148552032556,1.9104317177857422,-7.080977209344297,5.141950110955034,17.939899634398564,12.65324481533609,-2.2725134068719917,1.6381810563236618,3.3565622250170493,-0.4079354666044761
-159.0,10.411820394234088,29.866761754135496,19.454941359901373,-20.095092084163923,-4.555857637401566,24.60528402887518,-14.554136167590952,5.484476168792501,1.4030344721027714,7.337107566604902,9.048751390480058,7.172141378132158
-158.0,27.08236065791451,43.89251350940068,16.81015285148635,-35.45408908809497,5.175519117568328,30.377529996292708,-28.98063516445755,-14.580320003998631,7.190349129604032,13.987616929281755,12.496630993962293,5.1348195761818545
-157.0,-10.516654458733615,3.0891599223799027,13.605814381113944,3.7382956864993435,-12.022619413400566,8.37955006597079,12.610862901056741,-8.043594870642965,9.827660052655112,-0.26602930953434356,-7.785631847173087,-3.337059778795582
-156.0,-19.85996769813602,-54.91949258867877,-35.05952489054235,37.33027724867798,7.563093448181249,-44.94878170505686,24.735492511970435,4.136945906962793,-8.963042116027957,-17.19316718640263,-25.463892632364537,-16.3172785556103
-155.0,-22.332066784374703,-73.16295966449694,-50.830892880121915,47.76555926715762,14.2190435151105,-62.02480405419961,30.055470681881133,17.881485970857593,4.448688259785802,-0.8993042895158823,1.169330132817656,-0.4912640268987625
-154.0,-3.99618882550347,-13.467253295514102,-9.471064470010429,8.673547586104288,2.792778063755888,-11.487645169835943,-5.772889098551008,2.172844606740985,-11.48096127697047,-9.070558378178049,-3.74132271033106,6.172865232856488
-153.0,33.57895625731293,85.36254988288992,51.783593625577055,-59.44446906015643,-9.120417178457012,68.56095508593224,-37.06842873838161,-30.893895538916333,-3.8001327032821184,6.5316722616566505,15.758734912064021,21.701969044563775
-152.0,31.5219739048948,67.52150037502238,35.99952647012758,-49.48758703928824,-2.2548452380242265,51.75037391754798,-35.286599862449854,1.706112423056684,-1.8847304570683572,8.152951580449654,16.286691335352483,5.911322631833404
-151.0,1.7684950935115396,14.599918009715573,12.831422916203916,-8.141621740975364,-5.549260281445404,13.703139004078661,-0.9789577717563667,13.274858206319255,-2.7812501818285216,0.08291379089801687,-2.488379152961599,-11.481105851688415
-150.0,-32.60945466378126,-57.431316023194256,-24.821861359413138,44.991175825718514,-3.9163076483550996,-41.06583143452048,40.72863422852609,10.627331026588688,18.550317516988308,8.733685875997985,-3.8270241520889163,-12.628843633985422
-149.0,-8.016697480946766,-57.927275397494995,-49.91057791654824,32.94635111911328,20.99708748520747,-53.943440811720485,13.017012229406902,3.253666997649238,16.777720960876035,8.293408980048723,-1.1611287613861299,-7.50739596742075
-148.0,-8.634505391783977,-38.38084460137055,-29.746339209586427,23.48133045064588,10.60032416865798,-34.09365800579647,11.014543146200793,-2.0276565232618293,-4.40581864723438,-9.57861857504676,-13.37055540122308,-10.030179381801279
-147.0,-3.2038134542388956,38.24983929392981,41.45365274816902,-17.55370191068325,-22.367259494125147,39.89734427395686,-7.945250640644854,-15.706330411033704,-22.27389868496624,-16.18775813392225,-6.190108077138751,0.7269370824925718
-146.0,-3.111178174651766,42.533614792654696,45.644792967306806,-19.669137186534677,-24.418700865262664,44.05607982456748,-10.094082541409602,-11.353502338248155,-18.20047394502559,-13.632729954830278,-4.109731575048406,9.311350843702037
-145.0,22.77227023332135,45.35675771515537,22.58448748183434,-34.02760191459548,0.13154679853039575,34.019129263042416,-19.7520677424739,7.961356598221071,0.739833099538167,-1.4395262338215318,0.4074539327548492,12.582003949660367
-144.0,28.08422683713536,7.528788336528148,-20.55543850060699,-17.772142230651802,24.27961114769709,-6.538789720222173,-14.254283797518429,13.706974877218398,22.28645052422564,26.699400590227135,21.38708311985639,24.89852590550461
-143.0,-24.602113849964905,-52.40525050784187,-27.80313665787684,38.459936200223304,1.6403834102501342,-40.12420928144769,10.104823515447412,-15.61357583028045,-7.247414689287318,-8.667637705443925,-8.079845279677931,-10.061442497822142
-142.0,-15.588008337463314,-44.314296435605506,-28.72628809814216,29.91068259797005,6.6099044787600025,-36.53525330976969,31.6219953301954,11.71810351198405,8.275515886251704,1.8119432898189776,1.8290465779865088,-16.548613929151237
-141.0,2.9190348020881807,-19.13498565179194,-22.054020453880067,8.151154187851153,12.448131609489515,-20.605504971965484,13.138989442980748,12.446041190620523,10.966036703283553,10.928067585226023,11.116297193419596,-5.545867583931248
-140.0,7.262888505877447,30.82718068019919,23.564292174321753,-19.07492594018264,-8.191190174090204,27.26587584505189,-12.048351823387316,4.29472285626609,10.157161398031963,18.3222964015102,12.665036571950797,3.3759731563878237
-139.0,-2.131162123896617,42.5409434920955,44.672105615992066,-20.228717282524933,-23.366644764142727,43.59821049533336,-18.814189514097844,-19.064594422543255,-9.72614219399536,-1.1384537540284616,-2.8387593290853443,7.954626083254834
-138.0,7.186392841548833,16.163351815521928,8.97695897397302,-11.613606436889423,-0.9420473469583417,12.559368871818975,-17.244288242481044,-6.660827750807936,-14.28962429241494,-19.214520079783686,-17.85234334545668,-4.260081628643172
-137.0,0.5803323754069936,-12.31664827998366,-12.896980655390696,5.857091815370373,6.769844777224765,-12.623381469141567,9.700441414425171,-0.38496410702187767,-21.108236084887867,-35.239543825953234,-34.82200715451472,-29.60944757453772
-136.0,1.4512198170973156,-37.82892666290058,-39.28014647999787,18.18366958625539,20.399851377215832,-38.58009898323914,13.528675555251517,7.603261531864822,0.41300268723877664,-4.28812231642641,1.640260988423698,4.664701985664128
-135.0,-2.3226348300783473,-27.04442603903382,-24.72179120895537,14.682658409149504,11.162104855241127,-25.841061733170463,4.425663961196236,2.3618067032719576,18.06280064724044,22.788152734921756,26.46565317642329,28.788814508429837
-134.0,-9.729250148206674,26.370461209821634,36.09971135802846,-8.31988741183411,-22.86327258224325,31.187056972733746,-5.968488348008588,4.9413348303417175,13.879499117272564,19.154710467739392,17.65703794976993,17.00306098298632
-133.0,-8.519566952319378,46.855453105364035,55.37502005768353,-19.169155756777144,-31.96481633286169,51.13675612644957,0.7925126812257937,-7.408160301375232,-2.4923252117497423,5.379367119181996,-1.2093021658831322,-10.634511645926185
-132.0,-9.038890022887735,12.847488501258953,21.886378524146735,-1.9110009864735478,-15.473364541011954,17.38324971612598,-0.16344964373273704,-14.469895258762822,-10.454767675565286,-4.38898914275747,-8.214551546959123,-14.873156820855137
-131.0,11.578058728066452,-14.98000649619885,-26.55806522426529,1.686114045434573,19.05818451741053,-20.753201756676518,3.9776458136784356,1.1697450330098196,-7.169438415271585,-12.20153093722993,-8.825920575275479,-10.921175062299017
-130.0,36.231155664523335,1.9085569778785683,-34.322598686644724,-19.093924768485422,35.26085032200217,-16.18767422432199,-24.574549944201046,13.634954658060868,11.506200579565416,6.772781744458957,10.532472130394003,18.248430839349304
-129.0,-7.378511716720963,-38.41832407506524,-31.03981235834418,22.94464398063623,11.802542875997043,-34.78285041555707,11.190393471520597,11.744986320289309,8.962566623089732,1.4040187357413165,-0.7174608237583661,3.6370184903060143
-128.0,-14.776967530041514,-49.62067379040608,-34.843706260364385,32.23865934485224,10.068898759389617,-42.20176584082371,16.41544281238721,4.777943380884668,-3.366346868447733,-11.885313648733389,-12.928364804582657,-13.809203961004581
-127.0,5.123820411642836,3.2039453371398725,-1.9198750745027655,-4.206722109995193,3.542989140333814,0.597227240714342,-2.329403520996132,-3.189039946662472,-8.592511126851194,-4.181842885240982,0.7628317398904496,-2.683640935159367
-126.0,-6.13756136113728,12.146662139337314,18.284223500474667,-2.9705516915229584,-12.199996403224947,15.250285022565615,-0.7822382900749426,-10.197167108621539,-10.66718151552475,-3.6822296464433504,-4.889850216908267,-1.3645586168271853
-125.0,-23.04098182254273,43.05005037799519,66.09103220053788,-10.049896881702344,-44.55906425389008,54.52539888237307,5.055088445031805,-14.70077128941158,8.11401864648234,14.368162490297735,10.378179372920641,10.131559560630036
-124.0,-4.192578509521332,13.585075776076895,17.777654285598203,-4.741256062642364,-11.054086700347227,15.712813154011009,4.369147220051435,2.579992644802566,7.5719638907470435,9.272051950357895,9.531289091620174,-0.23388581813934106
-123.0,21.941073438808765,38.880759492695965,16.93968605388727,-30.375529249590137,2.519031187431498,27.93982925365453,-17.58739525263365,3.55209053181726,5.280277142495022,8.26004881319899,5.936765338667531,7.345055017397248
-122.0,19.9524264488877,2.2245562770970633,-17.72787017179057,-11.049500544973125,18.870435885441296,-7.722879181864199,-18.0502510292577,10.658530625814144,-3.4672937441920553,-8.89053436832133,-6.537628299596953,4.424886421893783
-121.0,-2.7097589108679934,-27.18554263924579,-24.475783728377777,14.913777643679119,10.925483292807261,-25.88046086937322,0.8377119869813896,-4.355588275077677,-16.554902069103797,-14.420143271300187,-12.326053390423155,-14.5257273580992
-120.0,-14.21637714305783,-29.968030608148148,-15.751653465090364,22.144629819812877,0.7404478648863488,-22.908890790341868,11.173988473673289,-12.099330765386124,-11.11762741020349,-17.4291692130019,-12.420831793450432,-10.765030449126558
-119.0,-10.515706411803222,-14.036582114068803,-3.520875702265659,12.25737736280523,-3.5211459849365383,-8.748135001108476,12.696844330137068,7.973455192874564,22.540710261870913,13.80316635471923,14.128293862694335,6.829607145212445
-118.0,3.4540042346748354,-14.607722376122066,-18.061726610796967,5.563473191874241,10.731218876436051,-16.3033304459912,1.8268559046778439,2.875700281998589,10.705604599369547,10.601439570194636,4.242255600051013,8.820797714634322
-117.0,25.210879415022738,-10.827271252088673,-36.03815066711144,-7.2038329575554165,30.590107347531156,-23.400725555755983,9.002477889849887,18.90177098334457,5.940180817867325,12.762499621549399,10.713962482546485,8.063864635691601
-116.0,-7.8651659894085295,24.105007505444696,31.970173494853206,-8.13533721996047,-19.882571302607225,27.991109322526885,-2.421562946638587,-8.984915395896365,-13.132428598512337,-2.910154546128841,-6.927255087454496,-5.9879774947468425
-115.0,-26.308721963794532,26.623190453885684,52.93191241768025,-0.18006745484949427,-39.59207290469231,39.73101293538852,-6.678468762762385,-12.310296307626324,-14.504934546057367,-16.675035118240036,-12.994219738538108,-13.238262161595852
-114.0,1.3580599676580842,10.00047697501401,8.642417007356016,-5.632979806525102,-3.6156293238781743,9.353388047788556,-7.067444798857383,-5.5307721216364465,1.0820369743395357,-3.8420662706549065,-2.0983332446384235,-2.60117438064215
-113.0,23.63782318765865,-1.9302019762389975,-25.568025163897545,-10.817226057987645,24.63350296053075,-13.717434875003278,-8.952577844425253,11.91110266208506,12.836370002864589,9.809289491757973,12.494788702474022,15.52395948692217
-112.0,2.8181182902099575,-8.895196564330883,-11.71331485454077,2.988246053656483,7.225615889917639,-10.272724606475752,-0.6963543900728606,-2.5319676087885297,-1.109263506430267,1.9976577136492084,4.299810205576947,-1.1205327744206066
-111.0,-19.229293381932955,-21.630323826460206,-2.401030444527281,20.452464222931752,-8.445089675168955,-12.063042415820094,5.6763520229564195,-5.239146086580378,-9.108972281902233,-5.9024303500298405,-8.688475607228987,-10.605078036166624
-110.0,-4.2475293757994175,-3.865871597952246,0.3816577778470389,4.075805072739065,-2.338214650099639,-1.7898160049905236,6.098462857526718,-6.010030875308983,4.897186098209987,-0.27184524730793636,-1.3787235319076907,-0.21556008771992197
-109.0,20.64048274764056,24.854806975707533,4.214324228066764,-22.80908841897245,8.193230619823042,14.56499161756442,-0.6221660286979267,14.61922793728161,6.793990474734413,7.195137431847282,8.193537214992133,18.987732349867294
-108.0,-11.425809517944419,-2.1246401244521254,9.301169393492096,6.79201264001447,-10.304788842138805,3.617882918132226,12.23239396015554,4.202698222486642,2.1837894280460786,1.0154838901634706,-0.5798676754080958,3.7218499149874953
-107.0,-1.053276631913212,3.2929983683721966,4.346275000285336,-1.1025182730285508,-2.644729448358227,3.848319519438676,-6.222843712366251,-1.7869685471090468,-2.1609199701009922,-3.445472844920049,-1.1626750471244982,-8.856339987002329
-106.0,1.8190468930892911,0.4337545592198464,-1.3852923338692844,-1.1074118664072685,1.572274765715324,-0.5269502886867408,-2.0301247718388495,-13.161409570525704,-4.18011275952185,-0.5874851895037576,-6.246783211598576,-11.562257041079324
-105.0,-3.0063855270409725,-13.504214384620687,-10.497828857579316,8.198284432392143,3.7082343760176473,-11.974762181105099,-2.216496484959632,-2.70665507035023,-14.947720159534288,-8.106814430909997,-8.978927467205285,-14.642424481702266
-104.0,23.282066844008153,7.494767071294255,-15.7872997727134,-15.363105223840474,19.4897050520756,-4.199945540892146,-24.407112969743817,6.634297633171622,0.34464705964742937,-4.680689760120259,3.075969595023336,7.940236820642864
-103.0,-0.41779491322891626,-0.05434794459779246,0.3634469686314006,0.26507475079572407,-0.3623353305349548,0.17933968345832474,8.802541261148585,-0.5822689059064321,13.6386275053427,14.759108840412999,12.105395950961551,7.456526600109683
-102.0,-22.49362796120024,-25.93978624119025,-3.4461582799900308,24.24837935763487,-9.497064956596047,-14.666518476787603,19.292280151266873,4.717291383041676,3.906754708549741,1.5062059637417713,2.0653499356736997,1.4529011537835537
-101.0,-3.640884407961801,12.491548143363513,16.13243255132506,-4.471981832197354,-9.85670393458198,14.264054344250482,2.807581432741003,12.611860273597028,11.362315709898793,6.204406991806263,6.089819543578665,18.111773596751913
-100.0,-10.41233655301806,11.57022016898284,21.982556722000492,-0.628122787715713,-16.238527353409097,16.814148085496836,8.66624902766613,9.960711359633406,-1.1877882736822998,-3.487627791621937,0.25270974504532107,7.994677924212264
-99.0,-5.0156978384124145,5.2810515406553495,10.296749379067426,-0.10831503794720732,-7.608453859786935,7.83490582751571,-4.6703274156028325,-20.144007590273535,-12.654917021362488,-7.216000478100431,-11.559658547984714,-16.197797412977334
-98.0,28.708001953608346,4.984778432880702,-23.72322352072792,-16.828581535277113,26.19413374323101,-9.394682657185601,-27.248810567415923,-33.97128730209287,-20.604990555075887,-14.155634557625309,-20.26976350558175,-19.54181637383081
-97.0,20.24079284936264,2.08098448891675,-18.159808360445975,-11.149070184024419,19.18490293565977,-8.061036990678046,-0.07760823541074657,3.9642391375230446,4.901341946231357,7.463468284831293,9.91039493599636,2.2059085544764834
-96.0,-11.532614073930796,-8.734506232012992,2.7981078419179095,10.141755253143927,-7.1796204902028435,-2.9911242355965015,9.826636382408651,26.565856111690497,18.234387172251292,13.863155287725949,16.758102150468343,6.350288642065534
-95.0,-12.301970875708504,-6.0786470673045585,6.223323808404245,9.198432306518278,-9.280263321927452,0.04288894364724172,9.170730814295894,9.9572322720876,7.51711578515428,-0.1840248359130321,2.875852015223308,2.4014874394437324
-94.0,-14.969136038424079,-18.14528912533989,-3.176153086915411,16.490451220526616,-5.919668479835324,-10.621552727720506,2.039369857939131,3.3046231171867078,-4.791768765260694,-6.522879257269457,-4.995508342145432,-0.9275876532921901
-93.0,-2.9666603867690746,-17.87512906153679,-14.908468674767544,10.440310254185892,6.021893116481912,-16.363676762892855,3.8466507945083612,-6.4543326583623815,-11.615347852311167,-7.491391567183376,-8.845295283539107,-4.940609746949207
-92.0,4.8081394882899575,22.853069838203535,18.044930349913507,-13.801275085296146,-6.5683143680053515,20.467936932045564,5.062087592235295,4.117631519060274,-1.7031740825189035,0.5655559465998126,-1.5858985413056694,6.363498364892299
-91.0,27.756694097018084,40.213507278755344,12.45681318173699,-33.94507981686367,7.625111866737176,26.270017401679844,-29.318087268556575,-20.35056420131852,6.737667674546496,9.438283525531814,4.166782696200382,12.152026411321767
-90.0,-4.790042075507101,4.38226917098922,9.17231124649604,0.17453175051408287,-6.998343172494428,6.7901807245119254,4.915865224928861,-3.087148989586318,-2.7275722843731334,1.9811080055898431,4.934852723874236,0.22168495506847652
-89.0,-6.619115602409545,-10.435893321047164,-3.8167777186378067,8.504300970241264,-1.409281187031339,-7.110117852879024,2.871892271547081,10.523767369394353,0.4598181464862845,0.6163461169339561,3.8712901999601463,-2.7117684028111584
-88.0,-5.2941090700338425,-9.895491571413485,-4.601382501379717,7.573514154112375,-0.34695388279362094,-7.226579202265289,1.9042501518827866,10.721857297801755,21.301787504197197,4.441675824302424,3.2609417437425674,-5.4181673975052735
-87.0,7.07774395840099,-5.076921139870288,-12.154665098271202,-1.0237152246096723,9.619210786265388,-8.58843736352145,-1.7871856456547173,-6.494274997960401,-2.6541434890678977,-7.57383895375045,-8.585893319793275,-11.874903295422044
-86.0,-13.059512006924903,-35.581608314503896,-22.52209630757894,24.371468223566037,4.732822299556106,-29.10031139174886,24.095612878549098,-18.95596205977503,-28.30230123534773,-18.9062139254803,-17.68483412877354,-12.539285847731026
-85.0,-12.223825115824981,-7.005386606097266,5.218438509727823,9.660277761276676,-8.725783835230313,-0.9430344613793658,1.1027802860384348,15.403020799663771,-13.737796279934535,1.1033411492221195,-1.8761168606803267,2.585830767252448
-84.0,1.931807388730736,17.832120803726134,15.900313414995477,-9.919523611043612,-6.998084392368918,16.890376590942804,-17.35031827850514,1.1828574800614247,14.27711536814815,10.280324346221994,10.672392018021373,13.039662643197891
-83.0,23.760525612011854,33.22431619225594,9.463790580244272,-28.533042690649157,7.1248377945309995,21.360902721801224,-14.23443077352543,0.8059397670294315,18.99412972169682,22.25090532807923,23.939940506328128,22.999433019127416
-82.0,-2.1640500222683468,19.530579855692913,21.69462987796137,-8.646866067907622,-11.88194105719635,20.622320476683328,1.2936113792052382,2.7451378798172272,-1.535082133715031,-7.923282175106634,0.3647677193680554,5.383503481350159
-81.0,1.5230807832799353,-9.80277328694604,-11.325854070225938,4.175319574630301,6.46737226862545,-10.559322735865422,4.985697328348909,6.824214831652045,-4.5569014061471425,-9.504326920402695,-8.576341415896543,-7.557779177321877
-80.0,11.955676840192773,-7.2813727489240065,-19.23704958911677,-2.381147235435609,15.559353502510602,-13.255345399299081,2.50560388375688,-10.134553181617804,5.5275851143799155,2.4915574760055734,-3.584230272013147,-7.95351155630882
-79.0,-7.32661569743378,-26.063244451018885,-18.73662875358503,16.650079186444014,5.668823503188928,-22.39372903986051,7.351288123889167,-10.548607450305342,3.7850486514596886,1.6640606975616623,-6.880721450533259,-17.31530245233222
-78.0,-15.378025774536885,-8.371214713641892,7.006811060895137,11.907570253308677,-11.149079247004305,-0.6713458379594375,9.244249722004232,11.48304424115683,-6.15505856040816,-3.430792964457691,-9.59320627879806,-8.82598029069069
-77.0,-11.84212279402939,0.28390869403344965,12.12603148806304,5.8113029345421925,-12.020712559595692,6.142513424623454,0.8908730402578762,7.137157003026717,-4.0127262697832045,-3.871550606874564,-2.799889148300888,-0.20359322374377609
-76.0,-5.905721470982121,10.900190198252341,16.80591166923458,-2.465364787178525,-11.318104212958996,13.874397060574879,-11.171802186707879,-12.461392740286094,-19.82680805727653,-14.628171332767945,-1.1465000926344933,10.185771805104771
-75.0,18.267246931223042,5.890802512817823,-12.376444418405258,-12.125786819774937,15.273156153206283,-3.2172396963274945,-6.864599007465498,-2.3077413601912915,6.8701804991647775,5.830613250181293,10.349801069786519,9.920056259229643
-74.0,14.012759355524494,-15.113125313010253,-29.125884668534848,0.5039164093544244,21.589521448229174,-22.169011355576274,-1.523411173887511,2.4386552457484774,14.584633401912713,19.341970425620072,17.08439451317673,9.586037170924484
-73.0,-5.4868474071048094,15.185872373474249,20.672719780578852,-4.816062497890126,-13.069814403501127,17.962127725690117,0.5403052262849308,1.3214597896200202,3.730733500930927,9.827209286975188,7.678297042781296,2.4717711033731726
-72.0,22.891344289165698,21.159961775889556,-1.7313825132763245,-21.990446726985596,12.312844886812904,9.750857777630962,0.19733250035332484,13.299671773453165,-15.638425745673814,-16.461319244581208,-15.112939971105273,-12.71741885491603
-71.0,-33.29872348077061,13.114482196602667,46.41320567737323,10.05147426750305,-39.85941131783757,29.725152071884192,6.202823795954255,3.5092763421172926,15.562920849487547,7.6148273854386295,4.121697683575083,9.319700290448447
-70.0,-10.088780597353448,-3.761872623599525,6.326907973754073,6.967590218226117,-8.21157509848784,1.3248586192992056,-2.106214684354513,-24.704724039241537,14.37529603224527,5.769885708998061,0.6552511000569297,4.0314639022738366
-69.0,-1.5426003377530648,-37.44876510273187,-35.906164764978506,19.464382105931392,17.182538089692695,-36.7138711962585,1.5826432371054284,-21.37889355477917,-8.178631440477258,-14.328953351561541,-14.382103069423453,-18.17653351845545
-68.0,18.631826630701596,-1.3364654522953394,-19.9682920829967,-8.67332347812387,19.30923595308284,-10.691624843936356,-3.3738138193067533,12.241697967976194,-9.328417229420651,-4.363855773593893,-2.3444227522229744,-1.7800477344843957
-67.0,15.196534268167861,-1.8365840401703846,-17.033118308338388,-6.621482651290786,16.134764284416743,-9.400642422566413,4.981231831666717,66.91991609431116,-30.174933698112703,-25.453686983495277,-16.243736439679918,-10.83492600415419
-66.0,-5.6210578509357525,-8.918961397217014,-3.2979035462817734,7.2540722747385,-1.2092390133770285,-6.0806324734410016,4.237745373162359,-23.55128062025842,-4.906600291621768,-3.8418710491685175,0.07325024656739143,-3.0953575566262796
-65.0,-21.046380391762387,-4.489002918220657,16.55737747354118,12.754328947593905,-18.761056028698402,5.977578561955993,2.613296676168555,-28.689910171173594,37.71943527112871,43.19270741980625,30.556547238353886,13.935332381165386
-64.0,0.6444627760628308,13.388912123822465,12.744449347759495,-7.029612755069763,-6.0808039672282455,13.085626695605688,-0.6771971195287096,-8.894142438247595,18.45504298269392,30.654969156174992,14.947403078592519,13.181685776758673
-63.0,16.336202651755702,29.862096679953623,13.525894028198252,-23.113775910833482,1.3784664920451242,21.71310606783424,-13.827703858181806,-1.5778961598273913,-6.893373200636777,-12.35879947233062,-4.828637218097095,9.287221125550907
-62.0,2.352947087924732,1.7818716418282552,-0.5710754460959944,-2.0068060097948415,1.5155681924300297,0.6276920140161089,0.002295082588421593,10.788071321891358,-16.271594234753394,-24.32458134547814,-8.003772781548369,3.439553852001245
-61.0,-13.242104696742144,-20.63516291815685,-7.393058221414282,16.915581335345514,-2.9500764035170577,-13.987133247233484,0.9176753175626293,5.907455972810573,-7.5799612413051465,-10.511449035926784,-1.8783235490453993,-10.167156557047804
-60.0,-8.971248709012867,6.493984893472431,15.465233602485444,1.2096598919912216,-12.166441408561571,10.931980870424114,-1.3701839378151979,-0.7615507824721446,-0.15738968744376614,-12.313342514646633,-17.7935417072797,-16.048401883459753
-59.0,9.143699033192044,-12.870544933169967,-22.01424396636202,1.9065427185508375,15.55028866891073,-17.48794702549992,6.7201517693079165,6.563722239949985,4.72010929978812,7.312488713003067,-2.8245442262817324,-13.632560841978647
-58.0,5.006685655951447,6.307472897550477,1.300787241598817,-5.6998448894575695,1.822880125419255,3.8371825960666293,3.2209668142639103,-3.2259841283206434,-0.0769910901865507,8.018282549243116,-2.317178095273584,9.610499996919081
-57.0,-1.9594354985813518,11.530820001930607,13.49025550051143,-4.7569627593073776,-7.755141945549644,12.463858856584443,0.9625571808523965,-2.86099835596756,-4.746541508831762,-2.8019148086129597,5.642736117404617,16.27947068617378
-56.0,7.592262843369627,13.495694394483197,5.90343155111309,-10.522089256213322,0.8946438413401879,9.732015307886938,-9.260027005860996,-7.770876625670299,5.775784121313684,12.54112703565984,16.66044439461714,-1.117882731551072
-55.0,5.727458659293946,-8.338509731726312,-14.065968391020618,1.242977912146174,9.872382571398216,-11.166298311252296,1.4479421349587787,0.5368262687803291,7.079863188987696,12.094627156601744,9.278459105281428,-13.844065126335995
-54.0,-4.8486893171340695,-32.90237014798905,-28.053680830855082,18.888064067415897,11.662932003791468,-30.435348442093474,0.27571056783411185,6.953944481945122,2.6459388576560605,-7.117662910279492,-12.282553807120397,0.629675763653935
-53.0,-11.47124303164486,-29.670186622094626,-18.19894359044988,20.582342074704243,3.3515397138578313,-23.962488392537107,9.841016283688091,8.143299956441368,-5.305845367135189,-6.477106763130576,2.5098419261661515,17.295861251624878
-52.0,-10.790117299478917,12.26344226429762,23.053559563776624,-0.7229617632876097,-16.9308509792595,17.637005480788538,2.224940538920514,2.176048693494281,-4.144686425968313,-15.177200509790836,-0.7985295133252155,5.034274421620173
-51.0,-0.6766207999313201,33.2665889778024,33.94320977773391,-16.27686565231477,-17.320879953883143,33.585083619390744,-10.33075227196118,-13.42415217403016,-2.0544548771909854,0.28940652160833125,-4.206591788381531,-4.288901388567097
-50.0,24.43582144169553,43.41511400507638,18.979292563381176,-33.90205818796216,2.708877285162586,31.17283495465754,-3.5592826948262255,-17.79168133863839,-3.3637741685797655,10.718907065332957,-8.051671786323563,-0.4927928155613186
-49.0,17.51420500238815,7.233514945537198,-10.280690056850592,-12.424846687653378,13.864065725999943,-1.4791543393017648,-7.10659963086232,5.732328519348309,1.5350867167787587,0.6648603057078502,-6.533852239109951,-12.05404432062944
-48.0,-39.04230140240317,-32.679650766069685,6.362650636333763,35.81200674717536,-22.67367041193416,-13.205183709151424,14.195224644400923,14.965501373803399,13.405736146380226,13.15688182158492,19.96099973873966,1.0793328032960003
-47.0,-11.016218883407072,-51.36640480926658,-40.350185925859535,31.2203397507362,14.680893357507896,-45.836903766142974,-1.2269321984406965,20.194109400994375,-3.847812388704699,-7.446229056917716,-5.039464583119239,-29.972459226339655
-46.0,8.999476661627927,-23.06445275721854,-32.0639294188468,7.058527805231098,20.536452371447112,-27.547969758017835,4.276433810084941,-1.8701984025273894,-2.007849768939865,-10.55394034886838,-8.02331847673899,3.170912794754458
-45.0,24.261075327648538,47.91818187795987,23.657106550311013,-36.06779498359046,0.30585387459312763,35.80637419065608,2.9498252898635933,-15.689974986328384,1.1542932554733176,7.933875790043148,13.254912256169892,50.093959234456
-44.0,9.592937904488888,12.014136119156706,2.421198214667733,-10.786178189396166,3.5973499380068663,7.246363782733821,3.9475137747556746,-8.910841461047017,-10.766857180822981,-10.141821051279841,-4.781353411240895,-3.8556731154684876
-43.0,-19.050901409396715,12.217828176305607,31.268729585702413,3.3510657836342634,-25.13437007236267,21.708158551294503,-1.0004405762630806,-1.131341405586591,1.2042325189236642,4.069046344108941,3.460625816123494,0.8904507173890135
-42.0,8.080905052598137,14.611141928014296,6.530236875416396,-11.335895424717677,0.7386292064124085,10.551651420485554,-45.08274695897373,-8.235453697519272,-6.739819192028598,-10.414661650615475,-11.786537250850785,-18.62274695614453
-41.0,-0.46563869769584176,5.495830962702262,5.961469660398434,-2.506541599633941,-3.2350989131887524,5.723037991067281,9.601425252054543,-1.9764599573057795,6.171312401880292,6.508184874010503,-3.8809687440844027,-15.25211276751772
-40.0,16.710950332565147,-19.114092069000876,-35.82504240156587,1.2109435074241572,26.256958280919665,-27.467041911547206,17.148900172096248,11.759868418697705,11.741653292029037,12.478607642082583,8.860848347778393,9.138294342894685
-39.0,-23.42311489196363,-29.164547910180687,-5.741433018217116,26.307190389002095,-8.847650754985473,-17.44847585754707,14.955576529887148,13.11889865511589,16.72319053147169,10.6271714382441,14.099201206595957,8.576705840114107
-38.0,-34.44542877806711,-18.576782078614155,15.868646699452606,26.453282075154878,-25.08712132126528,-1.3528513426935067,10.911252776264146,17.56514414627725,-7.351407577882228,-6.166457792193221,-2.4358865468617728,-1.0373741371465375
-37.0,-22.458641550891343,-1.4488424289474704,21.009799121943395,11.985550715642976,-21.750064320752195,9.775154669331455,1.425795284320694,-13.971728417728029,-26.60456447273535,-16.495968590199922,-11.161320191534669,2.3413536811105478
-36.0,18.078546857796844,24.635873102178223,6.557326244380918,-21.312367507574727,5.734749815822621,15.583947993651993,-12.466712429775411,-23.66494128184262,-9.627095348215576,-0.5561554602568712,-6.289339370451408,-5.66406464090238
-35.0,60.3517754230457,33.576552654584546,-26.775222768461163,-46.98493270681422,43.526881864976055,3.4607381542806497,-13.08886734591649,6.718654290689136,20.2331455734476,11.665618227377987,4.657205901732064,11.817463076214604
-34.0,32.137111019932206,-9.008784248416273,-41.14589526834797,-11.574238810994053,36.67429655194368,-25.099547642834494,-1.0423494942228455,12.120896410879812,9.543172854970068,-3.0100841963996454,-1.0622972778525706,-11.857175842564942
-33.0,-3.4402009156093776,-22.764211473787647,-19.324010558177523,13.098049919066678,7.968370407657584,-21.06721499688703,-7.812586972092087,-14.620797720920116,-0.5277051193871127,-4.191176243530064,0.8048856437252189,-9.209934885735779
-32.0,-35.981056439731994,-6.158999698203589,29.822056741529202,21.065722745001366,-32.87777969530519,11.809465798132885,4.139031333637257,-6.081686768612984,-10.645798502097769,-4.065792008674522,4.719955116261527,8.938026957728248
-31.0,-23.989285718593198,25.015726788201235,49.00501250679493,-0.5234622291139033,-36.551600410122106,37.068879970357166,7.612359098272391,40.500442785976375,-6.389022777292563,-3.3357244685110583,2.539779591895517,5.695300925446164
-30.0,-44.9443940607087,9.76193243833257,54.70632649904134,17.571141433478196,-49.79847836871678,32.21524440419661,8.506614425828174,-34.5363412152695,26.15970301785628,29.601639542259583,14.907974305195264,3.6463224192217285
-29.0,-8.578995950826585,-19.71052504444959,-11.131529093623367,14.192593566008824,1.2277467063054566,-15.440080903146391,10.73129075915156,-13.034589700652022,-0.6816254395020582,-8.935425084276611,-9.364342780451956,-2.376089574328781
-28.0,71.15102202740121,-10.868680821959941,-82.01970284936162,-30.180832048144204,76.61874877290573,-46.465584830374446,-15.385531674476821,38.54835605787775,-38.391595471833455,-36.132280644968965,-32.10034075872468,-13.871609408489153
-27.0,37.924093497731526,-6.351274935266026,-44.27536843299794,-15.751765920307218,41.135672029527086,-25.260629811390256,-18.768396660535707,-35.87200696570278,-5.5603369683997155,9.276795321177344,-2.980141928876593,-0.6966415046668226
-26.0,-14.577590184016106,-6.9431749485952245,7.63441523542086,10.79558029864436,-11.146759522162313,0.3128274744412103,19.1270798874992,40.29657358841356,30.452368384474624,27.26913857875338,20.26765796000925,13.005204790237508
-25.0,-29.3520658977245,13.77182030163057,43.12388619935515,7.751200286611738,-36.276746683913984,28.485511485069036,6.013752365526704,-12.003559399791563,14.846260815582633,8.788154858937894,20.725192203644035,0.49220785676175627
-24.0,-36.16912083752727,28.615696634054604,64.78481747158226,3.7444230551604445,-50.43455067662452,46.64992975878169,-1.2496129669689378,-2.968804847969868,-10.162975600296424,-12.242057926529451,6.35548906322987,6.045069863477299
-23.0,12.312197135909592,23.617475161882695,11.305278025973568,-17.912125053607774,0.5490513147157507,17.480329133008627,-12.493261998153974,-20.60155626791403,-8.564805013569817,-19.128644858466792,-22.543591569502006,-3.365510848696281
-22.0,19.749002002879767,-35.536143256444724,-55.2851452593242,7.87153267321859,37.48761666468833,-45.40065133338703,1.7042422886026092,-22.22776290086551,4.48265743493356,6.1187076962784435,-7.110741048630717,-4.517268614338606
-21.0,31.809649174619036,-27.761446284518776,-59.571095459137766,-2.045169903347131,45.664453127500984,-43.66399050123799,-1.595142869764478,33.3332095014329,-5.734781538008922,-2.196173863857263,-0.6859263026657079,-15.083569994732741
-20.0,-47.46447855428552,-11.49739895713275,35.9670795971527,29.458252908844518,-41.73924837326663,12.231339594307105,15.999207898468796,20.439409935961756,12.324867358126982,21.4362158738083,14.6259571290062,6.6098294531691
-19.0,10.545822932867502,4.862881542641441,-5.682941390226241,-7.6511371537974195,8.170159595622422,-0.4167451064365262,-7.338844118143262,3.4197262428665507,-30.950339076403914,-20.565394918167403,-6.57998888481046,-11.640885724929674
-18.0,24.863827062414956,48.415727121699334,23.551900059284016,-36.667795172450404,0.6308939037305725,35.977050242299796,-10.921923040754393,-8.602153829080873,12.150357510378555,-1.8886561085202231,-4.320739027789886,26.493246200733726
-17.0,2.759253277067674,15.899254542206275,13.140001265138036,-9.27952769658722,-5.141704760508459,14.516480633510062,-1.7925889101632868,-17.935234600762335,13.672797637319945,10.301785269888711,1.6601842910806834,9.466959945324241
-16.0,-20.511077346415252,-29.2691210040968,-8.758043657681826,24.861729439015253,-5.914349261121867,-19.009249632323893,1.1843349028777725,-14.01541508570853,-2.3258212669585365,2.669960846963366,1.9207956723229858,-14.763917247855897
-15.0,-30.49386248705126,-10.051184900553348,20.44267758649808,20.245745319104355,-25.5156860181175,5.211060941506855,21.656680279490157,16.31174880363085,10.580238879955353,3.3597428942203678,10.200071544226562,16.953294176772133
-14.0,-6.046107986536015,-18.43548839808321,-12.389380411546696,12.294094839676132,3.1932735310662093,-15.383723566528435,5.556111143198086,-2.1225027086667243,7.023876451992949,-1.4420790611115935,2.497859718130995,-14.748915028481774
-13.0,33.55469070702577,-2.019491458102956,-35.574182165128136,-15.793081998412658,34.57845853671077,-18.83278390016533,-12.891524735238221,-2.2440861993536863,-27.548248726841273,-15.404732673528263,-14.138590533432064,-22.405976753455867
-12.0,27.961691368641034,-1.4009640309255582,-29.36265539956623,-13.307677751371587,28.672608527486247,-15.404958343206898,-9.374291290083821,23.376305267861305,-23.837708398495494,-3.891436027868611,-9.188296635559494,-0.31577203542536125
-11.0,0.2231561284827901,24.452294378316367,24.22913824983354,-12.368254588395581,-11.991195221746871,24.32724907104889,-7.470455030175663,-4.1378265751892656,12.018575409605221,7.788886194194706,4.615409113294348,10.563461515044448
-10.0,-22.595683731041504,34.543410575737155,57.13909430677815,-5.92916799429306,-39.84981451411206,45.91173549922807,-3.542519724670405,-23.16654875223395,24.422445289306644,13.830058254933268,2.3357359171061627,13.956458397914744
-9.0,-7.792229306980024,-6.146426717954963,1.6458025890243562,7.011325565945748,-4.771824168749831,-2.2586401790486477,9.477154480356399,16.765091037679817,7.719513148625811,-9.0355794067525,-0.2334719229631137,-15.404429004639985
-8.0,-5.236216316030317,-28.963217628961107,-23.727001312931392,17.06167154891532,9.279788116427671,-26.358833756592418,11.751421622637471,-10.918098823764984,27.856793431123336,16.917486298686175,18.60830864894536,15.673046990342746
-7.0,-17.392370450608208,-37.17316876802489,-19.780798317416988,27.3233617904051,1.1560287761227803,-28.50058698037404,9.46451228088208,-20.925424608083137,-11.261984029608906,-4.214067336272558,-2.2369521533158796,0.30395681544822795
-6.0,27.170040675802397,-2.7193919028610267,-29.889432578663406,-12.26314417335867,28.572617366602014,-16.340462724618668,-8.020521577799121,46.354663657911054,-57.93959633038587,-29.75265229920232,-20.60060618105208,-16.854921733838253
-5.0,24.518405411114795,39.722588862118485,15.20418345100419,-32.15814779128917,4.619308613301614,27.493794714974133,-12.968841837511482,15.651275251564444,-14.220284625733235,-6.1514965139862365,0.8844122192898443,8.486371262730554
-4.0,-18.147124444812047,23.21142743242989,41.35855187724266,-2.491042076868988,-29.717251036418258,32.306044935296384,8.795545311656529,-22.755987055790374,27.428586994980243,16.48618219575012,12.36342422626429,16.029632805552993
-3.0,0.7998825897243735,10.557167094721395,9.757284504997669,-5.715591587480466,-4.528858718105281,10.173734227816867,-6.2281802841164815,-16.407482038296603,23.15962098832447,18.04500177223631,8.586832001214459,-3.84457088338892
-2.0,-20.121684935194573,-17.253016605156343,2.8686683300385947,18.731202405734283,-11.472939185791471,-7.175140266483812,-12.04034452006697,-38.28898517984856,15.172866220928679,9.37699409642721,-6.494146714623459,-17.463388769306174
-1.0,-2.033229975161727,-9.507650273668789,-7.474420298507052,5.739980223058124,2.739223750906232,-8.54853123856072,-9.621645578491538,-28.686282837146667,-10.57555286959368,-10.453348752361258,-9.261747333940434,0.9170604788586054
0.0,7.843929972775653,-12.32010954854524,-20.164039521321026,2.292847280203878,14.023050264223226,-16.21531295897386,27.219006822637816,79.02288532879228,-11.339192451279606,-3.3671765767981023,2.974750181975222,19.7363867670912
1.0,14.693210089920381,16.007412916514397,1.314202826593732,-15.367116959541423,6.634394461277657,8.691893604916215,2.423133090661329,43.626585826833974,-31.404319605112857,-15.00992289426839,0.3581777387792653,3.413674655942186
2.0,-21.032520149189146,-10.512287549937533,10.520232599251356,15.761509739086549,-15.745159250495437,-0.04214720030003427,3.951936832861077,-33.84882403786987,30.475202782994096,15.509937910651658,10.78775372931527,-7.730082173387114
3.0,4.046753526295305,-18.409018960177868,-22.45577248647336,7.172973658029371,13.29103835867209,-20.479887860224927,0.8354493415790223,-28.084761528541065,9.406119849542392,-5.2769006220091565,-7.337452395751656,-30.758986794398112
4.0,18.38376551287022,-33.933222398381346,-52.31698791125163,7.765146439510258,35.31866549735121,-43.09683193913176,6.9907653790068585,11.614612221952601,-12.995274239542859,-39.196335268576206,-37.646258336511025,-34.64673155829297
5.0,14.619133838537575,-9.06105754159887,-23.680191380136495,-2.79380442506475,19.122135020009907,-16.34488811267,-4.27995960089946,14.526251433982628,1.218027912525062,-8.094348508524892,-13.928790189735722,15.396819975279355
6.0,5.1834624170744075,26.180684931620696,20.997222514546312,-15.704170037745019,-7.933983790568708,23.61434104391054,-23.973816688255877,2.95056646971807,9.802487830191241,33.05445565283721,28.61057451852625,33.8484222200259
7.0,-12.698604085822568,53.727912715024615,66.4265168008473,-20.465386690984513,-39.51366471678627,60.10497001975634,-0.9521627789402611,-17.802171584241957,8.27160863900763,45.96058460640191,53.982809062132226,38.90121112397883
8.0,-34.83307201348796,29.04666406601869,63.87973607950666,2.936611626885638,-49.39075773564245,46.41639612541351,5.794991748474091,-8.414419281453004,-6.5846471858065,6.561750431790411,6.029093013615288,8.96572723002376
9.0,-28.19701766132159,28.423939209336794,56.62095687065849,-0.15275551188338277,-42.36937199802283,42.479866436570006,3.804377925526979,-15.370539970934002,-6.744498555184244,-5.645850644789045,-8.925286951307934,-4.613749772605254
10.0,0.856074126233402,-12.207295511288137,-13.06336963752154,5.712205546074916,6.995054306276391,-12.596712560787239,-1.6507052032291973,1.073086451174803,-2.9231521239276237,-17.105033631667375,-14.904981096032236,-13.285978857245462
11.0,45.72296780703516,-58.93894179930547,-104.66190960634071,6.562746991855368,75.14506868675971,-81.76216910184549,-3.3200848369538143,15.342406736403984,-7.137933693765704,-34.540919735708755,-32.19482041193754,-37.15612127914811
12.0,44.012414444940816,-32.25883431112815,-76.2712487560691,-5.926200460266351,60.1688121573921,-54.30859953405303,-4.6012298073428815,9.090061543507089,-12.992586033592062,-9.699099829234779,-6.261769162719634,-15.869273355846737
13.0,-6.40567026301456,-11.414030896866581,-5.008360633852135,8.934152509084274,-0.7559380150882333,-8.259249325660406,11.626546006642211,-12.458590351867999,-2.4444048533291474,10.623959060894762,15.494572894854741,15.42965540678927
14.0,-26.000947598761957,8.282449204086452,34.283396802848344,8.878861328483508,-30.127224168548814,21.30970499783588,2.6796952306504433,-6.569620986655569,5.906961476555636,-3.3023235386582668,-3.9595563091618504,3.11507669608163
15.0,-29.79431016151508,0.06912064735560364,29.86343080887067,14.879377985287881,-29.820328972888817,14.991670328832221,17.004639685888893,22.910254743979994,18.80728302598402,16.666692232085463,1.5532929643455748,5.247537902520646
16.0,-6.304973303208715,9.643402342776191,15.948375645984981,-1.6524197879596092,-11.122614227646597,12.823359923058284,-4.98129334383549,24.93498099253846,18.0311767945058,11.491682183728448,1.3621348342427506,4.019155971284096
17.0,21.07127135739516,26.456048843871,5.3847774864759685,-23.744002340776824,7.846593290634665,15.952780294767773,-5.388104184210542,-4.716548651361401,4.54049686098794,2.5667615756803244,9.889744470362817,9.175293444169965
18.0,2.424396011083722,12.602624075244673,10.178228064161075,-7.56766999956961,-3.8693375309857725,11.349753332756752,-9.515531261336516,-24.2398491875782,-8.766696931873586,-4.404338432023772,4.207438800231336,-5.107020710063344
19.0,-5.361025601239694,-6.515460324698035,-1.15443472345825,5.890069646330252,-2.086463006360441,-3.8714985057274856,-13.679561822637082,-15.686630547939757,-24.567773687357906,-16.40607181340057,-8.200991023603851,-9.980065571961582
20.0,6.653336236414887,6.834631235020037,0.181294998605237,-6.707145326048199,3.1872909738067223,3.472318994214718,7.1425404923048985,3.347403742027364,7.659287442988205,12.100419487513683,11.14520585576824,16.956656317928374
21.0,11.95494158786432,-19.77879170389332,-31.733733291757506,3.9547879007496185,21.88950875383472,-25.715618715583958,-1.0956585283726392,3.423038477015308,-3.604899333393563,0.27374917314986735,-3.8475293864817437,-3.985608882184504
22.0,3.571810102967785,-19.07768057303392,-22.649490676001612,7.722264355617666,13.091811739570355,-20.827577469725718,-0.22561638843298049,-3.8499280640944145,-8.238230719938578,-3.881604966468577,-14.805125292483975,-14.208506385115147
23.0,-19.91517547615277,6.061302178691015,25.97647765484366,6.978520148224286,-22.952589082477513,15.971131515374868,14.224092378206352,7.017221104071806,20.03980793303321,15.930322609712857,11.72843812522454,8.075445966468259
24.0,7.784811714481414,18.99232306820233,11.207511353720514,-13.415051784263976,-1.7103857324655625,15.127016044869043,3.1096683483338,20.48822381280184,25.998058952009067,10.524182020452903,5.215956275575918,2.1592829565239233
25.0,14.171609448637987,18.81883017272255,4.647220724084003,-16.524630917057966,4.765697411387439,11.75799452561612,-10.531448810419096,-11.079969892195725,-26.152745151931065,-26.881826031798006,-10.284701848051865,-2.319585838644234
26.0,-17.267988383837736,9.306879804753857,26.574868188591168,3.9447450636334116,-21.92049767972903,17.965199713440928,-8.730158545612692,-16.461426093857728,-23.130016115221032,-15.284520448849719,0.16647437694898537,7.970312341863272
27.0,-46.71619946103866,-28.62265230407482,18.09354715696386,37.703796787771495,-32.41076955287706,-5.318858839436242,18.14827919522605,-8.671458048966763,-0.7359691341288235,3.601218710198894,10.067676886245774,5.707326648266327
28.0,-4.2127821067712805,-14.054214110213806,-9.84143200344214,9.159256914061196,2.798709611709782,-12.00171000221246,2.60914190430852,2.2338311735242384,5.484307420466573,7.766418273391693,2.3081566738454518,6.675613037519304
29.0,46.603089896931095,-23.30007004961651,-69.90315994654692,-11.632170614922313,58.30517897663175,-46.57574933565927,-5.467051712457271,24.870066579852256,-10.974044886246453,-10.320705550231686,-25.439459950468965,-33.95286408413956
30.0,52.482469312925645,0.5293919035157613,-51.95307740940929,-26.567945829569496,52.180039473332386,-25.683508939554734,-15.30738247549601,10.737019482369849,0.3493564691770068,-4.579125495916191,-13.586272177409784,-16.737848960987705
31.0,9.325851077170466,14.765093877201394,5.439242800031142,-12.026944150771918,1.9744452186577668,10.135222815564559,-2.2482157203093767,-11.842752032511143,33.36826200184873,25.96375632875385,18.716556510212595,16.447172713831755
32.0,-34.61756631818505,24.27145064185568,58.889016960040344,5.197223839838973,-46.80878479098083,41.54144599831558,13.32883122115917,-7.343771502309751,15.110473398852502,11.854238643359125,12.965304602716268,2.163790634063796
33.0,-45.630615682275334,17.538821191617075,63.16943687389161,14.078034461804027,-54.38209328388679,40.401973686357024,5.375342540512577,-7.034986507886077,-10.13315932539382,-8.266932333597792,2.4780983533777317,19.392693634656638
34.0,-20.855309204518285,-5.234009038715638,15.621300165801756,13.006337079528517,-18.222871192958607,5.169603230189434,7.815761759056579,-4.5440499104458265,-1.5397625332137181,2.2440530050659486,15.041699873376091,12.598839855305881
35.0,27.155769307933106,0.5367205444114784,-26.619048763522198,-13.87781830886023,26.903006607738586,-13.061302107388872,-26.54314744732291,13.086083138704874,-2.8615867462640345,-0.9572019996273182,-4.805303707747033,-0.5595715770488265
36.0,-0.9130936135979582,-18.205892675623826,-17.292799062026113,9.53200418339142,8.207662172870496,-17.769538462835154,14.298672571912764,20.0710170763186,7.385379207454751,7.134077931684171,1.6354282791861152,1.481370592802358
37.0,21.617189148170123,-17.54652536025344,-39.163714508423425,-1.9828420822987622,30.33290011712662,-28.37891286091454,-3.4028174158169784,-16.462601639509835,-33.833537933806035,-24.270011713329144,-24.966134961776056,-22.804922173734425
38.0,8.465715782675264,-5.275971416835304,-13.74168719951021,-1.5435297291147898,11.128702713356464,-9.459380948203172,4.651248330814921,-17.885652260810897,-14.955021537546138,-14.45472559968646,-10.159601350487733,-11.576029525059486
39.0,4.179010445976074,5.294074385547165,1.1150639395715913,-4.766724859470652,1.4820490107003579,3.2487336965091576,3.1614206283113524,9.446965889765108,6.682999463327606,3.248966027472874,0.6108311255985628,-7.773828449180438
40.0,6.721967853835151,16.457534153904362,9.735566300069534,-11.623505554296239,-1.4742202746292903,13.058703509090012,-14.10988720104164,-15.720022068816382,5.552962234120375,2.5630678823875055,-1.6567419960765868,0.10761902093978915
41.0,-23.645705054341484,19.414415706322167,43.06012076066362,2.0784813075929502,-33.31681463918706,31.199126017953333,6.4466727439503515,19.005308877570094,22.14497966477209,25.13368552174316,26.429147047423033,26.27954477555286
42.0,-7.446329698027078,1.6756918956415152,9.122021593668283,2.9247356692321107,-8.245359617644457,5.442118621747479,-10.57326201402414,5.37208662743356,8.798549963824641,-3.8806575739966043,3.9124154946832164,10.10574639644611
43.0,-14.56635260470819,-16.07641056506112,-1.5100579603532456,15.36075457828901,-6.567053333128543,-8.823949372715209,2.6222528267538174,-3.208655001848399,-2.0151606169219978,-7.879422271859469,-6.489500013289848,-1.0144474578406655
44.0,-14.62982493265607,-19.22862339373161,-4.59879846107577,16.892173570875727,-5.055708874134801,-11.860184414174816,16.081983264691363,-3.140062414671344,9.361839724738708,13.388356362125982,-1.5343085717850995,-10.638866402083298
45.0,15.9888490363285,-11.517761525923254,-27.506610562251826,-2.1897888329441573,21.704239254518036,-19.532823593915953,20.562663623467426,0.4510800772271444,-8.420630791422381,0.4595571333284781,0.16214476261836097,-7.582840677470354
46.0,46.7086941675012,19.208128756115606,-27.50056541138552,-32.986944899305115,37.13601634532898,-4.164555677622159,-3.9957555647054948,8.911712631326761,-18.06420887566959,-8.18733799661737,-0.18214368596966413,6.78215715755431
47.0,36.82945635278717,16.758241443126117,-20.071214909660974,-26.818957570519764,28.479192922674606,-1.6754818856609448,-34.023032491960514,-8.244310099393001,4.397833451884328,2.7949638587524044,4.854445033525886,2.582220164435874
48.0,-38.94396106517391,-17.237577903461762,21.706383161712232,28.067080355716495,-30.296185031060908,2.212028123804563,-8.739719344367295,11.353459678698005,-21.44359345051333,-21.75309015867722,-20.213914951240067,-23.93692955721592
49.0,-37.77968017978832,18.18855928710779,55.968239466896144,9.849834714177948,-46.84234092352337,37.12958473443753,-4.888561030116788,-10.31804654779036,6.253329609063839,-0.26840907755183263,-1.1517848679975318,11.24288282099734
50.0,-9.497544628151307,9.820324999747303,19.317869627898617,-0.18841491394192822,-14.451375876611742,14.61431984345456,1.162906496681821,-9.17702058749064,24.077671085937855,18.956262512247164,16.74401080327819,17.705729943032274
51.0,-19.636476608948225,-23.351755816940248,-3.7152792079920243,21.542253216453418,-8.002324660935516,-13.57309916810868,28.651580878799262,-8.935308154484119,4.903453029431409,-2.642241972058695,-2.236810287583065,-1.719519847038379
52.0,3.979630913344325,-19.370164785353474,-23.349795698697918,7.660705845185087,13.70035444537396,-21.405492609866855,28.55245351840124,9.839636990720164,-21.100621671250153,-11.515280751369996,-10.851268726512174,-11.321250175829217
53.0,26.525164789175665,13.465852135653131,-13.05931265352272,-20.033875077206645,19.74409398252919,0.23068683447341876,8.970146595841063,1.7508050581919052,18.6563361946143,19.887879241530023,13.318931238086545,4.962930207893857
54.0,48.224233246065026,6.484287005093754,-41.73994624097146,-27.317223474105635,45.00536802911065,-17.606050697174698,-37.25754592665452,11.478561140785875,-12.31970048068871,0.5166710947160622,-0.2947641146956004,-4.330070237455088
55.0,17.674139203078795,2.2165118438996636,-15.457627359179048,-9.911056954402406,16.582062169025114,-6.6038872639632995,-36.095624785201025,6.376758248688485,2.8633872483306453,-3.9053515569382147,1.8069908940156914,-2.0965260095824476
56.0,-34.54339450085948,3.5118639519004917,38.055258452760214,15.46899987035317,-36.28730361208598,20.717583046405572,7.880010262898587,-3.5218090334351912,0.8830508336281708,-7.648565496487025,-2.4935396637705636,0.7384560476836401
57.0,-19.72860709549595,8.631458020367674,28.360065115863847,5.578510256173947,-24.031560959598107,18.50679344227622,8.798663644927249,-6.752838150440249,-2.520180329136535,-6.162674820504021,-7.29492607866421,1.037472867005791
58.0,-7.402339692654614,-5.254251315490355,2.148088377164356,6.277409119898003,-4.8349157842102315,-1.5406742343727906,-0.5548337043083578,-5.129029224321047,-1.8208452599374838,0.014046314020083273,-1.1418493874672464,3.8272072505717487
59.0,-9.294590142067895,5.398894791724386,14.693484933792238,1.9734607498115722,-11.964093457480288,10.063582068901411,23.959009464689803,-3.6868798492434927,6.945301585923455,10.358969731845036,8.90666762024309,11.573384916278883
60.0,-14.041332187383881,-28.985045711848336,-14.9437135244646,21.53630492113515,0.49445562641010765,-21.9388316420371,12.451957501800457,-2.3643202758963566,-1.273511015712306,-0.09382138564047438,-1.028610775619863,-4.033795722363638
61.0,9.120360296296676,-11.401381048845266,-20.521741345142036,1.1608146915800743,14.798323468854326,-16.00495827282066,2.56677132193727,4.043022351746541,-0.3136289004087077,7.22573596039209,0.5507214902455394,-7.7619498956839275
62.0,18.459194361120968,-1.269132335090113,-19.728326696211028,-8.656684014494603,19.080219596989764,-10.454180672716667,-14.634336116599643,12.326028963031202,-10.126726628635923,-8.892133206733789,-10.173915604442087,-12.15239969542639
63.0,23.939066495923097,37.961073015863654,14.022006519940794,-30.936567328081736,4.948461699231103,25.963667784675557,-27.84387262546671,-7.984075142112534,-2.0561230863112434,-8.061532065585538,2.309277737758332,4.949611567379099
64.0,2.3161925787219566,9.253200048760737,6.937007470039059,-5.774984668755771,-2.323314879631625,8.069248616231281,2.9393793835848125,3.7545747517627275,0.7813148471514646,-1.8979520489698922,1.7313795218059047,2.1458810478829653
65.0,-11.530388284801688,1.5897826868366707,13.120170971638474,4.976351268381419,-12.346245414676966,7.3267043140092065,1.7593686421770292,-4.323055732407857,11.245131208953001,12.995910584545552,9.550979477879729,5.636240920807156
66.0,-2.2071076652638606,3.1530833522382853,5.360191017502112,-0.47018338873808485,-3.7368395862737405,4.301415024403475,6.106095568793236,-3.2166707465701485,13.349800016781966,11.90477021880643,4.846876331241338,4.774576237326574
67.0,-32.86805660565409,-19.05130466571983,13.816751939934132,25.959790392281803,-23.306845173595523,-2.579642595849978,15.132136169078315,1.9707491706117999,2.7001711658021463,-5.510025813124031,-6.867666741677914,-4.952737552240595
68.0,8.872583436288682,-43.58852864119377,-52.461112077482596,17.355924939818934,30.614272704078495,-48.072790594333064,6.809338806400059,2.9231367303111933,-19.097060430761644,-25.361837321444135,-17.05252368272448,-13.67038510942201
69.0,17.449121390026576,7.395335449199063,-10.053785940827641,-12.42589625746635,13.771319350096572,-1.3039462814747296,-2.8085396338309954,2.1712956800921783,-11.087136473654475,-1.6803667740188555,2.1201868414360128,7.774460470378134
70.0,1.3107518708920596,34.97525553678085,33.6645036658886,-18.147562098469553,-16.15994446821705,34.34127520291524,-10.422429833552297,4.685870375963497,6.309103779022832,19.076813649569825,7.90169664480997,18.289846473407014
71.0,4.934232370299185,16.484641599279662,11.550409228980358,-10.713694465608405,-3.369779307077749,13.957623353611941,-11.234441996016706,-7.465008830250801,-1.4761011388448197,6.113587224351531,2.8144183975078962,-2.2119417953103833
72.0,6.172537809036108,1.6121205662778664,-4.560417242758218,-3.8944728346396245,5.386101286963167,-1.4569287368791475,-8.189777658299857,6.844314319221558,-3.495050777848161,-6.596424572014904,5.413334485927211,-2.8236820908963605
73.0,-10.329949482459623,-16.074258366086262,-5.744308883626281,13.204378224669576,-2.2689877011387445,-10.89299395925823,5.022642689755911,-9.682393289119736,6.364515110031006,-7.514237766243558,-0.8721866828068947,-22.410137108119763
74.0,-22.678575866675363,-10.935712310852427,11.742863555823531,16.816144052571943,-17.18198064395892,0.4197181002579242,15.055505170257346,-13.657109329730341,13.024565370004302,8.273214014159759,5.604560992419718,6.0385820621259585
75.0,-8.83706643802228,0.27670534340766473,9.11377178143047,4.297496994208986,-9.020860846038214,4.633548993520955,22.60710077417795,-4.863980248256327,9.871473684059499,5.407143013407579,-4.4187462555504995,0.5790678227910953
76.0,17.528969382879016,-4.958917640953681,-22.487887023832585,-6.259155623360156,20.045105273043617,-13.704136528040351,0.7094199026152168,9.350683358132606,-9.064897526098802,-7.141630511960612,-12.378726044254906,2.0732973894743307
77.0,33.93945590009017,17.1155632043784,-16.82389269571207,-25.57312318040547,25.341454515789096,0.16841584072273186,-45.39208780231195,25.03598192129821,-3.689149661450325,6.399394830315178,2.5328614739311925,14.547835293971836
78.0,-12.225201586819527,-37.930298972950666,-25.705097386131843,25.03708747261574,6.7005201511694406,-31.791545228939228,-1.7638387170501098,28.872204411937947,-26.231671089961562,-18.511706086061274,-10.60918709371555,-6.544299734946772
79.0,-10.420290407444948,31.33194156154707,41.752231968991225,-10.415142390706924,-26.046166410307343,36.570601516387086,31.22279420500474,0.39967223925018125,15.242975972827804,16.38427923129307,20.128448147661665,11.914525232401658
80.0,-15.999041584208376,24.63261213068015,40.63165371488807,-4.353687415604333,-28.273466252659162,32.58153437424282,-1.5907557756299777,-56.87360834265454,2.6822954387139637,-0.3800779927223896,-1.8413481525971083,-6.140318184050696
81.0,37.43161425215837,-10.831394661475695,-48.26300891363413,-13.257200698195724,42.81357279072436,-29.601543844462867,-25.52653200235764,-50.6527337978515,-19.61528047375754,-23.386974729867518,-16.19557271850558,-23.027071409480065
82.0,-18.951514621134027,-25.344685193617497,-6.393170572483285,22.192948838787096,-6.230410689407096,-15.850737008622282,12.048725872598427,33.97255769028182,21.061966518501876,9.760410938196312,8.334725850265821,-9.243184665989196
83.0,-25.68863916039757,9.348494344881079,35.037133505278945,8.139152671503615,-30.390011789787454,22.204743569884407,19.779596710901274,40.21126014943148,21.19232000893771,16.85105223292336,12.205971491012368,18.15150347292648
84.0,-13.64635884250826,-9.165056979541742,4.481301862966761,11.37822818550232,-9.090497522257124,-2.333191688097361,10.42990089869443,22.25683719434806,-6.458137185956074,-0.22624874311896193,-5.163705202685446,3.1956253771374046
85.0,42.99833564826491,26.754914078203257,-16.243421570061578,-34.901030664488744,29.591598520475443,5.266565923038383,-41.79375761434877,1.8346426214596683,-1.6774899719512144,4.0618933454071495,2.235266427617711,11.863027717953294
86.0,0.9186543737543715,-4.358921661891703,-5.277576035646167,1.7766692354450218,3.1425558075193383,-4.799389767411425,-2.3661395777410927,-18.245568588735583,-8.42697682774012,-2.2572268053606734,11.106775626274265,14.959604743884793
87.0,5.908362716172551,-12.837681366079014,-18.7460440822517,3.4438202160248794,12.28723410356369,-15.760758975397685,19.79486343456232,-31.416152928792542,-10.68498290127658,-6.420268285177185,-3.5157133380872834,-6.156990961704922
88.0,11.425535786754297,-5.066418214455982,-16.4919540012104,-3.1992564038161007,13.993399688950703,-10.81377111069916,2.530765741033023,-9.689638750933993,-8.664219841905826,-12.145592700514362,-17.763452367978044,-9.687473857263702
89.0,-24.02739509350015,-18.397068490128206,5.630326603371847,21.194227485444518,-14.795190017139525,-6.407885773312069,9.33594960128475,9.085722587736806,-7.745104864897115,-17.58046120920261,-29.27416325570581,-31.269219040875125
90.0,-16.408598775928937,-6.6120032260163395,9.796595549912439,11.573841355629305,-13.145146499825888,1.5720724264569628,-3.6727688263164255,-0.7754107429458825,3.739583083395777,6.708003921632645,1.6536260837192192,-19.724120099036604
91.0,23.45131050186583,47.22329194805425,23.771981446188192,-35.34870740891391,-0.11909079888284602,35.47510396681889,-30.663532544967673,8.21869126931817,20.638282265874587,18.460993835828845,28.3379233503576,22.80329512211135
92.0,-15.213227572577589,21.99927501836295,37.21250259094022,-3.400500612132115,-26.244755060235494,29.654402601961024,19.84023605499076,40.70831859361291,29.217660351317637,31.99149200957713,36.75543153792931,38.12338382692635
93.0,-37.249670976943214,-16.38819388756864,20.86147708937426,26.814089371005615,-29.083399751135325,2.274556826300115,24.17000915888557,15.375451320835195,10.361005116999792,4.389947034472701,1.3139511170571403,5.96907918061893
94.0,8.139815516786568,-31.84272305212701,-39.98253856891378,11.84655042052636,24.113077939981153,-35.964206056266285,-16.272642065786528,-27.76952345532505,-22.82105922203013,-21.109537231303957,-21.88994922260245,-5.166239266818131
95.0,33.573131756811684,-9.538549076031202,-43.11168083284275,-12.025729986472552,38.312990623768485,-26.306645188599916,-11.231055572557617,-30.51249100251412,-31.39289971754069,-23.101322347353598,-15.525055667164628,-8.792355266438063
96.0,5.077036679556141,3.6534413461049997,-1.4235953334507059,-4.380491989519483,3.2155160158397926,1.1279524351501387,3.224249763229097,0.7494011106432836,-8.291961789034875,-5.801897396981746,-3.089380314605595,-5.909807054088221
97.0,68.96435967081467,14.064639280639264,-54.899720390174856,-41.45992512101324,61.969403877490095,-20.406359528693073,-23.693055887979984,-23.728293357106885,-19.56710144715556,-16.687691310492205,-19.426163364355514,-27.41360561682512
98.0,5.473589653986718,14.711018495937791,9.237428841951619,-10.12568668014786,-1.8504114378906777,11.90811432832384,13.69484494029641,-3.746586365569463,4.558226712558532,-1.0969683490742612,-8.3228080940251,-19.335775380149844
99.0,-70.85632946786743,24.086531819911464,94.94286128777928,23.34399165081598,-82.95035929392509,59.53152550310841,17.7034685201248,39.99439076638607,47.287756953912066,34.42035816601233,28.48290720873268,34.447902109242186
100.0,-71.45977705186456,-13.634542856622346,57.82523419524233,42.58068677397188,-64.61490317606973,22.11836449900177,12.108978790800972,23.909374174058105,36.431196021177286,30.824274239626938,29.354766155717996,29.813940424566116
101.0,-17.344288771145628,-47.27350365957575,-29.929214888430288,32.34186605403988,6.322679523044549,-38.571067581669766,-7.440786260155842,-39.508139826915475,-0.7068639241549093,1.2652324534140185,6.241012237264611,-0.38092662002051725
102.0,58.22816511207113,-19.74180975233469,-77.96997486440623,-19.20769439745719,68.05522432136031,-48.897146471608714,4.7357055474524,46.29720644532962,-37.57822101001593,-22.229875787410897,-19.72157409583952,-18.852711393321158
103.0,41.361481417111634,-1.218890733782124,-42.580372150894185,-20.11063748809842,41.932478148533235,-21.85620073069831,-7.473634877922329,9.317032432016905,-34.29243009376307,-16.42465598203784,-10.41693777513107,-4.708773298067706
104.0,9.019835330946059,28.345401204251793,19.325565873305422,-18.71844712149618,-5.107926256707046,23.804007466449015,-12.792632932149122,-28.032075084383084,-2.896733518363554,-8.5168335702609,-5.697894496085912,2.0371940151545553
105.0,-9.310123090526773,51.170107886469324,60.48023097699597,-20.963771906562876,-34.847710827049006,55.79544058548246,-12.391703673161278,-42.24413384067401,10.155412718761719,-3.4511718572745487,-5.553289045331505,0.012250593706448765
106.0,5.606451282944736,28.93079325252712,23.32434196958238,-17.222888690245963,-8.890861462046088,26.098426566810637,-1.5597175675756474,-6.271938885253309,10.531828053426816,1.4760545349114897,-1.6000929927341683,-4.823352942304028
107.0,-10.576631343837423,-8.257948058359593,2.3186832854778867,9.38482673140753,-6.483813996927308,-2.9191176959473886,7.9157016610868,5.414448262821528,29.38042720234638,28.423183338621467,19.34763117224514,8.02397975990159
108.0,-15.234170320164495,-48.63154677506512,-33.39737645490057,31.98054884044736,9.11686995630879,-40.961500546872294,8.425893789586276,25.897473830555278,-4.665579691346295,0.1157062694924118,-0.5857226774539033,-9.566368119337378
109.0,-14.598017028752277,-43.636227727770894,-29.038210699018684,29.167196135718825,7.167864147068003,-36.35877550376672,17.760039028080257,39.09175622384037,-10.129566711222708,-7.0115038220345784,-3.4555369565004215,-3.6709413440163114
110.0,-9.39036575166419,-17.449477841247596,-8.059112089583598,13.393501989947408,-0.646772266159005,-12.770725438974157,10.8310737098746,-10.929061784875977,-11.626465391412838,-11.598853329333584,-5.165587563156352,0.7507779311513962
111.0,9.912732472245878,9.670075744520666,-0.24265672772543478,-9.817499903602545,5.092561448741275,4.701770370739149,-13.256222792588847,-30.239801425568736,-5.906301889542225,-5.081827733577276,-5.0251365591099315,4.195775243638799
112.0,22.963449974226837,32.799566102892165,9.836116128665102,-27.910620406895752,6.57991299681897,21.30841446909587,-14.187630395270922,-5.020943561017402,2.2945413598157574,4.127594158148131,2.5263870848679733,12.076167408735724
113.0,18.371707658124457,49.26716568222368,30.895458024099035,-33.85494548310904,-6.238838262318033,40.07187964920047,-15.085800778301124,8.476808510111702,4.2229171873441205,7.030088776681059,8.991898470118311,9.652304236116484
114.0,-23.249193668631207,-4.268381296733107,18.980812371898004,13.79380593340265,-21.160275066482875,7.344630548426508,10.06919329096445,-4.34370510849139,4.778542013284281,7.577247756738307,7.64188989290742,-9.60919521808288
115.0,1.4034625799236062,-7.496528483049235,-8.899991062972791,3.0739822995850976,5.196267093405911,-8.134510917767082,-2.729958486312963,12.404013274130829,15.13652523575904,6.5616067478998215,3.235898679741493,-2.23765969919482
116.0,-9.5866736284583,-26.17162370886662,-16.584950080408223,17.901954911657565,3.473350793129686,-21.3971724252911,11.850964873058292,4.2828557873299085,1.5891472097294113,-6.240648901785273,-9.050539590424004,-5.1988521485173775
117.0,6.154836998368944,-5.1721970343983585,-11.327034032767276,-0.4690866172303174,8.718578110139955,-8.27256809310012,-5.98314521127649,-17.598850083891257,-20.96096071177184,-18.46770421959045,-14.628031612072004,-13.883046864590288
118.0,8.633972764193278,0.4761145763139272,-8.157858187879356,-4.608286159202115,8.371375431821022,-3.789550530946995,11.985358857290555,-10.837989424432042,-15.711221174381535,-6.8891546701462625,-8.509232414390812,-4.2943943867996515
119.0,-6.988403976500638,3.9267738141598567,10.915177790660449,1.4835092371082368,-8.904080658617145,7.3883105438272025,0.9002464248324822,23.035456398913475,14.76144470881601,19.86897429251114,11.655698323147234,15.434244257787604
120.0,-10.515144675571506,-9.453912211697645,1.061232463873818,10.02304211474318,-5.827362831253607,-4.234939211722521,-15.277006550870013,4.103742559554194,6.991385286476051,6.7388860187718524,12.714360515096132,18.46380126144558
121.0,-10.705258229069944,-9.302283662114123,1.402974566955785,10.04901649410465,-6.021257403668702,-3.915294219676295,13.577461624246586,4.741826254889239,6.247971388786247,-0.28706177938243993,9.995840787986968,1.7497972140639604
122.0,13.099041806615272,25.94611079026209,12.847068983646807,-19.55097673993888,0.15587899144454598,19.348088153010583,-1.793706610383046,-7.16597573850866,-6.813489459422845,-9.707122144543817,-10.912671092063103,-23.770074880652395
123.0,20.173441210973184,-1.330474125504157,-21.50391533647732,-9.447466277721821,20.79145590439335,-11.387751383419275,-8.272328618541819,-10.955635060806488,-4.714629449674592,-5.856806185114808,-11.780545281830648,-5.33642905845709
124.0,2.60966744715423,-12.240318782994798,-14.849986230148971,4.867150848357865,8.766758969178444,-13.512354416059907,-4.521472766008657,-5.554624656312375,-3.901937211162247,-13.192612501682222,-9.558893138310712,3.2652766914671254
125.0,-12.324096487653316,18.86226951116923,31.186365998822623,-3.300382012438231,-21.790028953403596,25.06403843821361,-0.030055788946379947,1.578876991481994,1.5279270221096724,9.978879667777464,-0.027249362991414117,4.295440429514042
126.0,8.576986657262134,13.464435091717421,4.887448434455363,-11.059130289623683,1.8946411471829077,9.14536450451814,-3.5288602419750674,-4.7120792184581966,1.6489536600513475,13.024945909043506,14.766262240635854,6.387749076953064
127.0,-7.543962315391737,-17.331502360030175,-9.787540044638408,12.469534012555243,1.0953837437591845,-13.58280415395497,2.265454272251497,4.482951703697391,7.830879127517753,4.6634065124970565,8.947106143154729,5.456067913169564
128.0,-17.56190280360437,-10.432469650636078,7.129433152968215,14.020758440771534,-12.374171581858583,-1.6707638342211935,13.256865940093483,3.9124777534669923,-0.09659540839904412,5.21546589340655,10.279860082192606,8.157351044344416
129.0,2.179756513870986,-2.680652115360239,-4.860408629231368,0.26770969041187787,3.4854818034566826,-3.789508439202062,15.647686822451293,13.977131073663104,9.635829744713783,6.090383235132322,9.065220148713976,-6.594165466801522
130.0,-22.866591225722786,-10.39135602515808,12.475235200564615,16.564273624107848,-17.634754806970136,1.0207171554047862,-5.023636345764601,40.235915696223906,5.723101956715237,-3.188349144045271,-16.73771123806062,-15.512604307983645
131.0,29.262125557193997,3.8900254462313186,-25.37210011096262,-16.561570966856276,27.346209515697225,-10.68598640864976,-1.6741679080124472,24.274787034910197,-13.76795797433968,-16.074975779576874,-21.02081737716389,-4.674256173841271
132.0,18.831401591572686,-4.481599157354836,-23.31300074892734,-7.156385470375683,21.09760184092558,-13.842923395805988,-19.93004018017782,-108.84227755981814,-32.76558402811899,-33.69374633274535,-18.67091590406298,-14.507397229810891
133.0,20.17004467761123,27.208457976381542,7.038413298770543,-23.66400196304417,6.513328365240493,17.100922078867363,-16.966861235102005,-37.29846202092938,-7.599580788723491,0.8481941705311389,-1.6939544999282958,19.144992192690427
134.0,-16.188416389344326,31.298411292660248,47.486827682004744,-7.600563780571463,-31.806265814232468,39.37367076058783,-2.204403423357352,23.772443802816372,36.414464427655275,23.815655106090762,22.37593709143515,24.282326786246045
135.0,-27.32868379823777,-23.918088917273487,3.4105948809642967,25.66374114665964,-15.409279072612968,-10.269208961738386,21.78576491312539,31.910093880883,15.694412682819474,31.880184197781627,34.43356259571178,4.030962869314564
136.0,-20.25297736677541,-39.20798251047493,-18.955005143699605,29.696554468343187,-0.6017105668025362,-29.095263583853924,21.245180357813716,39.09586467466319,-1.4325966981995677,6.82491955455999,4.927611255242354,-9.95092610048359
137.0,18.34616709158631,3.5468387883324013,-14.799328303254029,-10.901249697582568,16.547546928665888,-5.640937453193757,-10.17884100648752,29.368578793757916,-15.209134072738458,-25.66017227700751,-24.253958570884294,-24.06589164770296
138.0,21.043338632477656,16.112744702743466,-4.930593929734341,-18.615384864836013,12.96435032395648,5.651948647614603,-5.335876595890142,-22.151303247263197,0.0013727563438417079,-15.092421903391612,-19.580531564269325,-7.340820750778557
139.0,5.102465933094507,12.183542812358546,7.081076879263876,-8.687348201140445,-0.9351428280362786,9.610256410384046,1.6365933974036508,-20.73300707665434,-4.551667768922651,-4.525225485779631,-4.512794786990089,12.790305615717775
140.0,-13.103271396682459,-15.102462054286914,-1.9991906576046468,14.129395897565566,-5.582863523325699,-8.576428254863306,-10.621877520027773,-15.777512426679131,-6.37611968893002,5.17000272577053,3.300294271469032,1.0033442810688857
141.0,-4.691447381859419,-0.47438418574785346,4.217063196111346,2.603419311748392,-4.494146219411227,1.8441446384196811,-2.6354878779331523,-2.163271295707986,7.91888703674505,19.804280053533127,22.59402323460438,9.081867988001104
142.0,-25.06856283363995,-5.8210658298857,19.247497003754027,15.463331538743445,-22.12880684899914,6.765556047713725,18.534948980782993,-10.06330828838887,6.238347545667856,1.939435464323445,3.606781170629924,0.007092699895347998
143.0,11.292792124955154,12.484814968038151,1.1920228430827882,-11.867391680633482,5.071908904776631,6.893033898270273,13.975586532454233,-5.914001115398313,0.3994357222320555,-2.238699067215186,-4.401828499106811,7.119438945322654
144.0,50.09388745425211,30.723626479505114,-19.370260974747172,-40.45903692820443,34.74986559989373,5.654210937955902,-21.03480308691614,22.18926749189584,-5.70108019529727,-7.218127444306101,-2.58393654969979,1.4613363445059258
145.0,-4.705061007230388,-9.692460476145456,-4.987399468915209,7.236632308937988,0.08141049699850278,-7.3638453252970955,-11.94396013033041,19.077100653696903,4.637657431630285,-4.415135144530414,0.9236755562164953,-6.992173008341112
146.0,-34.25949552436127,-37.62752916846936,-3.3680336441081726,35.912302069286284,-15.42096810971329,-20.527833020858402,-26.502657866667583,-11.94848695658936,0.15717633963973593,-5.2564429017683105,-12.755042445336793,-15.202778725645922
147.0,-23.61987324671539,-11.349612310890256,12.270260935825098,17.461934964318232,-17.91158319125077,0.4198886390904413,32.36302529160231,-4.262017480975087,-3.470362458492165,-4.3113250763704825,-8.93303646915266,-2.4350078917359683
148.0,17.664159451708457,25.294169818945875,7.630010367237416,-21.495432612082915,4.980947129538393,16.488488252676763,22.69577112406506,7.8847259263382306,-1.3911896432136688,7.987611655901992,9.833687044227242,12.232606031319303
149.0,17.196653175216614,7.407872916530048,-9.788780258686561,-12.23491995115557,13.542079733851645,-1.173411076139983,-12.013761098405112,-9.86827813794691,4.022308578891844,10.658100217918085,11.230827454654237,4.856696117997712
150.0,-1.068611512458359,-2.042320503175306,-0.9737089907169696,1.5476788455095072,-0.07474560023842258,-1.4939607487349704,-6.889511421066394,2.242391383645704,-2.191878084265307,2.7717326816802865,-1.0847277273845446,-1.3276073398119967
151.0,-0.8904818812138231,-14.359510040743748,-13.469028159529982,7.61976971353851,6.258600340125859,-13.89498562149722,2.832721569196874,11.936619648404468,-15.633146777322768,-13.269154574938469,-4.926389879030205,-15.79516332503686
152.0,0.44302613969459076,3.319733614096343,2.8767074744016803,-1.8853333996617532,-1.2552667668411606,3.1299293448728243,5.841122852099975,-7.132894477327451,-2.181686371086843,-3.0963237198647344,-1.3149060190300634,-3.297445244511452
153.0,-3.091944549362035,9.877804854994825,12.969749404356806,-3.3973027641241886,-7.999865195093173,11.392699765609066,-2.6584747713753702,-2.3659194695798442,13.16482472818227,1.6024721504339507,-2.9891023935458527,18.45615092714138
154.0,1.8106069632727313,16.86016374480454,15.049556781531823,-9.342034042622913,-6.595961407479118,15.938292770180016,-12.996478656860507,-15.40807922874141,21.593500025475727,12.888018033573816,8.554822261663961,24.7102281454651
155.0,-16.58921016725278,-13.461815038256535,3.127395128996361,15.015107507455781,-9.83765058239219,-5.175223154002468,-2.998442891512795,-12.63647098737548,14.372431397931548,10.142585062753152,8.96569711475559,-6.400727825119404
156.0,-3.3018149507099563,2.738642112084338,6.040457062794513,0.2668713503457143,-4.647867318558392,4.38174459194767,3.739839617878338,14.629173040160577,0.10874289370272328,0.640167611589284,8.744853142429562,-12.566362818388876
157.0,38.62780188910462,-12.999290267675233,-51.62709215677958,-12.753907554057474,45.07875223067819,-32.328611597038694,-4.1464990379290905,4.2577123741176885,-58.869774883153596,-35.86355642842187,-29.59670329693078,-33.75057638281203
158.0,-14.650830969253775,-17.824229508690337,-3.173398539436331,16.217044958977198,-5.700588156433891,-10.526536140931338,10.608344418839897,6.260771042572522,-20.600490728757475,-13.61166659280506,-23.521236130316424,-7.579675296822568
159.0,-4.478086314338542,18.410803378080583,22.88888969241927,-6.986902640634111,-13.718012231527691,20.688347919068214,9.50025796759257,49.84982714170863,27.781394536621757,14.388861742844337,7.6622118371767325,3.2487637431845995
160.0,-6.875435389418178,14.56441165845551,21.439847047873716,-3.8633428885408687,-14.19042853025797,18.03186068658927,4.020346088819457,-17.974987314351974,37.35403102952482,28.477360675867395,36.7037994979031,43.6160703877131
161.0,-27.283108110515062,0.3778142754224447,27.66092238593744,13.515068080360798,-27.42936904362792,14.046008559622681,1.896973088892107,-26.75307511574957,25.0066820618987,20.91291800333661,20.733548610686192,35.953879602146515
162.0,29.253571373299444,-11.389888308395324,-40.643459681694864,-8.946138470624808,34.90515044574133,-25.988209358963218,-23.03250195053796,-42.80758110634363,-28.251419459467712,-15.720062803872423,-16.46011613658387,-17.98366899204074
163.0,33.37831468395155,-26.502817699311287,-59.881132383262916,-3.4518803203042605,46.65623678037365,-43.23832267262243,-2.3642323120870117,22.210921899242468,-42.27551260615227,-32.1216408695987,-28.22069608949418,-49.036710968040545
164.0,-23.58067049165375,17.064624945421738,40.64529543707545,3.2412707850820004,-32.09436120603708,28.811420975707176,9.512726631434088,-1.6648548824876244,17.193804120760593,3.201994687591357,-0.4807695662433069,-10.225664161050233
165.0,-20.53623039616868,16.435768259129247,36.9719986552979,2.0280254425526762,-28.740497325894104,26.660035351343485,-1.7008223229831407,0.44474724241743324,7.477001550503552,4.806199879122882,4.888392828527262,18.77864826306751
166.0,-3.397412713690228,6.6732915713908305,10.07070428508101,-1.588773660654569,-6.721862517758193,8.403620340506219,-8.284352078142724,28.771822748555657,1.3190480076178428,1.9604783651559397,0.483718646140161,1.8384438031546635
167.0,20.647018415046816,9.790894879887503,-10.856123535159357,-15.256295298514978,15.686714538911101,-0.5053088478082319,5.465623065443873,17.198273796377354,13.612496850880389,12.499952602151499,6.588102629363078,6.379587224725403
168.0,9.215013043832705,-8.598842766475364,-17.813855810308084,-0.2731555423700156,13.531997894582652,-13.181931779166497,6.4492826531342855,-21.76225215494846,3.438191139372308,4.304905303002018,10.697451053254563,5.650328694877671
169.0,-8.094573267528045,-38.86455839047207,-30.769985122944014,23.510559376190837,11.359663748971904,-34.79267664608364,17.011957504906878,4.054795945178395,-25.465346421490025,-18.400831443825886,-12.897132626367924,-4.584069367690711
170.0,-19.987250252625135,-6.003596713364509,13.983653539260661,12.946972359750163,-16.9592920418946,3.9391764804359113,-2.841984259697716,-13.801604923737361,3.605167115970046,6.18848036381768,6.888816834759094,13.273226096083794
171.0,9.060251876536169,29.02112361418692,19.960871737650763,-19.086415278311144,-5.499249692108405,24.523937156562713,-21.003361155952923,-5.858648006805955,10.173473365737543,8.693510619113257,2.8701740973937477,-5.514045010842594
172.0,11.836169573447407,26.829460750254103,14.993291176806594,-19.293883388810528,-1.624190867985412,20.87029502313069,-12.89731482408853,-9.931753933959714,3.8767874630403787,-0.9386674190023125,-3.1009842924925604,-7.6359264197455206
173.0,6.050470877166476,-10.657264391983944,-16.707735269150604,2.350754858305386,11.415692953481223,-13.64214398590166,-0.7442887775279887,14.191728292591215,-19.74910358472902,-21.754000733659566,-13.662378837860265,-3.6881723780893463
174.0,-6.424214464412756,-13.958091836895342,-7.5338773724827774,10.16950359347365,0.595268752082112,-10.784384450238836,11.515035356310154,1.1373877183026329,1.7999051551305092,2.552027954187384,-0.4379016113671854,-1.7140763781481732
175.0,-13.860000700173794,-20.134384285931958,-6.274383585758249,16.98495329348165,-3.748777905432846,-13.244786672272113,18.543441211937097,1.2231867458690324,4.335013812875816,0.7086938107283346,-4.5158307674105505,-17.114939823123198
176.0,-7.3565775268254034,-6.100215366236749,1.2563621605887496,6.723529949868102,-4.339397108083359,-2.3858853007840883,16.072258834056026,8.678290891736365,11.419965032985148,9.7874822402888,1.4765473020878863,-3.2214460909323184
177.0,-0.5268790559357601,7.256203681225869,7.783082737161804,-3.36542246535273,-4.189716235711094,7.554936306912277,-6.031806064651025,9.373436734273664,19.020946547900362,28.303182491097523,24.59172136485454,33.76400599955546
178.0,7.2472097304132825,32.67405976376293,25.426850033349865,-19.9609076566756,-9.130940833707836,29.0876762361918,-20.020513286846572,1.5152493412576418,-0.2973186873923419,-3.1296091951823914,19.98174439397974,20.796537231322887
179.0,5.685789739458916,25.86143533783087,20.175645598372114,-15.776415274310242,-7.217607722779247,22.98152584348327,-11.748829086197524,-2.2445953342851244,-15.18762547713158,-13.770418371999764,-5.763260751328407,-0.01922337693364362
180.0,12.261743255264168,-21.366987394964877,-33.62873065022895,4.545564090095736,22.960642766089734,-27.52884913897124,-4.158475639209914,-33.241884538026866,-26.92623903366377,-15.908121755519712,-26.755132604842558,-24.377232311635062
181.0,11.612882853026042,-22.478429768808322,-34.091312621834355,5.4212019546758,22.857225754415392,-28.30969989095901,-7.125747405899029,-25.131184816717386,-12.390069080627109,-19.15199157458386,-26.461350094488004,-34.04419475134944
182.0,10.425214744098952,-10.992665413064785,-21.417880157163744,0.34719363494912603,15.921096751460833,-16.146073752948723,6.6736869131108785,37.45105119543289,8.257722449221232,-0.31011371064046234,0.6164813894271912,11.069301996419892
183.0,-12.426424901527415,2.307853398511149,14.734278300038651,5.041351213677285,-13.57977613435651,8.505514539257403,9.97026496709473,7.446716009142406,17.872540133648595,14.419814688699635,12.778809588672564,19.31276295810252
184.0,-19.01888717965202,-4.277802609348075,14.741084570304144,11.62824736548247,-16.871573424884062,5.218937640970331,9.502858805542864,-6.685749695594124,3.2072799766820665,5.682247534396527,5.928076997124103,-7.861320446715894
185.0,-13.145371129743758,3.7838021174246417,16.929173247168666,4.658011490029157,-15.015717863689286,10.34581779933552,12.589805760056876,10.10332865822243,9.313399596298893,13.344946400089537,10.211482929530886,-9.81616644665856
186.0,-28.926103498576563,19.390440938106842,48.31654443668366,4.819749903981556,-38.66283130862879,33.844211510113354,12.19172420102289,13.956046161658024,26.347329750039567,25.815155549625906,24.68542073670869,34.47976891281134
187.0,-28.4368559586034,10.65093594416267,39.08779190276611,8.86040879691916,-33.78886388284788,24.939240082172233,6.496127325070893,17.96533252065934,20.420877846926068,10.761883656624361,15.77863044922086,19.138078478012986
188.0,33.381558689030435,-12.755181828577422,-46.136740517608025,-10.352635802136758,39.82260055883569,-29.456364710193114,-27.951732213157044,-5.664485166262125,-37.26811000538466,-23.772625502818528,-14.337662124349084,-23.994161849930858
189.0,99.00736970255063,-4.977450134635415,-103.98481983718635,-46.98265165244119,101.48617887410393,-54.4962659930066,-37.26336657708797,-45.44469485329461,-67.72456108297712,-57.31096709431122,-51.952064900964075,-29.03135682370662
190.0,11.184687481068764,5.724944030921343,-5.459743450147599,-8.428383363841878,8.310992499123167,0.1086944311117719,-13.270160788977213,-32.045582753423425,0.034332885180280215,-12.042027537804792,-26.783771162322388,-12.152878758096612
191.0,-55.2888961074637,-19.426019805561882,35.86287630190182,37.37996926184266,-45.594390079817394,8.182017668603258,24.870045711959634,9.370444091373813,33.874659040257384,28.358992753151046,20.357387280409295,11.632102381028137
192.0,-18.720240200358234,2.974511300499845,21.6947515008582,7.814825622708337,-20.237015606566846,12.362524113644337,6.664645333977747,8.886341127362737,12.606072585484643,12.170767268169937,19.52329393652428,4.512047984747616
193.0,-5.333016118205393,20.34384455189376,25.676860670099213,-7.4847926937118725,-15.467159451946834,23.02470775769912,27.48343561516954,29.676145049222377,24.247741490650665,28.026068271511985,22.19819104331505,9.831970581878352
194.0,-2.260845428690592,13.632776490991215,15.893621919681685,-5.664356461853334,-9.047869903717224,14.767887659606442,7.680413079852531,30.167137435945424,-3.7928739446281448,6.573260090791903,23.951870443366968,28.12599070456657
195.0,-9.961348376567905,-20.723002168068973,-10.761653791501256,15.28660668469143,0.3479889268799843,-15.741407868264398,-0.3100956474233625,15.662608646262894,-9.975492576460802,-20.12458835725279,-12.080865673417232,0.015477143286902972
196.0,-28.954311692853977,-23.61174005061577,5.342571642237916,26.308197393739892,-17.118076323747008,-9.131131926519561,-16.23313233584688,-31.348797842128405,10.47584618447808,6.328441865380375,-16.159288353508813,-18.29530526328746
197.0,6.114206768593887,-6.311411500528186,-12.425618269122399,0.1262867430752017,9.309546308491818,-9.357551520887089,-6.3107769129834335,-24.253828190397968,-4.465215138446238,-9.794017484817555,-16.662240269088255,-23.477893197548088
198.0,70.3431435162542,23.503649525671015,-46.83949399058352,-46.971277062293446,58.56421524502306,-11.647011573250163,-11.400348228753266,-10.616622301260065,-10.027467620267462,0.06770807530939038,4.070867664116031,6.4728186378563155
199.0,41.6458190850762,33.20915961055021,-8.436659474526166,-37.39281864812426,25.025324963680234,12.337951833377634,-14.753696394300128,-3.7139746367983335,-16.141452804589775,-15.134093085128159,-5.194266895305468,3.828753070213677
