Time(ms),I,II,III,aVR,aVL,aVF,V1,V2,V3,V4,V5,V6
-200.0,-2.451138265593835,-36.181470376500606,-33.73033211090761,19.27755863120371,15.59466825018944,-34.9178375947501,8.46830219045113,-1.1436398478389247,-14.125831310184179,-24.05977522388274,-20.562791337718792,-25.635714328906403
-199.0,5.655667044589698,-14.764222000518503,-20.419889045108647,4.521990052900022,13.07200918673588,-17.629455516669143,0.08530883895873953,3.068629366293921,-0.06740253334371804,11.176165438182528,14.397118556412595,-14.945507379351062
-198.0,8.535875788651815,-3.1434102591778554,-11.679286047829091,-2.7259030409125273,10.142242914679155,-7.448559362892614,-3.9438355565475214,17.559127031918813,13.826271080474047,7.432419862211512,15.929064519281228,0.8292226686241733
-197.0,0.77395602811387,25.36521881705695,24.591262788944192,-13.021842962840708,-11.953220544197825,24.939366523330158,-7.339800807520756,-15.023081616021551,-28.111804512301276,-19.82487943370661,9.040619003779796,19.80825649781937
-196.0,-17.536884132034654,75.90107768037714,93.43796181241268,-29.21701292013157,-55.53387071832396,84.7082602922397,-18.096086354412854,-27.489829046356903,-31.09045088873434,-11.341550006697357,28.302315935455663,56.424635674392434
-195.0,-3.286250568563009,68.48974762951066,71.77599819807419,-32.562365820594025,-37.50185573031067,70.17331059085102,-20.37888578157028,-25.89877816743356,-7.035743957266337,17.60123967378219,21.29140786244338,49.53403740788983
-194.0,9.2955520077828,11.948325699023824,2.65277369124129,-10.585849197876996,3.347361614926463,7.346380691841945,5.114179263634508,19.318827065271556,61.89041819089573,54.200543553238674,-3.7757951501877174,-5.877388327838071
-193.0,7.68591907583512,-71.84309755187138,-79.52901662770644,32.03450869928994,43.63096409919119,-75.7111878935462,31.199332430306388,39.890134652284935,52.84533547482841,20.97326804446636,-37.65858991120767,-62.01316840885504
-192.0,-3.1948634076535534,-84.3795403300214,-81.18467692236774,43.82201451085972,38.93877008501552,-82.80012873896193,27.621841563517794,18.450528818871945,-6.130094717845786,-40.94221935025662,-42.30759509147447,-54.95008040218646
-191.0,-1.2555025748079103,-36.18125129711817,-34.925748722310146,18.675281227963417,16.858633648419744,-35.56859519448536,7.239649024965029,-1.4009439940313406,-23.653121596082592,-25.497702490728095,-6.679031613160998,-7.947029303920651
-190.0,0.8984581637277893,17.784559166374514,16.886101002646736,-9.383881022687266,-7.968032632367761,17.316612080341155,-14.359065811509971,-16.468052515744066,-28.099231602858282,-11.560397727639248,17.251355541848067,21.09967383747705
-189.0,-4.714501857817237,23.09288793929405,27.80738979711115,-9.15264588061737,-16.311047876240067,25.421094913048872,-19.466637295570713,-24.556807921081035,-32.66210225766005,-10.295494186050531,14.507687845277713,17.052159886764322
-188.0,-2.7195998387604035,30.638572114751437,33.35817195351159,-13.923470146040914,-18.007717336252753,32.03319177429127,-22.740491535382784,-15.074067570428282,-13.827212531906362,4.718201046508746,8.763890487925558,13.002274983986371
-187.0,-1.8586664493823482,20.00409784072267,21.862764290104685,-9.038090449158464,-11.828080511069619,20.952408658392464,2.7066190120578923,11.226119624592053,28.030321154383167,30.943903181326174,16.599657362081935,7.971830009051001
-186.0,-8.701454344927136,10.898803730055118,19.60025807498182,-1.1453337226676759,-14.19676604182165,15.255464183925252,10.61118798185158,9.73498751145878,33.426422161140565,31.63643003045362,11.097644407783902,9.322744025506704
-185.0,8.798239620806426,5.323085427947937,-3.4751541928588274,-7.111158456683657,6.090209761753244,0.9223607911768141,7.526258614712779,14.82839009225903,21.801543752298624,6.887345799416323,-0.27881811535395906,-6.293771211588295
-184.0,10.35584769702424,-4.670565174318894,-15.026412871343117,-2.8191856869854677,12.723078113755294,-9.85111398042365,4.6705706209421445,0.3351034100471111,-16.337667416110808,-25.70043563931622,-12.708170503475031,0.8480706112919689
-183.0,3.2003927611609315,-9.981898569952197,-13.182291331112843,3.409395877548712,8.224360824048574,-11.579908984466064,-0.8226313832921841,-15.409824741677872,-30.60708388947534,-25.75892459234619,-13.115464715249837,-1.7930835334175868
-182.0,3.395930700527269,-21.823652821069164,-25.219583521596,9.228932154293425,14.343788789064448,-23.51067953455711,2.3317423822069534,-5.380298007730126,-23.113401645407077,-38.740759735641305,-20.819101368321896,-11.809764555010052
-181.0,-2.981332862698207,-26.267575484713568,-23.28624262201492,14.638273497618563,10.114302219238878,-24.834391155172078,2.6069374332734387,2.1720748852140215,2.819670005344963,-5.281368972096689,-6.2190022458964425,-18.405906948521334
-180.0,-8.935467281075546,1.666142410174519,10.60160969125051,3.5713420432129004,-9.801731804976184,6.164887570964719,-3.4392217863106227,6.654453233098703,17.567868304732738,28.077786229249945,6.612015222882121,1.0665304049124629
-179.0,-7.21807185649605,15.27497590520936,22.493047761705675,-4.008682321814007,-14.80596457722906,18.922659856337305,-5.915187755613646,5.739790513356083,18.072073230295608,25.345617399578956,4.854015532039396,10.494482521484773
-178.0,-3.7241712353974648,20.88265205708584,24.606823292483313,-8.553199386961321,-14.192331247302704,22.709445684975563,-4.505547879446729,-2.2970611971877646,6.8102164120439,13.467609676778782,22.086303217463772,12.471338957165871
-177.0,7.576749723203164,10.419310558136802,2.8425608349333302,-8.965144846999047,2.3409630321451873,6.597667173788496,0.010763121058751324,1.4201716376546356,2.766454977974877,13.108173527195378,9.371487928237842,2.7389780135447293
-176.0,3.110484642298209,0.5651683382336188,-2.54531630406505,-1.877907484358695,2.801751921021793,-0.9447587837665372,3.9722592117894604,-3.4229488672410646,-1.7578151319771118,-1.4543780322064634,2.824423029516164,0.8429167298481328
-175.0,-2.2297055943352495,-9.421410445420106,-7.191704851085289,5.7887848277014635,2.5339941421353354,-8.34155580319268,1.5438160028471843,-3.1770963921032385,-5.2510288791048225,-10.030997432986128,-5.851893298029428,-4.085092514256042
-174.0,-0.2568384488224773,-6.049703176851785,-5.792864728029528,3.195398327588714,2.822391964883944,-5.879932101337825,2.8109450065568855,5.047633683775848,-2.447612705922255,-9.747467695239774,-7.664671421385398,-0.5709472843875516
-173.0,8.008982450222703,-5.201442512593454,-13.210424962816017,-1.4430984096771047,10.587229840446614,-9.167757296791043,-1.040575462610954,-2.9788939617164076,-9.30226421719885,-14.203237885202196,-3.6416987212668825,-1.5192410549579836
-172.0,8.19797703653163,-4.2079664825981515,-12.405943519129448,-1.9600151760737448,10.280525828910283,-8.351809670037026,-1.1217001567516247,-2.8654704848671493,-11.460958012825165,-12.346629056482675,-10.201450194220618,-5.67985361339288
-171.0,1.0257445501620521,4.272414556569652,3.2466700064078626,-2.6187024648906014,-1.13317182104936,3.7090404166454407,0.023558705483115117,5.403771108648277,2.2224665533345247,0.327648371026271,-7.020082049123774,-2.5318198931367624
-170.0,-16.11549561668272,1.533570891845121,17.64906650852793,7.239319018561253,-16.909173051562387,9.61285884980675,4.7193689171405815,1.4236590007586305,6.539667400637124,9.112920263196218,6.090066264439381,2.9474436496525773
-169.0,-8.561091748857972,0.6674986272871264,9.228590376145025,3.973196356157855,-8.849308855271303,4.962823338442521,-2.2427510119266523,-1.9776317990715242,4.0892198783562295,13.008774762781545,6.613218289198991,-0.36737472481960065
-168.0,6.482151617306625,3.929233317906625,-2.552918299400032,-5.2554256579052065,4.477746957371137,0.6974851825165649,-8.594551443652103,-5.808208720398202,1.5800594169779938,-1.0341073098914748,2.0239085448410146,2.909051660737569
-167.0,2.95741491453241,-0.2515594643292136,-3.2089743788614875,-1.3178212290515225,3.117577259628115,-1.7239425584536123,1.5398676678044656,-2.163503442703846,-1.779311529260852,-4.3709086570597355,3.9566371415581383,0.17585242439038318
-166.0,-9.623511304798418,-6.684338048509407,2.9391732562892114,8.197966547899235,-6.247923622880088,-1.8663373384812987,4.622120124510423,-1.3900121448785692,5.2846436162916985,3.3414680055117523,4.717205735479791,3.3405058204710754
-165.0,6.169697803203701,2.5695546251569583,-3.6001431780466118,-4.3939766850538025,4.842598988381425,-0.5064551070365613,-1.1593369601722863,1.8852727280297217,0.09391478790809082,4.479928465721385,-6.565069117827537,4.421628359569714
-164.0,8.864112544678456,2.5732195243747777,-6.290893020303756,-5.733153824164901,7.619915115118402,-1.9241968477295948,-0.32814324905904013,10.697727092873315,5.184549001969186,5.306564839968412,3.208080109356989,-3.1672432970747137
-163.0,1.8958325363836561,-2.1665334291356837,-4.062365965519509,0.12841460969386587,2.9498304144541185,-3.0953921194793343,1.7393140062959718,4.149220800469312,-6.464286311893866,-8.674320143032926,-3.612012192777248,-8.395160636211031
-162.0,1.5273761593555328,2.0872859043006615,0.5599097449448407,-1.8101291600232134,0.4606125878575238,1.348656412584547,0.5779354306178127,-3.174956335320184,-4.5821466445390175,-2.5035496648923443,-3.247099910142832,-2.083876208314968
-161.0,-1.6007372213577566,3.8654187783567338,5.466155999714268,-1.1345006948152716,-3.55276094124393,4.696426351241724,1.0934418403826944,-3.895722156642648,-0.7168350081350168,-3.7301562663894314,0.3637031263665893,7.215388208971884
-160.0,-5.114171130902411,8.57108741593768,13.685258546839979,-1.732690936438082,-9.339322042335208,11.084457606688554,-3.339689006501492,-2.9927483850920025,-1.7290941315146886,-3.742834457764219,-1.397894182023076,5.934336412029833
-159.0,-9.138933793218579,-11.941881519304758,-2.8029477260861624,10.532541617210823,-3.187936518017797,-7.334795214130106,5.629728122975337,-0.5180221302636241,6.01017610665677,7.290973652947869,-0.35864726267486025,-7.609265149316364
-158.0,-2.431159320417205,-7.532457010771802,-5.101297690354409,5.0483883579855435,1.3117650677972406,-6.357411549191443,-4.722244716472205,0.26930599585249304,-1.7534043829329669,-6.227119642836727,0.9577557681866925,1.380655947058484
-157.0,2.950889293777017,-4.994200189478261,-7.94508948325503,1.0047327012912461,5.499176422091846,-6.511075917967295,-0.6642574524225164,1.4718517591071105,1.3099284073909685,10.889969802255843,7.909987580868395,-3.8714622964531418
-156.0,9.878674551427851,3.1521676147629982,-6.726506936664686,-6.53794467371193,8.270619544376572,-1.751200493806821,-0.28430236861005087,-3.730346494313062,-0.2855298721917723,1.534150441742617,-4.86340205034252,-3.7296004170912873
-155.0,2.3605745983417425,4.088148819777016,1.727574221435284,-3.2538772706980836,0.28047615963482864,2.9430997258633598,0.16343844967612697,-1.4235917097973338,-5.072314203279134,-6.2098730635506225,-1.9041384029569237,4.312988782528125
-154.0,-4.331903135739415,4.48784872804509,8.81975186378427,-0.03722187355055562,-6.536602082126319,6.6894260006500135,3.2797507557907193,0.27769545897647574,-0.14974264596713915,-2.793933078243274,-0.2350516282351378,3.070243770641598
-153.0,1.6727891331424285,7.992659743412547,6.319870610269812,-4.880032164932404,-2.287417414638338,7.114327670433799,0.21512439289161334,3.0534297728804933,4.764096179918345,0.7071001918023816,2.927877936644247,8.561524605866298
-152.0,19.05188232026929,9.462227755206944,-9.589654565062578,-14.234429376267595,14.274979449918112,-0.10448559640753441,-12.464230056062325,5.166696162812333,0.9295435555064888,0.7571900708757652,3.746872902788974,-0.45918837883677055
-151.0,0.4300673855430759,-6.19761409092169,-6.6276814764648035,2.8995730123346277,3.5580778634549097,-6.374202536337108,-1.1780526522883572,4.740848930694974,3.7685942992488397,3.048993452198531,-4.083070890404975,-11.544193521511108
-150.0,-24.13626920482904,-15.652199446502665,8.484069758326633,19.906313785818277,-16.364316539347914,-3.6246262736025145,11.628800763606634,-3.555256693291681,-1.647439546487075,-0.5245819304104146,-5.318533887933994,-3.24526959900591
-149.0,-24.95327828886687,-11.872617724790974,13.080660564076274,18.42477175080866,-18.997486631855104,0.6418991118753521,12.435208687560756,-2.185168304672277,-4.424917518725676,1.3755730722639896,0.3519483176159124,5.310406713939104
-148.0,2.443867752321088,3.913937813478616,1.4700700611577957,-3.2430454756994136,0.5016381435765398,2.6517230201139896,-1.7428823482848204,-4.3278051503259425,1.307016516618006,2.445947713868776,1.9385445085478146,-0.42748150335688084
-147.0,15.38073521913013,10.367342770706674,-5.013392448423385,-12.85457634390566,10.208622431282159,2.7175607856270867,-11.743706750410693,-7.1577861355738435,-3.57180642729189,-9.782890060265965,3.407044364318529,-0.18630187256925368
-146.0,16.68535927609533,5.181356066468211,-11.504003209627232,-10.908177243394404,14.105711938602148,-3.1172974660331616,-5.55285417700686,2.9159898899640284,1.8582615306239718,0.8581169178356949,-0.0015867448159316844,3.75560427935091
-145.0,-2.9847854313625,-1.1233131657368256,1.8614722656253617,2.0845992205906008,-2.4880344955981872,0.33803803676817146,5.542018438095325,4.035952918723485,2.2353423240043964,11.568294063931425,7.205189907077608,5.598780931331648
-144.0,-5.575181040084438,-1.900381697826675,3.674799342257386,3.6936192451085685,-4.604899146367131,0.8586035433619364,2.8388948002904,2.9582214087178618,-0.05630729684878211,-7.064147246285103,-5.76842198477402,-2.3748505595715734
-143.0,11.120311252465125,-3.8140396007368635,-14.934350853202233,-3.695092302298021,13.056442023140976,-9.402735568199644,-4.052899876665215,9.011285549101178,2.4891287138874505,-3.4750266645443357,-7.34286686101027,-15.08359989671377
-142.0,8.305124184321453,5.81804749133417,-2.4870766929873347,-7.024284504300845,5.435522118190929,1.7132321719779067,-4.650012799569694,-6.493824019539888,-4.780015795757011,-1.713474309804638,-1.2362816663157532,4.7780090155754005
-141.0,-9.446547507805347,2.3956526195679655,11.842200127373461,3.5622156936590947,-10.674200022605499,7.083842800779889,3.263636206711146,-5.497418402520241,-0.9102196401356984,4.142379096531162,2.5530182966986663,2.430643217498252
-140.0,-6.929663769370787,0.013631056436382183,6.943294825807423,3.415301992411565,-6.959732974103619,3.517993994399862,5.821460692437053,-0.5654787745550256,1.2897010751466826,1.4714736579676606,4.188141725792308,2.847636687153119
-139.0,4.195101989575976,-0.8032581528733098,-4.998360142449054,-1.6601267920062401,4.575750799223048,-2.9426754075064125,-5.478801760449093,-3.4305272606990975,-2.3360352345581665,-1.545948397904199,-2.262822590828198,0.617120451651489
-138.0,-9.717531056928417,-1.0481652125845047,8.669365844343915,5.34053580872835,-9.21657344954097,3.847228911717421,2.2044199887673557,3.54716002671195,2.019593396106089,-0.34236711003677134,2.9408607855505267,8.139563680732792
-137.0,-18.239734198970876,-10.125922247534582,8.113811951436139,14.220910099883254,-13.126682777798367,-0.9673500290576019,6.371326337553276,5.109098362631759,5.518328405309573,4.376826270104106,1.4389200914033773,-4.7332198981227585
-136.0,4.131662769275653,-5.974056217184958,-10.105718986460888,0.8831225082284853,7.1614103021828015,-8.076442707173538,-0.2532345400751512,1.6751650325689464,0.0764524190022422,-0.28712311081149455,-2.7952644074498556,-12.970841141365785
-135.0,16.479663591724478,10.550565434792958,-5.929098156931842,-13.471027732624762,11.160521791858027,2.2778007270312184,-3.270009949031796,-2.9945572890529704,-1.9133576889992145,-1.6800637234146063,-0.41338630805484833,3.598656959792109
-134.0,6.5122086567224375,4.532788637097637,-1.979420019624973,-5.553100691014379,4.273276852577915,1.2464620654279523,-2.738154084032229,-3.1986556525852885,-2.254792514828997,1.2518151852843604,4.9991976596057235,8.41302590414904
-133.0,5.910147905715928,0.17441985364334567,-5.735728052072585,-3.068382742583327,5.765064030659382,-2.730804092692461,-2.831077919680973,1.6883336842891272,0.2488219085758323,-2.4723936834488818,-6.869274127563203,1.140214974644409
-132.0,2.3433347306476944,-0.6547608627976027,-2.99809559344515,-0.787008548917072,2.686172440431893,-1.7766298027701217,-2.6754564081003602,-3.420706885960242,-4.842550971502771,-9.412383014075452,-4.416992852523119,-6.251321000785583
-131.0,-8.526503332095658,1.0834048514767283,9.609908183572614,3.7042985346890465,-9.05662166945935,5.3165336900082725,0.7019806802281413,1.588188488604555,1.5947882612998991,4.021712739270199,3.651928379286075,-1.9119858979038231
-130.0,-11.14567643925379,-3.6150267063037065,7.530649732950304,7.36612350392546,-9.328559464159607,1.9257825744870072,8.513326959804779,4.471501656963703,4.462461970621539,8.599539949691856,6.929801359227202,1.9929267607157903
-129.0,0.9001774873881416,3.7686148727822864,2.8684373853942624,-2.3477640033209015,-0.9744937439342607,3.284442343201444,3.6942510344907777,2.3716223130108,1.4696007014649042,5.012792189228206,3.2130874958002797,9.655520006165013
-128.0,11.262084862115804,5.701163231776623,-5.5609216303392355,-8.418442024854308,8.42299330250164,0.11336970321973272,-6.196805930111627,-2.400375289907486,-2.930614617760876,-4.076281138936683,-4.32856004294571,-1.941905078461442
-127.0,-7.73488908800236,-11.313874841608405,-3.57898575360623,9.503071911690869,-2.1419235797235903,-7.4032298547360496,2.820303040423252,-1.6667439815037433,-0.905092337108004,-7.4151420135154105,-11.054258643868863,-11.450590714448566
-126.0,-3.1597368849744982,-5.031459613963323,-1.8717227289890395,4.065337173317973,-0.6248885105633308,-3.4855181211861663,-4.556445843876835,-6.5240328906972,1.246902235783527,-1.4883804750775211,3.9719158360713602,-0.03865875571880961
-125.0,4.808974342963316,4.500451921916516,-0.30852242104692484,-4.695714244307597,2.58297130349648,2.065001020354374,-6.947568078641229,-0.2672346582482332,2.288328501464587,2.2544528170848808,1.5281117886587945,2.1159145591239215
-124.0,3.46556191798731,0.39371922442847906,-3.0718426935588217,-1.9020461389090833,3.2985132112082622,-1.287840054693463,2.0056228595907606,2.253110003072813,-2.8054320756206996,-0.00031249341469252734,2.8696641801956213,0.8806828248663308
-123.0,-1.9469699176883504,2.737094649201598,4.684064566890063,-0.374392186943898,-3.3587835062811644,3.6858466527421156,6.4069434528636044,3.6879900333506757,-5.731617278748924,-0.9753734711691375,-2.938967148170282,1.2276040478613568
-122.0,-1.363218872144532,3.9254302904451372,5.288649162589817,-1.2622263936790548,-3.3639946894900046,4.583447484413625,4.912426987115739,1.0898081764883356,0.879339847142437,6.954548121616725,7.738623783987146,5.5677470334608214
-121.0,10.486779698885204,1.0566767077865293,-9.430102991098602,-5.7491628078554005,10.003196768286212,-4.132687037147557,-4.716038495660188,4.634132217041973,5.0801569360953,4.38268302513359,6.266624226501104,-1.2116797507488792
-120.0,-9.691028436051155,-8.892000221480165,0.7990282145710235,9.243109818503681,-5.1981109476956,-4.074623512043235,0.48504691264899047,0.7501425718138759,8.738509341264031,-7.739193785126695,-18.25782547746853,-1.3586418818608756
-119.0,-11.54147410968817,-0.07558304887030243,11.465891060817839,5.848218336360681,-11.536025187948248,5.661999877429576,0.4196133173118577,-9.914232217999052,-9.02074313082856,-7.523873424502762,-1.4983972820411742,-0.032464380089740175
-118.0,-1.5786503216142505,7.960126245525096,9.538776567139294,-3.221529134348727,-5.59472752662831,8.789686008487797,-0.29621045460588236,2.2913271206428316,2.014582753329311,5.662618236793401,10.945647770039209,-1.915109698108365
-117.0,6.969610976241121,-2.974685948605397,-9.944296924846576,-2.022791480610503,8.493060625119625,-6.502222777230807,3.5139552101583584,9.098445952340649,7.936783071623065,14.074192365284743,10.188031409389248,0.23756483636814751
-116.0,3.283018048436735,4.167553227467803,0.8845351790310421,-3.7482308038343093,1.1481715347500545,2.5601763650779175,-2.468278175320372,-5.930293001261109,-8.176023156839818,-7.674692217250531,-9.19157482172799,0.9432650426391709
-115.0,13.669779183974795,-0.9500504696768204,-14.619829653651571,-6.303712656786736,14.164219766391613,-7.750011785361149,-3.0246419874425254,-7.992866755834385,-7.878690378706815,-7.070492989912271,-10.281891188722243,-0.2120237982326082
-114.0,19.717702041774153,-0.81636445853102,-20.53406650030505,-9.473345816793936,20.13934622901495,-10.716270087796257,-8.915026427101761,-2.2026572335783063,-4.655960380437401,-8.881919571912853,-8.28947865951864,-2.4608192992662126
-113.0,-12.25871829598469,-9.077076989061009,3.1816413069238365,10.724733375151045,-7.708837795931356,-2.9068193586358175,-1.8542929045155343,-1.9316931580906245,-0.8755564968698129,-3.525152031252021,6.21891847701324,-4.081181353809303
-112.0,-24.58168424996816,-2.566841365103328,22.014842884864972,13.554299107258524,-23.284950327704486,9.688090941120048,8.963512797297817,9.27673833147901,14.87126088738095,17.27205695539419,18.377485224007206,0.8732222308044091
-111.0,-12.616894440925376,0.9252310249618731,13.542125465887336,5.828468972930897,-13.061254153253167,7.197369454963717,5.038568322696803,6.407729997007691,4.494894503854494,4.364962694560524,-4.064748615157311,-0.5633659879553192
-110.0,-12.086580198887571,8.641936729672302,20.728516928559877,1.7073241052726096,-16.46211595348703,14.724970951304801,8.440685141852121,-0.038372600561125125,-2.2826395978319374,-2.323519265338196,-1.974145913021092,5.384758448073468
-109.0,8.067050174336043,-1.5981950502387559,-9.665245224574846,-3.2479038807696474,8.895302207200018,-5.674604031719429,-1.8262597269359064,4.642945250364177,3.2933011050334136,7.812214764967562,4.5910976325400386,6.994339043715163
-108.0,21.934316762318215,6.239030246751689,-15.695286515566604,-14.099495997880688,18.76821798051851,-4.695717031407929,-4.8165723054005465,-3.5033739229287653,-4.068407664101395,-6.319894169136555,-6.730197159272445,8.386400804472371
-107.0,21.431505302451622,-8.189266928577469,-29.62077223102914,-6.555010161472745,25.559722744698124,-18.874371634731283,-5.202289622004151,-11.33690603077482,-8.427300095806263,-14.055178648203178,-6.643398606977726,-5.7431194971232
-106.0,6.506306514395851,5.948550238233077,-0.5577562761626975,-6.239991637239633,3.4882130923381283,2.7263057839880513,-7.869217245513794,-5.778888793193096,-6.4918322177254435,-7.058647806500804,-9.948989429101443,-17.625643895710017
-105.0,-10.584686768656354,6.5641520716279125,17.148838840284427,1.9976532325714094,-13.828639340153458,11.810304000773806,-3.2053668672330016,-1.6691734979783543,0.8770127761704485,1.6782665452715397,5.550161189888115,-1.8552127289798932
-104.0,-6.111032947693612,-4.775163548567725,1.3358693991261195,5.429833320147763,-3.6789719737561963,-1.763862020020154,5.3249894030396465,12.05181057880521,10.819384299622094,15.926959264066053,16.791979620570434,-6.12281817085652
-103.0,-19.651515824740727,-7.636004507276844,12.015511317464103,13.628545207503409,-15.858282729319292,2.225821281145011,12.948505654170141,8.977336645081685,9.792328374752149,15.599514638031131,5.134291183801128,11.262346358452163
-102.0,-19.81980576160153,-5.355494255514046,14.46431150608767,12.647309224961413,-17.155692001827568,4.512728595016665,5.6253955254129835,-4.098362956652222,-8.321198615786162,-14.634294410334858,-9.741276374992996,19.03145551498606
-101.0,2.534908132035575,-4.859680986145324,-7.394589118180836,1.1372027893623766,4.961350541370453,-6.0891656773651786,-2.2549501543779953,-0.15455177912183882,-3.021621121112053,-1.6694451210231334,3.8329947293746214,-2.9069376526397352
-100.0,27.414771608452686,10.034394558552785,-17.38037704990006,-18.757817271735483,22.400784636464778,-3.6338283956811894,-12.024599843090702,-2.6914373576721387,2.2029337558855477,1.6443551773948384,-4.8274605604982535,-6.234088066346633
-99.0,13.433793746443943,5.404022409867201,-8.029771336577012,-9.382458544052993,10.735897283095275,-1.351107086365978,-4.582005907058163,-2.96374940110531,0.07078773395760951,-3.735036898554933,-6.327604693407853,-9.533140192975994
-98.0,-2.1528125965945613,2.6968238226489873,4.849636419243325,-0.32284210665757307,-3.502724267482744,3.814515424229442,-0.4954776425569172,-6.543246563721398,-8.846234036947415,-11.901686355574826,-5.768800005183506,-3.848454717781305
-97.0,-4.668484672084402,-3.1276737879209704,1.5408108841633683,3.9197439540461034,-3.1175595381665158,-0.8316742800988997,3.843182190174837,0.15692394403323995,3.9335567501408963,5.7117976789013065,2.9368141453157324,5.300188529663429
-96.0,-5.419814874269738,-3.6835379236112864,1.7362769506585498,4.57070939802162,-3.6060284237038296,-1.0147287883370284,7.591751349250787,6.961261559197309,2.914516518873874,6.304302215078823,6.915397721187018,3.1452298574137445
-95.0,3.760760813631812,5.130360211089508,1.3695993974579141,-4.425252526740003,1.230656347642701,3.2830696023126618,-1.996332465851971,3.357718203751929,-1.1257161589876628,-2.2393937871097185,1.217976818980424,-0.9010832749934905
-94.0,-12.127990517914364,0.6462368875447715,12.774227405459387,5.765380258727136,-12.429205405390837,6.738342514441233,-0.7706030061824951,6.636724516238669,3.3170775699824,4.597550796394391,8.175202667582152,4.208497448794562
-93.0,-13.05931515563708,-9.960658766299202,3.098656389338113,11.460941042590452,-8.065286594181059,-3.4852813584385456,5.137830032614108,-8.478604997165382,2.3373820282265574,8.982342323650037,4.155943750931913,-3.3304352695074133
-92.0,14.560579692863296,5.00404034423239,-9.556539348630864,-9.827203371614363,11.99151570298294,-2.2525460716330947,-9.647378891876313,-8.415686550219654,-6.12332884972492,-5.6774376898602466,-12.962687660767603,2.8570902585693165
-91.0,11.929430513609294,-0.5265872872476599,-12.45601780085704,-5.665852714495768,12.208547023054534,-6.464814956471697,-2.4394875356630052,0.6965995666059985,-2.0319300449273006,-10.323302373147982,-9.723405037923381,-3.6488582770495097
-90.0,-0.5742658833900949,-2.9887237618242137,-2.414457878434326,1.815996870188962,0.9448076540956682,-2.669282218488287,1.7791227248027845,10.069143213122526,8.755860815882968,3.543058221011724,5.162436879974533,-5.659223301311473
-89.0,-0.7587700227792236,-1.9383674054103226,-1.17959738263134,1.3010849385245318,0.24647156147032367,-1.59811667315517,3.264711624688935,0.6883638759571276,-4.324627523265826,-1.5847483583921966,-0.6779029765201421,2.1918097986913665
-88.0,-4.176561909265101,4.93977100514718,9.116332914412169,-0.3545758246157816,-6.678168771988725,6.99573070722595,6.684010016440944,-1.5491313758110141,-5.586333073555492,-5.316056114083645,0.26771923546888754,7.61028429648984
-87.0,-0.3820429847442912,6.3467450051866905,6.728787989931071,-2.9592640997827653,-3.579190688320725,6.510095322993958,-0.2946650030758815,-1.5193657491917192,3.672146003781599,6.668685607876752,8.919133460619403,3.1716351452115292
-86.0,-7.772777751426923,-1.3363376651354728,6.436440086291638,4.4963403884460575,-7.125162201549293,2.602720674572802,-1.2112609859548311,2.2786351031138654,8.868524548559732,11.808759213797966,12.096811520886442,-1.9466542540455207
-85.0,-8.529656330463887,3.137469429601162,11.667125760065199,2.716115707462429,-10.041955535301707,7.453411445435581,-3.2122595115367165,-10.956542802295893,-6.764209771723413,-5.9456417563460775,-6.2293628125478016,-2.1098003649533488
-84.0,10.427945811889082,-5.146243426860823,-15.574189238749863,-2.619221234270364,12.97318511545296,-10.391987725626178,-9.27510814490707,3.636031850101266,-3.8274385860000266,-3.365836095387505,-11.925595778205873,-3.6674809471478023
-83.0,6.435117504161342,-10.090414862904165,-16.525532367065562,1.8524616541296979,11.445209375559653,-13.345301261530718,1.5853047585378786,5.041141993587504,3.05303514641716,-5.597278050481276,-10.936804097463682,-10.77092198559697
-82.0,6.019600716359216,0.7129360560323983,-5.306664660326862,-3.4164425799067812,5.700222482617128,-2.3394177475934876,1.7909303488055845,0.12861007662790414,-0.1154566759186948,1.487518062410572,3.830372320675939,6.76809227382011
-81.0,2.2924726734695833,3.745372192197391,1.4528995187277798,-2.987060699506246,0.4527701237931594,2.6325233427120898,3.7854875260118437,-0.9096048529122865,-5.197056634891859,-0.3910587319042768,8.345862367918354,6.360670990886608
-80.0,-0.5652439892405396,7.508218896414489,8.073462885655024,-3.516214124789329,-4.3662645106221,7.825558256016198,4.435037234255137,-0.2738729685531122,-1.312904131796286,-2.050679279251767,-2.9216505349258615,-1.811851637050938
-79.0,-3.8089834526652266,-2.9168488811242668,0.892134571540959,3.398037589171591,-2.3177833004955994,-0.9716752359963836,2.7244803779746527,1.2363967885862257,5.402531254965698,6.94961198057548,7.9517829250016,4.117348846719574
-78.0,-12.099125537792839,5.999501593788251,18.09862713158107,3.0069440333661692,-15.064981969870225,12.020409081008635,-3.4972740545360317,-1.9338146948084056,7.020085532021187,2.9820373273997625,3.9043066741180894,2.399173772764812
-77.0,-7.016566222506301,-5.197004369312132,1.819561853194088,6.144114948039085,-4.4636956913967465,-1.7070542449105686,-2.960983831273487,-0.22740534732509632,2.203396832333071,3.3752997878040962,-1.221918002852259,-3.8312505349842443
-76.0,3.355112030298333,-6.307167564311444,-9.662279594609902,1.5163193631283878,6.459131060539229,-7.994730677742691,-1.1948545918121343,2.719360647402696,-2.321834613141205,-7.715764061619873,-5.722117034162462,-4.540614100164458
-75.0,14.797052392729674,4.369248829505532,-10.427803563224291,-9.61685665861477,12.634768917144413,-3.0351084305144775,-1.580366403505269,-0.41671826939273954,-5.25249368873896,0.5727951985529973,-3.85570089478406,-1.6642611733542787
-74.0,1.7511673522262434,3.2602404131404743,1.509073060914126,-2.5331905660484626,0.1354069485135092,2.3781704730861533,1.885553239469301,-3.7317443417987364,-7.897208723127076,-2.1471519501045195,-1.7855386383584828,6.187034535422399
-73.0,-10.825132560735529,-5.737058819461755,5.088073741273766,8.260554546392632,-7.948747633406127,-0.33561302656484704,4.030866172898604,4.5598044749455635,3.218908033738046,-3.529100874501749,-0.3865794499385862,-1.3640721928258364
-72.0,-4.262635973537937,-3.985779046861112,0.27685692667689343,4.1891181007809735,-2.2645096279050345,-1.7935775488399983,-3.606601605052425,-0.8346137634743069,1.2937534267001185,3.2354596323810236,7.776397318031998,-4.2055764679754155
-71.0,0.08252356763508129,-3.539904858243074,-3.622428425878047,1.7202010526187432,1.86027680175799,-3.605795403638522,-3.352564685249301,-9.044889739161912,-2.7414137024716267,-4.252014136181231,-6.373331025244397,5.0275410254104
-70.0,7.511009576938035,8.947334300332027,1.436324723394028,-8.234791793604359,3.052649420824981,5.162050174780487,4.458332250604409,7.390582427945672,10.588108802782633,11.89663422331026,7.827842237024628,-1.125759111659409
-69.0,8.30583795832277,7.844758746451673,-0.461079211871144,-8.081380578591283,4.330820886239401,3.7380466569709,1.4250620361153385,4.086606072419247,4.21088476638707,4.040421650592613,-0.932798816239762,-0.42232716470522114
-68.0,1.0765432512167656,1.6493776408022804,0.5728343895853998,-1.3729992897861798,0.28957524085378283,1.0780634466886765,-2.04174451069854,-7.0769098422188135,-11.010536566439098,-13.953428671193869,-8.97820783244725,-4.134065097755297
-67.0,12.083951542332729,4.917934426125654,-7.166017116207198,-8.51763659453462,9.59373109520563,-1.0773531852294131,-0.7790106315386331,2.9204170583365188,-2.2428630379327616,-3.874837407986292,4.6984574461310205,2.5769641919531088
-66.0,-3.0211234290268463,-8.118785941260398,-5.097662512233574,5.545525247880654,1.0916028950414618,-6.638832946353666,0.8627903110732669,4.949182000683476,4.624200510789242,8.502074758107373,4.586333373249372,1.8432368381705972
-65.0,-19.425232041879568,-12.92641068305797,6.498821358821634,16.223165976366325,-12.986592575682447,-3.2432145393262712,0.0522104926474432,-0.1633344045629459,1.0088360375837144,1.464747728507898,-4.601897684821989,2.5829633150698466
-64.0,-16.428188307887012,-3.9608744563616556,12.467313851525404,10.23691167888433,-14.476100775120546,4.224566084180827,-0.7206000985974113,-5.607775059973021,-0.963937108952965,-2.3353289260289873,0.869816378549001,1.928149040367129
-63.0,-12.91493569630538,4.767870536362949,17.682806232668284,4.034298652855685,-15.333880541827279,11.276107113031097,3.0862558362072856,-3.800626988001099,-2.729911798008845,4.113497314238152,7.629258521710771,-1.2928587121864425
-62.0,11.294685246646997,3.531222303301943,-7.763462943345243,-7.375229261188286,9.56596537677824,-2.0643972114323654,-0.9360289619430573,3.0226426838461076,2.0273756721447493,0.9019731428144395,-6.966305231739987,-5.9298865096840965
-61.0,22.73478944011701,3.069010975685843,-19.665778464431426,-12.945099847347912,21.232821873996862,-8.324180423122764,-1.4437049578244485,4.269386296422807,3.468786058529336,-7.822144056678795,-10.623166317968947,-5.214023516466944
-60.0,20.079265598443204,9.918711934745277,-10.160553663698112,-15.045685001946817,15.152267018870914,-0.14564710629141686,-2.9656578133844334,-0.6109174403284148,-4.230463539405736,-0.2063418205173706,6.913108210237224,5.277658050894512
-59.0,-13.88481774107361,-5.233726614867562,8.651091126206039,9.586734252466918,-11.310252056051876,1.6843510232633334,4.844891704875215,-2.9823302251176558,-0.8460158629713166,0.6685305336132035,6.083653472275884,6.315243166624234
-58.0,-5.530658572504705,-5.130712613808246,0.3999459586965961,5.353855365489889,-3.000564765641292,-2.3902078691707613,-1.3136505942741095,-2.2706968303904214,-2.8378450542714027,-1.1226451989093265,-1.6566492003769002,-3.5303995890674997
-57.0,-1.8422295959165869,1.1975929801354228,3.0398225760522357,0.34344983483480274,-2.389671093869153,2.1713893903972386,-5.223685854290087,3.3975522641121976,5.545500951963749,6.784076147115892,1.4470309729494497,-1.4170247672819394
-56.0,3.4704990735503207,1.270177873295145,-2.200321200254983,-2.4260717668709795,2.814627594064917,-0.41418669595409785,4.001361889963143,5.599699134274319,3.63510230836276,3.6301400976218114,-2.3819444212256364,2.007086765784407
-55.0,0.030256486687838535,-7.944769389759598,-7.97502587644733,3.986770872473755,3.9857530189079027,-7.990129250131691,-3.362521209042818,-9.28233331294626,-7.1861933219824135,-7.403153156856614,-0.18169105749571968,-2.830330329064044
-54.0,-9.52103690758583,1.1457344992857683,10.66677140687155,4.2276500673558575,-10.110170069844074,5.87292939879249,4.401876380711785,-0.13426648494888882,0.681212959209121,-1.768317540527247,-1.8157809152471351,-0.7069925483790533
-53.0,-2.258599951205044,8.627826570884539,10.886426522089401,-3.210738724701054,-6.512367550975185,9.720071516481148,3.934255642094494,4.879753302123641,1.9374317084447195,-3.508454542610817,-6.142073836287264,-0.3250529571753715
-52.0,1.4160909232769867,-1.3180434893526973,-2.7341344126299325,-0.06293357658401111,2.0521070685908316,-1.9881411529462794,0.2388949206375267,-0.6810187465273241,-1.7864774021003356,-1.3534013118335253,2.8580495490001927,5.667404686926721
-51.0,4.2273117390775745,2.376747586430886,-1.8505641526469239,-3.3066129991375006,3.010613109302796,0.29833899666280406,-3.7798608332150807,3.5183818898243233,2.804796125334415,9.794667889278834,13.635473646070128,5.425417920459292
-50.0,-8.927131855666637,-1.7042897702370547,7.222842085429475,5.315900263499498,-8.029661382766863,2.7151810157457508,-0.03402061505546783,1.5171989704366406,5.296222657836974,11.04426493716075,1.8601836872255957,-5.046715164703685
-49.0,-3.1304671042311654,-9.603524823745955,-6.473057719514751,6.366968116675255,1.6339772996957247,-8.00152833752393,-1.0004102634334486,-4.911529101319957,-3.263886213946646,-1.6245037565020977,-7.099233624391399,-5.954939115255477
-48.0,15.12446656820301,-0.1361384591229915,-15.260605027325797,-7.498637880015084,15.232036729469986,-7.735668860612241,-3.132926379118448,-4.246697935127442,-6.235796965481714,-12.818496432749829,-7.710456025507048,-3.4391581171976244
-47.0,12.640538093104958,6.970964165760716,-5.669573927344016,-9.817344528449286,9.116302713940122,0.6986344734334526,0.49500386098892113,1.802682178042227,2.267192350227895,-5.305573653960678,-1.4068611916095026,2.684748145098247
-46.0,-0.1781861837840717,2.181681022031263,2.359867205815513,-0.9426218902260448,-1.3047910706387063,2.2470616096961096,1.769790166199136,0.42660676863953795,-1.5441975741235807,-2.8718700083813054,0.11871057796599938,2.072828054642576
-45.0,-5.224378833682706,3.704509909407262,8.928888743090019,0.7328061328042726,-7.028693208224827,6.299488828333237,2.3427872004517614,0.2855523545878169,-1.6520842576425414,-0.8094654817444148,2.7884634793647365,3.2011555859701817
-44.0,-14.10834444223477,-2.2128242665430333,11.895520175691649,8.127310261496328,-12.948393788101855,4.829134685324101,1.2260242566521822,2.2571776266893444,6.653758800781668,11.649419337168654,7.939195068189334,4.095109939938228
-43.0,-10.615048011664445,-1.0339534984778536,9.581094513186429,5.865406669799562,-10.119105783339407,4.26433638870726,0.9806098348870418,-1.3434094812936175,-1.9664034978545102,2.100302810212601,-1.7400170364312313,-0.5156011706819301
-42.0,18.055992951377156,-11.226091860728358,-29.282084812105715,-3.456026568587738,23.648510974022383,-20.183896554355723,-7.960121035975151,0.818130558071898,-4.016354418921971,-2.7599275816485886,-4.40873262268061,-14.026565428951177
-41.0,-4.235565274657086,0.7244155411455644,4.959980815802501,1.7908619465632403,-4.622944112975979,2.8317165000360234,-0.7432535618160601,2.2975973550095934,4.791187582939704,2.1025897954499997,1.6219543876129463,3.9309918292725454
-40.0,1.6081891880878705,5.952790336001237,4.344601147913298,-3.7472677651416455,-1.4030190111946865,5.1333626179875775,4.955000606178698,-3.3858689159836333,-2.719386039103602,-1.7632016433349416,-5.131362406167467,2.6263884325982856
-39.0,5.536167129863168,7.2920548978182635,1.7558877679551308,-6.461654248386087,1.9214333092901814,4.500791927703724,0.7976842510408892,-3.8695481978632085,-0.5310094024659994,-0.45641872512911297,1.8486924896714099,2.670360253428347
-38.0,-4.401973164288834,1.9869096772149972,6.388882841503901,1.1582720207923023,-5.376554930662347,4.154449007935187,0.6183599308489793,3.545906513660867,3.4507511589790987,-1.0802588251554823,2.3984688170171826,2.5147286375586684
-37.0,-11.235086523384679,-5.103623407301605,6.131463116083121,8.198239342228971,-8.67330648010366,0.5478427597572846,6.5568017499933475,5.138847551566676,6.361883381411408,1.8917989189796613,6.050818977286344,5.359955113139769
-36.0,1.6904072515524593,-1.4175128737995215,-3.107920125352039,-0.10604273873829184,2.4059760829498136,-2.239578001342449,-4.68683444177274,-0.5239227352461147,-4.904635025702632,-0.07335862013228622,-1.3089377345330822,-5.471184975590855
-35.0,10.06394838195493,-3.8754420084335655,-13.93939039038863,-3.059615697771178,12.01162115172654,-8.892920885198878,-3.835816475067932,-2.018611627582456,-6.229774294986573,-1.9587977459091057,-3.2869609105035735,-5.84921279778235
-34.0,5.59172713508348,-5.084521777977093,-10.676248913060732,-0.29110894789932784,8.073505918988563,-7.871399774359709,-2.826652297514455,-0.4361602131640383,2.216714230513857,0.13183993801057353,-1.1391556412387618,-2.279647234400412
-33.0,-4.588733214541669,0.9463957995685626,5.535129014110182,1.7913451421726942,-5.032454463206477,3.169048109543178,-0.45556502812542266,-6.244531667603731,-4.348698362150365,-6.583770103115794,-4.61176075897346,0.8339747121103755
-32.0,-10.137145150304143,3.824854354978645,13.961999505282874,3.2120110929646946,-12.008750091749532,8.902155080484759,5.068148432874143,1.9029054481861363,3.124570036985975,3.15931492578741,1.0637666071016998,2.2840992104095825
-31.0,10.767769179864153,11.354230278219967,0.5864610983559579,-11.07938444533389,5.06167576217053,5.984264794446284,-2.7043624971993885,2.337721342822321,1.2467798716570577,2.5504768190810054,-1.7382515456638952,5.188512426036275
-30.0,3.468993056359765,6.388784653977117,2.9197915976174675,-4.946186923181852,0.2504726866625431,4.67636521346879,1.8491307929038092,2.5586100521877975,3.4504965435201016,7.276455339566478,10.339182178349446,2.1656200282387577
-29.0,-0.1195392862400945,-9.81742248824341,-9.697883202003311,4.948958256197093,4.765318110243376,-9.725637196732453,-1.6592554856327124,-0.7710485092013002,-0.6916119866826906,-6.434756217804866,-7.589624249150039,-8.277620846777825
-28.0,-7.087188517319794,-10.937732277378597,-3.8505437600588945,8.988508190606687,-1.566972509370904,-7.4310208923983305,0.992760198405797,-2.7527856000799966,-2.148244244428319,1.3841862526871977,1.229904602377858,-1.5223406771625578
-27.0,1.4803135059711106,-4.210680171897035,-5.690993677868272,1.414902610135485,3.5524380305274845,-4.980110284129307,0.5501479189150555,0.5090579055344029,-2.9101212203995663,-3.7047946530412026,2.1127584474807484,2.545316044284641
-26.0,-5.24266573344647,3.5765650117393246,8.819230745185717,0.8782303506606952,-6.99181933466013,6.250972482477393,3.9165765323793185,3.0326751893836947,0.8348225259875752,2.285456953227766,2.9248133050896,4.697610488197378
-25.0,-2.337512650173706,6.992889151204242,9.330401801377946,-2.3650424620691313,-5.800558492249584,8.13481031875375,-1.7188548655845055,-0.8094522187237705,4.382665822446149,1.8541069107770731,-0.3473704864514396,-2.629002338935647
-24.0,-1.1175636682970889,8.085644926578517,9.203208594875665,-3.4463998899738497,-5.210101598678482,8.612298171683689,0.22833576107458597,0.6102599135970006,4.814349078726504,4.493337363803403,-2.1724437509379437,5.509536511946927
-23.0,1.3399434193055995,-5.057133824389412,-6.397077243695007,1.8127849041960156,3.8160940705222375,-5.687991053031699,-2.03247490304009,-1.2071435478718504,-3.75195147683037,-7.499270825132494,-4.7353563021627085,-1.9681381916631009
-22.0,1.161552970098458,-2.296398528391489,-3.4579514984900594,0.5156698932120276,2.3351688841968485,-2.923838122098494,-1.5356517871531388,1.9543039374679831,-2.3925109194904612,-1.2166814121957605,4.805295204535218,-3.443637054308577
-21.0,13.26931758373085,-0.8280429434769876,-14.097360527208007,-6.19989104670951,13.709511733491222,-7.43456982144379,-3.6038310865344965,0.058120892994535114,-2.118766614505831,2.0846911791245386,-1.1204151654925938,-5.026850627706973
-20.0,5.169907504246536,1.268418221548357,-3.9014892826982477,-3.2030544202620845,4.563668335729894,-1.2877389448040892,2.069894917871526,-4.186082339766258,-2.134819639973572,0.7393030957395234,-1.2819520917086513,0.5286811458133811
-19.0,-5.627450291272447,-4.137000776167487,1.4904495151050055,4.897261990483184,-3.5294371787828593,-1.2893191365918972,3.2417378969635635,-3.766593319672899,-4.461881758402222,-3.127720625033348,-2.6983407280887954,0.9076924161261508
-18.0,-11.226121967157539,-2.0973766564862206,9.128745310671475,6.680118531679872,-10.226976364453186,3.478782694867547,0.8934765890536762,2.9826814807345814,5.924240655253277,-0.26599972799689287,-0.6000818783460383,2.37047175405871
-17.0,1.0956784462763327,3.786676050751116,2.6909976044749317,-2.4160333101050497,-0.850431394988143,3.209884694115155,-0.36016009435549123,1.2107623961497442,2.2435283330439235,1.1088741283947945,3.42042075654035,5.4455610782077235
-16.0,-3.618428543962859,0.851119444900839,4.469547988863823,1.337666179539824,-4.023949178325552,2.636868804219438,-0.24923931884509415,0.1293386758499624,1.9386175647619228,3.3240593104840865,2.4476612852964337,-2.8305629171365054
-15.0,1.4118731415371584,4.387025680820928,2.975152539283849,-2.861480075669565,-0.7685725737984357,3.7379011664579096,-0.5331730664358136,3.198029908139829,3.949206982329911,2.5777119133664668,2.8053885865153054,-3.0529195666622453
-14.0,4.61431724131596,-1.2254093953683012,-5.839726636684263,-1.7349636714556946,5.234635054152261,-3.5570895973122543,-1.068455818928063,5.011342231917985,-0.7767721166868846,3.553635907070996,-0.4342294379979389,0.4364378799654447
-13.0,6.102093476887087,-2.4010806802461966,-8.503174157133353,-1.8963069156063836,7.308689890980318,-5.482353877938037,-1.372125754077321,-2.5497157026434247,-3.492330696360522,-4.588745896194987,-4.034505639522612,1.2975958091679831
-12.0,-0.8333344127835871,-4.061984594865565,-3.2286501820820934,2.4714660930200893,1.207276348988036,-3.6040126817183955,-0.2965718316295817,-3.72573249920916,-3.4272975448957257,-5.047964392399431,-0.24268523437553569,1.6332295217710133
-11.0,-8.50766808613439,-1.57512788567999,6.932540200454269,5.0557019411113195,-7.702255266375166,2.71292004306921,6.499215978437194,-4.9931719116084565,-4.596687056217762,-7.2430716552340915,-2.3117427084396036,-0.8623443352716619
-10.0,-1.163515418235853,3.031258807825953,4.194774226061721,-0.9254903204079505,-2.729171306686691,3.5627738953063637,-0.1998871896781238,-2.3081941603903244,-0.27445971996762575,3.641606801279669,0.01930972329655778,-1.4852689201168856
-9.0,-4.312508454246725,2.1615794304914484,6.474087884738071,1.0843375509801378,-5.354028898667005,4.34275953549793,-2.6233062682286343,1.2954402807915248,3.0139837362780444,2.62548417215711,-1.1832187806175365,-4.035607686198834
-8.0,9.02631477104378,9.616573023210881,0.5902582521670361,-9.305059805384955,4.185736527337907,5.048449764146562,-3.0945345333400125,6.500024653803879,4.714218492878036,8.23750864960262,5.24814175462525,5.545755450327354
-7.0,7.774927544568052,-0.8504519090783136,-8.625379453646394,-3.43319812704656,8.248262432633089,-4.712854406040549,-2.6851043643840526,7.034304367754126,9.788033490642448,3.9538302696446577,3.706866656483238,0.7775265226473054
-6.0,-2.3261765688765186,-5.490350942038554,-3.164174373161957,3.87271549416612,0.3838436618863277,-4.298911942820039,1.960131762452382,0.011871117966328892,-1.2301843815047642,-0.34798047479302574,0.010423889334384207,-2.0283738122279695
-5.0,-6.253081078065611,-7.873422923305355,-1.6203418452395817,7.0393705443625345,-2.360925760550867,-4.71411481493023,2.190010362509118,-8.33367863418831,-9.561496342670033,-5.030951249367709,-4.196912079777444,0.18078185423596804
-4.0,6.588167238762361,-2.0928487163042653,-8.68101595506649,-2.265239555109023,7.657495714554017,-5.4286304248398745,1.0289451475437719,-5.170184650313123,-9.917054893879452,-11.569347518990504,-7.545596070181433,-0.5719518581110191
-3.0,-9.903871676972441,-1.5478896882476847,8.355981988724785,5.708441740779463,-9.116285701106092,3.3652603808605273,3.6394476550445267,-1.1646182216472138,2.609787177704752,-1.512249551517364,1.3866187331442212,1.9278067344713044
-2.0,-10.843810945279733,2.55501135333635,13.398822298616077,4.201002110550153,-12.1113146602395,8.01768889204892,2.3383422260158313,5.92704420550853,6.4213991844307445,4.340627106191118,8.479446503410118,-0.41870077221488256
-1.0,7.761136885793973,3.2568754113290512,-4.504261474464942,-5.53808916604358,6.146750559136926,-0.6629448172414154,-7.59639871922664,-1.2975694128036372,0.18742701839673348,4.8087971554995885,0.4356854916788464,-2.8023918136859063
0.0,16.995535205414434,5.187445880081998,-11.808089325332435,-11.048196745794343,14.42744180634142,-3.273540363156403,-5.939385115517672,3.548455106032705,1.7968976927158202,2.081731110870505,-6.852081379335349,-2.6935237844516653
1.0,-0.4956531418919319,5.06750743972987,5.563160581621803,-2.325230212741338,-3.065710173546008,5.348828215096694,1.6670221414140678,2.886753026592235,3.2348405395754067,2.0073614862392115,0.37485157809803593,0.2006705510435497
2.0,-5.6463805114761065,-3.46425718993801,2.1821233215380476,4.594075513100239,-3.93213297002855,-0.6894106689732119,3.052549375571994,-4.924697944919506,-4.820122884400154,-0.9292232648298548,-1.501507066487971,4.730969174970012
3.0,-14.211458561197622,-3.963826254048442,10.247632307149079,9.049446433875044,-12.231286592133978,3.16998365811495,6.027872796318444,0.5430398217363994,1.9631910826265158,0.13532341389044178,5.8059354899269096,3.2858964541491735
4.0,-6.012902691108768,-2.264103911756286,3.748798779352362,4.18183624225359,-4.871923040230513,0.6905602316620294,4.257903674201757,-0.35730670181003577,-0.7164367098528325,-3.010868616547923,7.312053134922701,-0.6251744257329379
5.0,11.92434825591475,1.481443595784068,-10.442904660130782,-6.736211012069979,11.1958304524133,-4.453270474508946,-4.333032786280863,-1.4185823473765033,-5.021791134016439,-4.640650417630473,-6.924935440959501,4.710677362607756
6.0,20.02986750314356,8.800773846093493,-11.229093657050125,-14.448359066131374,15.637124102843954,-1.1843027786464173,-5.0361887971141215,3.3682511077700754,6.78681250378968,8.341043735269867,0.8756616768780816,-5.316589357022291
7.0,7.41711579290503,-3.187001598439916,-10.604117391344943,-2.0711350620486533,9.006900489432526,-6.940211264833237,-4.032266840861016,1.1474530770743958,-0.23220706125600077,-0.4552993696294727,-2.7889930604916042,-4.437359667324399
8.0,-15.140400376359246,-9.667437890192131,5.472962486167187,12.365885834436662,-10.326161038458203,-2.0576419605289598,-0.91659927880163,-5.252393047434365,-3.701253199426361,-3.7133132227809185,-4.8573648864691705,-5.06776151456004
9.0,-9.559506440089544,-8.555422532868274,1.0040839072213736,9.094723237627637,-5.318021543761084,-3.809213730186736,0.8531560779880399,-3.11547900837099,-4.695409808420651,-8.493184293505392,-7.052790864193095,-4.237513607255409
10.0,-8.899809188889146,0.6801445138618298,9.579953702751055,4.144551341819318,-9.211314138176089,5.17946635726304,7.18535034714286,6.6854074116542055,4.99500948791028,6.571090939490739,9.783213137840422,5.8616077168333165
11.0,-5.550715453551238,14.801562282768268,20.352277736319543,-4.670260108719708,-12.930953824592896,17.54890498088953,3.098326490633701,-0.910523352283096,2.159922160310148,3.738621560272129,8.151012753232399,12.063081910920902
12.0,-0.12324239459592268,6.810866254997831,6.934108649593781,-3.387373482492152,-3.508703156059114,6.841898681215813,3.8350019198061602,1.3341716255780474,2.3272763048386165,1.2929892799288467,1.5625208080968092,1.9783190613514368
13.0,5.050139346546491,-1.3863826146835816,-6.436521961230001,-1.7934377209060548,5.769575254655953,-3.869841088977583,-3.000172778505682,0.47050979623956446,-1.4056167962944692,1.9166637253907228,-6.36315443361259,-2.757846404763468
14.0,8.656532312872567,-9.764897137642276,-18.42142945051468,0.5972844881162622,13.4971158131986,-14.139854255450928,-7.5841677876911975,-0.5524556096896234,-2.623430135063078,-2.923208980785806,-0.2764320269783975,-5.160097918332648
15.0,14.151397827974222,-4.909815416545179,-19.06121324451917,-4.651428808399461,16.57606517392021,-11.964202916709288,-3.4222937144110497,-2.9992160269488837,-4.2372199143103915,-3.449081061304926,-2.717061768399848,-3.361740974858834
16.0,8.728622898880324,3.8761825332416544,-4.852440365638456,-6.32910648729154,6.769759996831346,-0.4766574851598211,0.5493150712431234,0.4562091372139576,4.07284983174203,2.4024795895606976,-1.9812512041882218,-3.42346419765393
17.0,2.945689552577571,9.769200590948264,6.823511038370813,-6.303965276136678,-1.875703096552253,8.300654143868682,-2.880082505559856,-1.825888597181594,3.6538090404568058,-2.098084833056085,-0.234722794656534,5.093068595211642
18.0,-10.59600569858296,-0.23113154540633873,10.364874153176626,5.386304359372804,-10.495772460252697,5.067591716059297,4.224591465405699,-2.862108407446252,-3.6810729179680717,-3.7619210327305597,0.8075369451466172,2.5384968597538498
19.0,-23.540677966967436,-8.56383852339138,14.976839443575976,16.019565953227747,-19.278542944821048,3.207192241785795,8.09412764092538,6.945188102164073,2.2879548326599517,7.734817984175423,11.151603269100153,-3.254646626107435
20.0,-7.578781877844989,-1.369569098784151,6.20921277906074,4.512455049053747,-6.8429365489283995,2.4232485949230953,2.3545713721715678,2.6923116410217243,-5.1679366321915925,-3.0557783490499415,-5.021632666456629,-4.183499841506477
21.0,2.338048055144503,4.941458604663996,2.60341054951941,-3.688398364958734,-0.16992230765551852,3.78031854922806,-4.224228113714162,1.6344639872781375,5.191534154851954,3.6960603727588848,-1.7737836797302857,12.107950821383042
22.0,6.647656962678657,-4.535998570525159,-11.183655533203861,-1.0320931939365394,8.869365994335851,-7.925312725663433,-2.1535019620149938,-4.163015835900808,0.06810892712201477,-1.046042273421419,-4.265443847818935,-3.354418365054174
23.0,3.7937909472902245,0.42043991155292276,-3.3733510357373166,-2.086331132971444,3.609580677914485,-1.45719732432128,-1.0181162293563149,-3.7286614537441993,-3.5283464189649507,-5.546780542905361,-0.1465124030706937,0.41725023311443243
24.0,3.1274061792199532,1.3325629962912107,-1.7948431829287346,-2.20841428263382,2.484729690853409,-0.2052545181330947,3.5402325367133294,3.3859529246394096,3.477702023350412,5.108182674426935,3.9480378765226485,-1.9403411863849809
25.0,9.872653551541944,4.067145046051942,-5.805508505489975,-6.944953981892803,7.864514123170622,-0.836147528602259,-5.404755995499601,-2.845625531370787,1.3116788094716694,1.3419887484862516,2.3771094619822577,-3.349492356928784
26.0,9.548560307331705,-3.2853508764344266,-12.833911183766094,-3.1815374820153868,11.221441313729665,-8.098328025401798,-4.853176973791975,-3.8403630354671336,-5.555613707793308,-4.57146996718901,-0.6069778325568937,-2.1761601809088575
27.0,2.404634794727627,-4.016126294671632,-6.420761089399219,0.7581650340003454,4.369584064971789,-5.1726934414020285,4.612234304355227,4.105512808248992,1.4969236027716613,1.4852060231010695,-8.293353152002878,-2.1087945940310098
28.0,-6.495446542632981,-3.088106804162706,3.407339738470321,4.822809944595541,-4.990655965026061,0.12973803527278271,0.3944067482524516,0.6508449141529971,-4.0480309175447555,-6.944411346128116,-4.248615419903213,2.9554965416740187
29.0,-14.824602384967154,8.290300503090641,23.114902888057866,3.2960515021542784,-19.0078847398169,15.672656859644995,2.6922605518813008,3.0826512622046236,3.043905028857295,6.63897755111047,6.870016623154867,2.0465900148236575
30.0,-15.30977872853832,7.6865317672732845,22.996310495811684,3.7592903871003074,-19.113650766734665,15.308758105638304,3.0876795741624594,-5.381388444995091,1.7837706383151557,1.0567109183773469,10.158517078358956,5.47358536010136
31.0,-4.061053781254491,-0.38363653449183843,3.6774172467627118,2.2479350888530236,-3.832005451204828,1.6892363766742609,-0.932247005558603,3.367236680263285,2.1436139525939844,2.0638398812794487,4.157633756840843,1.0821767986070845
32.0,5.578646151900878,-1.848113419032129,-7.426759570932991,-1.8373688190593254,6.538337234185865,-4.597791227011236,-1.2436804738086467,4.691411178063829,2.31489168097625,0.07684082974363726,-2.5125064370446033,2.6861210581464223
33.0,8.285854705291356,-5.9066832766163095,-14.192537981907673,-1.155912171330463,11.195851916289339,-10.088798497891785,-0.6947704776225905,5.297458665344096,4.064738180584558,-1.4141011009478648,-9.272022001316095,-2.263409812836436
34.0,19.439505535656366,-6.643080116690568,-26.08258565234693,-6.434920524529725,22.718700557116467,-16.320323300413637,-3.148298194805622,-9.90241331891987,-7.680528302452657,2.1946769536745983,-2.5385718479196324,-8.347634722663699
35.0,1.7829816150143323,-6.200796860561429,-7.983778475575711,2.181576075233359,4.921219185285858,-7.123429561256715,4.668066794026641,-4.243350470337057,-2.172933191405417,-0.9488678289737618,-7.5255402286297555,-4.2629426472933165
36.0,2.9748839367720343,11.088149732126048,8.113265795354081,-7.050024595109701,-2.5304556672376033,9.575043125711348,-3.074450190047946,0.5422625536198145,-2.7475073742527076,-7.272443851079557,2.1175075970511212,-1.6135660675646866
37.0,-10.567126274809965,2.8955654044922134,13.462691679302244,3.8244880491545157,-12.055274381852346,8.236093908811005,-0.822896484272375,-4.072033832959955,-1.4773379012402932,-1.4113413225132483,8.71656189197377,4.084462541593317
38.0,-10.991090338627771,1.7932825991447991,12.784372937772618,4.671377806000457,-11.929800214562766,7.267865646869039,-0.15956512436197084,4.125565928636148,5.823762663659524,9.166979126042364,5.549616821300357,5.081995898235486
39.0,-3.5354729004916585,-4.794861587184223,-1.2593886866925494,4.161204370138849,-1.103772937098901,-3.050705550415736,0.35931345316239904,1.7411294373955535,0.35777863910246976,-2.4733234688175365,1.7344014579497333,2.901339955859007
40.0,3.70228520516293,0.4408947374848874,-3.2613904676780683,-2.076627732265926,3.5142183294845735,-1.4389495489476165,0.2506956554140538,4.181748543238973,-1.166278592554179,-4.1737392030940565,-3.4699737992295536,-3.976396098835332
41.0,4.491172522433848,2.1983496421228494,-2.29282288031104,-3.3549623875085044,3.3456502645490382,-0.0027802134489431918,-2.766824121215313,4.598771824688411,-0.7972706013011053,-3.4955993493891624,-9.350528609474898,3.320437706801618
42.0,-1.116793458617587,0.8995974573100041,2.016390915927546,0.08894962642288284,-1.5312232958663388,1.420038958569719,4.209688549657362,-3.224101483216088,5.372698079492552,13.812495994856318,-0.4517689887627512,1.200241865780838
43.0,2.301191629724001,3.0068128543200157,0.7056212245959772,-2.686583984393503,0.7606115907241495,1.8970559967556608,2.0391513057114183,-3.5431055722277827,0.5205969077844843,-2.4920305184069913,3.858380512462974,-0.8037028146399849
44.0,-9.262632259889205,-3.8589672755110755,5.403664984378135,6.592398584826787,-7.282730568365767,0.8172670059227647,4.858289811005695,-3.205513888250948,-4.3632812132382135,-1.6698901438396443,4.501942956099346,-1.2117030577669974
45.0,5.318215406317946,-5.037493541903984,-10.355708948221903,-0.12253615945057073,7.8186746977976025,-7.723653491466957,-5.829270576246994,-4.680721331772826,-4.221020720161534,-7.867883362451473,-1.4443265862814103,-7.279043029732008
46.0,10.415782503117645,1.8283629279233868,-8.587419575194243,-6.114973068991494,9.492638625334141,-3.399546599069678,-3.790449115396439,9.81852816688939,6.212165549474229,5.868274548039161,2.724111049724515,0.6396198998192935
47.0,-4.334079772137334,4.547934019039532,8.882013791176881,-0.10605748121821001,-6.610297866307116,6.699764024120542,3.8890828680904126,2.1510258867415106,2.315094374305891,6.57221735633486,4.766002882480491,4.428513014104138
48.0,-3.916118091770302,-5.484308860432377,-1.5681907686620438,4.699786295447507,-1.1734488168712345,-3.5403412352443793,-2.059024762340939,-3.6302781580675667,-4.151320531869655,-6.186394683380476,-10.033408398041937,-2.7141851620734134
49.0,9.816265795351052,-1.3821408074863184,-11.19840660283732,-4.214189995454515,10.506262420036833,-6.30689598838743,-6.693724121056482,-3.3425887521322264,-2.921363947416645,-6.158320653272394,-10.331582367140687,2.3126585852571115
50.0,-3.032323433593098,2.8791938407650672,5.911517274358223,0.007885667952044373,-4.478352083509527,4.452580251672412,3.820583299216518,-1.6532479198315881,-2.682541984513101,-1.4584719615470747,9.391052587614535,4.461421069926957
51.0,-14.763422574390123,0.8301196096758341,15.59354218406601,6.987012669661265,-15.192682527345838,8.184738463837576,4.750311320181241,3.801831938954824,3.2072174433813485,5.7254609128083525,5.955519238748163,-3.5958400839475115
52.0,-0.9393069710994668,5.522693689169304,6.4620006602687905,-2.2589705417896684,-3.6445771166468184,6.039047108979144,0.9682613134061047,3.4608000617915478,4.7837308883355725,2.9494288729382685,-6.351275129943765,0.3844354697853998
53.0,8.735564453644454,-0.7362929317969451,-9.471857385441417,-3.954037790020477,9.073433112374055,-5.140108768985897,-0.12385629748260674,-1.0782854392532206,1.3258042375596166,0.9129921369066327,3.416111299240823,-1.8317934507877014
54.0,-1.7654191258297223,0.4878288642566613,2.2532479900863303,0.6168128849036734,-2.0452811101939155,1.4098093002642789,-0.45993268075729143,-4.346219988901451,-2.5141712451244373,-0.8147777917516368,4.155010045850575,3.1121772686476925
55.0,2.651147066527968,-1.1025612381300258,-3.7537083046580606,-0.789269144780641,3.241857950129633,-2.4711967536047013,-2.7535304518975092,-0.6363676298144947,-2.069861842916964,-0.2518172283628178,-2.329649655021184,-0.5195236895626685
56.0,2.7781863873080086,-8.582878835684538,-11.361065222992577,2.88841344187376,7.107624596519829,-10.01902012163526,1.5931133163916513,3.402137944808179,0.47539677087976084,-1.4269708567489785,-1.8811522590435392,-2.322534651041308
57.0,-5.542615895983483,-6.042077245356087,-0.49946134937257947,5.773258188693106,-2.5627221634295037,-3.2429948413129233,2.5505069499936015,2.165106925017899,0.9084590315029062,-2.2966442025655116,-2.5076063169548455,-1.106883335558949
58.0,-0.024121466099990663,3.550050472192824,3.5741719382929027,-1.7917256289534742,-1.840740074875577,3.5869759015078557,-0.06101262325352441,-0.05854488582689843,0.4745705943126409,-0.010613551057897075,1.6615128807030375,0.49499358771756347
59.0,9.091064453649183,8.48949138803529,-0.6015730656137546,-8.751342941621495,4.882096127176052,3.9677760110105815,-6.258886763914624,-1.787962852674585,-1.6247304826943858,0.13804959566360075,0.37490913500940376,3.0943017502417742
60.0,3.8832723868445758,7.849961459153237,3.966689072308773,-5.836642437969521,-0.008642418435076404,5.933155940323515,-5.669687293454039,-2.8572498481139386,-0.3343698674636876,2.785233630173368,1.4427398397522682,1.9658960564760593
61.0,-0.7688116527000155,-7.368831375582764,-6.600019722882725,4.094507230514411,2.8659948603655634,-7.035771058953503,1.3961755263644982,-2.3080683947941263,-1.3033370633914116,-2.1599202952914376,-9.968357151275262,-10.860458811987117
62.0,-12.970307361362252,-2.194840038277248,10.775467323084898,7.530807170313007,-11.84831491758455,4.242301988915488,12.054695010307755,7.13064559821701,2.517401241113669,3.8585735101243666,7.124773063946106,3.4983221769705484
63.0,0.5830764333952887,6.196120275731861,5.613043842336422,-3.356499332294155,-2.49468898439598,5.938791601418221,-0.3708451526955283,0.08538159712188564,1.4778310415687212,0.23878113544909985,7.760260334390562,2.2463178904737666
64.0,0.06720621571739438,-4.4928102617852,-4.560016477502725,2.1762015432779225,2.2523433420216272,-4.488884985164367,1.0287760437085405,-8.955115471961001,-4.430189649327719,-8.102735569398106,-5.884124485245518,2.8044991482173143
65.0,4.333064249444513,0.04570619115218033,-4.287358058292403,-2.2162480110408107,4.327526914146196,-2.159048656075404,-7.07665861215347,-0.7296213768584736,-1.4362211263539595,2.1355474744239573,-2.2337380255562977,3.165629533257862
66.0,-12.157396872509096,-0.9874562224361239,11.169940650072977,6.6326938058151725,-11.643063111316115,5.1341041598029795,1.4917751270170116,10.07674791930936,4.050006808734334,1.5538618191154558,1.3794135088240087,1.4453965131802808
67.0,-5.519574626802818,-6.462736762475019,-0.9431621356721451,5.978116774932689,-2.2608483539299433,-3.73777477327202,3.734088028696056,0.08528869929879335,2.866769313626619,1.707390035175502,-1.7147279859972464,-2.680555688027414
68.0,13.156549260604807,-0.852118873279093,-14.008668133883834,-6.163792700884863,13.540380878481137,-7.387327344497112,-2.6722195331625147,3.0383363157483876,2.181440908043665,3.1125601307893316,0.7362992123947407,-3.587093182017389
69.0,10.992664774041998,8.47810936025754,-2.514555413784427,-9.749962248555324,6.799742435967715,2.943040879184859,-1.9971494908292744,-3.4903685523856502,-1.9387408962587342,2.5641836071299036,3.790065169247829,-2.609781476898948
70.0,-1.067501017625065,3.7994524648316674,4.86695348245672,-1.309086657371906,-2.99211705916915,4.289699144152432,-1.893357812617073,-2.8954134942873733,0.28076928695502157,2.1453100888819856,8.15389814606531,2.4318848656683185
71.0,-3.5839843441801595,-6.991815094205933,-3.4078307500257905,5.255371619263551,-0.10904722301763714,-5.169771876870573,2.095216740921768,-2.1156573777187617,-5.508951846465483,-9.07996619659278,-4.623725681529395,-7.723355271949814
72.0,0.10492830651137908,0.7932022021173502,0.6882738956059637,-0.4939787253933372,-0.31340045459571986,0.7668781156396336,3.019927795996997,-0.24623329688234463,0.5776948134706053,-4.076746863817903,-6.048576435833507,6.617825603729023
73.0,6.227148726752967,6.827650853725289,0.6005021269723159,-6.505414777746212,2.865367350258097,3.739051727912482,-6.418574348227346,-1.8619902981038465,-1.8831874842059038,-5.573911455217281,-19.069341741820118,4.658124972668611
74.0,-2.107021852426195,-4.123159324510746,-2.016137472084556,3.128132554561438,-0.07978830855586727,-3.1212211626384008,0.602795980812076,-0.5752025555677573,-2.3432136090857982,4.751249700762617,11.403872138437869,-2.8545442552057727
75.0,-7.178089474453758,-1.3235333683686632,5.854556106085083,4.25961390903762,-6.480126255500172,2.2978100621595856,6.250070389920717,4.05053312362589,1.5809970555271293,7.883998119214312,11.152625663796606,0.6262309207843139
76.0,-8.086261220062774,-5.765750344543152,2.3205108755195964,6.9358395256964815,-5.252753701058884,-1.762396718522909,3.6323047554202272,3.241337667500426,2.6624381014653373,4.748894612697398,0.20315962945022292,-1.442194552942258
77.0,0.6400184900779045,1.89648818377743,1.256469693699492,-1.2530370106700226,-0.28301431395130394,1.621752980650787,-5.010851285420215,1.6277174914394414,3.400419231190872,-8.205692775147275,-5.084607676108613,0.166613653006616
78.0,-1.1271592619942843,6.8871083366069,8.014267598601155,-2.9359015204998684,-4.546848883796355,7.4210914972702735,-3.569802057489836,-1.9205085212422932,6.167039326615493,2.4110438830479923,2.516018526862605,3.785337106705523
79.0,5.778052336438147,2.3622001566329613,-3.415852179805195,-4.040108219734503,4.62138599502312,-0.47789865146453003,1.1640065221512237,-0.8778205003306507,-1.181004134983916,5.0469141434594995,8.915595052400331,0.5756502460535261
80.0,1.1125277930883763,-4.594095567492383,-5.706623360580755,1.7752898698069117,3.3561552325727018,-5.185311896243477,1.8093725967363687,-2.509886276978986,-6.089578918260601,-4.6583365572999975,-6.343769051690981,-4.691061649159742
81.0,0.30117299703457423,0.7733286178151775,0.472155620780609,-0.5809321536118781,-0.060453858550729045,0.5782842285163898,1.8245338708205376,-0.4594899786089228,-3.1409435884627106,-2.855753623070469,-6.0224162185886065,0.07236398406526101
82.0,2.483038468508587,-6.470446686975362,-8.953485155483953,1.9469378163542705,5.662401896141217,-7.689583961766545,-1.9040781335712407,1.1405370754838338,-1.452047421360005,-1.825261476891228,-1.6496170659554261,-3.401505721358851
83.0,1.908726698903728,-0.714574750543362,-2.6233014494471196,-0.57013694720523,2.2854619965038423,-1.657870330222567,-1.0460324980122264,0.19642879673093,3.2744049673314537,4.858919653842994,1.379315471001335,3.0965164657301045
84.0,4.634992835848761,1.3143982849909817,-3.320594550857833,-2.952333116735075,3.9940575187500587,-0.9996233572472738,-2.0832066595796865,-1.424511443502917,-2.66467999221592,0.5244592723353938,-0.18218666950965323,-1.7023340373677769
85.0,-5.389826744826962,0.6657308692055692,6.055557614032474,2.38243059958984,-5.707534278592744,3.362424361912063,2.8453976210263874,6.0400971369403145,5.211153247442054,-8.610211752993388,0.5676896601408072,1.9930474982708988
86.0,-3.165232814405287,6.641922964115025,9.80715577852026,-1.7164284250253594,-6.468807019218457,8.230935759937939,0.8048882435895908,-5.760742549076522,-3.164170333266588,5.3856286165811245,5.755464095320352,6.5679629600325455
87.0,-2.2153212173441874,0.11550927569115066,2.3308304930353296,0.9974979850192547,-2.3287234577580422,1.2388977094416633,-0.550758828950692,-1.0974697986202058,0.8547579069753144,1.9367425780716543,2.9960437996916665,-4.005684804841445
88.0,-2.8044757119968344,8.06482485629392,10.869300568290823,-2.598311665326716,-6.805621962097838,9.49368831169305,0.9948643636663784,4.832546086460172,2.753433896737652,3.011731163218418,-4.924907070705068,0.9629122295325181
89.0,9.22325560422598,-5.161734352889926,-14.384989957115799,-2.0732037837696637,11.84411153141066,-9.816658822890403,-1.1162320365226157,-4.689920346051154,-2.3156144552384585,-3.0766082930087864,-9.853997089350903,-7.052229930157674
90.0,6.355753511002716,-3.39718267426699,-9.752936185269593,-1.4413355252558513,8.02274229670872,-6.614383320415659,-2.5543322313597514,2.268567960366359,0.6468653746235578,-0.47704937749365195,6.418130231517999,-0.1266585329478609
91.0,-2.693322509588092,-5.949651258057573,-3.2563287484694152,4.278804981235555,0.2538846978249447,-4.565296295619508,0.36429707198261496,1.3227337269343864,-3.4739188991830416,-2.5284568010520596,1.351901748815251,8.945960196241595
92.0,-13.580958447009886,-11.562120839501606,2.0188376075082877,12.6026425890589,-7.827196258711525,-4.818711892704911,4.006303825628523,-3.88280042537999,-1.657460026062318,-1.5318262557976798,-6.106548643849793,-5.530534876464082
93.0,-5.1538964814008645,-1.419281100352702,3.7346153810480973,3.311073534365147,-4.395356125646509,1.182171615250249,-1.0726878711447814,1.735197018174742,4.386273913939453,3.9788136166784445,12.827813290455646,-9.659287201882421
94.0,9.370007285708153,15.157473584692879,5.78746629898462,-12.324257104328288,1.7576490395450448,10.49219830148931,-4.51815113974901,4.197428098844015,6.240960020511936,2.2824561379125123,-0.30749927318514736,9.598574272526744
95.0,-4.95748737890829,12.627433993232298,17.584921372140503,-3.820531214898984,-11.229338101075559,15.126118128176632,0.7891532048646117,-1.717481945846538,-2.505746260979002,-2.5374157798357437,-5.9304043460093006,12.198188790575015
96.0,2.105981938423429,-1.1665048449072906,-3.272486783330775,-0.45503070439675586,2.7294402094122163,-2.193717248578161,3.7663108237931846,0.2012401709965207,-0.143272754146196,3.664207518728903,6.703145549088382,-3.1724842973537966
97.0,4.308425853164039,-6.9686063468123685,-11.277032199976418,1.349699865432942,7.754328275794654,-9.16580125977937,6.047213883262435,-3.155690403788082,-8.306603678706782,3.5262027351180127,-3.653701546221969,-13.293818506095144
98.0,-0.907097667460008,-6.020441875126855,-5.113344207666829,3.4922199550138657,2.066251573202466,-5.598669692404938,0.5339530337601008,0.41371384953775636,-0.28260712720231185,-8.118524975587425,-10.856936655903334,8.414053105950934
99.0,8.041514147377686,-2.3255892314684967,-10.367103378846158,-2.8972477013071396,9.169806223378808,-6.290247479621701,-5.710535424922172,2.0748492297702517,6.639881282217723,-1.8053211261662843,3.0735583062758547,-2.4951364918954906
100.0,9.028710824620159,2.1973388390708646,-6.831371985549266,-5.641312225265793,7.977090618356914,-2.3351875773978312,-9.018830545958627,-2.460154344986806,-4.111686324602831,-0.8580683096432239,2.77093773375855,-6.63863805528797
101.0,-3.0027022974994635,3.9767511754753473,6.979453472974826,-0.5062040410008893,-4.941215639356641,5.4587021827857924,0.33600316007076714,2.834588337226156,5.215125377355509,2.7176351602307016,0.9371364439057173,2.6767731314337957
102.0,-8.62588223713508,0.25864105349599886,8.884523290631076,4.249307545989762,-8.782019729197495,4.545981893180183,3.6350116747152015,-1.3277433835123282,-0.3805965830735838,-3.2751718324475148,-1.3347738519929697,-0.9877058680835935
103.0,-6.445699358510504,0.8230330277077428,7.268732386218227,2.801100838933107,-6.883850086200636,4.0901501317190005,0.7571215278147823,-3.4672253418904484,-6.878169010264837,-3.6376973036987783,-0.4018956110212095,4.603680253230203
104.0,-6.9072120495156835,-1.885374686408551,5.021837363107099,4.385915602613678,-5.915270046862795,1.5252400644693962,4.3427354249201855,1.6968339490362543,3.1285210991703116,10.963253423842549,7.608398919514716,-0.8127641386669651
105.0,3.613883428185572,-0.10176532427131343,-3.7156487524569344,-1.7688397902846615,3.6288435573179756,-1.8783554416373969,-1.6333291971971473,0.027983718796675827,0.2317578726283523,4.48046383558542,2.3954224723308144,2.911704275433162
106.0,-2.4107366830887855,1.085951772636862,3.496688455725601,0.6459522269647864,-2.9989757004254267,2.3207580543844064,4.078735295066997,3.174851584009416,4.179149395399445,-0.40383645861775896,-2.8594372744536285,5.339288289077336
107.0,0.5192235634602778,-7.970887645001952,-8.49011120846225,3.7843707072885904,4.527829124875321,-8.197918279933413,1.2081327052966357,-0.22775740748139217,0.011051346655824412,-5.872488147011844,-9.063415567245254,-4.44075986066814
108.0,1.00131421840452,-2.426112232142054,-3.427426450546556,0.6894088317960123,2.228929079947153,-2.9677147937702024,-5.142880786309854,-0.8395705299154215,-7.456816878299463,-5.070865173845698,3.3406972796580643,-7.254411288613214
109.0,9.536286849915792,5.13162927374842,-4.404657576167314,-7.35784511367161,6.9806778125866895,0.3272977714736207,-2.550114333861872,0.6923811942310525,4.214009693985794,-2.6444110751109817,-3.0864268552457554,0.6959685263706481
110.0,5.156393618855272,9.092232967743675,3.9358393488885026,-7.146673755330859,0.6217331914466477,6.480174908696616,-1.265597219148861,0.28986384341632254,2.8933231478480335,7.355060726199718,3.7853259294210906,2.182867789552147
111.0,0.008165901388835328,2.5348530910420677,2.526687189653299,-1.211124996316312,-1.2413414918697838,2.5748854573052733,3.300352481513918,0.5184688882182382,2.0303171340458426,2.36033057589148,2.0233112952459784,1.2559131131502663
112.0,-5.6059542146589365,-6.948083452995278,-1.342129238336328,6.264498052722988,-2.18311033307566,-4.104260748066496,4.382799778755428,-1.2094623294059008,-1.7096264511799109,-0.15344804396784473,0.49345698749475053,0.4176849808901657
113.0,-2.6150094344823387,0.208615301210771,2.8236247356930697,1.1970397067348557,-2.681977296503291,1.4737757872836155,-1.6156714030770365,-2.3999155914945587,-6.536388326345744,-3.117395964197038,2.465335399516099,1.7020701243221046
114.0,6.097575977321168,3.407419281816116,-2.6901566955051126,-4.753596559047461,4.3593805714794875,0.3908392002408102,-8.847207696452388,-1.8375515114812868,-0.9923761938810034,-3.5341115351770545,-4.9101444854953264,-1.6998533548520731
115.0,-0.28647771146975964,-1.4981798547046465,-1.2117021432349318,0.8931448368500636,0.5088490946281341,-1.4043648393271164,-1.6251094359169334,-0.04807029942895391,-0.6175181314739946,2.0163898944237157,-2.0363096391491786,-1.364135586041294
116.0,-5.8987786727930995,-4.998816235841309,0.8999624369517931,5.447096359601256,-3.4353703410335017,-2.0211193267211485,4.320379659556613,1.8838789546173005,3.777583637269011,-0.6295374797434079,-0.9397553629522236,-5.797320969932401
117.0,-7.027943821892643,-8.423358796825177,-1.3954149749325124,7.716705212091454,-2.8599293181014205,-4.880262252056588,7.007413373560301,4.2328745880168235,5.302816771440892,0.14096948073309568,0.06384710311103654,2.969929464770216
118.0,-2.4568754329818274,2.8832080776325495,5.340083510614386,-0.23322386538506468,-3.872528172399459,4.064127489342123,6.387836946725631,1.7418027862091283,0.6599930158317249,6.30483366189846,5.889341408867398,6.611100008130091
119.0,3.3052273879880816,7.2788145202145955,3.973587132226497,-5.246476230953731,-0.3156099599496666,5.659940008685578,-3.397566430312979,-3.514776029594368,-6.332632511559644,-5.649862448851847,-0.6201631734797641,3.8337560130342707
120.0,4.091500240766999,7.191564538341092,3.100064297574057,-5.687624201419064,0.51119831156592,5.1027410501558,-3.9529053113008414,0.8936636125007587,2.6634422475978856,5.176327745703057,3.931484478453275,3.1596554040093228
121.0,14.446710061722323,2.0835835141803196,-12.363126547542045,-8.243011203451687,13.422508583885575,-5.1035094225268836,-9.557962759249191,-1.2227837079446822,3.089713172615107,1.764047561199293,-3.115549423325331,-10.014457141843046
122.0,-2.1437766504419713,-6.497621810547764,-4.353845160105807,4.3359751946759495,1.128979962424256,-5.390606088964895,-1.2858739145129903,-3.8834774079169136,-6.115533597697624,-8.3384780780899,-7.5568214048982405,-9.442818456579278
123.0,-17.282089833191144,-11.950099866674542,5.331989966516611,14.62833075326597,-11.353439231341486,-3.3552979472539857,2.1707535160824145,-3.494134615998415,-4.82451449984784,-3.138895660129989,-0.9319670394010426,-0.8372091297937825
124.0,-6.274649501059959,-1.344555498955918,4.930094002104053,3.8217223568713283,-5.640616040592363,1.7433677609167137,8.629751337507818,4.386754492477276,5.748746814499487,4.408699309532149,4.050993743540632,8.634957331048405
125.0,14.03795746393886,14.289560391966436,0.2516029280275762,-14.229012231174206,6.861452252047939,7.2977572511927775,1.9525982605254404,6.7987187473589294,5.1834641425025305,4.6547585802487585,5.420222621632013,4.621860492514748
126.0,5.114526012757997,-2.200569018828383,-7.315095031586388,-1.4418726066179426,6.266577295338527,-4.730270237449426,1.3924588111783374,2.2284841517500573,-4.508548770234196,-4.584941040613481,0.8138210229355809,0.12849350226063416
127.0,5.516236942909307,4.401289698975153,-1.114947243934136,-4.942370452803335,3.3709804503240806,1.6745328258247398,-6.031205127938308,-6.6856305098743505,1.9893715850681675,0.4418349115679182,-3.454131985464991,2.7386304097310297
128.0,-0.40335360674859,-1.4835428984644687,-1.0801892917158316,0.9610843821354625,0.318244654926889,-1.3224833646790537,-1.8275956928940644,-1.1272590502357693,-2.788119972170735,0.3440305876526289,-5.315968750932372,-3.5034515965959443
129.0,-11.564710463981571,-1.8003597263634015,9.764350737618251,6.623464056608527,-10.681726467702745,4.028141446626453,4.100241380088172,0.4737089055971375,3.6428323514742713,2.6179670919872806,1.585308136056267,-0.6135685917259956
130.0,-6.418518262093766,-2.5656243633521063,3.852893898741733,4.515496740851082,-5.150350584977415,0.6179288264008216,-2.001345236775155,2.577411455484953,0.39263351510688127,-1.0457126185334358,4.929777358192637,-2.752331934166186
131.0,-5.628983075616919,-3.9997213900495296,1.629261685567389,4.843634156197471,-3.6419642128595826,-1.2071218946906594,-1.7585402964614574,-0.9289621623204836,-2.0626925398670837,3.3940308744540095,0.6678371003109664,-4.5277008007588915
132.0,7.520071212609402,0.4180377658891903,-7.102033446720293,-3.932289725396295,7.299072019920628,-3.3638494341635803,-3.4326344537730673,-3.8703528306322625,-6.231289632208086,-4.2860165791941025,-1.1307577369770858,2.084253090398581
133.0,8.951120613657903,1.4278371763642876,-7.523283437293727,-5.2237046358002335,8.303785867356591,-3.0724092244416212,2.553324369205859,-1.5279067003626179,1.5453888550360522,-2.7162026969108197,-0.956893844364638,3.7568442866427096
134.0,4.000840771207735,2.3449446494824224,-1.6558961217254113,-3.2007734005526456,2.814753542447744,0.3948846723253825,0.7704636541863075,1.2242379422050205,3.469666363561901,-1.94607085333786,-4.130790751588039,2.525362427108064
135.0,-1.8786944110723036,-4.816084835654799,-2.9373904245825537,3.3231785267488028,0.512634150939641,-3.828881786573546,4.320479714379845,4.58003872409204,1.99587620942709,3.17500516366414,2.0735958730450865,-4.706619922037473
136.0,-4.40033553465915,1.3344767257720516,5.734812260431174,1.5882001871468339,-5.089373306538008,3.5035306583397015,-0.3966219316018569,3.2783329006090547,2.0884930349062047,0.6413047069552893,-1.6722638318903535,-3.00696760003845
137.0,-3.0103287211715304,7.709182292767039,10.719511013938565,-2.374308831965765,-6.814932937446732,9.18490669676616,1.3040641104257804,-1.6285437958281088,-3.300088321779171,1.6750461214325632,-0.35497176901561933,5.529518331691618
138.0,-9.093390612134078,0.6615453767990753,9.75493598893317,4.188961227554029,-9.460904956507484,5.259482982211868,4.049285983228655,0.2992017351767995,2.902146144914987,5.236508837991998,8.67681579976947,4.761684542011133
139.0,2.302585623194589,3.5418628323749353,1.2392772091803836,-2.871733250010807,0.48754880496357167,2.3631313557046036,-4.866945764200023,0.887507679380181,0.7602735739305231,0.4236959652318606,0.8643082749961017,2.2360117583260593
140.0,6.7861936081503185,-4.796154451184924,-11.58234805933519,-1.0229705842128562,9.214171816399084,-8.220168050641487,-4.530491888916728,-6.573642358975071,-6.494013630561033,-8.671631956308666,-3.8572250764359977,-2.8919555409036457
141.0,13.15815299586784,-7.263151748789769,-20.42130474465756,-2.894964673313835,16.819144141521313,-13.801909572985693,-5.213583619983454,-5.884629355302498,-4.462624174281256,-5.318644022284681,-6.927556913741317,-6.338206665709099
142.0,4.825423748591582,-1.5840813580624817,-6.409505106654063,-1.6448083687337807,5.651113371747316,-4.045735577055772,-1.2223437287569847,3.6902592173101922,3.6303958665183917,4.059725394634301,2.5332911638711564,-5.665903378753747
143.0,-5.432489213735901,1.6289423384206871,7.061431552156552,1.8786031868545476,-6.28426158067364,4.363843024053551,4.5252917943344855,6.699571577823863,6.4710972960433715,7.380267475181055,1.5164125725014994,1.5752966489250149
144.0,-16.534554281604397,-2.718145842719999,13.816408438884329,9.601997041052911,-15.203969690887403,5.558966145881221,5.040191825531132,1.5510435145690749,-0.5261186157811499,-1.5304740763385798,1.3277443049118147,2.4874218148960545
145.0,-7.196141066073593,3.693071243482054,10.88921230955557,1.8025749960272885,-8.985754982919435,7.297120032045905,2.099716814559106,-1.1072737852338514,0.8625370971414561,-0.2221056165365114,3.7307612843234343,2.096804715760248
146.0,3.1703571099362104,3.2097391479997177,0.039382038063411784,-3.22215020688317,1.5454190509828436,1.633082377577864,1.0642622644951953,-4.825451673981725,-7.0088993015094,-10.975827009695731,-12.402453505275336,0.4669215773560853
147.0,11.970210826707087,4.432149728561437,-7.538061098145751,-8.236771872969552,9.729531129343096,-1.535714150727948,-2.6287559747002165,0.626711431011119,1.0544262186127864,6.34065860756345,3.5768274518915155,1.6623297255016782
148.0,-1.032509673391492,0.13954036241892798,1.172050035810325,0.4890565663343249,-1.1372087998760643,0.6073890686316465,-1.1832518498611604,1.6112176355317245,0.2978214095411109,2.481165068469464,2.7248199089276826,3.950003607758661
149.0,-1.85358139837044,-3.103408721408365,-1.2498273230379953,2.5245999447480254,-0.2718124472284593,-2.131582537863313,2.143018710682062,2.0624584816101446,4.507436021563949,4.249209419408799,4.7166535314195315,1.2166645273724492
150.0,-2.401025699129038,-1.963621864725992,0.4374038344030442,2.157161618951619,-1.4028628158945127,-0.7835111051598127,-1.6503029434202525,-0.5694963166116442,1.5849370119456578,2.6432819772251452,5.629362422412982,-0.1464555972606938
151.0,8.208265957972774,-0.8412995278422719,-9.049565485814975,-3.6988185143131833,8.635051755451087,-4.956232380838773,-3.267869818430268,-1.8572608379587767,-2.465205736775949,-5.6277558745989325,-3.7248786632570523,-7.068327346599909
152.0,3.8012002278314387,-1.9068441541025043,-5.708044381933819,-0.9528534349189892,4.756377411601463,-3.8134780114197047,0.021304746062076774,0.5757328523072807,0.03923837327704849,-0.3013229576612648,-4.351551637024979,-5.4369084388327416
153.0,-9.088621263985019,0.8266589532788795,9.915280217264023,4.1322144118468245,-9.498143407468023,5.365097087318782,0.20268540699718962,4.027166185604068,-2.1768441567661037,-4.417790201456795,-6.4255367071894955,2.339557651918266
154.0,-2.3052716027377005,-1.5171673547322306,0.7881042480055314,1.9147148043785172,-1.5355404375404103,-0.37357672826067034,0.5171679975400585,-2.0076891595535886,1.276353027425132,-0.8265669681303724,5.613772695241078,3.68794648085696
155.0,-3.590410988001996,1.6784678936956432,5.268878881697617,0.9563424199021922,-4.486996068169606,3.538530793476861,-0.9074509086656111,-6.469424468970918,-2.0362906572084274,2.9719350251804637,-1.9519906561021387,-0.47572389541808935
156.0,4.762368763437323,2.049684391851902,-2.71268437158549,-3.4136352260659693,3.7692473825528108,-0.35054806795391746,0.2453814316531826,-3.0414324416204934,-3.128864682612759,0.5681257402791156,-3.188291020382255,-1.5049198831962864
157.0,-0.4171229513483675,-4.330019528283611,-3.9128965769353314,2.354727469721491,1.7874579673203936,-4.145295831515815,4.5276668124606605,3.2829433723701182,0.4166084855403407,-2.5118930168851445,0.1975108373714709,-0.15306680159707842
158.0,-0.08052824464238251,4.474957208057795,4.55548545270009,-2.149587301080244,-2.3534380076267274,4.48692631477847,3.2458658000594602,6.234726340587054,5.523169874277532,4.216901649916902,6.781821002802186,1.3785660722886566
159.0,6.52332249826952,7.38652201770402,0.8631995194344262,-6.9971333840090875,2.793960475693175,4.170692306353883,-2.8216541019713413,1.036058067537629,0.41970684072947284,1.856990315952182,2.735049251543731,7.647813033247284
160.0,-0.44451128689967856,-2.267932396954426,-1.823421110054807,1.3845720053073793,0.7281166770507648,-2.005264607795681,-4.764825317174601,0.316618584005536,-0.5480180346953565,0.011751142673838921,0.586479547864516,2.413423183851567
161.0,1.015103189195688,-8.812891442753969,-9.827994631949693,3.922799814105079,5.376328054349582,-9.36536715329507,0.41762105318616793,3.240865246178282,4.135744583528397,1.2213647834805355,3.498596255990643,-4.104314414974634
162.0,4.527438063601162,5.292062444832812,0.7646243812316293,-4.965351562405994,1.9111162031998112,2.9759691565107396,-0.45416656251141707,-5.1384468984132825,-1.3318746459338309,-3.798976876465143,-7.945882864573674,-6.5925545676020265
163.0,-3.7778391341855198,-0.10499920482913659,3.6728399293563765,1.9667755762102577,-3.696366830504336,1.8031858470716218,0.4888252661671583,-7.20244901183076,-7.694937973885424,-6.551139929460609,-11.726149172328403,-6.239604411145097
164.0,-14.704051884032655,-6.58716193472027,8.116889949312394,10.675125578988654,-11.37880543174192,0.7792167682846235,0.8117284960195769,-1.5603847202187309,-1.083742469264613,2.5141758418019067,1.9131962523178032,-0.3268929800796987
165.0,-13.07928645157448,-0.7860690524874973,12.293217399086998,6.888629711322402,-12.728416190653943,5.766979782095971,2.8436169699480467,6.323754739542682,6.093870554899448,5.216554013749507,9.367319213150411,9.234952701419147
166.0,7.454348302367473,-3.699775073322698,-11.154123375690165,-1.9157715120888035,9.2670266074087,-7.409723864727274,-1.9695854038543275,2.6749668394225283,-2.5911814326870495,-0.7546631362198695,4.109297647753202,-0.20481636740126952
167.0,8.652627218009014,3.772440000234022,-4.880187217774997,-6.166700054885259,6.81068683916225,-0.5287340823761584,-0.01863284139903104,1.8492574922958087,4.204254577147081,4.414895554447955,6.3214182367297935,-0.3246412075938152
168.0,14.410547139001917,7.796550448994868,-6.613996690007059,-11.052488209453594,10.47685811830155,0.5476853266956511,-1.3588897100324746,-0.04498603929925338,-2.3479421707554753,-1.291050219253405,-4.386362452896128,1.4953952194374365
169.0,7.718668912367327,3.1356523583083757,-4.5830165540589665,-5.450504706300202,6.189318771587601,-0.7577281435180132,1.267650521925733,-3.259169147653142,-2.9460962790347835,-7.034699373920118,-13.4303420843523,1.7875842913808542
170.0,-0.7248596886572658,4.491776039400089,5.216635728057339,-1.9039962968477289,-3.0188011591101205,4.905722777064586,2.388968324500389,-3.886126211380877,-0.9353362704784149,-7.055003782589335,-0.8666075746003372,3.268488882477616
171.0,-7.615374589850983,-4.709595283062574,2.9057793067883946,6.142830451936319,-5.238703105289682,-0.9263358775844124,-1.5055858343998296,1.1389954164635832,4.085192594145507,9.693736514353125,7.031726825451452,-7.822035132490786
172.0,-12.985733813755822,-6.891011560697887,6.094722253057919,9.917965509760622,-9.526035827367096,-0.42385085113295856,-2.15742503577066,-1.0988555602841226,-0.18696722340276373,2.417009019339123,0.5666983134423393,-1.9679056541341344
173.0,-1.2318560714331106,0.24934201164916647,1.481198083082254,0.5482039451280336,-1.346991636506755,0.9138733408867559,-0.9317350823426583,4.523488495235636,2.935831186256407,1.6680978936057467,3.480851333890439,-0.5474502016072074
174.0,-1.238310214191917,-1.953238600104667,-0.7149283859127691,1.5732335922178446,-0.2526498868165752,-1.3703732663324006,0.9379794661237619,0.2644938430113746,-1.6527790708539345,0.1260759870624686,-0.8977756424182526,-1.911261250750065
175.0,-1.0325061632400305,1.9555443075441574,2.98805047078419,-0.48313941503748287,-2.0761029836869236,2.5079095584355375,1.348717241865626,1.2769747274280459,-1.7190926156326856,-0.7467715637861613,3.3525187954985434,7.198295092318484
176.0,2.6739905861286224,-5.655104231500848,-8.329094817629452,1.5504684580648238,5.522053610537578,-6.961329971988129,-1.6605064747762837,-0.9355221388287103,-2.4717814329601877,-3.9587145832478248,-8.160847298387859,-3.016643315117606
177.0,14.538539445188142,5.293245634272988,-9.245293810915136,-9.930824063297438,11.922230689203115,-2.0274543727325733,2.9082569740047717,2.195857113404112,3.456741443310234,-2.177885229307969,-4.008545127716235,5.920276823204208
178.0,1.8992801690117727,4.235126149789487,2.335845980777713,-3.0784816550695275,-0.17809063031876082,3.2332139880683717,-1.542355055857287,-3.729049935271384,-1.1144189773981195,2.8544346956500526,6.564227290883529,-3.319996063649079
179.0,-7.601742334195887,-3.077490960099695,4.524251374096175,5.330361696832326,-6.094020521025337,0.752214594753239,0.13578302786493834,-3.8269080678901775,-2.4922191215268437,-0.7558133704931833,2.9442778676070587,-3.1090244894227244
180.0,-14.761470983893094,-2.8151707469893257,11.94630023690375,8.778792717785162,-13.381703146831578,4.6001400622319135,0.6662381967838032,-1.4451471288638464,0.9739361074232322,0.7793072532375354,3.2269875637605425,-0.061574556727342244
181.0,-6.003440307450925,-0.7780209815472142,5.225419325903702,3.3790778682458034,-5.644107815803103,2.266716390030547,1.113946060027579,-1.9960316434179752,-3.5911772290547126,-6.451320269867059,-6.960344371395571,2.976539416519172
182.0,19.773177524232292,0.8557424665187605,-18.917435057713526,-10.328660917798068,19.38840158807218,-9.057189001130295,-0.05293045281035516,10.832822431358872,6.515731959563311,3.4908944734021135,0.716958888736551,0.21501189311726537
183.0,12.970954068795116,10.67451941344528,-2.2964346553498185,-11.759378725934232,7.590332838103233,4.170630188078203,-4.024794783008318,2.2981410667723354,3.9445178614467924,10.401524115528641,-7.073842056932066,-3.1615451632090785
184.0,-2.7613206586870493,2.894254793346464,5.65557545203351,-0.08039232830747212,-4.179575143463519,4.260827671252028,-0.37322276458141235,-4.507871643573628,-3.3696972459471186,-0.9486561770875399,2.7134244622578856,2.7716541982619365
185.0,-7.637740455421239,-3.9447907595224856,3.6929496958987205,5.781653987601141,-5.639502845592162,-0.14026044919141056,2.4567703129889438,0.34651654862255965,-0.15209850839184869,-2.4680464016814563,7.852918853032526,-0.4816001825004165
186.0,-11.121804947264614,-6.2451275090906275,4.8766774381739175,8.679931516893674,-7.972193079951282,-0.7028055095372185,0.953140263567805,-0.22314397339534064,-0.29595278511342715,-5.213490661831198,0.5468670140262883,-0.07440471436049734
187.0,-12.369688837809239,-7.9597861763529245,4.409902661456213,10.166997876209265,-8.437099312928607,-1.7212017733734686,4.098648612918659,1.248103031591043,-0.011528682430961057,3.430233835366598,5.6896057766337576,1.7851907200697812
188.0,6.114066252683916,-1.679032091535162,-7.793098344219185,-2.2121453009804055,6.99029979040676,-4.767570296292338,-1.9066361414862407,-2.5597983916995948,0.47957597710029853,-0.3126256862640903,-2.1862107063668823,-0.6224126077045684
189.0,16.90158507397235,2.304453852271097,-14.597131221701332,-9.599273087542073,15.710912947148593,-6.104150016129103,-4.975155504869625,-4.509993622801923,-4.059920977507438,-3.869385315215643,-12.417836606339355,-3.606642124845215
190.0,18.46286163059462,6.364024203829348,-12.098837426765312,-12.417102483073458,15.242583223133472,-2.828453459134815,-7.643042502034431,-7.306916406190019,-11.494991346475082,-10.34616061159052,-8.627130633202086,-6.098314792825222
191.0,1.2563825318682165,5.994516000607018,4.738133468738816,-3.6418594601652945,-1.7038829097093195,5.324574685986044,2.5786841469037123,5.430197831938227,3.9866862805405376,1.3820646007611934,2.737961360148255,2.3258784470836176
192.0,-19.268727065614733,0.05920071929030346,19.327927784905135,9.572274967809033,-19.267321479082963,9.650455630724542,7.316844831173441,6.778411410503905,7.867131764202879,10.427148930465846,5.532193834660782,4.675617974850226
193.0,-19.902597493812443,-0.5438595405886699,19.358737953223905,10.253277566082609,-19.68486209050977,9.363541669424961,5.608923913978571,6.973926984260701,14.682103070313051,11.410160923059829,14.94665454027303,7.031513791684773
194.0,-11.633822101045208,-7.0304803864106225,4.603341714634693,9.349347435531149,-8.09887393495735,-1.1780677718881352,3.526286758035517,1.8878898315019725,-4.189105515863677,-0.7806335887586373,4.27143148009538,2.828796721199201
195.0,9.895660383154778,0.49566967689354247,-9.399990706261192,-5.1852125197947485,9.665630132697329,-4.4134007228824785,-0.41634479343021213,-0.590160879901525,-0.7515778708044794,-1.6676442385615606,-4.119339380557078,2.227030475293904
196.0,15.265376789431777,2.0195651480095926,-13.245811641422222,-8.631452538362417,14.274595829848792,-5.568044270706861,-11.85848803708049,-7.946513599597681,-4.369837223924375,-1.8843530442943974,-6.225200074316408,-12.668626442783092
197.0,12.960717165655781,-1.9576553951075686,-14.918372560763403,-5.56201184302316,13.961836598916909,-8.46327662955569,-6.395328784897225,-9.376382955871307,-7.206832890334113,-13.255950754058654,-13.122958765890507,-9.500486912079623
198.0,-1.3772352064463576,-1.4299738404186029,-0.05273863397227885,1.4336089933265734,-0.7149448323114047,-0.7583700794370518,6.423208236146763,2.2057029337057843,-2.3388588931896486,1.7817354221639903,4.1190980976563,4.979457427578116
199.0,4.7520083621919325,1.6257518125026678,-3.1262565496892476,-3.145835362824615,3.889264515376315,-0.7617626218459791,2.069527895419985,2.26306630075744,-2.1065629926225578,1.621425269688249,2.5169324535111066,3.068282972784626
