Time(ms),I,II,III,aVR,aVL,aVF,V1,V2,V3,V4,V5,V6
-200.0,0.1380956331612282,-0.5201792578782859,-0.6582748910393965,0.15288053242495214,0.38443843534230515,-0.5620500536494832,1.0511397767438087,-0.8148436937216621,-1.8576854940389416,-1.4402831846792126,2.899918466412588,1.0927329853900791
-199.0,-1.6716851164848192,-0.04664581459798711,1.6250393018868812,0.895030109547037,-1.6687100645580792,0.7452440993223881,1.32126390854174,-3.120292796822645,-2.1825843127622537,1.4225586610438663,0.6719829186139129,5.001584224647882
-198.0,-4.736964637438706,-0.3368968104954903,4.400067826943195,2.569778733117471,-4.520414338414452,2.074030210980829,1.3447825149371733,1.2762241067515145,4.211633850363783,1.6720810689240757,4.232096800118949,3.7562360532810777
-197.0,-1.5769516077619703,-4.466365030080793,-2.88941342231882,3.054846906005043,0.6140879933866921,-3.7088942599799397,-3.1808655881282606,1.5211065265616732,0.65653682491479,1.838393222326507,-1.8045385142390469,-3.0406307069075784
-196.0,-0.9657963508534316,-0.7073399180283882,0.2584564328250297,0.7951467322062901,-0.585451557131687,-0.25369251485678224,-1.835508363891695,1.262541475180618,-0.7491928867496469,0.37482638959427783,-4.204295342562286,-4.521693581810388
-195.0,3.0574164185230632,1.125280923837726,-1.9321354946853417,-2.1256704466873018,2.51514637717328,-0.4339882408518755,2.8324621002083985,0.4369043901229903,1.8749931474595154,-0.926402167283905,-3.460403546139957,-3.517011542620149
-194.0,3.6592273880450197,8.414937856280291,4.755710468235242,-5.984274297332039,-0.5297801161828208,6.631057956708398,1.6328052994737494,1.0365578993822266,1.429665829822244,-1.7515326651193703,1.7964935513607951,0.6587546727860807
-193.0,2.32140024853968,1.8265618497334977,-0.494838398806249,-2.0921491002044093,1.349721582051767,0.7104316494269267,-0.449099912592101,-0.9173223668901973,-1.579825154929012,-1.6038162916507805,2.7803776206810706,1.1508654189656777
-192.0,-5.297614364389993,-3.9299779039290192,1.367636460460956,4.601251257724992,-3.3080994161438606,-1.3134228125376533,-1.5390747363310697,-1.291635804552103,-2.252769201057446,-1.152806478423852,3.6378277715627108,5.2153923036737675
-191.0,-6.433453835907207,-4.739929675914426,1.6935241599928341,5.576762710096971,-4.034243327877971,-1.5501074456793624,0.954030025683451,1.3906373593874704,-0.6318845995368723,3.9342197861043595,2.0580529275065285,6.90973314220081
-190.0,5.762418743654523,1.7428792226175758,-4.019539521036815,-3.7630601347355452,4.8454347802893505,-1.0790721338661706,-1.9059866449228717,-0.25118283936220637,1.3710602459289745,3.136522781312821,3.373492496048687,1.779795437539779
-189.0,5.913938879604308,-2.805363922422523,-8.719302802026702,-1.4890257275953123,7.273760020544331,-5.774957522691049,-0.9626528955092538,-3.805530201017791,-0.47266625278954166,-4.056870207093814,-7.450634908071253,-10.457378731596757
-188.0,0.5515886623851693,2.8731626181787093,2.321573955793631,-1.7307176065395016,-0.8475063271607004,2.588107118703911,0.7584741329279049,-0.6834206500778321,-0.6179143627520015,0.18719853026847522,-6.5455514548907825,-8.533671945955724
-187.0,-3.289660473265429,1.1868632311762837,4.476523704441741,1.0273785293749969,-3.844684449165845,2.8201179273423955,-0.37078903858209067,1.9300289216223765,-0.6821888498175448,-3.877490917999927,-6.149138852189995,-3.8458966663000926
-186.0,-1.5205289081349749,-1.2025771869691166,0.3179517211657661,1.3320853446462977,-0.8805233416124549,-0.46227867892801644,3.2956360917036807,3.014818648652028,1.1544705563864983,1.6754735548330737,4.071525905070143,2.297047666188455
-185.0,-1.7779744037123382,-1.9675648187298391,-0.1895904150176988,1.9179547130169343,-0.8349926563690249,-1.1112345494779836,0.6783960428657052,0.507329632263041,1.5348383976460023,1.817464965161795,6.831229475762979,11.133929449880386
-184.0,-0.444775744548931,1.6879830255621822,2.1327587701109114,-0.6569496119370268,-1.331994495482173,1.9429719722346102,0.06376923440284232,-0.9072929003094387,0.3501183027444327,0.29848778387149033,8.544970386694274,11.28296229938018
-183.0,-5.6171553743423,2.097768441598673,7.714923815940792,1.804067085912483,-6.634579294788479,4.9286843294695295,-1.729234828612384,0.2668519583037311,0.5601626547519808,3.367440884240396,2.222751312277987,-2.115886356711222
-182.0,7.206756065045056,3.9404135985356423,-3.2663424665094682,-5.60465674284785,5.184661192818646,0.3554510710553396,-2.5758895402950315,-1.2399269123812378,-0.26512698681145985,2.7722466985077894,-4.839256747349548,-6.416712690625257
-181.0,1.3738079732475477,-4.724477097972778,-6.098285071220269,1.7273618299519216,3.7597723252225714,-5.389425859210297,-0.9519474884418491,-2.1071155639912202,0.0808945144815808,-5.56638738481782,-5.189379363166912,-5.364005480513287
-180.0,1.0765013708919713,-6.097092847012563,-7.173594217904382,2.4871829244828403,4.149183510830543,-6.682266381915529,4.583314994709518,3.19562521980627,-0.8772112248750853,-3.465652084045777,-6.020423650101,-5.879948040292689
-179.0,-1.7348493838365253,2.8470043065430684,4.5818536903797815,-0.5779066340784018,-3.1291434184588858,3.680856534541975,-1.3071183222312117,-0.6895631256776109,-3.093019014487458,-2.9738146286479608,1.1902600873892344,1.1152226865901071
-178.0,2.514763432735802,5.9689096710116365,3.454146238275981,-4.265405696804634,-0.5101037852377297,4.769907532560658,-2.254831935291593,-2.102677260056698,-0.472080082467473,2.6363769250032454,0.9527249542022326,2.6614657696423536
-177.0,-0.355921694877198,-1.1824031557482866,-0.8264814608710416,0.7413110766902447,0.28441748437484393,-1.0151964018982214,2.0598519088926586,-0.3223269662716381,-1.3654569069178337,2.0897892781845417,4.58091110587327,5.2147391011354784
-176.0,-2.657643932681364,-4.002099560686462,-1.344455628005177,3.375249014884682,-0.6772007244570346,-2.6804769692053876,1.7137470847093499,2.921736135874125,4.886435483120888,4.401952172844892,1.0469329542856944,-0.541364837948759
-175.0,-6.204467519515986,-1.9329467319179812,4.271520787597865,4.108608837766676,-5.2547225216169,1.1586061283779183,0.9488734698192154,1.6914459576583882,3.889675305596908,3.0168104466909043,0.5943754485418535,0.10550536662591203
-174.0,5.972178741703827,4.8987327034290615,-1.0734460382748767,-5.400494480482848,3.5028870838683455,1.8922150480636948,-4.021833923733918,-1.2602155251330318,-1.212726264100597,-1.6872022543504068,1.0832049991789032,6.1011505690466015
-173.0,1.9340052300143176,1.0111433720604108,-0.9228618579539575,-1.5212305124800563,1.3984648328287264,0.08879861679896706,-3.5761305732941424,-3.4647525612274457,-3.7799543727734797,-6.409826149489221,-2.4276992355050355,-5.823515464102893
-172.0,0.524475011069464,-0.9786193619876475,-1.5030943730571025,0.1727963918949842,1.0480537345965928,-1.2892099059088744,2.0086965798007284,-0.05201459827647237,-2.1357378789177464,-5.2816245872596435,-4.739009385845973,-7.516861649198327
-171.0,-1.255649757499794,-0.9807052680148559,0.2749444894849693,1.1359837927825138,-0.7463194316749227,-0.3339780207499422,6.310034652978542,1.1231853513699375,0.02142642247030624,0.91242238722878,-4.347345453772347,-2.010066922487594
-170.0,-2.735181269586236,-3.8404004109884693,-1.105219141402212,3.2986683535179027,-0.8083234194619912,-2.460228301972765,1.297081485823604,1.499850171920004,2.476815199831926,6.117186487157866,6.773442978859466,7.3749691699498054
-169.0,-0.3542681719059727,1.4877976702703415,1.8420658421763159,-0.5613248314735542,-1.0981573237464302,1.677043283019454,-2.6622661977808293,3.26534049291509,2.363545906026796,4.097655839450624,9.574223536165857,8.791662849166464
-168.0,2.40499534765434,4.323011447045518,1.9180160993911382,-3.36044808776328,0.24360495442869767,3.1367073818894666,-3.5230334960835217,-3.5828923227950553,1.7222163898631022,2.2067007169222825,-0.5102896137175263,-0.6986425402293444
-167.0,-1.3889237965943941,1.262590785651351,2.6515145822456705,0.06996399621347238,-2.013736362869552,1.979079780621592,-1.0377165119582605,0.5059414963997808,-3.189562501698675,-1.289590052840393,-6.247343999079737,-8.188585058007469
-166.0,1.6288959537013743,-1.091132465003724,-2.7200284187051182,-0.25322290433535255,2.1132197022473274,-1.9579040620615076,-3.8215078413965995,-4.959659028168205,-4.534970982833985,-4.967805020087704,-6.884175632200996,-5.496189009873849
-165.0,2.8937188639660705,1.1954361194319278,-1.6982827445340911,-2.09400129701671,2.327037148363301,-0.30301864567498105,3.8186219698323383,1.2323045236633519,0.7429119164641815,-3.4564559956552086,1.5311535089984827,-1.25685115035101
-164.0,0.7584162873265187,-3.7538583333495383,-4.512274620675953,1.5435360401516078,2.680155796620871,-4.109221294763808,2.84979327731252,2.274173503007612,2.8563099457247523,-3.244825372614486,0.5230163877352653,-0.20244281130430808
-163.0,-3.85272911313071,-7.211773014949117,-3.359043901818323,5.51585560428623,-0.2688235297511212,-5.2673720644220845,3.643579646890176,4.881050038362085,-0.28589597690996493,-0.04743685590385427,-0.6670012796129388,6.58883301475424
-162.0,-6.90077381150934,-5.299177419921297,1.6015963915880662,6.097140733168294,-4.264596127931962,-1.8364542314476506,3.2450942280478556,1.0129898329718785,-2.0928998049339906,4.30683432321401,3.2211459563006275,12.694548028499216
-161.0,1.6292579123761346,5.341588051422148,3.712330139045991,-3.480370484921021,-1.050545970804782,4.536166173110048,-2.734532438937483,-2.2896682067859313,3.7943816176312977,4.758761198748079,1.2895756811150423,1.5102722320527056
-160.0,7.278515350765731,13.679736725224483,6.40122137445872,-10.473630322777502,0.4300538153101303,10.050471835307574,-7.174725613055832,-4.350291498118564,3.001763802261543,5.409120965342503,5.7433101821084165,-8.510020578300932
-159.0,2.1854298690156275,10.585145285279264,8.399715416263637,-6.387155996299983,-3.1183100066432003,9.507018603318054,-4.787235343884719,-2.3688687583139756,3.1712916416955763,1.9991210925407767,5.791816434680634,-5.99169857878775
-158.0,-4.7921468206991715,-5.3505919053787805,-0.558445084679593,5.055634153612243,-2.0535119412650458,-3.011484121973753,2.799844491644251,-0.33128446405617473,-6.988325612737986,-6.100320892126653,-7.872341019267818,-8.749154937069493
-157.0,-1.5283688907279307,-10.034140853581405,-8.505771962853425,5.748019046396484,3.4684505144396605,-9.239945646055084,4.487200046088146,3.384497291816915,-4.737696398290675,-7.8442288542625835,-12.3490826892568,0.39596897520168106
-156.0,0.7495211492225753,-7.246118067154403,-7.995639216376956,3.276538802615389,4.347369055045164,-7.661574266562036,0.8101114734504593,-0.3657963831966886,-0.5572667434424945,-2.7021639749080038,-0.2796019301237056,5.202807674803304
-155.0,2.6189769424671034,-4.0944664544087646,-6.713443396875946,0.7528052024326017,4.714590149865587,-5.358538573336485,2.330198579522513,1.3892789875817042,0.63552872409872,1.898553674816645,2.464940664710669,5.931525509163031
-154.0,-0.489304508153228,2.096983929799324,2.5862884379524074,-0.7950910159360142,-1.5737988012317183,2.3150949281753572,-0.8991713662066296,2.4696490198595082,3.9489212007317698,4.417410127406336,8.323017162336882,3.4663907492661155
-153.0,-0.40987369372801774,0.5031741492688688,0.9130478429967197,-0.036438810117042975,-0.7036114873253907,0.6880812717676696,-1.1031687995454131,-0.6347377375053597,1.1686280885875107,1.4508136786756638,0.19003912161691705,-2.9636104362079747
-152.0,1.1905909860790356,7.210597117359189,6.020006131280087,-4.182224754544336,-2.3843534056467623,6.680197653521349,-1.8849373003270333,2.457704333306752,2.8496148524921683,-0.0878501809790313,-1.014124571924038,-3.252424446290777
-151.0,3.0242514207875217,10.120759907729964,7.0965084869424935,-6.620530823728762,-2.011342574817189,8.599889621871112,-2.2440862541892286,-0.7023339135739994,0.3980370491397298,1.2057108131861045,0.4155489778750281,4.170547892930232
-150.0,-4.676006894673358,-0.970542203675528,3.7054646909980176,2.7888406669730115,-4.170061822567653,1.3614408099697979,1.2836374125027392,-6.791733894094774,-4.802984270179941,-0.02371440214945031,-1.5372359154874327,0.6328477791624774
-149.0,-6.074306561029026,-9.097553186090524,-3.0232466250612378,7.642528144255318,-1.585803341238245,-6.067427494720626,5.05627151427766,-7.601782602792689,-2.7423961074864014,-4.763061628923905,-8.044761208015865,-5.494958832015829
-148.0,-3.7214257854882926,-4.0054163700577465,-0.2839905845692696,3.8505849050588266,-1.7005050285510113,-2.157035730806755,-0.0781644855043182,7.792042993611232,1.8430282761618946,0.6226103292772773,3.456969574176309,0.32626275459677645
-147.0,9.766985879765297,4.234857573169876,-5.532128306595367,-7.008158792580206,7.669087241645888,-0.6697351909304947,-6.388594979627625,4.281049160733349,0.7189680889533797,4.445694669615527,7.156110092766046,2.9590013392018433
-146.0,0.07340602503612725,-0.6924705413288252,-0.7658765663649785,0.304084050015643,0.4415096159582843,-0.7602379955825427,1.9605831323780465,5.640309536441716,2.9791475655145274,2.551102560934959,5.816032430143599,0.29633222593544506
-145.0,0.025472507720347703,0.041839037957087294,0.01636653023664003,-0.04089250327201077,-0.049525378629163175,0.06861570479333845,1.540931382612439,-3.051479799594379,2.314846975865013,-0.9190814424402154,5.481926349510007,0.871811820941033
-144.0,2.304087974190247,1.2110394034501912,-1.093048570740168,-1.6911186901279618,1.7261890724904139,0.09463409174097592,1.4998334004672862,-4.0391389240085,-3.876238308349192,-2.8081784267183396,-8.08819986136106,-4.4177361125555805
-143.0,7.319691042255604,-8.109117718958705,-15.428808761214494,0.37436871816614814,11.326244394946663,-11.731999814211829,-1.640507892950028,-0.7926665564893947,-3.078213452479579,-9.6086669175167,-16.228045171776618,-2.6217252359471197
-142.0,-0.6856127153817043,2.415588582875844,3.1012012982574158,-0.8957963392307646,-1.8591375716231868,2.7220030671268836,-0.5234982627395551,-2.1196612064024833,-0.9896319471623201,2.303838704888036,-8.160053027798309,-2.7719479404656564
-141.0,-9.032303766129035,7.343141028191679,16.375444794320654,0.8020312559259568,-12.665632763482776,11.82972164938089,-1.230985919327933,1.376162977421283,4.465322417978582,8.659175834300553,11.294517405154775,9.604638052485889
-140.0,-11.509171066929074,0.5927497312595045,12.101920798188635,5.48326720087394,-11.842125713226398,6.3229914121942725,1.2485972161404035,-0.8468357048517678,-1.9750213325609693,-0.33071040896271064,3.733476330998297,1.3754717174695816
-139.0,-1.0413892917670866,0.44145849596183895,1.4828477877291144,0.3167048217390427,-1.2171213184338265,1.0179512524663492,0.7477918443183001,0.9371164963517808,-1.0534164752799668,-0.6140826374714101,6.555135335160207,-0.9847400597861418
-138.0,12.36252244371049,4.28148256643826,-8.08103987727198,-8.308965536294265,10.188532750015165,-1.9259505449807581,-2.997807204649133,3.016551248075232,1.972344483417296,-0.09153006199519265,7.068239155601669,1.4066279280422926
-137.0,5.182149915711164,-2.2884222075632517,-7.4705721232741755,-1.4323301676123439,6.290575731898894,-4.912714329179963,1.0733124616715775,-0.7194031806943004,3.0563779603628483,-0.3716471076206115,-0.9254773803828527,-4.402310506585855
-136.0,1.049033413145164,-6.685848704818224,-7.7348821179632905,2.838737975653758,4.429686528323352,-7.173741265292719,1.8858780422472736,0.9768445140032342,-2.890287429071053,-3.9790522589017585,-8.578204692059243,-8.480416205761681
-135.0,-6.172082652943036,-7.794285542418061,-1.6222028894751075,6.932846570644689,-2.322381159683117,-4.679946573077654,2.580458157522081,-1.2548626724036254,1.642547934472895,3.190885248899757,-3.036227332047102,4.249119422887566
-134.0,-2.3740336338918686,-0.729670506531642,1.6443631273599921,1.5095461622888156,-1.9832576802681157,0.4013068364936314,1.6533297763441577,-0.7797829476698939,-1.1170006681079743,1.8465949780544872,3.1815083149651278,9.92946667181456
-133.0,2.884304627907396,9.475948573517467,6.591643945609812,-6.137588423716749,-1.8299289863461743,8.054902203590526,-2.512597129661169,0.412140978722493,-0.16314393048194176,1.087484135628431,-1.9879338302953622,2.640219153162117
-132.0,0.8662470372824126,-2.0877003282272524,-2.953947365509907,0.6563894520478106,1.93595428410169,-2.497337392534014,-2.019770518503126,1.2794443447863868,-0.6411150480695271,-4.558880402826763,-6.862576970464056,-3.485358288801524
-131.0,-3.041217526884159,2.5082901224862155,5.549507649370236,0.23339060046255522,-4.342092747534219,4.057561385831236,-4.638959811724322,-1.6210498807284757,-3.2860432663154615,-4.5698498315695,-3.8048753351451534,-9.228144497818445
-130.0,0.332018173835126,3.3233990281947214,2.991380854359636,-1.8632549436446024,-1.2889938978020365,3.113339539903393,1.570588502976443,0.6027992486760191,2.542645582336627,1.7097930543314983,7.861058011677671,-2.2172920851200226
-129.0,3.6612778619969197,0.9366243751873267,-2.7246534868094336,-2.2594960787785863,3.1639005296166847,-0.9331154445644501,0.04806753282249687,-1.4850780359193163,1.9900358866631285,7.347305365310115,13.980482573435848,7.605339328644041
-128.0,3.159180311604084,4.176940432337531,1.0177601207336475,-3.710868345873374,1.048962272454182,2.6395963583139386,0.10010439975882068,-1.0052030113271786,3.009956553712476,2.291096382217494,5.974475262013798,3.597096422924981
-127.0,-8.176130488362954,-8.883758726310358,-0.7076282379472243,8.563968746520963,-3.751611203217642,-4.832214702669581,6.486005378446334,-0.18946695733059582,-4.953115092969901,-4.159135993296324,-13.031233762466297,-6.474445050289235
-126.0,-1.5033940086222701,-4.61430964389902,-3.1109156352767062,3.0932831310392697,0.8662894347781822,-3.8224337493133675,2.7363873242684185,0.36105014579123706,-2.343057259092807,-3.637887555131764,-12.720501811210287,-3.4628964635764126
-125.0,-0.709815156064923,2.5409180779678606,3.2507332340326918,-0.957291324816606,-1.99821840598373,2.9329163599736203,-3.696074812889653,0.10495437529838714,-0.18235810717795142,3.669602370581773,3.9179056201196705,9.013383059695578
-124.0,-2.2159476137437086,1.6175033019523186,3.8334509156958685,0.3400974410608725,-3.046499139655062,2.6807142263527384,-4.224801788528697,4.094076455432207,2.8504540423791016,2.21757525503185,6.4791925897213645,2.2518535924837217
-123.0,11.779592908857335,0.1636301472311581,-11.615962761626282,-6.005441655875788,11.749562047562877,-5.7731743154703095,-2.889753624717156,3.6906488487129163,1.1198328900202204,-7.463098900130053,-2.7995539015031663,-9.898335755051702
-122.0,1.667571603812139,0.8867894875912323,-0.7807821162209287,-1.30752795154319,1.1916135663745187,0.08401468545165491,2.6148963520892616,-3.2355645072123673,2.454321288460405,1.043428974990444,0.95091035392994,1.5054741367525906
-121.0,3.0611002475219617,-1.1295302001580512,-4.190630447680002,-0.9932962868993744,3.5882855899652526,-2.6279792531788098,-0.32676170543200533,-1.6158552735945293,4.075581280368587,3.7880188223987594,3.353324696846528,5.1882086154602005
-120.0,-5.1354886246018205,-2.3309105243159447,2.8045781002859065,3.7869701186390516,-3.9321495588011293,0.27164775627262605,3.3550237998399095,-5.77191509135238,-5.701803949890052,-1.802328276520269,-0.8241770826158983,-1.684341297457473
-119.0,-6.029906727298597,2.5683559461487935,8.598262673447406,1.7869307498620355,-7.35545788893967,5.5430576298548,0.5661463249547443,0.9065006064435766,-3.3380649506918525,-0.18560610016650947,0.6162591452980876,-2.4824024583956956
-118.0,-4.387603064599308,4.734633954653992,9.122237019253241,-0.19441009181458968,-6.714783247315042,6.892101207581746,-0.23917150716568658,2.7111785419069436,-2.1828322812990124,3.6025200082764455,-0.8212893497078623,4.8961203406876175
-117.0,1.306321903842214,-1.1967088125006704,-2.50303071634304,-0.07585730811462711,1.950320702047203,-1.8824467451499491,-1.4938849158218657,1.1917105051813301,0.37079122603547787,-0.21204803827779628,-5.013525939666241,-3.5686728473731764
-116.0,4.184209293615054,0.2174948880330833,-3.966714405582149,-2.2250518729775304,4.0490039324617095,-1.8247859088375136,-0.06494331565966371,4.036388059842244,2.673876466575389,-3.0075527203397825,-0.8529615815097678,1.4454488085391939
-115.0,-3.8436394542703556,-9.04452524468185,-5.200885790411605,6.413460907899779,0.6577299901611697,-7.069181950092606,2.934663218748847,-2.742824836429844,-0.08457711499215392,-0.5793055101789713,4.728544204312487,-1.2564205375237274
-114.0,0.12677750691227208,1.6557005174306214,1.528923010518378,-0.8518106087224229,-0.7194600326860727,1.5706254630184997,-2.7782750226056656,-4.161180075699187,1.5498044721007336,-0.49717363453829067,-0.2523158108622443,-0.9369484132522187
-113.0,4.996794706477856,3.27830902378785,-1.7184856826897235,-4.10706841578752,3.337772369014291,0.7609022941019905,-1.6003058691174679,0.22129587490192315,2.449069678120816,2.1944294143586798,-0.6261144016576781,-1.9743836706779656
-112.0,6.423728071157388,4.722133557011387,-1.7015945141455573,-5.62802525583834,4.116516878387688,1.4922123650231347,-1.9282923536861214,-1.5547128722786743,-1.2875308249334088,3.7572255203628813,5.897126605932272,4.80785905713283
-111.0,-4.392555034111208,-1.5594580502563105,2.833096983855357,2.9968204276193835,-3.644746583771207,0.6174904024346437,1.4517584103214798,4.183454333307436,2.005744490504163,-0.15364719936197924,1.7050945758018765,3.214713594392114
-110.0,-3.2067510307338427,0.5949012842870789,3.801652315021096,1.3286308869999475,-3.46436460606475,2.2543681760586005,0.33036153510067234,2.3218450778349626,-4.916017019944546,-6.386138081492868,-7.09422525568438,-5.04231942257017
-109.0,2.4326648485157305,-4.184143473136836,-6.616808321652839,0.9044404542920659,4.480729556861235,-5.427775432994028,2.072127444615547,1.2245212489187098,-1.6030774573478879,-4.071299969360795,-7.96513398011475,-7.154809100053295
-108.0,5.332079828100156,-4.457064284314611,-9.789144112415283,-0.479256187050747,7.593363874584227,-7.155403827097287,1.9287619338271902,1.7795373903000546,2.183577650830164,1.9202848378166713,2.4522059821235453,1.3559276040774968
-107.0,-3.6453219780398145,3.411201080725751,7.056523058765038,0.08357802058539443,-5.395545838445701,5.275657805479012,0.6207668713514499,-5.2639782334852505,2.794282923470893,7.2991747960884314,8.933387327114714,11.989600628393378
-106.0,-10.505819807862796,2.637844864480707,13.143664672343169,3.9853744486034057,-11.786642110862399,7.928361134538981,0.5899719267270824,-3.7979812267834,-0.5577531217128197,3.223743447605597,0.13570333046519334,1.6119487039649467
-105.0,-0.5755721999562109,4.9676007114947405,5.54317291145099,-2.22071272274741,-3.016355912657122,5.210010733669115,-3.4989521410291076,0.4175700999002876,-0.0879984749284029,-2.493518885112566,-1.2511507642082034,-5.037290319044409
-104.0,5.789536400121954,1.2121073618426461,-4.577429038279009,-3.5266183042992036,5.151518312049468,-1.6543532441365199,-1.9435391754763802,2.8230428930352263,-1.622646033468977,-3.314530590444788,-3.141342677441666,-6.938616071059281
-103.0,-0.3314056847819584,-7.97698219377345,-7.645576508991209,4.2028159266340674,3.6259629285897947,-7.868087546815368,-2.6693753100589577,-2.988444291784072,-3.6540774292466667,-3.494754476722443,-2.6561947989252896,0.09461400200712777
-102.0,3.923739842838748,-2.711443271465304,-6.635183114303914,-0.6428645634842096,5.2455564941333375,-4.658647658376237,0.42945100205871967,3.713587855032928,-1.0201252719811715,0.11045779952132961,1.7244342221762348,2.3883866439989823
-101.0,-0.9697834054851002,2.1890026107934912,3.158786016278599,-0.5754180046422496,-2.025085935788953,2.6817353866646245,4.24033635389497,-1.3742272025911002,5.212302582635917,2.307996638821774,3.340493395972014,2.8988967310437763
-100.0,4.59171987670566,1.756991678800899,-2.83472819790482,-3.148488673062384,3.745871039303623,-0.5354511242007711,1.4761381233414572,2.4805737225206563,2.555757966208134,2.56956235340631,3.9801553693541907,1.7815330297666814
-99.0,-4.718050867842136,0.918538645767675,5.636589513609819,1.8386271750180234,-5.228479131726917,3.280784607296023,0.3831778693901693,0.6017693961917868,2.099209979322641,-0.2841730477947386,-3.815388034717011,-3.6686911511366107
-98.0,-3.875848219586862,-6.326207050049934,-2.4503588304630215,5.111063175986814,-0.6867382248712381,-4.380033430458385,0.11328359622655963,-0.9076406484031009,-3.1195680852760415,-3.951415808636135,-9.850874476062831,-2.656813099743867
-97.0,0.007870423582525543,1.7929478217541288,1.7850773981715327,-0.8964788070894145,-0.8598139277397916,1.8072640663042034,-1.0424120272503457,-3.1629037873318513,-5.3168908447528365,0.4066930415176737,3.141666618908281,7.87814593870516
-96.0,1.6034814753635822,8.96214069133282,7.358659215969048,-5.282467670276817,-2.9208504236554957,8.113371645295432,0.9292265805697222,2.288874473110252,0.16086829177612616,3.536597885590086,7.161446281934863,3.014198011218954
-95.0,4.490996319987837,-1.1934409043825747,-5.684437224370571,-1.6485432240284335,5.132179251828381,-3.392645143230934,-2.504139598549546,1.9269780757762158,1.8300400334596565,0.12514450204783734,3.8521424546872147,-6.8999533344010935
-94.0,-0.9918460744421107,-0.3337808196594745,0.6580652547825276,0.6668725725602043,-0.8503008360057308,0.14276226817539306,-0.6210205066096659,-0.7216120460017619,3.755691785824866,1.127108224949924,-3.060768001834747,-7.651654925670436
-93.0,0.788308075687282,1.6375222420992022,0.8492141664118933,-1.2014828840637954,-0.04915693181802622,1.2334103499121036,-1.4825580399241753,-2.928763446238248,1.311532690510922,0.33325118881195914,0.21324674171240954,-1.1356038972612654
-92.0,0.37609168614746974,-6.729665258672072,-7.105756944819468,3.1978481482069867,3.7249629349584206,-6.92309623329621,1.7617503054855481,0.7807651787139707,-0.508704871339239,-2.1425055820310615,-3.529220768054143,5.587835725489824
-91.0,0.13431138201517906,0.33407822632184514,0.19976684430687497,-0.28191836149227756,0.02833725565777301,0.26123729122098194,-2.930065890301884,-2.602955995234241,-4.333647593824601,-2.3429324521612367,-2.087099128625605,7.825220513378364
-90.0,-9.040497915342632,-0.5503960102034425,8.49010190513946,4.8347779624091745,-8.788677070264125,3.959961423892604,2.1733457848943925,0.27708988967828874,-1.4188164474695524,0.76398018624444,2.6936966477901274,5.415507666903644
-89.0,2.6069778731568984,1.0403028863616948,-1.5666749867950132,-1.8578879211053372,2.0551627708427533,-0.20096965471668748,2.9812101040867427,5.741054281564498,2.1071606290186766,-0.4662276320142936,-2.0254618655483974,-10.134167399474215
-88.0,0.13915171893104294,-2.869324744971676,-3.008476463902742,1.3323142059400301,1.6119612384914555,-2.96308434991375,1.494470650278396,0.04748156727486963,-2.178709341919169,-1.753847511104421,-1.5552937592918563,-6.335019186365942
-87.0,-3.2286157492485685,-1.3949842486649149,1.8336315005834374,2.355906038035208,-2.5792307891974344,0.1875208265913107,1.4466311501113454,-2.7410971347938258,1.5237624642763121,1.7904418825485102,1.4156729128463306,-0.041179225773172234
-86.0,1.0722884813868756,1.1646368543413355,0.09234837295417248,-1.0786520006032296,0.5162387695076367,0.66845156375432,-1.5284883432565837,-2.7045302687529715,2.0617823566097777,0.030442348354207782,0.4379291481755314,4.980035400875815
-85.0,8.407851953753342,1.643111329446525,-6.764740624307022,-5.070074105527061,7.6120816330721315,-2.6056649057685455,-1.918249288293559,0.7179263094098818,-0.8579404085423787,0.18573945060164498,1.2691635529088494,4.9859546069628635
-84.0,9.187390785331209,8.5446052921125,-0.6427854932188177,-8.837890119885657,4.943797474899761,3.979838070114654,-5.546368190574065,0.5225908857990806,0.39592617469506075,3.1742458007381824,3.717758874854012,2.881722114612992
-83.0,-7.721018557225735,-0.6603750578382024,7.060643499387575,4.134464919357001,-7.43612259506798,3.2253032797561145,2.0762304937010665,3.54995905816911,2.610524184069873,0.34951779558012674,0.4474992830244713,-1.787774879890182
-82.0,-2.194300570356578,4.450044244238613,6.644344814595373,-1.1096657060032844,-4.46012209730854,5.4912186521319635,-0.2792170814723691,0.7322913179890053,-0.34133550094005705,0.10993394532917555,-1.5591986997975353,-5.602605616601405
-81.0,-5.974943920864252,-12.04710489182335,-6.072160970958844,9.026903827095838,0.08898509916901887,-9.037681663586195,4.392696873916462,0.867574446844512,-2.416513439271407,-3.979843292607549,-3.8323222314110255,-8.039582381662205
-80.0,0.40483709535690426,-3.6940919494052533,-4.098929044762006,1.66054268256008,2.2916831325004745,-3.873583133471393,-0.3139050178699696,-3.5903260663423464,-0.5238473717685876,3.200481619521409,2.874511349631797,0.24955404032089046
-79.0,1.1123709273540376,2.4417072245761435,1.3293362972220546,-1.758850020834656,-0.15079981730916647,1.832578082694814,-1.6784954674622463,-0.9489052176922379,-0.526033021018536,-0.3913961499091507,0.3857062543378399,4.591071063526304
-78.0,-0.07933582601325728,0.7785956099790732,0.8579314359921524,-0.40623645297595457,-0.5157813488029634,0.8486148697598088,0.9262677589523042,-4.430544311184971,-1.7227927628250828,-2.449037339430737,-3.3258236133431516,6.873526163913816
-77.0,1.0845023803864133,2.524386665325603,1.439884284939029,-1.77736631097997,-0.150290846432517,2.017933542635631,-1.9831326053413072,0.44081208426114826,0.7865641305289801,0.004304088153735397,-0.35009895363835475,5.335038426246374
-76.0,-2.643887978133693,-1.8971825824548607,0.7467053956787323,2.2242161624416106,-1.6693096085476675,-0.613137446931828,3.2066578890821624,4.235556362982657,-0.03812952294565797,-2.666598071118386,-2.5409913980351284,0.626132449450846
-75.0,5.685113698127536,3.488861853197547,-2.196251844930046,-4.549164749479379,3.969409377835632,0.6902955440301052,-0.9660998979318058,2.8988838432913773,3.4757938833267756,-1.2744631040537635,1.5215119928918952,-5.813440726972055
-74.0,2.770908181717513,2.934981803469838,0.16407362175235074,-2.810075054340702,1.2602156351843263,1.514844448306259,-1.418341161159848,-0.5261385636155533,-0.4271663440959259,4.174155377528239,2.0830640209227242,-6.789562612954386
-73.0,-4.812808830409702,-2.876837274348532,1.9359715560612498,3.8130533319479194,-3.3294989123664496,-0.5082325564270561,1.2823315274716143,1.6471552089874162,1.2477028602226867,7.152750456113615,6.600553198787619,-5.192112322749272
-72.0,-2.076287253269361,-2.0220269150536527,0.0542603382158483,2.0197937585835795,-1.0897547488851467,-0.9480097569597072,-0.07563763785272035,-2.4952882793785065,-0.2352881467090027,-0.7734895259189281,-0.24513920756270613,1.5068066027730747
-71.0,0.07504059171138877,-5.013890547763052,-5.088931139474342,2.518861629334311,2.564433767014507,-5.098982869522053,-0.053536000108695775,-2.011336754906099,-3.9692895089046925,-6.338480414464926,-5.078554495500859,3.6145056628728254
-70.0,4.265668362479788,-0.24584994771038682,-4.511518310190157,-2.041702589546578,4.373926617869615,-2.3492325909231218,-0.021676419552241255,-2.8364124202234255,-5.662467240284966,-5.529143827381288,-7.031320812605362,0.15736011788228987
-69.0,-1.64374833936346,5.133887556198484,6.777635895561871,-1.7813604913662329,-4.226751755949193,5.988133312945584,-1.3356943362899483,4.589346256040398,8.207410800231951,5.809982236108461,3.617654097305479,6.566400585231183
-68.0,0.7110160472761451,5.573707890696076,4.862691843419861,-3.105304821669732,-2.0178131833296957,5.257994394116519,-1.2216760806347344,-2.211540488066901,1.3177160923610238,2.2826317441847443,4.880539515845172,6.588577316557233
-67.0,0.4262367208270896,1.5894205363099823,1.1631838154828982,-0.975735128542085,-0.39546455937041913,1.347155719734435,1.376954130428676,3.663270021846307,4.357183968757042,2.368227686494899,6.10343711693042,6.668232624431955
-66.0,-4.002229659750928,-9.85346604933314,-5.851236389582119,6.877749755773961,0.970071455120239,-7.872615256625018,3.696800473078006,-0.2814275166428577,-4.475691988901215,-4.483558637869827,-8.526958151300017,-14.613342136657273
-65.0,-1.1596685084285443,-3.2887578141840974,-2.129089305755504,2.2514048142192484,0.44666695087508723,-2.7243671205688615,-3.1255815936734286,-5.159455149155601,-5.346212261612998,-2.5524673073703052,-2.097987441112375,-11.724556696930403
-64.0,3.6809554601539203,6.854929172673376,3.173973712519433,-5.240478960906232,0.21265338468740624,4.998103395329315,-2.316892699501498,4.242391972755199,1.114959723320232,-0.8757634409666483,0.2991326775458978,-0.7467836946163731
-63.0,0.3200828318651019,8.572020477210366,8.251937645345201,-4.496090689487815,-3.928449707861466,8.38940803237091,-1.7852360003975065,-3.0011914597184335,-1.5645232576063657,3.251095742991008,3.121781697554411,8.710199333357739
-62.0,-3.300475051790582,-4.950188827961313,-1.6497137761708496,4.155382185331613,-0.7860857751854926,-3.2531725039945485,4.709833968056128,0.2783993829320375,2.147172697698345,3.2437960835315516,0.5031190033393966,5.076116389736892
-61.0,5.903336718766544,-9.102114958473717,-15.00545167724043,1.551479993868729,10.418509397283358,-12.016731991847761,2.0663392883020553,1.8118286691780034,3.61129425821419,-2.687388076920884,-2.098264302183715,-1.2124639488196438
-60.0,-2.5667035109701715,-4.82025782549152,-2.2535543145215158,3.724347264213541,-0.18795314899948634,-3.586270930181823,4.242734422531749,2.787846909492123,1.0860415268711767,-0.8862187756157831,-2.6670392480034724,-3.894380597334065
-59.0,0.03773314424140051,6.560630864285276,6.522897720043844,-3.268925724036422,-3.1907352178139603,6.566685347930069,-4.5555931904574365,1.3325254943766034,-1.9206280888797904,3.408230296782996,1.7955198064114768,-4.669974326642171
-58.0,-4.586346885816463,2.1854367115616826,6.771783597378246,1.1509562831149145,-5.702461385471745,4.501997586649555,-1.351128121175583,-2.067476731567131,0.98461130623861,-1.4565444616391403,0.16282567451784757,5.127043772884829
-57.0,3.7609336804811266,7.845414227581816,4.084480547100951,-5.775173438750954,-0.1834255392997335,5.909682392296929,-6.26616838207121,-3.994096374730198,-2.4464744259366222,-0.5641203732460803,3.6012293984057346,5.924654647531293
-56.0,3.4933245414397947,-2.532593955514783,-6.025918496954327,-0.45386100611188596,4.816124108041022,-4.2556766823550625,0.2792608758802979,-4.638871655614179,-3.3563286101129326,-4.024586841205917,0.4737649630114087,-0.3678796347524462
-55.0,-2.7255757069142543,-4.870677553070334,-2.145101846155905,3.744092246251906,-0.31569580561221766,-3.485471616604237,3.686098058565427,1.7953295799727895,-0.42846022635562275,1.8870606745901477,3.1777470543907382,5.040951912776865
-54.0,1.5265936292579418,2.8686531263827537,1.3420594971249564,-2.17488922981579,0.061113746360608845,2.046230631401501,0.8740092253860561,3.6718180037465884,2.748949249814932,-0.40268592001470127,-4.2798523773213315,-5.335651134852756
-53.0,-3.5792392591410223,-4.329793638939121,-0.7505543797981096,3.9754886580558315,-1.3742959068895029,-2.5243548025655347,3.557380825301183,3.4052227273203375,3.588883710806141,1.9290684325274063,-3.018325898379939,-6.236114973505961
-52.0,-4.28999115614536,-1.7983748435183964,2.49161631262682,2.985604232453254,-3.437842991024527,0.3589453813890886,1.388668441869471,2.039904485251266,2.963508157430452,3.7029014990530427,1.772340447113724,0.7635828839176177
-51.0,9.260649360013579,8.410773337835764,-0.8498760221780144,-8.814507256555785,5.0791104581690165,3.791006496056787,-6.931035667443379,-0.4696322731721071,-2.974742588616321,0.15952450683742203,0.4134416100397711,-3.018953541820361
-50.0,-3.134141286786069,-1.7654997251041276,1.368641561681759,2.474517536864544,-2.2338770382269355,-0.187041889401087,3.0572583571375658,-0.9043648037721687,-0.7997660295210747,-0.698045423850345,0.09011568663592473,1.9623890700195317
-49.0,-5.9880065639088595,-7.787051130077027,-1.7990445661683974,6.918156730239376,-2.081244824667654,-4.778283514146462,-0.1030454376368351,-4.237876133061998,-2.3412336118069037,-4.780534933349801,-6.542817892440812,0.3743259333703275
-48.0,7.055920268821344,-0.1101096382407254,-7.166029907062329,-3.5135220047605755,7.121925553376245,-3.697030246428114,0.24979866506528725,-2.479913358897925,-2.970304044002231,-8.048154934548368,-6.275208446052054,-6.545744374475387
-47.0,5.122267086872781,5.3255720526794,0.2033049658064221,-5.257011377957908,2.391009287176989,2.78955467619709,-1.9041397495849965,0.8862471225021304,-0.9206773370225093,6.010044169334366,9.7760086661008,6.2722344030506285
-46.0,-6.539043774187829,0.8172681902976335,7.356311964485506,2.9122406518720823,-6.936750618787741,4.116240126012706,-0.08687824009037515,0.5176122832911384,5.333744929987292,7.843795024926899,12.263259327899426,8.867217958199127
-45.0,-2.4608461200593554,2.186948384427722,4.647794504487399,0.11171620970656035,-3.5414198217013166,3.3705613262733003,4.0816052364164115,0.12241334342640697,1.8245443309571217,-0.5038916268393461,-0.3584749075731981,5.11282728638143
-44.0,-0.8910324114815333,-1.0858165613784485,-0.1947841498965044,1.03942700407721,-0.33178337580356,-0.6079210690925438,-2.0911540586180655,3.14255227377561,-2.1609398800204724,-2.9936341130199455,-7.264098196996408,-7.322856612419112
-43.0,-0.17615446768605314,-3.5171161779150966,-3.340961710228742,1.8114842402212343,1.6035596698766401,-3.476589035822229,-1.8897564685450554,0.917410543512897,0.293135527797596,-0.48001462908913295,-5.753728918227992,-5.414866728091744
-42.0,1.1799041535654287,-2.4804809536098817,-3.6603851071751814,0.6039125299425079,2.368131226515685,-3.0411828972614794,-1.0234382114390375,-0.8189320271260846,-1.5932702296028947,1.1696972088000108,1.9262448829558068,2.5861848727894996
-41.0,5.236202073455006,6.104810424956826,0.8686083515016749,-5.650761519073717,2.215769341215787,3.514142508663128,-0.10550195259029047,-0.23648661995853715,3.4064377795542278,0.794707947381213,2.8526731299560053,0.5473635178981149
-40.0,8.14302934150205,0.7389326302829684,-7.404096711219407,-4.43193591513745,7.809138244056043,-3.3061816628153595,0.5524393258480498,0.6499979473291408,-1.1894452730688236,-3.7822411162734437,-2.7930879049605206,-5.648819345080051
-39.0,-5.436905175461562,-3.394974913016316,2.04193026244483,4.4195315343524175,-3.7815854799738973,-0.7287752022591608,5.119429774233999,0.037661840088845544,-1.2136584765513942,-4.198322987025576,-3.89260052313702,-6.423664579354913
-38.0,-10.95266916606016,-1.1556685415847467,9.79700062447509,6.059725365402475,-10.418726356256744,4.2698539645575755,1.8916377340625894,-1.3198021161009144,0.5200850603858276,3.948931715757016,2.648867576582701,4.798486476017543
-37.0,-5.3485901049486735,1.9710682436211167,7.319658348569844,1.7038713629723938,-6.302783161033015,4.6762961353713965,-2.336447608686826,-2.04034747840433,-0.26757720271701985,3.6989007509909255,4.852331285489532,9.78149365818994
-36.0,6.258471405250684,-0.9757131216598703,-7.2341845269101475,-2.6111806258188563,6.7741368799224455,-4.069438337837428,-2.4842951652815053,0.4208076656582578,-0.45697719577770046,1.1933366597569481,3.1045088431290564,4.737364227231533
-35.0,5.625201094584659,-1.760085364298776,-7.385286458883007,-1.9642155289505108,6.452688432202455,-4.531543881661929,-6.560281816351928,-2.3760845255801386,-2.7671525307254337,-0.8644388623213428,-2.5080878732657412,-5.689413117826689
-34.0,3.2497410024039155,0.7853309351557326,-2.4644100672479503,-2.0347273361618394,2.884787664837087,-0.8717123878895237,1.7314382627095726,0.913326657643198,-0.8590930271632164,-5.592325988921899,-6.193262665320006,-8.298558598575594
-33.0,-2.6007312415758825,-0.7327284142246964,1.8680028273512161,1.6581930662800561,-2.2021930612275047,0.5390724229869588,4.519529967881549,3.6222086772957285,2.2819720210695427,2.3586606203746543,0.48274821798543766,3.0095293612875524
-32.0,-0.7698964113423616,4.445616511286637,5.215512922628827,-1.8450847407430873,-2.9548696526497826,4.802467831590903,2.39787032312038,1.5556169542989433,3.6741092750230298,1.1065631358812964,5.228954647273839,6.4270801598124105
-31.0,0.22558380087943086,3.014716534510649,2.7891327336310288,-1.632798363743419,-1.3185611232422363,2.949507160211216,-2.584818149725096,-0.9525599064167722,3.729133373198436,3.5799829119251796,2.3609904826073835,-2.746173799894776
-30.0,0.664939967961669,2.2522668136026143,1.5873268456407315,-1.4023821485931742,-0.49791468480969847,1.882673704603531,0.20192170166076143,0.9462754800205752,-1.122140338548061,-0.365762900538104,-3.8254695178332474,-1.1377336587852942
-29.0,-2.369520406261486,-6.676831456347721,-4.30731105008644,4.4893263359158935,0.9271287442478297,-5.4579089549613125,0.0007831797200971158,0.9269761103270713,-2.0638716971312867,-3.0621589473528417,-3.2563736908553063,-0.23893551683330572
-28.0,-2.9286487635923035,-4.280240368635982,-1.3515916050437908,3.639353661176475,-0.7605976763290662,-2.78915929268475,2.9675900130729076,-0.20254459300866023,-3.356529323663892,-1.1438269337761242,-1.8004958118929864,-4.819666086206982
-27.0,-0.6752214265242608,-5.475369859910164,-4.800148433385767,3.0246029183630636,2.0802375724126225,-5.19578006726706,-3.6528691697002302,-4.534455984790056,-5.456939087774456,-2.4375545067001347,1.8252492389730306,-1.3585822958259763
-26.0,0.9178897777239675,0.8285229031336254,-0.08936687459015324,-0.8483312646158724,0.5136436368154834,0.38651622452281376,0.2574304801218632,-4.948156570216117,-0.07056516376241984,-3.023037156834978,2.844992667517098,3.342818907054036
-25.0,2.748518526628545,5.49571320992612,2.747194683297824,-4.097448513281702,0.007982249847611755,4.137217404631948,3.7269323106595547,2.1505265696866593,4.551141517744324,4.412366537492246,0.0060265167987259005,1.4464699078021854
-24.0,1.3939620108718516,7.015421887712893,5.62145987684119,-4.178779256078854,-2.103251883555061,6.335623728404913,-2.416564269475586,2.0516735149009353,2.127198290944498,2.1467119882959724,-0.01920606590591656,1.9716324757110175
-23.0,0.9505303752896054,6.805618785169204,5.855088409879545,-3.929864625701951,-2.4340081731026855,6.27250475722194,-2.61715635043722,1.9776811998515553,1.4747163773801382,5.4763158110193535,3.0970133645960978,10.227349520050776
-22.0,-0.5264516983663816,-4.271163430656213,-3.7447117322899715,2.346870865635771,1.5582561296347943,-3.981437841612234,-1.6111208020616292,1.3662920011030353,3.799008059188004,0.06701016173322705,0.6585975803522676,0.35476697984683003
-21.0,2.959889177882784,-8.13453031034243,-11.094419488225393,2.6129237172793975,7.063330427620681,-9.580928072988275,-1.814270873400179,1.2866970792990107,-2.867372132777793,-4.783356313538937,-6.86191110759091,-11.136402172166376
-20.0,2.436197149498653,-4.727427212964458,-7.163624362463194,1.1700306444684814,4.762003936040473,-5.982650602835257,1.8709055495395273,1.709110524217117,-2.3071090929533007,-4.497631296502229,-2.1417790311388987,-6.240424447597321
-19.0,-3.84597528990209,-0.7157753146023635,3.130199975299921,2.3054390283487685,-3.525704731731711,1.1787545326898767,3.567637389401154,-0.5983635161759595,-1.4417752048418997,2.2470217968905013,8.155746932139541,0.5263138064946791
-18.0,-1.946615784135016,9.88686997229513,11.83348575643052,-3.9433398550241776,-6.852082882476182,10.919176664952465,0.2480262260527457,0.7545589036713851,2.61258455757537,5.034810850082416,4.954573749139853,-0.7742036618418264
-17.0,-7.9440461711560255,0.5426555446923023,8.48670171584884,3.6528269864304743,-8.182008755608297,4.502928345715114,5.03993042767485,-2.0429994458976415,-0.3311339708818996,-3.690152382798912,-9.96757752311405,-1.5215804490926796
-16.0,-7.7519999686989625,-1.0811170794658262,6.670882889233324,4.3736932777440884,-7.1818728447989,2.7894783299997052,5.586514801934475,-8.570254666074652,-9.582719466901484,-3.389047012666201,-10.998969988377958,3.6311962826171795
-15.0,-5.780719870132494,-5.953850759214463,-0.17313088908218854,5.907836851144809,-2.854186967280687,-3.065188899166702,-1.6555005292329241,-2.3815775819761664,1.1116177528124762,0.6723966217593071,4.757258776903664,6.827398912967215
-14.0,7.5610531492001805,-4.391738416808035,-11.952791566008763,-1.5408791715733132,9.708931445951324,-8.17359062182457,-11.665735943874317,-0.44209739062590464,6.792724195061728,2.837647347864174,13.058096321706252,8.996772092187966
-13.0,23.10568736314461,4.993684123768256,-18.112003239376957,-14.083566453509368,20.64585719484524,-6.563530132080504,-11.324735841235512,4.654261164228586,2.511627242253303,-1.3613911951375048,1.698628155498886,-4.055128744033842
-12.0,16.517216189831366,2.2147693210482284,-14.302446868783415,-9.401010623949333,15.456358029592078,-6.053999147359965,-3.2718086582880863,5.83741095188754,-0.3608121442759775,-1.0392966611792294,0.6516958055062458,-4.779627849918294
-11.0,-0.577877209379023,7.81370447018264,8.391581679561959,-3.5769064044654413,-4.505647623172734,8.085240910840344,7.220519544718841,7.704398036278653,1.7065524110336012,3.1350874504500683,-4.157546617443325,-3.6627138102306427
-10.0,-17.41125208649379,-5.0663726823236885,12.34487940417092,11.19805857413575,-14.888088888951437,3.693426091660103,15.329150467121918,3.3247585972896854,0.15177722323085274,0.30219143644224933,-7.759547928645114,-8.76817049425076
-9.0,-13.124966490060299,-3.9323537212396933,9.192612768821633,8.564943128196305,-11.16076946964158,2.599696848503653,5.852265915901271,-4.023716829257295,-0.5889009740222604,-0.7620189910385207,-3.7924966956794033,2.8085564554156557
-8.0,-2.7691740869875936,7.264600860732818,10.033774947721174,-2.289340196899337,-6.400251603173151,8.693613549154467,-3.3801900078416263,-7.323887235909455,2.7807885270093897,7.912143153910977,10.064237514788694,14.715470165453773
-7.0,-12.200037518737867,-1.5683228090971308,10.631714709640756,6.925005048472238,-11.417205618088857,4.495456701793767,0.8469462090937019,-4.527258600063684,-1.5090139801513431,0.2568516190966088,2.4422844889929105,1.4561608606720586
-6.0,5.863768862830017,-3.4193574011417613,-9.283126263972592,-1.1757937006159882,7.564296983743906,-6.387776965727191,-7.340994077324366,0.5075194906921854,-9.072807367408597,-10.043781728412217,-6.790385509155235,-13.532203070160625
-5.0,5.753230375141744,1.7495019137720869,-4.003728461371097,-3.7782883753535996,4.858052583391245,-1.083993996098041,-9.105045457523197,-2.583051982880743,-1.2366592955862132,-1.1519524661967515,7.7994120204592665,-3.780155059033373
-4.0,15.538396828881679,-1.3036281871475102,-16.842025016030643,-7.141397928936544,16.2364699448897,-9.106708866107702,-8.517756198611917,-1.5512261335822592,1.4837036085245185,-1.6010352813973936,1.453959083300104,3.5408829482260176
-3.0,8.712132440441327,-6.122029549520736,-14.834161989962851,-1.3201782296830444,11.730571856411638,-10.43103643231197,9.205640847398087,7.228545910419976,5.934073658149323,-5.44268069162767,-14.48436241638093,2.508695273304906
-2.0,-18.78385284167094,-13.387356538650405,5.396496303021209,16.05547233625226,-12.06004409484347,-4.025099646545392,13.871701034618232,-1.5341954729766387,-6.611210771210375,-2.663663170842489,-7.327565387545922,-1.0073943977438216
-1.0,-10.822642699061435,-9.82246712270966,1.0001755763533273,10.364104905956536,-5.882527081340573,-4.361040201529888,10.322647538020217,6.062953396348237,-0.29773468344458065,3.5609924568061784,-2.180455722425672,-8.084876575475493
0.0,1.3073773745406445,6.389332071963638,5.081954697424694,-3.8131688848085457,-1.9343413492531178,5.706271746583883,0.23336414298092123,-0.6159341020625924,-1.9406533118389264,4.1307878602756,4.519555445633569,0.6457856391618604
1.0,10.185520327235732,33.007227643045454,22.821707315810553,-21.643078366415928,-6.28143835003979,27.88238534371697,-21.001755355122967,-11.25555084542567,8.420795218080535,17.457905016953493,26.499644280784768,24.79645111207029
2.0,18.296269129595352,34.157912119079874,15.8616429894848,-26.193701251466408,1.17988006620158,24.97362115567514,-23.449272069682436,-4.173087611268948,8.218058663136471,13.56852146405386,29.063708437460598,24.298071389150586
3.0,3.0574191326454327,27.79431209467084,24.73689296202488,-15.387076556031577,-10.796198126927031,26.304099329784986,-10.906753242925157,-6.251284650956358,4.148615155931966,12.051360083353858,14.960926107448792,6.486302469065514
4.0,-19.03391212851184,-20.26077554725539,-1.2268634187442844,19.615016766397016,-8.94010734325342,-10.708011338337805,21.308494386726526,11.179835628120957,-4.18671915327088,-14.922038978960988,-27.22913273280645,-22.618629711821335
5.0,-9.3654819912496,-52.615814523702014,-43.2503325324532,30.96584259738389,16.90107200252896,-47.897800624857105,32.10398046091775,25.983827696403157,-6.47512253590696,-34.67261720811021,-55.950136534900935,-44.5347844816874
6.0,8.044429036136176,-66.34089759236218,-74.38532662849882,29.129005877924392,41.245510442957865,-70.40529631176891,19.66397216327806,12.30069253588086,-13.370719812669588,-37.764256506374,-46.47436776922068,-37.85141900699955
7.0,-2.265801913989862,-37.47653173627866,-35.21072982228917,19.854947376480478,16.49632044492168,-36.38382643108011,-0.15950179700299216,-11.035430658715578,-12.211750625929563,-15.119627930186738,-6.070549377221436,-5.80502517734458
8.0,-1.964363012661219,19.709477425586858,21.673840438247527,-8.808990812418433,-11.8003267165686,20.731646841655895,-16.683920302570293,-10.797626945506694,21.232834196860473,34.99993956388633,35.85233667272803,23.38759887995975
9.0,-11.638781793905112,53.46674705942769,65.1055288533326,-20.92888422633219,-38.35595606704824,59.2475261069531,-13.755650584684595,-13.619195171186611,15.307912097736,38.69789026622006,48.71117019310336,34.35365279713214
10.0,8.769268255201903,65.48075064436973,56.711482389167685,-37.13935038364715,-24.03387819013902,61.13517036328697,-15.730205582703544,-5.189709999086388,2.054789698012966,22.18905148821279,30.04065216443518,33.96926329141961
11.0,34.25317855364955,61.27838715528743,27.02520860163744,-47.77905986890976,3.6314254551634093,44.11044317703315,-26.523701676631998,-8.804687353422151,-7.700375654313928,9.571098131457989,25.823501651032494,33.0336098301457
12.0,9.652442837023283,-4.663537106349777,-14.315979943373364,-2.4282076476360945,12.0041873476823,-9.453736354117552,-6.350046283048231,-9.181033788904067,-13.015163736609356,-13.375690014342105,-6.040872465872006,6.353297883176375
13.0,-36.92089965189199,-47.53348788919759,-10.61258823730524,42.21362003646813,-13.209496138888444,-29.037462634326566,25.571638385173095,5.83614259147345,-15.893673481558572,-17.862138909683786,-29.021918942338417,-25.40442546013591
14.0,-34.40493336101561,-53.90616919521861,-19.501235834202056,44.13747586063663,-7.423875092916191,-36.74619103704359,32.36024338150487,15.262138847756285,3.7190722469082615,-11.951619479680591,-33.18905950282885,-45.512267813858095
15.0,0.755061236069853,-27.200961412462327,-27.956022648531167,13.196250974316271,14.389493523713696,-27.619334988398286,10.596212151640316,15.489576921795571,14.993772503075933,-6.948151615308031,-17.83939325670854,-23.348232122232744
16.0,23.436781771298687,11.537674425245363,-11.899107346052723,-17.525737748071382,17.63040404373122,-0.1405552011803941,-7.119855900747995,0.833862624752804,20.91409598121721,6.449069022198266,4.899476876886434,-0.7885482183398018
17.0,34.90405606942934,4.016903080456003,-30.887152988973547,-19.432657957246555,32.94450435593902,-13.392461201704382,-10.221003148405618,8.41358033818713,13.767651202661035,1.4064136531393658,5.853963399098609,3.2684439539520445
18.0,14.485259564479696,15.193237399926058,0.7079778354454898,-14.821070948268698,6.865420889013283,7.916994229559158,-12.971144980842372,-1.1436405599411437,-9.824819298655473,-2.469218433915202,5.3215211984500925,15.532431485337053
19.0,-22.354430428023875,-16.025768232809945,6.328662195212793,19.204234063942817,-14.360908803666927,-4.879838978490163,5.676401473877469,-6.748290090741039,-37.54854966111493,-22.903932037545935,-13.058015942696304,6.03827560849092
20.0,-42.745432752828336,-14.004305500180266,28.741127252647246,28.391604183386292,-35.76291016527855,7.339381982179088,11.828853534592817,-25.212640179644595,-45.0765751603299,-17.984532334008293,-15.070341338774398,-4.342022904435559
21.0,-26.861902166432927,25.0682164373733,51.930118603806,0.9215777974408055,-39.34180315924631,38.551175091723636,-3.1100358569387248,-12.53256395104544,1.475801470491632,22.122083563182166,18.814814650183664,13.520510130864679
22.0,26.37664064962682,21.87041614389097,-4.506224505735439,-24.167214109711534,15.40785573902222,8.736200474215561,-16.461697331925418,8.848052372366459,41.836859360784885,28.739288172196893,28.524537676450308,7.335120857952692
23.0,59.35847782204168,8.855298559203124,-50.503179262837826,-34.141620931494735,54.964377488304535,-20.84742491995802,-11.3274886305455,25.412524418563596,57.43414030513557,17.973062878349385,9.788758110524519,-10.554858815829405
24.0,33.64463296133631,8.845754283174914,-24.79887867816079,-21.19656819395796,29.164669455907923,-8.000846664459369,2.5868738719311777,25.39312976985187,51.31631383098494,21.98870011245194,13.367726556123252,-7.1652477132675845
25.0,-19.330971002432552,5.977328347986097,25.308299350418782,6.645713631011928,-22.3073826685565,15.615124177290046,9.552363917775367,-2.430608934649486,-9.068702340805633,2.724308981434748,3.026698259631023,10.623408725095048
26.0,-47.315954693157096,-11.624798183236594,35.69115650992013,29.433435564230276,-41.49572112580587,11.999807383272099,10.581945494424755,-23.93457145554501,-62.97924127147053,-27.00048218097325,-12.879106503315645,15.185370379697803
27.0,-37.246975468632286,-19.998893786461686,17.248081682170138,28.656310658157093,-27.237598971453323,-1.336653086103131,2.220756573517197,-32.35950705687601,-75.4110120715203,-37.56812054736388,-31.79536988855107,3.558941993742297
28.0,-1.1452435487716812,-21.897929254121404,-20.752685705350032,11.54669171472252,9.822112659646411,-21.292405169928244,-0.9133579648042849,-6.357887169450656,-26.810103668939323,-26.80933937796874,-24.44348046233236,-17.925689905092018
29.0,12.10801661263154,-3.488634993899568,-15.596651606531154,-4.290500327753498,13.88355347400179,-9.513590865343602,4.273125167552071,10.891672585123372,19.340883283199606,0.7622686163684378,-3.636496664184273,-17.591439520590285
30.0,11.108051719225895,2.9526105691755036,-8.155441150050233,-7.013738562897499,9.59806476759466,-2.6527801547858694,1.6560174344435952,15.397085378184439,40.6433834158518,17.55364906183858,12.718419638350449,-8.31388231330367
31.0,11.802226781700398,7.445237303140329,-4.3569894785599175,-9.685406037237785,8.057208256814839,1.5712447781066317,-5.44692719775518,12.812131673788397,37.37388485800115,24.759271173304196,21.029279254064562,8.288365101203054
32.0,12.539575733575049,-0.47594273980731927,-13.015518473382278,-6.012020012532879,12.761270351380176,-6.797382846603094,-4.755017906673155,9.289233498696442,24.647525811923728,12.39026190964098,11.198570544623024,4.957278436276759
33.0,15.670421712805926,11.958822953598887,-3.71159875920696,-13.86940918606783,9.67492388457208,4.150050148842714,-6.2188048418324176,4.779595879311446,2.3131985168337508,6.2624662002327,5.144703284851383,9.922135364664946
34.0,6.388700873545336,11.297291056064402,4.90859018251914,-8.813882108832004,0.7980819798685301,8.127891287337716,-7.528865708488144,-7.550515753161323,-16.73130722880787,-1.12771482180879,-2.1719639364591297,2.3924039341963965
35.0,-14.845373642278922,1.3692289333342096,16.214602575613156,6.772959995495212,-15.55781072573135,8.736316935583048,-0.23480335823845963,-17.788694360127053,-27.024107168603656,-14.862120367328753,-10.823815187580415,-5.413967022049883
36.0,-17.900600213984124,0.5831427645102494,18.483742978494362,8.699323914406808,-18.14809076442652,9.555411173227105,4.7858785991026025,-7.248741753704927,-16.55702398772057,-11.696060525791186,-10.071676801843747,-4.281204392234488
37.0,-7.412512374233682,-0.4829442041618863,6.9295681700717235,3.9140409417954913,-7.210033823226622,3.245595833268401,9.045592431505113,4.583945861444538,4.624962761351615,2.399775073865163,0.19295407563958733,3.5396924412923587
38.0,2.5407750242189397,-1.193801239998594,-3.7345762642176634,-0.7052410074446804,3.0982033207617095,-2.439692231748388,7.4033004830701685,3.1888156257447133,6.848083488125039,6.6827008961582886,9.314277974999484,9.226036424653248
39.0,-3.1741973870735904,-10.469460666217657,-7.295263279144162,6.7887343500084185,2.103304840752875,-8.932794730287796,2.313640844100969,2.881496187106287,8.736333879172346,3.229567240554898,5.929279107653166,2.5522929143689383
40.0,-4.056242269513574,-12.103719199147235,-8.047476929633627,8.121340010002992,2.0447304570797433,-10.042699196838246,-0.755689106584583,1.9266709869541634,-1.8360504190019729,-2.3448057660501043,-2.8552002812488886,-5.988165898213918
41.0,5.3694464564887365,-3.354706390718449,-8.724152847206994,-0.9718790916640692,7.024202705537542,-6.080980544588367,-7.440778850211687,-0.5330831078199316,-1.8181442433866435,-4.230869657082652,-3.2707475185719317,-5.396447526289618
42.0,10.555710935262566,5.625458767040595,-4.930252168221789,-8.139262224679005,7.72560530891201,0.3879590973746887,-4.8833150963697625,1.624731297207454,1.7056553183606311,-1.294500599322061,-3.512786908071721,-1.1860152091378193
43.0,8.608081483557477,6.804610054278687,-1.80347142927881,-7.679160153175159,5.189876203282374,2.463729629158446,-4.866805844639149,-0.9643436152210233,0.287701782796024,-0.18641178745681297,0.749099850489122,-4.023556504221725
44.0,2.719597811554075,6.90705428529916,4.187456473744884,-4.86365076833572,-0.7525908130271155,5.589103286145068,2.981688003980207,-2.7567786870154314,2.8982036465858894,4.08668615392095,0.40456615890887865,0.4260037999805315
45.0,-1.1017424508655822,2.662685918315594,3.7644283691808074,-0.7460464078428939,-2.4575686021932794,3.1753244394195628,-1.0027881293405372,4.170667681737618,1.4102005754678524,-0.7177006868912734,-1.116800284047708,-2.27860274119365
46.0,-15.19400481139021,-3.460292710058746,11.733712101331069,9.371649394723491,-13.416184951311909,4.175214548998017,8.334948283833706,-0.006304037664399853,-1.9328222599097509,0.06945373052929282,-2.212930244813916,2.7607927953958744
47.0,-5.523742880184244,-2.539898255724172,2.9838446244599517,4.009659373890353,-4.211177651286476,0.17972919244935515,1.2200472335788977,-3.2022897577035008,-7.009994306439042,-0.42487539955130704,-3.9251787668831684,8.15479436448094
48.0,1.9429202327185893,1.4282380433120392,-0.5146821894064639,-1.696652077968924,1.190415373764118,0.49197317384440764,-2.3468497479070622,-2.5871293343468342,0.4826112372699356,3.0388828199885434,4.747886727178817,4.767054472207905
49.0,4.285312626678065,-5.027449875798499,-9.312762502476225,0.3669989080416278,6.839712194767742,-7.21377607448861,-1.0435790335846802,2.7033971544405775,-0.27172674125000507,-4.138888946201772,6.571088162182653,-3.0888267485884295
50.0,2.3766712304708837,-4.051482388950063,-6.428153619420579,0.8341163844486386,4.365745986387979,-5.203465857546271,-0.4222703609444106,-2.799608426016402,-1.3826151750317817,-1.17269389957604,1.2817991210271233,-4.11516875463457
51.0,1.4986929238033566,5.171294720615687,3.672601796812546,-3.344157744611863,-1.1229855618127966,4.460757490552299,-1.3762768679011115,2.5422491130068177,8.834469059953193,4.186555342114705,0.7974965121682591,-3.000467680206758
52.0,5.182262243715444,9.36537987780537,4.183117634089887,-7.294031529722429,0.5407343765515027,6.737452703596746,-2.003588117120204,-0.008870700001779586,1.279527568416405,4.901871419151948,2.832491441778894,1.8973068590848539
53.0,-4.8781819924148335,2.4000344130062987,7.278216405420821,1.2843838697593783,-6.1199968175477,4.805648989134587,1.9078826790008225,0.5346487482651289,1.1489092663498455,1.7949191039803007,5.265290580534657,0.21074952476069186
54.0,-4.694558082987378,-6.647760048362651,-1.9532019653755692,5.62590138961713,-1.3400849503816072,-4.330725967105842,1.0791060275729958,2.5886705296077954,-0.9416045669150332,-1.6562505173627193,-7.845816128004807,1.698862718317199
55.0,4.859514837693723,-6.817462214107146,-11.676977051801014,1.0051583730351759,8.291451435419013,-9.195603877281247,-0.8616405899294658,0.19110543897270416,-6.193363041437428,-8.579793421265645,-18.067261503697406,-4.636655139558938
56.0,-2.005785430893365,-9.847483527341641,-7.841698096448287,5.951676643325601,2.934075593458517,-8.790116600178585,4.557846300330956,0.7483984044388294,-3.5761033277156713,-10.339677835450887,-5.760545652202635,-4.431088498822278
57.0,-2.3825651292153878,-1.094262434081716,1.288302695133832,1.7682315912301525,-1.9035620710647623,0.07481480742318958,1.3930624133612146,1.4432934813638485,0.2744493213279182,1.5323736569097708,5.6154327767877295,5.2366781823507305
58.0,0.05268589241517019,13.541373058018824,13.48868716560382,-6.837188237772897,-6.710141375990307,13.493277792496478,-4.46049582737186,-6.133011767580054,1.245724643666063,8.793666009228858,15.020479868127616,9.859027683707618
59.0,5.387587717784019,10.627092477902032,5.239504760118101,-8.037491041287934,0.08273364183809218,7.909808978474816,-1.490108563390667,-4.776586635971409,6.445704041242223,5.103818869195748,4.838538781658798,-4.373504768799931
60.0,-3.394803102666062,-3.9441904725336556,-0.5493873698675058,3.6480086950400663,-1.4093328675126156,-2.2739409936307995,-2.501348275254144,-1.2303063965810024,-3.17351639642296,0.11897168201634933,-4.51972704911941,-6.5389254938151025
61.0,0.6151372425359165,-1.5606123453503384,-2.175749587886225,0.5356529410061984,1.416643433294272,-1.8209404808309628,3.0216033862912273,5.205640469840401,0.8462052218146909,3.1167573269638384,0.24749148526991693,0.9205600808573027
62.0,-1.105792010154718,0.12044425133862013,1.2262362614932516,0.4789339741191938,-1.1355756257014091,0.6384814800044714,-1.9859494606879704,3.217238697360707,-3.014241727675705,0.7503545301713422,3.7072511982609604,5.587750470019385
63.0,-0.8787114626758934,-1.1833858240974977,-0.3046743614217342,1.0162004501793809,-0.3269610739166955,-0.7011518659032148,0.3940375183028132,-1.1875966245729246,2.8195856773845365,-0.5119654911435212,1.956994485742607,0.7536864312325751
64.0,7.460347252026393,-2.328384589930844,-9.78873184195727,-2.5842477178575463,8.590131675783043,-6.0141111537929435,1.4660059591932604,6.781450953957366,2.7199803245956984,-3.5935845493733267,-3.6954881426610706,-2.216375245193743
65.0,-0.6964455851072793,-6.670396315851178,-5.973950730743826,3.739234537378605,2.606215618224509,-6.3532949902588225,0.5615844318140919,0.10554647639052672,0.21121629000378617,-8.252816417496327,-11.116690368967694,-9.581404967919335
66.0,-7.419939390673097,-5.80073145495438,1.6192079357187157,6.5823834537069414,-4.474590841834598,-2.1187192611640393,5.087194752463866,-3.602995722595105,-2.2243475752641073,-2.7531409541696323,-4.050158310503779,1.5455553913699283
67.0,-3.98470690987121,2.541451984893728,6.526158894764792,0.6888634829302862,-5.213285806949379,4.507619395458868,0.425948698885696,-6.918628072248296,-0.7875419710545615,1.5380733633433152,3.7597197535207867,6.396492127880451
68.0,4.124620194407529,7.034852316639657,2.9102321222319345,-5.538218851790343,0.567730247125644,4.94630572452038,-4.776396159478117,-1.6743101545839383,-1.8888340112506667,4.269842249325894,4.795547963412588,3.4107971545776836
69.0,6.938986746992763,9.896060760782582,2.957074013789751,-8.380295587286607,2.0283135237821526,6.477748045122567,-6.032881785699241,-0.6846091661843368,-8.561762756351131,-0.3511683368767491,1.3435465121488326,-3.572742514207266
70.0,-2.211196466839282,3.5363598164708856,5.7475562833103355,-0.7084276043887492,-4.021667964553876,4.691429638194494,-0.6868127789580076,1.0770933081294949,4.18334241564534,6.1044213243557515,3.0395830728446653,2.7883138601948385
71.0,-7.098490975655178,-6.391951826552068,0.7065391491032639,6.695083572158172,-3.866459711534546,-2.8735432938897754,5.2008414814639075,6.110009437497844,7.275959432406961,5.52575325065831,3.2638490140684513,0.7666408395488533
72.0,3.6291721521554168,-5.5628011868356495,-9.191973338991051,0.9917124904283647,6.367263549408946,-7.409853611177876,3.896025188135515,5.654705328945439,7.161367835094348,0.862459332086851,-0.161986334431226,-3.840764264849636
73.0,6.197988882381134,-2.166552160270461,-8.364541042651773,-1.9930943535690644,7.315440242035683,-5.221752637593288,0.5679006830177298,0.04631291477320243,0.9734871402566418,-5.244368289854973,-3.7558954873231922,-2.4239964686756954
74.0,1.7433985652267732,-2.9946165169503822,-4.7380150821773235,0.6481028104164028,3.1942775932398493,-3.9054558571128655,-3.4347452765381874,-4.226357883464608,-7.322764040103907,-7.0964249523659175,-2.0544843147847147,3.2095564191524106
75.0,-10.400830488110877,1.8183422807106624,12.219172768821581,4.315860504180552,-11.279610161944758,7.052155622545243,0.9583286545416767,-3.1374860502538193,-7.972464785283012,-3.9095698644849115,-1.9699082637874787,0.7719901355700391
76.0,-0.9668154167584508,-0.7924714670535566,0.17434394970509715,0.8293548676168756,-0.5415043155399122,-0.36216116700538326,-2.127378173210502,-2.90004288519811,-3.464566050014085,-4.953429201242519,-5.880103996315437,-7.923191307310933
77.0,-1.1153106140979883,-1.0276768573555748,0.08763375674262974,1.0259591627115145,-0.651330800795686,-0.45235350006978026,2.6523636248603903,0.3870807621184029,6.081510283997982,6.961060312834437,3.25310337983678,1.16468893057585
78.0,4.160503228310298,8.661574538661629,4.501071310351463,-6.372830797325305,-0.14031812963639556,6.592451295444029,-3.6103228059519292,-0.6269028171226568,4.6118400751747135,7.686949356688072,8.124307427881236,8.512954450829987
79.0,6.49488806036792,9.022901853898066,2.5280137935300466,-7.715819127028096,2.015465738261688,5.78290119732135,-2.1185498705608308,4.344523562118287,3.6361002614180475,6.11460642606739,5.644588525502353,3.216448514438138
80.0,-0.8647022347683229,0.8344935132606337,1.69919574802872,-0.01600899748940554,-1.3260869331163587,1.2739659125446066,0.8472650293430724,-1.0601099223153652,2.1068524184589803,0.3720451645159395,-2.262793508738677,-0.19813936206105032
81.0,-0.174324072243563,-9.159576647280819,-8.985252575037546,4.639904139776223,4.364050921499709,-9.062928122221903,4.169611895392666,-0.3649539779552886,-8.73058189719005,-6.560355098606284,-7.706186219824803,-1.0780996034449781
82.0,-1.6302658667197245,-13.853689348787583,-12.223423482068107,7.797004475512118,5.3366684106512565,-13.025655254272417,0.22254075978569077,1.0818371038027281,-1.518526923545727,-8.09541743265446,-7.652313775118363,-10.144378166652993
83.0,2.7027604814336392,0.1873698823787988,-2.5153905990550314,-1.4664429595787665,2.652041967516965,-1.2273535895380467,-0.8467929430037825,2.3237151666358233,-2.223937152022205,-2.679047335238728,-2.234931721582198,-4.661472754879936
84.0,-8.932591106652263,-2.678583761059753,6.2540073455923935,5.7855017197394725,-7.625992460823789,1.8032002070135689,1.7516622723997017,0.6618774257187424,-1.6875915317437427,-2.0930416845307915,2.8374724372558497,-1.5642452856444993
85.0,-4.113807916054727,7.520822902503916,11.634630818558662,-1.7231640336028478,-7.903674124063245,9.590334137446952,0.6197973424886156,-3.9917263507816476,1.8443949893188911,6.5171484191466655,6.344812920307206,7.207557830953349
86.0,2.2059088309756385,13.752498788485319,11.546589957509841,-7.920107073525695,-4.617846478472204,12.656852466901332,-1.0866712528730043,2.2346208884374557,12.289541398224529,9.986083578662443,15.655584447511869,12.03014549671067
87.0,-3.9825144689315106,0.8208151078743446,4.803329576805983,1.5612917442208474,-4.416186313638951,2.8130420536105563,0.6281110990072167,0.42512272281560537,4.906477128374312,4.8249840832468385,3.0060771051028468,7.2675556587906875
88.0,2.0341870891259,-6.902528564015327,-8.936715653141313,2.415183813967281,5.464945638042557,-7.924218135488108,-1.7932375981593518,-1.7448088298615096,-4.484603574666565,-5.639783613537696,-8.73444702110617,-5.38838932457905
89.0,15.48586740941365,0.733023732802371,-14.75284367661143,-8.127293050624534,15.101498343158,-7.01746148451325,-6.055871598292433,-5.832601853924876,-8.99499274014397,-5.238953945669022,-11.211058317496658,-7.621027604613584
90.0,21.067574796652593,-0.5036259072513869,-21.57120070390411,-10.219632528696916,21.382947950013904,-11.043840746321425,-0.7745462825483398,1.2932219177498157,-4.788436621168695,-3.210483326867361,-8.089245710341048,-10.1620811445062
91.0,-16.091490020134223,-1.7241239470326062,14.36736607310161,8.892536039413912,-15.242016033237286,6.321090693782713,3.8582630005925083,4.798394008720835,2.269908951395265,-0.023217617097351262,2.5242371185491734,-1.6755572219340396
92.0,-18.91279132709805,-6.56077403563105,12.352017291467067,12.72158962788598,-15.642867297195671,2.9052987560934542,3.4161891921455436,-1.1555691934999208,-6.477761181803338,-4.0771111141760565,0.5697626779784692,1.9245468911957886
93.0,-14.132856629420024,-3.5750369946999614,10.557819634720097,8.83718024769546,-12.354773176747516,3.5137755340577663,5.299853852652377,1.17390314897172,6.156272959336178,3.0403604429978768,7.52139568978558,4.2318199457359436
94.0,12.147882762292342,4.894424553599823,-7.253458208692584,-8.541284462306944,9.690605517255944,-1.144862868205431,-3.3990514163950083,3.8106944895997983,6.22530260613725,0.9460982583236186,4.776743479254505,6.8506913309474236
95.0,11.449656659539357,8.662843189171504,-2.786813470367977,-10.002428375383554,7.105589376237699,2.9024561490887386,-4.273018173057787,-4.4740306932081,4.683153927900241,4.943092835715802,-1.6303441305145387,0.9394534474686376
96.0,0.3138000278163817,-3.8285905745577695,-4.142390602374239,1.7268554574451862,2.289664187994984,-4.018739343339288,1.1331036371334315,-0.9406014826474869,-2.365035206206178,0.046782369567564874,-0.736537972676682,0.15143146226390858
97.0,-1.7428043509639064,-3.099731600426476,-1.3569272494626161,2.4636115807970684,-0.2164248752022493,-2.266129779833351,0.11304022365532407,1.7955329263959214,-0.5754937632388111,3.66745875068879,-0.3930624618362226,-1.021581863474081
98.0,-4.452781430855243,8.446908807658028,12.899690238513353,-2.039271588018638,-8.70748339195082,10.704445092856128,1.0512792102045765,5.872384501755372,3.1660167090078084,1.3744832529780688,2.571823599286602,0.5915936317465573
99.0,5.8421456048088025,-3.023909799211989,-8.86605540402064,-1.3781742778593788,7.3928737177820505,-5.92560738806908,-0.5096165250114979,-3.9094123761039286,-9.001844658230919,-8.50140386012477,-5.490756814714289,-7.181796315928587
100.0,3.1901644880309394,-1.5767892843956213,-4.766953772426346,-0.8597508023536873,3.929602232602292,-3.1625281432753587,-4.497562431432625,-8.091488448785375,-5.603666194914043,-2.316052744489796,-0.6322309787352709,-5.47848922599581
101.0,-1.3444008609642242,-5.151482861293843,-3.8070820003294266,3.268972328591769,1.2527759681104298,-4.475450860419598,1.5710813977033802,0.4569852061914732,-0.17222086489902244,0.4530006015373864,2.525951185471239,5.9768282514838225
102.0,-12.331037316818584,-5.723378334771855,6.607658982046841,9.044501038271555,-9.454843802150606,0.44598903831060577,7.288107676881193,-0.1716075909927835,3.6622809047225497,-0.9383288780716311,-1.325878179158147,7.330764560362042
103.0,4.593619525595047,12.987295637043742,8.39367611144867,-8.775783437825003,-1.8905426111879495,10.699037334663894,-0.8315872232914354,4.762562844586411,7.5266063196212585,2.3381773261686654,-0.3830714144156064,1.8822297113609836
104.0,-5.523498890677811,1.995023023113525,7.51852191379121,1.7773862085683603,-6.514538873872048,4.772649861611226,-4.551552056452565,4.36699056495511,0.050243745872287526,5.094598444983608,2.4778923565758664,-3.470721150434984
105.0,-0.18554487166763522,-4.086263481489718,-3.9007186098222317,2.069723133245361,1.8629574799126614,-4.048663605839667,-0.3615819781737588,0.02905092602988235,-0.6827705116316012,-0.03911714272521927,-2.770253078590495,-9.553882216067555
106.0,16.645911748136673,2.3076929487878934,-14.338218799348958,-9.463913797314587,15.419605501971663,-6.063848956631532,-4.03983247452135,0.11663607490954547,0.9642328893065306,-2.853696378903787,0.64983056354884,2.821012666617456
107.0,3.306284230020373,-1.8155463823602616,-5.121830612380819,-0.7311083917715773,4.223826896428272,-3.4333981572459242,1.277570131148607,-5.049622686844098,-5.066868817052826,-0.2960977420194222,-1.8856349617419297,-1.058767372550744
108.0,-3.0690860807870095,-4.391287813574177,-1.3222017327872975,3.747081554633124,-0.8568840270700728,-2.817370178731689,3.4126224822142577,-5.786705443767857,-2.5766107001344,-0.9933879947088015,3.9796460364987976,2.5123732101311496
109.0,-12.21687997219698,-8.710771141340002,3.50610883085697,10.484616569892427,-7.834550133938632,-2.559545128181795,5.6027773442258555,3.716171174182614,2.998453992441948,0.47070490532946496,2.5876190274015993,7.127731998982485
110.0,-0.5899748775479878,2.466608501200804,3.0565833787488526,-0.9914728597124105,-1.783244260928016,2.728080630628438,-1.1202379548883465,5.419224465401724,3.2769504506927642,0.5848412743422406,-2.9665661539786354,2.7683296559012964
111.0,-2.9028669296541776,3.575462945182297,6.478329874836559,-0.3056330403784516,-4.715806505927063,4.99397111740336,-1.4989223347304117,-0.0543408453502181,-1.1874022947478338,-3.9696052770487027,-6.601248464251514,-6.544009814804096
112.0,3.443791844452882,7.751100948754127,4.3073091043013285,-5.6409309854443395,-0.44614936711650666,6.072917486806553,-0.47174334182233557,1.2348611348324439,1.3504862373320514,1.4322142850527233,0.13213503038104957,-0.5476161235226784
113.0,3.041639817912178,13.005299186168267,9.963659368256153,-7.98478330714498,-3.4700303289394787,11.444635613618363,-3.455483168199483,1.3319711419038747,-1.0914102952797333,5.3583234384687595,11.690941021021212,-1.4212313979447757
114.0,7.412845717541387,3.811415956117954,-3.6014297614234065,-5.571830298051785,5.496827672113639,0.05893791605793641,-6.288639701901133,-6.654180565246372,-6.399151483775108,3.832131841734257,5.753006125150524,-0.8190863076022838
115.0,2.182257691975449,-16.26267797661206,-18.444935668587515,7.001120581278651,10.296309581788723,-17.326413109747108,2.887646826966955,-6.547369210559407,-3.91280051416114,-7.050961104030929,-14.153803672487552,-3.55831111508603
116.0,-2.6263867837979,-14.865250168645506,-12.238863384847646,8.703787752884184,4.779191463637912,-13.526628394174235,2.5473310722535922,4.070605505177788,6.868770506109291,-4.745917778547166,-4.630783962588385,2.115571442121364
117.0,-7.558853363661804,-4.541766088677298,3.017087274984444,6.0823757980841044,-5.245074473890432,-0.7341913072345099,3.866705332137936,3.851691224187455,7.452430230961305,4.3934314801193715,7.6504418579091125,5.642389642777694
118.0,-11.301338636748403,7.235832624729214,18.537171261477567,2.0597006151208754,-14.881170104096325,12.92152271864321,4.213167238291614,3.745138528381234,4.30858284649049,4.701427905317791,2.393328811538789,1.9917349381117102
119.0,-1.5500658591925545,10.333573811003328,11.883639670195873,-4.447523909809238,-6.678472519912332,11.073589242901189,-0.9788924673023298,2.2715854832994617,-5.330084098259665,-3.756515272890391,-8.093251734929273,-6.148142828510151
120.0,12.322144425249983,3.0365993510945923,-9.285545074155362,-7.65771998097863,10.76772518238755,-3.152003265660456,-3.3440250856427944,-4.303309414656975,-7.368642703949219,-7.280627319122326,-6.0120542123758,-3.4495971005342603
121.0,15.907475663868743,3.12936567434721,-12.778109989521479,-9.494614161707679,14.312215376615827,-4.848019074493924,-4.089207962846982,-2.7110973471349853,-4.384550962082573,2.9460072545300506,8.672455620254212,3.3369854106375287
122.0,-5.217299264582659,2.622441271204285,7.839740535786996,1.3267299659228202,-6.555069725008927,5.207092021838123,-0.8724743429539004,0.724039479831263,2.7505526455420166,6.795632318692281,11.04295693016745,7.4053156685163515
123.0,-11.762112415946431,-13.652081058185336,-1.8899686422388875,12.66535955479214,-4.961866382424934,-7.719604505907813,3.9989338282996676,-0.7668466964841716,2.8743359896046408,0.43415911846781086,1.9329776674921622,-1.706312976223701
124.0,0.3877682893352876,-6.765622962182804,-7.153391251518088,3.1554010206962566,3.820732873746239,-6.990799078226143,0.3110566430095978,-3.81550343669009,0.3834304939275488,-1.8530996608303398,-8.12257326571025,-4.62662604671675
125.0,0.2546190500472112,1.8271568712960642,1.5725378212488812,-0.9887051133893854,-0.6143575549174503,1.7448883982637882,-1.2764144037248295,0.32069361423959075,2.6380260759057834,-3.3772056038953053,-8.758717494873363,-3.1673995634240066
126.0,8.025514762314632,17.490435323708606,9.464920561393985,-12.78015732701988,-0.7609692259854008,13.522805929112307,-4.30113672846529,12.773733994221201,11.08181919139273,6.27560329843763,5.170433710235558,6.811750634273972
127.0,1.7212398994723388,2.6808522988849246,0.9596123994125838,-2.2220996687541943,0.4106417396932709,1.7886367222085235,0.13076324229190017,0.4081409292269109,-4.018020905076696,-0.6895401270072283,1.2610292971112171,0.6227571965402086
128.0,-10.966637206986324,-9.581373797222138,1.3852634097641365,10.329535037796227,-6.232299491696796,-4.127214375411825,5.462221877747806,-6.166908820090929,-12.137723445372394,-3.2781686512966073,-0.9785889114064814,-2.19044683206996
129.0,-2.8103797401017796,0.15876252157639792,2.9691422616780887,1.2976247157270002,-2.873911576052847,1.5361882687559576,0.5755613451652553,-6.493044878588438,-1.2811684940866783,0.5920211811646796,4.237188024582059,-3.140122745343057
130.0,1.7409369157842849,-12.32951683977581,-14.07045375556015,5.259249663877045,7.916512078350469,-13.227912362787231,6.1323337820998605,0.11841071104045309,-3.166975055720438,-6.295183237711522,-5.565447440005778,-4.8121029092342145
131.0,-2.122604743997134,-5.838337569170336,-3.715732825173247,4.016587145184219,0.8044553858186378,-4.727365031390284,0.963120268981843,-0.798387192892767,0.9059826212398793,-2.8753764996868565,-4.063591708090314,-1.0937812483663167
132.0,3.2533457567587556,5.679788643747827,2.426442886989077,-4.437561828618053,0.42092895336495495,4.10172880339746,-7.452364380606425,3.572017591570136,6.392054956684385,1.4444429201421503,0.04125926658788914,5.374597062378394
133.0,7.077240325810378,9.513562087495892,2.436321761685527,-8.350683476794867,2.3302037532081803,5.944631458716967,-7.741177510282315,-0.2593940374967225,1.3392917743764894,2.484840760742976,1.5264573097322196,0.32606133873018983
134.0,8.304507038047655,19.097871773129597,10.793364735081955,-13.68087147494403,-1.3084805519395564,14.915998893092837,-4.433840201514704,5.668030635781725,7.165440141482064,13.041371086000227,13.220297270911656,9.538420060866914
135.0,-0.11939623445900471,-1.316348792319043,-1.1969525578600901,0.7378763121219656,0.5610267244902671,-1.2067597072676932,6.622281539229979,3.3899923999087003,1.9676738337582367,4.530788481379636,3.668389697972874,3.2642090455909805
136.0,-9.750825069194509,-12.98293238476199,-3.232107315567527,11.31063747675407,-3.227254858826745,-8.136687428571188,7.839244583984945,-4.1068186913841584,-7.249121885132209,-7.6181659616481525,-5.611632224644248,-4.734950216672978
137.0,-10.584286928102436,-3.6996149572988024,6.884671970803581,7.169175473335217,-8.76973380199923,1.5610515020423374,1.1827991238892315,-2.027397240584123,-4.45307811552202,-3.5200657530606447,-5.223438596080303,-4.884759116686891
138.0,-0.9308621504027812,-6.993971164587373,-6.063109014184626,3.995286960694181,2.6210645122174125,-6.485893422390556,-2.312098265882529,-6.716969417233179,-4.0980560003286515,-8.17243020880428,-11.417612779938784,-7.913216663507699
139.0,1.0823244936544547,-3.9909090807221337,-5.073233574376617,1.4919294972110877,3.0633496696134306,-4.57470256706886,-1.399994411086623,-3.4464030325045845,2.9927189191251236,-0.0469042063979872,-1.6187554711245191,-0.4251920960176774
140.0,12.546146049779516,1.7352950055396077,-10.810851044239973,-7.179738732216863,11.669131731560595,-4.509133730863131,-3.1894315689938715,10.158887459352416,5.619526658861045,-1.0169021062525334,1.7424221154091148,2.588276710467731
141.0,0.16546964245120943,-1.4581616293421185,-1.6236312717933483,0.605843662459125,0.884347312224878,-1.5195328904505638,4.988736770921996,5.304176384077872,-1.5443214250522046,-0.06152040991578667,6.0669655475781745,-0.8280682727460587
142.0,-2.6282311253418817,10.456052972459961,13.08428409780185,-3.958748770899692,-7.873361107880617,11.785475352781582,-3.681423186911272,-4.220944874745606,-3.598050452960475,11.500400573736517,14.027735852068012,5.591879391615775
143.0,4.692274058761592,11.73477225116487,7.0424981924032934,-8.184412037545258,-1.2036297681167074,9.321190790956209,-1.692042444579134,-3.860832304785802,0.09144382749374358,2.226780251478277,8.512461928857475,7.158165948436094
144.0,-10.813906695519986,-0.5632374550570978,10.250669240462887,5.715515439008123,-10.495088241884718,4.853772146205042,7.172449051853755,0.09890015030875943,3.6105359063934053,1.645129236390431,-8.42861019766443,-1.5394960256373942
145.0,10.61138656563398,-2.497707589909778,-13.109094155543781,-4.027146545003029,11.886103535218211,-7.791277616727417,-6.308922602035857,-2.789469024181301,-1.2186443853010596,-7.619634440772963,-17.600251356439777,-10.388522628953368
146.0,-2.9854241041664427,-9.414090191684707,-6.428666087518367,6.237300396714898,1.7405069969265252,-7.9036341792839675,-1.513360843977767,1.8031410506356325,0.9192084010124592,-3.671889723445986,-4.401329618450694,3.3715535916820567
147.0,-7.39841808102994,-6.3596889551405305,1.038729125889251,6.848569751170242,-4.27978994582614,-2.63393193454636,-1.261697870463094,4.093614813600932,6.004434244406587,0.07201952446762716,3.720224311607968,4.654861884330291
148.0,-0.07868460567894742,-1.9035093449579863,-1.824824739279209,0.9704270365777647,0.8945446728169278,-1.9054779287937653,2.296985024698624,2.117512945999576,-5.430484266034934,-1.3225293578388586,3.799842637175565,1.117614765888357
149.0,-10.858693532199956,-1.5578319563997531,9.300861575800052,6.192751298386424,-10.050733204772456,3.841523721456554,10.766693927594336,4.758652300769034,-0.08069756068573009,6.922814661302455,12.131686010634283,0.8933757338463149
150.0,3.0679245567004383,13.65443751420308,10.586512957502531,-8.378363874254791,-3.80027226599897,12.179099036028612,0.9192062883441432,-4.651022706652456,0.12518378327169621,5.226550042355918,5.080538953717741,-7.34137204846579
151.0,15.12538855643094,2.4834524802382347,-12.641936076192806,-8.829922081827789,13.928693098333794,-5.09272707634336,-5.587629455762161,-7.8059406071294255,-5.765275484052551,-10.368003581493198,-17.20591222255454,-10.612326304829898
152.0,35.97896824541128,2.4031224312999173,-33.57584581411148,-19.150469015697222,34.74737517741407,-15.597794331739221,-17.791098292439692,-10.006267351013996,-9.214206033347837,-10.992483018514456,-13.456437543914351,-0.36000616701744237
153.0,-26.643766806810923,-7.869160647989041,18.774606158821776,17.283370555952857,-22.740117807026763,5.438072705961738,8.35430982464989,11.3761159323593,11.922910724232722,8.97319825582884,14.348510967227035,16.918141971076064
154.0,-24.858735780170484,-9.767138665058969,15.091597115111478,17.328332372978167,-19.932504227207346,2.7181000821984935,6.819761690048998,5.176113984629366,9.372447760867201,8.079212688281974,7.765308799961197,2.765860455634482
155.0,-4.757179716528903,8.90275205553793,13.659931772066873,-2.0646494854303246,-9.252561330715166,11.246580790593994,0.2936871279792035,1.507766813419365,1.8806171789616153,8.363304455900575,6.592011701020016,-0.15190974130387502
156.0,1.9308024914904962,1.7460430374096003,-0.18475945408078953,-1.9111808504906693,1.0839255955155185,0.7327633715301296,2.9728363495964714,0.8610685927807786,-6.1354456129439265,-2.635851237630494,-1.3620409335396682,-2.850796260682386
157.0,24.074512066738503,2.7438853313518514,-21.330626735386613,-13.400296278515732,22.721331682627262,-9.273747045658808,-4.466565548783208,-3.10847672054859,-7.797494155793717,-10.588073630082139,-9.165790239097685,-6.177336422333352
158.0,-2.3101047036721045,0.4723175883939629,2.7824222920658874,0.9351497026052336,-2.5325670813853876,1.64062635260344,-0.5823920078068658,-2.5478831335182464,1.5457604061749723,-4.13530859213265,-5.349522934177482,-2.053855020380543
159.0,-3.284658476520293,-4.932565161164008,-1.6479066846440547,4.135618939657684,-0.8073271092067298,-3.276588821592439,0.9348964981696168,2.374170628610561,3.544639796824889,0.6853719935216707,0.4651040914253879,1.4817435321720889
160.0,2.5913804091960877,0.5652220092314999,-2.0261583999648574,-1.6174460243897113,2.240234692845246,-0.7098003739194845,-1.919138771626356,-7.438452137506286,-3.071444963033757,2.4903801128418364,-1.4669010586495956,1.296332168653709
161.0,-10.209902979303582,-5.554973134534442,4.654929844769108,7.934436443290275,-7.421983558273022,-0.4180425000641002,1.3566643315842266,-0.5211510759842635,0.7856578797640018,0.9667696809262485,1.7583348585334577,5.133564909149255
162.0,-1.8044980847734742,0.7965137630964993,2.601011847870291,0.4871514574029452,-2.1915582497534083,1.6637445433602374,-0.3954790302128539,6.169481524646146,3.2840624202125834,3.469529416337045,2.273359996448463,-3.239934853655255
163.0,7.484009738102811,4.848656870491052,-2.635352867611319,-6.1776948931508135,5.071994897219184,1.0798771043949302,-1.403406870397358,4.450716689316494,0.46583379793529667,-1.1871737931746216,4.947062300676069,3.979929139927814
164.0,5.472551320498917,2.39990014638729,-3.0726511741112152,-3.947522189085428,4.2862817004606235,-0.3609582667106179,3.2441033137863258,-1.2692472959666987,-5.2615722743607245,-3.234387087141946,-0.18469227232837504,-6.088909487741543
165.0,-11.946603134503073,-3.9899648559315173,7.956638278571744,7.952036973795745,-9.936546710497701,1.9546455892962757,4.3992437301348515,0.14659131073233633,4.582596139845119,2.244752994858271,-0.9482989846241013,-1.2990040349271108
166.0,-0.25817071327530305,1.653124588356434,1.9112953016316176,-0.7220072700810789,-1.1473316743313395,1.823725739799253,-2.8032683488285945,-2.346063385582528,-2.407974220911525,-1.9218941245717174,-5.288250607678638,-3.0640586151616622
167.0,4.436815637443992,3.812535544683994,-0.6242800927603238,-4.079767271962739,2.5471681807928626,1.6255394862180308,-3.723232675898342,-2.466425879173804,3.250611381352399,5.953644196938358,4.176980315051129,4.636365036711693
168.0,7.249970448092993,0.6128682542926592,-6.637102193800739,-3.8948739547946385,6.95992323654403,-2.9898841421661184,-4.601111807003839,0.8307336985762903,2.7193837889038965,2.2285955262944093,4.646045848484077,7.783281894341819
169.0,0.3000702007425451,0.20920442242347492,-0.090865778319416,-0.22457119021068772,0.21103296199064614,0.07432583883825261,-0.7248890911406287,-3.8455005336230266,-7.314463982350225,-2.855555933302297,-0.9725447407555939,2.6130648821502214
170.0,-6.036148822715879,-8.148634560183314,-2.112485737467649,7.03897050268764,-1.9474095254671568,-5.199288245650422,4.894202673060903,-0.5314080829178679,-4.179303098764171,-7.813636914729544,-7.929163164532751,-6.677507237377052
171.0,-2.6604265713268287,-5.451606783089286,-2.791180211762471,3.999014198304953,1.074146657398245e-05,-4.115361050121911,4.184095183307286,4.812841124476787,4.268465563398388,-0.04999840000314659,-1.723880019805819,-6.048788343687035
172.0,-1.427755308565453,1.4966516447498726,2.9244069533157266,-0.015360589678683478,-2.163012175266355,2.213165303622858,1.7939794107953495,4.618519468759665,2.3053270379747226,-1.9250597043404043,-4.163494287230725,-6.594093683867852
173.0,6.542012738994375,8.612547428255548,2.0705346892618275,-7.5594582578889336,2.2499263326602663,5.341588601629356,-3.106376623169303,0.6340426286676593,7.0953278219031874,6.21255350681159,10.069617432235717,6.058982108528008
174.0,-9.453812210347365,1.3856336024258527,10.839445812773919,4.052931471433383,-10.129393307509918,6.1117472179306755,-0.09975595647936197,-1.7211886518889867,-2.8106888923861266,4.618190695066071,5.5480626474132935,8.333605435918486
175.0,3.2178547680015903,1.4432162328105882,-1.774638535190638,-2.307709987223547,2.518398882086551,-0.16441329089388335,-1.8909508810813664,-0.7648603295767178,-2.0263686500545317,1.7413368704025909,-2.6872078228463465,-1.7821613600860058
176.0,7.453004063584668,-2.2078393800068103,-9.660843443591494,-2.671603286630388,8.506369228742583,-5.927247072837724,-1.9477959822169704,-6.049272587701303,-8.126564070285937,-6.3059906193376385,-3.044989558092192,-1.25702186192461
177.0,1.0234090289145477,4.377314865665523,3.353905836750481,-2.661678820735249,-1.1310904316115562,3.882062583311482,0.25535939625184545,-0.5235318139326539,0.9901346893522924,0.9882718161420341,2.7412253034034473,6.610394058472356
178.0,-4.273759048206069,-5.408308800869152,-1.1345497526636736,4.8105199471463855,-1.6095688222917675,-3.24326012988927,3.066640645184947,4.4354902141240355,3.9444076275378803,-1.4703938674318293,-4.235501621303468,-4.090461263062178
179.0,2.4492270486021313,-7.315493793139416,-9.76472084174194,2.411124626313402,6.148151061066641,-8.57852801962945,0.28321916322040863,1.1199148617942418,1.9072060114471978,-6.376390657220153,-9.141452075838636,-10.687810661638114
180.0,-8.751579478676138,-0.7480011075573145,8.003578371118891,4.812500975316712,-8.415322239818277,3.600033258863546,-0.308797657697093,-4.8802681974488635,-4.9034900800681465,0.2587484462000835,-0.015009776074449643,0.5659226300952103
181.0,2.2994181111347447,7.313677331007067,5.014259219872602,-4.8202082271495765,-1.3188694502921376,6.144097944227879,-4.238514079982004,-1.485600037961772,6.209516853644854,9.365250861542695,9.35904712981521,3.9778210124604914
182.0,2.10581293496532,-0.011978334740874619,-2.117791269705888,-1.0621661526346022,2.067613333901538,-1.0012473456020992,0.7726559445788939,3.835054813594687,1.699284135227822,4.72431252143454,11.812258482990744,7.576588756456883
183.0,-2.535657569891736,3.5490328873305375,6.08469045722239,-0.5269833140683065,-4.280126968915599,4.8037697256069,5.209989749545931,4.834741509522746,-2.8931087612205175,-2.313687514110665,0.8142303242092446,1.3231622594321477
184.0,8.598807877054437,-1.7095032989304335,-10.308311175985061,-3.4720449884837112,9.479604468557163,-6.022051015341631,-1.823511250533742,4.1162630416216,-0.3628217170990047,-5.867308013629575,-11.214049669537664,-6.449897088186709
185.0,-1.7653267281223735,-3.42092346095497,-1.6555967328328762,2.6372926957806664,-0.11017381871240328,-2.552998135477817,-0.0398631919812098,-5.721012909369336,-1.7881200393628032,-1.7573326603282275,-6.536460765613868,-1.5187575293151292
186.0,-1.099897586181667,0.654194897413896,1.7540924835953788,0.2615802136797596,-1.4041060420462057,1.2652312459783843,0.14737665204566508,-2.5236994933601355,-0.7810667640866671,1.6383806039041318,-0.10200312212037943,-2.523791223262367
187.0,1.5542101659531686,1.8910032751811259,0.33679310922803884,-1.7652370296079063,0.6334953025622485,1.091950317544383,-1.3750200180471006,-4.104159832383949,0.9725102781480341,-0.7498002791209042,2.203920041012314,-2.2648827236642926
188.0,-2.327501240183583,-8.273545526129878,-5.946044285946098,5.336897734739268,1.7597773928126168,-7.137377741559382,1.554601074094923,6.64327525737981,3.5713826559261657,-2.937139753956348,-1.324565758081244,2.591491426980856
189.0,-6.7281817667054655,9.282830202847299,16.01101196955303,-1.317397665827034,-11.333506620696072,12.612745023986816,-2.0335623408914314,0.1362987035362424,1.8721678733821676,6.879702574209279,6.937697039681346,9.673582755200425
190.0,-1.109507666616168,9.458829419807069,10.568337086423377,-4.211595830783318,-5.872983280894257,10.051506901118566,-3.5098972740311623,-8.206041441392397,-8.015385948571685,1.6932422806284646,5.37463117390433,5.213432073153832
191.0,1.9342539962669496,-2.6033243257957537,-4.537578322062578,0.3791202060684,3.2899335119162716,-3.5380591621876247,3.4598630600264624,-0.09360866735661433,-2.2631147799475215,1.339818243594345,0.8060115335622213,-0.05005701723700451
192.0,3.7758468899330726,-14.516758959740539,-18.29260584967366,5.416437543346627,11.018161314772824,-16.454485148368335,4.144602737838733,9.566253947604663,8.56656828504066,-1.968739411787893,-3.083415191086867,-6.295548386081071
193.0,7.660540263746039,-5.118467287208769,-12.779007550955013,-1.3044959203285842,10.210254021657821,-8.920825000837018,-0.1048437693322466,0.8185484910735612,-2.9673994045947554,-7.2077605625890175,-9.196451688419774,-13.202492590605278
194.0,-4.670676808844661,-3.8994477424480642,0.7712290663964119,4.248576101312568,-2.7271305939926167,-1.5353034032578678,-0.9759951664641543,-7.895227450364667,-4.1938824621131605,-6.896822826083445,-10.045849685389129,-8.194615026344582
195.0,-3.609856972970422,3.363821106576609,6.973678079547072,0.16038434321217288,-5.298077543235231,5.120513868182598,0.009861270851673098,4.549047141797573,1.5506794190686386,1.5996812136833078,0.3810617488251773,1.5432427318814086
196.0,7.425217941544604,17.303789954010167,9.878572012465742,-12.411382339951878,-1.2359015461805791,13.622902578725377,-7.493860322701057,-1.5586374308676245,0.0978408170318677,6.059179743844767,9.81627012084691,13.418514440111068
197.0,-7.216651687856594,12.917472817891174,20.134124505747973,-2.822810879694926,-13.68890511827461,16.478465232539886,-0.9095904470803142,1.300868242175804,6.018776581725637,13.296858514347306,16.0009760961148,13.297163412453845
198.0,-3.8745040354061606,-1.1437157883215514,2.7307882470846803,2.5354311883547265,-3.24155515007753,0.8227942712737786,4.782537195522437,1.4702313298848835,6.397834300055739,4.75990752240719,4.056361118231842,6.885852390478914
199.0,4.666862455257572,-12.016689242785674,-16.683551698043477,3.6252132825743226,10.654553699411712,-14.32446036374067,2.5619623280448867,-1.2173787205767355,-4.350770358700625,-7.282212179267307,-5.913122707238156,-7.771622461486775
