Time(ms),I,II,III,aVR,aVL,aVF,V1,V2,V3,V4,V5,V6
-200.0,-2.44423871234877,0.18239475701134156,2.6266334693601188,1.0891356526681648,-2.5128958663964336,1.3452088345148485,-0.33472427271646543,-1.7302177104181606,-0.8570954832344717,-2.257854681981166,-4.335117756421236,-0.31765605187186985
-199.0,-3.168431976007333,4.482970026668707,7.651402002676063,-0.6219192475546227,-5.384278067076648,6.097093940348453,2.8564461503530794,-3.4012077263299685,-0.2424417350841216,-3.7997143700917935,1.9189010916083706,-2.951165407669461
-198.0,1.380325688270994,-2.044220608186574,-3.4245462964575344,0.2861855828510496,2.35691401370329,-2.6918531270024983,2.093991040202682,-0.29704919255431284,2.294162544087216,4.00862707188494,1.1698660399842828,0.38635743180751847
-197.0,-3.6292371474422644,-2.3718343509108446,1.2574027965314112,3.030200958776257,-2.4795462979007215,-0.581320563802775,0.856037493414582,3.047988340600407,1.9995892936705766,2.0849083196987355,-0.17206484349601836,1.7267962480887311
-196.0,3.6296651614686533,-1.5142600946264895,-5.143925256095175,-1.1106716536421832,4.4374385974997725,-3.34410808452784,-1.7152346365343392,2.8921681886311195,-1.861014145615188,3.215164044241507,0.8674335102895652,1.828463316162291
-195.0,-1.730473841988956,-2.056363154821636,-0.32588931283269407,1.9157267920372156,-0.7254087559182367,-1.2016901878662765,-0.10039765928119904,-0.9415051481429902,0.39400670561783896,1.2266036450863498,2.003734741911697,0.9057595248420369
-194.0,0.5831922676925,-2.110885309459057,-2.694077577151563,0.7842216480083254,1.6168584178461427,-2.413427655796162,2.367744773977641,0.7381715961978964,1.448961389568506,-1.149313880707946,-0.42309035424929564,0.4229222371435867
-193.0,1.7818450901281429,5.865482004315878,4.083636914187732,-3.80296829849663,-1.1741803909912223,4.9596023081410125,-3.5934297556705648,-2.617270506378364,-3.7621417829399006,-5.4255918063592485,0.36121417174322046,-1.0310587694481692
-192.0,3.175344315682221,5.039825920455397,1.864481604773196,-4.08437102566133,0.7080440818598951,3.5103364125407572,-1.502392148201786,-0.5978173482816682,1.370751227325933,-1.8009454314552382,-4.227095734886006,-2.1995350727465133
-191.0,2.184215831438269,-0.03556481882792539,-2.2197806502661708,-1.1258625561033337,2.251778523062401,-1.153458897905748,-0.5957813423084352,0.4242576254352495,1.9570136760238046,3.375100267982349,0.3504483451003322,-0.5142066465264459
-190.0,-7.409343886890118,-6.245172149621267,1.1641717372689127,6.78028584393804,-4.317925366191491,-2.4911271448658647,3.9929229459601263,-1.5756155111892538,0.9563616881536618,-0.2396535623979683,1.2296458667450794,1.0351573420579208
-189.0,-5.262434492100521,-2.3635106459544644,2.8989238461461144,3.8492206657698547,-4.113605909249488,0.23661757237981296,2.0383369805513425,2.165262887352358,-3.1405860356596302,2.444048440995013,1.617416654796625,0.5593166826061828
-188.0,3.7841927233755577,2.8738335642126662,-0.9103591591628616,-3.2887043258384527,2.312440537798979,0.9503568773562894,-2.694613423089555,0.12159306660038238,-1.9499521870194605,0.2379744608463803,0.778224100466464,3.603683848149528
-187.0,2.760071980071312,0.5433428542551478,-2.216729125816169,-1.6867102929033022,2.5297632600061775,-0.8676138230541859,-0.6663508744217072,1.2201754839152301,1.540372644270871,-2.463390548286312,-0.9274689590377407,-1.2220700534675586
-186.0,-0.6814309793228444,-0.6422143111343535,0.039216668188454484,0.7080156576176295,-0.3223374249004476,-0.2530013768212212,-0.025040202351577334,-0.0007772059738875292,-0.3043601461755613,-0.9711382256090456,0.024913235674931478,-2.0257315006799703
-185.0,3.089550312179363,0.6054753989890221,-2.484074913190385,-1.8791335368756497,2.7419394634557195,-0.8903026976771062,0.3424728927116191,-1.1876377955652717,1.0977359995457732,1.1949979646824667,-1.769719060112816,-1.0690223031242196
-184.0,1.5000115848613298,0.7888717656143646,-0.7111398192470206,-1.1770086264280508,1.1348902399049718,0.009162271157479081,-1.149963644737463,-0.3429435773943912,1.6333176330264005,0.655408319504161,-0.46227855728766987,-5.947973360989116
-183.0,-4.320387661568835,-2.7490388436513866,1.571348817917399,3.5781900365562835,-2.9998681256427444,-0.6190471431128509,1.28925877569643,-3.6803686905151776,1.4465430053528798,0.15581781726135463,-0.061315408280338046,0.09002865189957165
-182.0,0.682774054168438,1.8358322539926315,1.1530581998241458,-1.2982679576822131,-0.2143849857965947,1.463524994251728,0.976067360731582,2.7285111746900648,-2.4638775780982813,1.4899788241228142,0.329440836047806,6.164912569400504
-181.0,-1.1942705349609155,0.6892787092769656,1.8835492442378405,0.28887795999794214,-1.5210639316069716,1.3341585022862756,-0.9343445891160048,3.485004101618969,-0.12297911193308342,-0.6137311365951114,2.667979035408494,6.973762351409717
-180.0,-1.1144634488895844,0.06507030207622777,1.1795337509658093,0.48058428831846456,-1.130797043867632,0.5929435316587475,0.3119451392651475,0.7885496330173427,-0.14627516824513243,-2.068998785555813,-1.105652700541571,2.379951245598352
-179.0,0.5827322928573292,0.014180895433651128,-0.5685513974236241,-0.26292842892251544,0.5912014649058274,-0.22363253099693936,0.6519657022608347,-2.3923789373266726,0.2770153809239895,-1.6785094266722176,0.3654168473417359,-3.9378447813492707
-178.0,3.0339444025971876,-0.8782707350320749,-3.9122151376291456,-1.03858506714483,3.409713427094312,-2.413813567716437,-1.5782845272523605,-0.20785897929113784,0.014405835988942853,2.0249115519349448,1.9781511491367847,-5.365613322666075
-177.0,0.24974740522914773,-0.2707687901529966,-0.520516195382025,-0.02310072487346021,0.40039384939759803,-0.4061601254683682,-1.049710738054225,-1.1695393710423296,-1.733925387712195,-1.0665306472083027,0.20279278127499142,-6.093878529415518
-176.0,-2.6967390424930127,-1.490940548410053,1.2057984940830124,2.067006479580133,-1.9360155073298668,-0.14537358610456197,1.9675580578747658,-0.6893249667728794,-1.8378436776803218,2.7385972213826784,-4.299182788609029,0.1811799027951233
-175.0,0.3873433554685827,2.8592294727350405,2.4718861172664184,-1.6438586108809605,-1.026317779160968,2.6681783203130807,-2.034602722305428,-2.661480604205204,2.4385134594637012,-0.009078286395123758,-4.392231478739856,1.7669370579895185
-174.0,-0.04996062284956901,0.9846343572252503,1.0345949800747043,-0.4045787715001737,-0.6027672798275101,1.0138011419831598,2.3410605078483044,1.5664786262472545,1.2078772009882515,-0.49010948724942777,4.572342040911007,6.617699487362389
-173.0,0.2888195447014667,-2.501124828784998,-2.7899443734866,1.092284957322191,1.5623177118094032,-2.644356842309835,-0.2374660686820561,3.1420706153162796,1.945281710588417,-0.860809633373502,1.2275392338220388,1.7751644150524468
-172.0,1.2569030269519461,0.20785904411184675,-1.0490439828401987,-0.7469701167066966,1.183083111446269,-0.4266132628182935,0.5293839739127657,1.7226250834037211,-0.6485650420157221,-1.16716174487521,1.5493261979486126,-0.37505203709255497
-171.0,-2.3927168586363052,1.2251499294266237,3.6178667880629183,0.5656305394687732,-2.966354703032709,2.4055729806428774,0.09325678241373775,2.2475732628528426,-0.06678422754301483,0.6772418450923593,0.31095583681222827,-1.5755812041944706
-170.0,0.7074781471242877,-0.34333005633660896,-1.0508082034608164,-0.1274357811710913,0.8480654654360682,-0.7234182076964216,-2.024650251716217,-4.739252235215266,-2.184805173305684,0.40445777609330563,-2.6824889173769297,-4.610577590870223
-169.0,2.148276630278297,-2.3537551313890073,-4.502031761667194,0.07119706767041172,3.3006686694623677,-3.3841144031528265,-0.6352096493495577,-0.4754726232739235,0.028730643256649646,1.740359309711847,0.38802712533149464,0.47055228020189377
-168.0,-0.10350604134619978,-2.1892194698653307,-2.085713428519038,1.1072657462746511,0.96957024343441,-2.0989539952957257,1.5868685529878834,0.5593579927732495,-0.6634796419801025,0.36354322589259064,1.7635962812725723,1.7770488058691123
-167.0,-0.2594429850629231,3.168980565732368,3.428423550795305,-1.4212105308730574,-1.8664829668819682,3.256815990545438,0.08403416668539282,-1.5347445817439391,-1.4842494562620807,-1.250054584444181,-1.5186436912446974,1.848187722641993
-166.0,-2.7779069142043675,2.2566782325422308,5.0345851467465845,0.29101301617258624,-3.854181015802694,3.6834006100200885,0.056440264094585246,-2.1186868672643255,3.4082886713928837,-2.7569043415882937,0.15840495972012503,0.6729161890011965
-165.0,0.6744332569465286,3.412093948833884,2.7376606918872985,-2.0909009370889007,-0.9853067564074909,3.0355100913784905,0.8586067839735159,1.974729029344093,-0.12415358716208447,0.5453970265651578,1.654847222919319,-0.17732810777197427
-164.0,0.06044642708681858,0.3038687053854888,0.24342227829860885,-0.14639100583244968,-0.12981277227186094,0.2347974495769899,-1.4776683628602028,3.2365271378896456,0.2124291747607785,0.5487874928062096,-1.2729972508102323,-1.273619536003921
-163.0,1.301475087543837,-4.973978718113203,-6.275453805657055,1.80094585342825,3.745280535518092,-5.586476699262477,1.3663362974325275,2.9409776866758133,0.5949248326977724,0.54911088584476,-2.166308180123375,-4.015965868221482
-162.0,0.5794745879030896,-4.9144348641699676,-5.493909452073025,2.2198721522909155,3.0692094536540875,-5.169881311579983,-0.2197431056589117,-2.586161814117328,-1.109405624979306,2.586579472416531,1.023960095200412,-0.5348089160102656
-161.0,-1.8291399863405413,-2.8774747453873397,-1.0483347590467305,2.334964870781603,-0.35857344914763756,-2.012839115968887,-1.6256101074693852,-3.0403501681469223,-0.26899600135728174,-0.1628609244804855,0.07295583792947902,2.6453744306203038
-160.0,0.480969128871502,6.7587054082228715,6.277736279351439,-3.633167850649727,-2.943276524469187,6.541363710698375,0.5483076325763309,-1.170529511085329,-1.0442256720068122,-2.458081727814778,-1.705382143746954,4.21040585945977
-159.0,2.2508326086829946,3.5452293506902777,1.2943967420073137,-2.91065810475923,0.4381360758992565,2.438667790458808,-2.3987596867010454,-1.242352438079318,-2.1949358500989726,-1.630433268274388,0.9859962467070128,-0.5298900343517539
-158.0,0.2795946013508631,1.3343075019620638,1.0547129006111862,-0.8232796461324683,-0.3417438778966091,1.1332292957433694,1.9153537314503724,1.6590570614081843,3.0664794163577893,1.3315050255931673,2.883543851735701,0.33237337344869033
-157.0,-3.0804397115809787,2.245511350002274,5.325951061583239,0.4729307298223546,-4.149128791644781,3.8058076666656695,0.9028395687501232,3.6168388488449685,3.4213164586496716,1.4747721004207301,2.120358254394941,-0.7206715373371115
-156.0,-1.6297940225662972,-2.9610850238362447,-1.3312910012699446,2.2639592825499717,-0.16665387176394764,-2.119247145963222,2.4751861110311255,2.8490812784048067,-0.6519747825997746,0.11778425817960814,-0.8649632050607057,-3.7678599511009696
-155.0,1.1354417301276898,-6.098264753915187,-7.233706484042891,2.442698431231116,4.171012797411689,-6.628777462139512,0.7067326126792841,-1.5621246387662004,-1.5957930209258875,0.9164015769637516,-1.0338523193643296,-0.8954296772565085
-154.0,3.0134954950991446,-7.132077070213347,-10.145572565312488,2.094712190910185,6.5644550803798,-8.668609054887622,-2.3684202980732136,-4.10471986144366,-3.958352961512487,-1.6130274027793643,-4.045093252161224,-1.061773297727524
-153.0,-3.4246314169365966,2.168786764586258,5.593418181522856,0.6618189066729429,-4.531331929987887,3.8621346722107637,-1.212419065465569,-1.726481900670862,-1.8517445996331379,-0.7982293748509832,-0.2954221692973631,2.6012401062995516
-152.0,1.8574368270923862,7.343019294995272,5.485582467902898,-4.565712392568624,-1.8476131541063845,6.4030880915003685,0.263483744426839,-0.7006595763548757,3.5405722928379597,-0.6216482303258116,1.7584251376872124,3.0582036447192755
-151.0,0.7968965970766065,3.900333537533392,3.1034369404568287,-2.3920509388791285,-1.1199434863227462,3.4942517431820916,-1.9296510668804603,1.957204143738032,1.6894812946288404,-1.0709252586587794,-0.9472722690323394,-1.5390677901574852
-150.0,1.3297528796071894,4.0602544139902985,2.7305015343831354,-2.739433330926175,-0.675791836368548,3.387246643995014,-1.143610475833786,2.830904275614771,4.149153916142133,2.463606624474811,0.4536003923952885,0.10912900453230609
-149.0,0.10588770384050573,-0.7363525147557075,-0.8422402185962097,0.34594170142141467,0.4957740641788963,-0.7222567479442159,2.192101747367364,1.624076039146509,-0.5034057581749494,1.3498469544351226,3.5064422408690765,1.9079934456422678
-148.0,-3.725300008046569,-2.4358584447625415,1.2894415632840095,3.0272799987034547,-2.4820359548779574,-0.5902489261662023,0.5960813148726771,-1.2588584112801424,-3.2860951172857527,1.2492304847058393,1.2951701506534319,-0.0039017070644861984
-147.0,-0.5396167163134609,-4.345818857563681,-3.806202141250239,2.463761783794669,1.5883823462361424,-4.0989248597642,1.912848873297535,-1.8779490348195575,-2.2419218921798487,-1.3401367444096124,-1.6618580322281766,0.1511804284213979
-146.0,2.127862262644105,-3.420466731113609,-5.548328993757759,0.6667134442344946,3.8034793427104243,-4.5128386349791105,0.5386686834903592,-0.7468627651974715,-1.8348121765970566,-2.1820030142975493,-0.7021593959128271,-1.5550597470170902
-145.0,2.943857321918335,-2.1336771696515946,-5.077534491569963,-0.3796401696823641,4.063574150218826,-3.5599370464989377,-0.7269062458649765,-1.8370472807438833,1.4495079447163062,-0.7378563189744243,-3.5402643895785,-2.6935336392494773
-144.0,-2.027765093170262,2.096053332576174,4.12381842574645,0.0017962184043218699,-3.0969215369133494,3.0732348804378486,-2.1472909004062455,2.8845263989792507,1.5939485169489616,2.3913000571631864,-0.28571432064246016,-2.441229664178186
-143.0,-2.8035584958092663,-1.7463029858104333,1.0572555099988792,2.2455533444523157,-1.9516807799086313,-0.3054151114305772,0.2773965365324986,0.5355168320385388,0.42905866640164625,-4.309391352614039,0.6413600755205303,-0.539744837260918
-142.0,-1.9931352907230744,0.06439385983529755,2.0575291505584232,0.9474441384593282,-2.050843847182728,1.0970591464718855,1.2069437105715175,0.9318049802706874,-0.6926567092513352,2.1909124814170235,2.203188507682563,-0.9561004244454929
-141.0,-0.4154805607141769,5.195059369402136,5.610539930116338,-2.3990439184553365,-2.9660854272906043,5.356251975556608,0.2286206768631716,1.3058054014597196,1.0264062278260058,2.5218713802190598,1.936503173231865,7.521797646238216
-140.0,2.2697756371223576,3.186701811468725,0.9169261743463508,-2.7367578246771904,0.7173843817177024,2.000151094576913,-0.11511300346077598,-3.5947263541263017,-0.6520078601910269,1.1361237088514005,-2.323178571693662,2.1822523467694306
-139.0,6.130835192420168,3.418104907833441,-2.712730284586762,-4.788855578331725,4.3803667967868405,0.37398634077331205,-1.2042540174311651,-2.2686400765826376,0.06662811698491666,-1.9296855528284431,0.41764085180876187,0.7174237975146431
-138.0,1.0836319701489128,3.3273404924458747,2.2437085222969237,-2.229643643150732,-0.6217153455494406,2.801705522481999,-1.2338778359775469,0.14537228593687535,2.2826253843734365,1.2376927702227556,1.3973183910008418,-0.9850441611238432
-137.0,-4.5989120978162825,-6.245379605552884,-1.6464675077366193,5.467068556687251,-1.4361377154053931,-3.9326677634903975,-0.27923633347001414,0.5615581310245175,-1.5334358362589813,-3.286997174810545,-0.5963736768535979,-2.208536874014155
-136.0,2.298147850729917,-2.4639417935872405,-4.7620896443171485,0.12202210916275913,3.5754074997570626,-3.599579080650729,-0.5276129183829393,4.320437623902892,0.39327092845326406,0.6191419753397789,0.8671621425801498,-2.1754756004164815
-135.0,-2.854783130619402,-6.545058870410786,-3.6902757397913613,4.660494658680294,0.389963326044676,-5.101125245613533,3.220205096709668,1.488979464124168,0.8357783756667894,0.5956571954022452,-3.182298410400457,-2.6122168050654753
-134.0,-2.1520801104578724,-3.087950143246811,-0.9358700327889322,2.6653125704837666,-0.6315166491710889,-2.069284039660682,0.603109964854809,0.39155468770436896,-3.010377353457331,3.0848190675508462,0.46764743553021737,0.6228346899764372
-133.0,-1.6361880371931425,-0.6274227703750737,1.0087652668180545,1.1077823210127007,-1.344017311175397,0.2169646586245502,1.2262902475611261,-2.5692936167006817,-0.6369959692707039,-2.7178518260590177,0.9697587734208757,1.0530064376531754
-132.0,0.5399359639176061,8.19008069259971,7.650144728682077,-4.379553262982194,-3.577499538822603,7.950056964136713,-1.4059518128567323,-4.69109128633759,-3.34913386541841,-1.5437582830380125,-0.34494263015757787,1.3581547042747146
-131.0,1.8905105310127515,7.202080243284541,5.311569712271792,-4.5544854495147185,-1.6571556937777374,6.209948269459652,-0.21243687618450746,-2.0736980823546762,1.7952649197395512,0.22070468457738984,-1.0270745470254705,-0.15830660983389255
-130.0,0.6240945523852881,-2.0398663153753596,-2.663960867760607,0.7010992569356276,1.6931641902269234,-2.3979268226591115,-1.047333037713913,2.8459208252093138,4.9033221014061406,0.022535154008768876,0.21633099380398654,0.6617384988082533
-129.0,2.7107018589462584,-3.1719561080134278,-5.882657966959625,0.22030228921671968,4.262191105301667,-4.493313035751805,-2.2834591373610547,4.861924602162839,2.551795254802456,2.4033590479482543,0.9143553275601062,-0.9531526681630207
-128.0,1.2878879207352991,1.5350050462598612,0.24711712552459053,-1.4286613281225153,0.48064327148703434,0.9281775366184033,0.2030696734130688,0.16379785253774903,0.07085412123471335,0.9967159579196042,1.9921158214761023,2.6328156953833197
-127.0,-1.7820093544197222,-6.241070090354272,-4.459060735934552,4.065165021900242,1.3721019726663508,-5.307385692422553,0.9003685009647702,0.29911315042466835,-1.6554075170876175,-0.7071874861345497,-1.110462582585534,1.0459332195267719
-126.0,-0.0864109606104817,0.17826308439695904,0.26467404500739056,0.0008549271100983802,-0.22583594135242063,0.19262110199645255,2.562143368373822,1.32359144883431,-3.2326171855272623,-1.323702914606398,-0.0338135530839071,-1.295809538255675
-125.0,-2.526439946048401,-0.38235388354960786,2.14408606249872,1.4178521906929056,-2.3107817615847357,0.859092071557339,-0.2408867934308372,-5.405508762130267,-4.2499505691391954,-1.702788924692454,-0.2587110718039052,-4.3169429530155
-124.0,0.530583061589925,5.605418887895182,5.074835826305189,-3.106551004367951,-2.2496193148433843,5.323374458168201,0.2524010285889034,-4.157440996270783,0.27249437557943557,-0.6539229369580369,-2.4844086832951517,-1.3344395738617747
-123.0,0.8059556958523799,6.700386403394315,5.894430707541883,-3.7913515865893133,-2.5212940576624465,6.282578437488247,-0.6840818887207157,1.423100328029721,4.753249843813654,1.1130332848374278,2.1350907118307108,4.136503956039352
-122.0,-5.665885396055248,-4.78018944082987,0.8856959552253549,5.266002595581959,-3.3290909193645413,-1.9630369258553477,-0.5455397061426643,4.642459236148309,2.881201028668282,2.8516557576870967,0.9925119708358139,2.6340969232761373
-121.0,4.235017007193839,-4.916191195622806,-9.151208202816623,0.3874523234952687,6.722113216308022,-6.973434642214827,-2.4680711418326995,0.0465356381180122,-2.2564735572606116,1.865907381410851,-2.624140577909758,-3.479603941218381
-120.0,-0.2101696370313062,-6.716115047272201,-6.505945410240829,3.4357247862086244,3.1801796611340896,-6.6326617098077785,2.600023694954768,0.6206340612735407,-0.28933092777151403,-2.542831755937062,2.301764830991018,-0.5126824882024366
-119.0,1.3484988903970525,0.9024022303014161,-0.44609666009554916,-1.1492642428114768,0.8528549485199157,0.28234768342511485,0.7823276685421274,1.6581526736861771,1.0770829599712435,-3.3553861570015684,3.050698093773359,1.5910555060883507
-118.0,4.7814296975967725,7.536352157112431,2.754922459515744,-6.102823770304596,0.9693142686449979,5.118213370642296,-1.112766510470687,-1.5714146977168009,-3.4143859200240763,2.4226969608076327,-3.550815452191789,0.4545070340059466
-117.0,-1.3706968191852715,4.136526454716307,5.507223273901632,-1.4081039844737289,-3.404451301019917,4.791002958230253,0.12836118051908557,0.30390088061509046,2.398038336097021,1.2172172143784339,-1.6252311802122894,0.19426632957739579
-116.0,-3.2080320370828717,-0.7714339376030379,2.436598099479831,1.9583408254753945,-2.7875835855827353,0.7972693882766202,-1.2583225636559154,-1.2216209996308387,-0.22275854487224894,-2.7588018252745217,-1.7246030926781755,-1.1408906207694223
-115.0,-0.36984416821958144,-2.2660135205540763,-1.8961693523345593,1.278029762292764,0.7211580945786813,-2.0427732571887107,0.9012829224328296,-1.6804110078836187,1.6040006626904677,0.3508070975031562,2.7894456232119214,0.7552937756124553
-114.0,-0.6613371823997922,-3.5645910409496597,-2.903253858549958,2.143581504944616,1.1620047814924255,-3.2003422003613835,0.42857936037977246,-2.295861984971125,-1.455903793782591,0.9561241874974935,1.1936457050169682,-1.3240765110047321
-113.0,-0.239917952279528,2.339976203218895,2.5798941554983372,-1.024540020661803,-1.441686493974672,2.4117959418763597,-0.4510965345638644,0.557768184765445,-3.3034703043003026,-0.27734779634277995,-1.613784625664281,-2.320901628357858
-112.0,0.20024707726017077,-2.987204827375764,-3.1874519046359686,1.4188146479384163,1.746632452521658,-3.0567718131637656,1.3125586184526303,2.652924168621455,-1.0254610459392546,0.8871022764076948,1.5657093541552851,2.12643286572052
-111.0,-3.0549585336712326,-0.0750326745809986,2.979925859090254,1.5952027703863956,-3.0399362057307977,1.4075346685817196,-0.16404277210112592,1.831489329292961,2.975887058716359,0.3917915063982746,-0.9389975577039235,0.47868332970640637
-110.0,3.124601098318152,2.434047589172455,-0.6905535091456559,-2.8197467305906927,1.884370923436471,0.9115921669033648,0.18169063705127314,0.05375036328653815,1.0251837974166302,0.3527291991509601,1.7250963260638876,0.16095527010069566
-109.0,-0.4540483245271416,2.528166329629134,2.98221465415632,-1.068871342500106,-1.7468179493148885,2.8020931361324877,-0.32581618758527325,-0.17206500389250468,4.166942521925374,0.09570284199776352,-1.3157958750899892,2.123455853897422
-108.0,3.4935189945429106,1.9287963066369418,-1.5647226879059382,-2.7364253261228946,2.570080828079755,0.15593097981884263,-1.0094552250151512,-1.8100065987201919,-0.7173488149042755,-2.228212022872065,-1.0485614503979601,-0.7679963539897122
-107.0,-0.2324408633424171,-4.022878787010756,-3.7904379236683305,2.184162105703332,1.7311267160935127,-3.930581971270947,-1.724367816834089,-0.6734301374713667,-1.0966459144109437,0.6434467137551488,1.8641697238249542,-0.5548264365880269
-106.0,-1.5618066897663283,-5.742758759592601,-4.180952069826293,3.62939702965526,1.332648961058404,-4.988292357916355,0.7856491425750137,-0.01792967375351595,-4.990627958306263,-0.2373672567490767,-1.1372512279198104,-0.5711783097101388
-105.0,-0.07653220052960452,-0.8426401011466269,-0.7661079006170425,0.43323314401012736,0.3649861205688436,-0.8374252325307583,2.004953172369825,3.5422892227757803,-3.06435413058032,-0.09466487843954804,-0.9607952791033347,1.0358713934157662
-104.0,1.4017335806685043,6.91565475421401,5.513921173545505,-4.111441093032632,-2.0328923332840048,6.251920266037282,-0.471486167358375,-0.9969907187425023,-0.24239447528728486,-1.5493872072872434,-0.7729297075537126,-0.7252441873295066
-103.0,-2.097289427175334,3.6059557061198055,5.703245133295149,-0.7129831905528263,-3.8693365891103784,4.683950869914554,0.4234163365915667,-1.1453102472071082,7.090847860557519,1.7321503859612843,1.6368733410252174,-2.1886633455553217
-102.0,-2.4272462968335504,0.06996861000495969,2.497214906838507,1.1350426712287989,-2.500374316294838,1.308028834290222,1.3613882233318864,-0.5168128123423826,5.97403031922595,4.859287875420912,0.9261227638682874,-0.14650346245711998
-101.0,3.208318713977559,1.1209605680117232,-2.0873581459658297,-2.2145189128041953,2.6181464945031636,-0.4601894066602337,-2.8757208269406638,-2.2158543731357434,-1.1890049345436298,-0.5505916886219648,2.77702338339766,0.5552318894739734
-100.0,3.5146060102457612,-2.4603551566480713,-5.974961166893814,-0.5043081129951525,4.72014148073258,-4.272154097889279,-0.4835801979022353,2.07038685177557,-4.908215048821487,-3.474810641770697,-1.758856998725032,1.2663334223921825
-99.0,-3.5456322407767287,-6.603444981805796,-3.057812741029053,5.092154194171211,-0.2672780539909758,-4.882701580338685,0.04335009062964895,2.770207628441872,-2.7942048431864785,-2.696674955909149,-3.460785584039562,2.0274295431231844
-98.0,-5.239914660663009,-6.6898461247655066,-1.449931464102491,5.978940287325209,-1.8408381203881454,-4.04088846508826,1.8725856801298242,-2.10237635108368,-4.4652887089081466,-2.1811004735650013,-2.465855733464171,-1.5093627982685454
-97.0,-0.8916763745462084,2.786764075797098,3.6784404503433303,-0.9347250887009944,-2.232651786963784,3.2632577680352357,0.9076124628455448,-2.606127239250285,-1.2839167725074747,1.0341967792086333,1.3339617399497725,-1.9036642945706712
-96.0,5.095684994932634,10.5999386333634,5.504253638430757,-7.912350893713938,-0.23129113129102385,8.083854808693554,-0.6922183166523445,-0.8992958199178178,5.3271236347359485,4.76607173422426,3.1935939144302896,1.4898323679982541
-95.0,6.079915488693167,7.469893335272252,1.3899778465790598,-6.756789963488368,2.318973659979963,4.384010353917622,-2.8717771413138866,0.1529168053219505,5.70860590950488,0.12482536097949826,3.1948445755057455,2.72153857864675
-94.0,-3.3298155817341395,-6.707677395444548,-3.377861813710419,5.042659355088154,0.0003120524019345483,-5.087026046479358,2.2403470602847486,6.791947235752869,2.5389288265421333,1.0082604648071194,-0.9007372131122691,-2.17101640113273
-93.0,-5.119445379714803,-7.311147188474048,-2.1917018087592566,6.2457498152318225,-1.4062568291734139,-4.714149097404347,0.40580846616805627,-0.6727643297099744,-3.1286617993947097,-1.6082156200312574,-3.0944672999979623,0.37744792447929265
-92.0,4.0552364049350125,0.2685625336612496,-3.7866738712737606,-2.204487199272603,3.9016181891601907,-1.7178297334728714,-1.415541120130408,0.6557490792663458,-2.678779074200351,0.5496384472400109,0.364638190665608,1.5749117718268333
-91.0,3.8411135536547576,2.775560296672596,-1.065553256982156,-3.2688828739695657,2.4342568863323644,0.8219033056232492,0.9908812812088281,-0.6522019378059142,-0.8710713362876881,1.5248425837782447,0.6783813118746934,-3.6339697572201977
-90.0,-1.6386029391526884,0.24480314822673266,1.8834060873794392,0.6575073868363865,-1.7815487998548916,1.1132215945104182,-0.350482657524044,-5.143175483608232,0.2645147284327969,-1.7085545603516454,-1.37493147987015,-0.6027274826971094
-89.0,-5.705891115419358,1.8997131285060127,7.605604243925396,1.8603818576719076,-6.600302581649318,4.723875771035128,0.08659224371794705,-3.4291317507503196,-2.6779445549610292,-5.809865738228786,-1.8683964897265817,-3.0433662656180394
-88.0,-2.203221863263109,-0.34374022873227617,1.8594816345308138,1.3043907894709168,-2.0578253605962646,0.7262666205193373,1.6807047094382184,2.77922314155526,-0.2510479302340941,1.0339241769002983,1.2084127984767277,1.194921705126749
-87.0,-2.378788032433106,-1.989380611751431,0.38940742068162637,2.2101846055068735,-1.4131475727746716,-0.837801486316817,1.0297386254768575,2.049164260915455,2.874336190686642,0.9540878028713722,1.263662040015363,4.734774188560601
-86.0,-0.7165627098914719,-3.7938219221960625,-3.077259212304649,2.2788401401767695,1.2288199060156149,-3.4024336998756795,0.5321113896829993,1.9238447548274538,1.353050490738619,4.2356429323626825,0.17989301959463266,1.730594997680745
-85.0,9.53129997943068,2.6786585620632613,-6.852641417367428,-6.1590346431193685,8.16204240148066,-2.0606619729957947,-5.085201704367909,-0.19858917679652355,1.4944223460003077,1.2810928005383095,2.726366311159703,0.1677602037500403
-84.0,8.390964955522476,2.8707979627457685,-5.520166992776632,-5.601751217375584,7.005929299445576,-1.3015846749877598,-4.1651781361002005,1.2701196000453154,-1.6573426366566817,-0.8131433908528176,0.307283047885187,-0.5358188692922441
-83.0,1.5338735206457228,3.1343307139906615,1.6004571933450724,-2.2983691968405457,-0.05976694124673765,2.313389870355903,1.4306205296515093,0.4077061634762431,-1.5186829903345185,-1.6123573912215114,-1.9238556267925602,-1.7349124934194902
-82.0,-8.243960710915863,-3.433170739929447,4.810789970986536,5.802508557919036,-6.552392378260196,0.7197442178128962,3.5800289209616674,-2.364006582928792,-2.8016892158531763,-1.3338790257257436,-5.1685045903811515,-3.0518494933423495
-81.0,-9.047051346365569,2.3208300946307276,11.367881440996356,3.3326584419815113,-10.23183524513574,6.884176612077016,3.4568691375952323,-3.969292924682529,2.752764267941628,-1.5761899772515895,-2.133567239725415,-1.4442364602868265
-80.0,-1.7485965122399652,-1.340212176595225,0.408384335644687,1.5171379708839692,-1.0239465085911688,-0.4959168119349586,3.815350383546717,1.869320389198422,2.993810840501978,2.1385956248187803,7.218169349009502,3.540097376318419
-79.0,0.9862214782721215,-3.489550063533406,-4.475771541805634,1.3036402170808055,2.707287477593861,-4.006139723884555,-3.332765936764899,0.7192012446048031,0.9735097021068784,2.762490281688721,3.029549828909005,3.824729145028512
-78.0,3.16730202693578,-4.537833355244079,-7.705135382180006,0.7352801612179886,5.414183097109253,-6.142085782752298,-1.1762472069374248,2.4641851560497923,-1.3852266637172397,0.022860982332655544,0.17313974907636687,-1.2691759824160393
-77.0,4.781220352231366,2.501424031874764,-2.2797963203567457,-3.674089618718179,3.5904381687445066,0.08987624638650349,-0.9795569394318842,0.7929502339236381,-3.9973553767295877,-3.159518767795873,-3.3789363761818705,-2.0102357518901783
-76.0,2.1428672554020016,4.7983452049523905,2.655477949550291,-3.509055097994546,-0.2707562586349388,3.782974932019748,-3.4388540687867457,-0.9851524226430851,-0.5043780334514965,-0.30714506435636246,-2.3673320643243,-2.6465765763044016
-75.0,0.4498613863232994,-0.09036858285347238,-0.5402299691767349,-0.14612319678705799,0.48506731810540776,-0.3389450301695498,-0.7457902934054303,-0.47317507892339483,1.6016794607417522,-0.09448336867923529,-1.1536318469827085,-1.7226646427737369
-74.0,-1.2368526630057086,0.6298521297263975,1.866704792732218,0.25178123305638067,-1.5584479060163057,1.3046954371122905,0.4371529657989511,-2.2924479868732224,0.9514537713861132,0.7369398938018445,0.19247612300934613,2.188067424201192
-73.0,-3.1393383365828993,-2.13743583164644,1.0019025049366086,2.6603117877719926,-2.076034044966864,-0.5864621723211119,2.9733312501620315,-0.579698258586208,-0.7766489991060175,-1.0996677052439967,2.087066727202397,2.487695041587461
-72.0,-2.2481537678468047,2.0258422900401616,4.273996057887093,0.13071032334363752,-3.267368837008936,3.135833149822605,-0.29645259113050226,-1.2183337507747032,1.0421902641778278,-0.713569420518126,0.6167297014220015,1.2671895349642226
-71.0,-0.8460681666611753,-0.028505054075054992,0.8175631125861793,0.45772722049848746,-0.8403603091602385,0.3839367640791201,1.2976938578306965,3.762566178912107,-2.329422466724507,2.749057869463944,0.3425034175889694,-0.7183435231022864
-70.0,1.2762833975536283,1.1164908158508045,-0.15979258170282173,-1.1723288890820354,0.7070919310954127,0.4682403340108868,1.632337225553876,0.658019365887011,4.289746380837565,1.9508167660539972,-0.1202796730085206,0.6485993837727153
-69.0,1.9227881415306607,-1.2803826663346398,-3.2031708078653915,-0.37091614160386177,2.6292499100995728,-2.255373285121343,-0.04417543520100384,1.5826877936203876,2.6784200810773973,0.8926068084045584,0.9948055672046525,-1.5893621921510164
-68.0,2.5714614302635,-1.1163256501288363,-3.6877870803924564,-0.7725432997904487,3.116709200231885,-2.3440931942682726,-2.845276167981644,-0.11010752398268553,-4.063621957018924,-0.28968222112424674,-0.35694906030636586,-0.15794581951755515
-67.0,-0.6625051656002106,-2.62039758872325,-1.957892423123179,1.6785332680379543,0.6347001189960675,-2.3194653469261004,-0.67278532183525,-1.8903419016212708,-2.7358076625598002,-3.932185806555027,-1.690248378699646,-0.2034399954670214
-66.0,-0.6672274191429595,0.47976873975337786,1.1469961588962272,0.13220840709484302,-0.9211999825871989,0.7732200871429985,1.6895084031833936,-3.288788688811687,1.2695939384534696,-2.100811357612119,0.4149623744291002,-0.7597200966529001
-65.0,-2.7822244739222177,-2.6789113862855256,0.10331308763670366,2.689930313236734,-1.4603081741985577,-1.2572036039260561,-0.9161156077876338,0.3432787312810499,0.5939080250530439,1.2908323903071108,-0.01229583996780742,1.5390611218627805
-64.0,-0.9849472922134934,2.244611122706519,3.2295584149201337,-0.5933180386837296,-2.0525120211723635,2.7632263070917937,1.964518939067279,2.9259864693564523,-0.5249434294613988,1.0290034501605594,0.6118881242397528,-0.12001030717728733
-63.0,1.1711139925863197,1.7806264916700485,0.609512499083968,-1.5202032686990907,0.2476911791147336,1.2210338936434322,-3.253818448472969,-0.37743573460233715,-0.7978818759771399,-2.728663241749861,-0.3083919468326682,-2.4348112829729267
-62.0,1.7143983428778315,1.3363189923651757,-0.3780793505123994,-1.492714791860981,1.002844279329302,0.4300661894043738,-0.9640063049754886,1.1397024790470291,-2.4708394972229146,2.4710877706971357,-1.3272012095992207,-0.7167363403069391
-61.0,2.2611111004708206,4.7146079013624425,2.453496800891749,-3.534647383132129,-0.07017421427522419,3.5413820680815187,0.9808188535231845,-1.2782240468613468,2.7013342700794105,2.1422557026213473,-0.9401595667275952,1.5565461674154102
-60.0,-1.6198529150726337,-2.4459061763229437,-0.8260532612503787,2.0657245812379488,-0.37715406180157285,-1.592621406096166,2.5244885815537508,-1.2377657115495648,3.5364766348298295,0.8727055602410745,1.5557364108514768,1.438194650514986
-59.0,-0.24024425812047373,2.1120691241372342,2.3523133822575018,-0.9007128990310633,-1.278459686874386,2.2818067889816556,-0.3463829017260298,-1.493872276136904,0.18733250510862431,1.166409932298743,0.3061777594726147,1.4411078046594907
-58.0,-1.572837699389241,-6.284769128288693,-4.711931428899704,3.888292383393881,1.589692347326696,-5.524040935780043,1.32771780727147,1.1148863903103527,-0.9210510321444408,-2.6549429483407856,0.9375328533859103,-2.494192978700678
-57.0,-2.2355334251499097,-5.10410133766323,-2.868567912513503,3.7104833612218755,0.2630677211421353,-4.012682512043307,-2.215409695871027,1.271060597630117,-0.5590474554305274,-1.1780824208441105,0.5212920616590483,4.0537490516147665
-56.0,1.3371901858288107,3.300144489440299,1.9629543036114345,-2.3562610998758364,-0.2817301639870653,2.6001179707708344,0.8668991195397759,4.191163098337406,1.0216558426542295,-0.14283134635370165,2.409147393980897,-1.21110430133971
-55.0,2.637547562463867,2.9527706115890053,0.3152230491252367,-2.8349910665156783,1.1181503857817099,1.6727196027165299,-2.0928657497271477,-1.456445663322808,-4.234269402397022,-1.0915636770727382,-2.728860881846553,-3.6141649752214167
-54.0,3.1684243597404484,5.970537584335028,2.8021132245947693,-4.535459663540615,0.22114740645363293,4.414956964198971,-0.04114684505037025,-0.9474120197067186,1.5210660730979533,2.0268437058471815,-0.06707913581860647,0.6024811098167513
-53.0,-3.7845623962890214,-4.213490680314981,-0.4289282840257531,4.026358470199792,-1.7185284900790634,-2.3803170832082485,2.606672290465708,0.012360172021506077,2.1280435805492046,1.9474095525407578,-0.5674850999285108,2.9858715250031196
-52.0,0.11366440380086673,-4.891256388677883,-5.004920792478656,2.408957222025771,2.596306386345027,-4.9338560290929525,0.47781453473991997,-5.045079376644727,-3.5829633066385487,-3.483412592088383,-3.4012016517032526,-3.990447416082812
-51.0,-1.3860612348724572,-2.8375061116281857,-1.4514448767557495,2.046933969620363,-0.009549546492925831,-2.130405224577454,1.2872012959156167,0.6724468412806561,-1.7017150749365162,0.4793411323341256,-1.2983699221049596,-1.418840015959173
-50.0,0.46523378967216633,2.420846760227267,1.9556129705550347,-1.4332527774054484,-0.7073322589337533,2.2077238263854735,-3.7335944190278365,-0.9153189395675575,-0.23148710413771442,-0.7166997385162267,0.9285337370542542,1.3110551498404917
-49.0,-3.578198105602983,4.104388955435075,7.682587061038009,-0.2543664805329826,-5.588851416833719,5.922847518375092,-1.6852865364577292,2.9609549991969106,4.276405923312381,0.9812454215372228,5.429366187975231,1.4996989924593378
-48.0,3.926369200904537,4.397423889531334,0.4710546886267797,-4.150837415633323,1.6958838228385908,2.396907561636025,-1.3087623622990763,1.0995610247061998,1.9773437231759612,-0.712758201205488,0.6593952041179914,0.6182626406908036
-47.0,1.194288962258324,0.6647443641894775,-0.52954459806882,-0.9131994766489198,0.8359677818792555,0.04199221676395448,2.8790217304004018,2.7446916287103464,4.280868071055932,3.732468167196167,1.5798449457370352,3.3911643806159586
-46.0,-0.10031169895879488,-3.3094824632188895,-3.2091707642600467,1.7281575293483922,1.5331714543958637,-3.275471921727123,2.939388285879506,-0.13752909709888916,-2.434708690938095,-1.0233132904940634,-2.6429768125494224,-2.4246227323399188
-45.0,3.240928325995412,-1.078419516255022,-4.3193478422504015,-1.1297600617704031,3.8401076649754136,-2.70869219407401,0.5887314357382143,-0.708576535565713,-3.4483058133343225,0.39974765697581677,-1.2968553931618227,0.7614388704115473
-44.0,-3.492554028396799,-5.668176735128885,-2.1756227067319904,4.537443174617288,-0.6772908721642268,-3.8497044446762594,1.6661634440586994,-2.8243514481025813,-4.641748761188085,-3.0330824869566495,-2.145798139989231,-4.7426938558632665
-43.0,-2.619776331515108,1.9487999709890433,4.56857630250426,0.37474528302156784,-3.615083270557086,3.252711118000371,-4.602173937261434,-1.838065720713245,-3.208149129458483,-1.3070339487489882,-0.5926322473069734,2.54218177299939
-42.0,-2.914393899871989,-0.47397305553968133,2.440420844332353,1.7347433541710866,-2.701358898022341,0.9754667243511066,-0.9279218474815849,0.8664680085863725,5.1444527492878835,1.4058669065945935,1.8014500789876187,1.3096378622133842
-41.0,4.515331283940054,2.86740303174662,-1.647928252193544,-3.7298190089120675,3.1336847971028043,0.5980299942925111,-0.6113856101776141,1.0754562104602963,4.381454284811915,2.353669693179711,0.6243799246001551,-0.01263693475801253
-40.0,0.9958927986803976,-0.7723797735196238,-1.7682725722002823,-0.07249524310744948,1.3538759196066805,-1.2877957187339368,-0.09357460930222239,-0.08021560861974253,2.424926857916532,0.8283946903282975,1.9614288653819163,-1.1802909970986513
-39.0,1.1945360333367283,2.448162458543367,1.253626425206368,-1.861801786319174,0.020871280533689363,1.8266721661091658,0.534719791108723,1.9293108417125202,-3.2843772606738355,-1.6811516795531771,0.46066226084661155,-0.03845043775192823
-38.0,1.2829767852494776,4.504999875693363,3.2220230904437632,-2.93451037520355,-0.9973306368383057,3.9115447057582253,1.2231628733358826,-2.985563715848442,-3.2926301981368633,-2.268397497451584,-2.4191488080352364,-1.5166456217367041
-37.0,-2.9138747188201206,-8.292651698548166,-5.378776979727929,5.642918119874839,1.204536878111659,-6.8714074861316075,2.803563894917112,3.5728706745503143,0.9049981307933956,1.1988350437828024,-1.2492286978723093,-0.04598919389260997
-36.0,0.07131636008575759,0.49702755668476906,0.42571119659932255,-0.24156872718603806,-0.12830441010929164,0.5016791239897946,-0.6428752879403383,-1.9369487240318704,-0.2528200898534331,-0.4741103579716572,-2.236264122536725,-1.7049121411717216
-35.0,-0.36256838269921154,3.178908166557406,3.541476549256938,-1.4407105357651846,-1.986127420978983,3.399806745054227,-2.428836133787324,-0.2621267962785462,1.6221081868687242,1.3102673940624978,2.250288478189871,5.118976455463149
-34.0,-2.4980631007731198,-0.8204708629679511,1.6775922378053043,1.708069644174508,-2.127838465990652,0.38985660221382845,1.0284414040543277,0.09866701099239106,-0.6749524603937096,-0.4731470187627128,1.3212136494361828,0.17939202572472035
-33.0,-1.2920258259695436,-3.3446472031971743,-2.0526213772276867,2.28812723350914,0.41316320858409783,-2.7368641475116173,-0.27543678209201383,1.186434762436902,0.2970458476685432,1.7582586477031503,3.1456129002558084,1.113722824458682
-32.0,3.18962289138091,0.6839609235054072,-2.5056619678758025,-1.9711613966285988,2.8768394406410396,-0.9491480145378796,-1.0385216427417525,-0.7842798003786529,1.4350044994915323,0.4501374755489486,-1.1310929762741462,-0.597454313732861
-31.0,2.9606489434363716,2.84826671178783,-0.11238223164887118,-2.946341204931997,1.4872989852956922,1.4079443026310414,0.34193508614963986,-1.5637970493513569,0.7761297166126782,0.533177350226552,1.1066608879296498,0.8360181183608812
-30.0,-2.1109939624545797,2.4700410396285943,4.581035002082928,-0.15131889977682245,-3.311521088633885,3.5652573651166364,1.322037145758428,-1.169696470236699,-2.6152426712014245,-2.859745946600202,-0.4941829136944523,-2.177880511542606
-29.0,-1.8681373067107219,-0.17627560392195885,1.6918617027887206,1.043637664182716,-1.7368982416709824,0.7977211219211724,-0.6946711394328926,0.6409534937637704,0.21354248235912032,0.0913335017788861,-1.6123586391933313,-2.264129824880185
-28.0,3.491889923418057,-2.746940802231544,-6.238830725649432,-0.35344641252155484,4.839586053215306,-4.531227257062117,-0.18956227518984278,1.1690744339000956,-2.9139249088980947,-2.625556774454621,-4.715709945530709,-4.744795290195373
-27.0,0.17482369536327436,-1.9079974332735403,-2.0828211286365548,0.8882863714265116,1.1111966268702513,-2.0334962599236492,-2.1550324977815873,2.4546124229221884,0.9559136417369181,-0.5027947814297735,-4.096637307290696,-1.7481681829993252
-26.0,-0.017744707262362824,-2.955822295858047,-2.9380775885954376,1.514763309157073,1.4464833768010565,-2.9852049426659986,-0.8915373472294662,2.1613281085187754,0.8167679973834745,0.5877502575582207,2.0084864053431346,4.542913119195437
-25.0,4.42829329306606,-0.3794690149122846,-4.807762307978176,-2.0682495554740052,4.603072627810967,-2.553271132729736,1.650981114415109,-0.8045410579797738,-0.9580111771540889,1.3321775313766417,4.207857211690122,3.905866936182953
-24.0,-4.9820600625378315,0.3848514318780675,5.3669114944159,2.2593258309444524,-5.195133234137071,2.9169411292090386,5.1063017865737805,1.9279318831456018,3.844505083663589,1.9871630474887465,4.939863000818425,1.85218037755366
-23.0,-6.904529735256303,4.633738849066019,11.538268584322212,1.0966254626561314,-9.171245414504261,8.05053978250446,2.180025330907819,-1.8194722227613063,1.6381956797739048,3.9727246714097992,1.6980749210137935,4.021728730151188
-22.0,-3.596154824064346,4.302167863210023,7.898322687274202,-0.316231330689412,-5.7046980366472795,6.147195304603111,-1.1120181432882008,-6.325044662354889,1.3221770119721592,-0.524626850929441,0.8512457027007551,-0.9192136509025206
-21.0,3.818233178516694,4.272944638919864,0.45471146040298893,-4.013769688502833,1.6403501448431412,2.3362635047587954,-6.078769815455727,-5.4266492653587814,-2.591753435260832,-0.35652426238006507,-0.9034778526203753,-1.1258972673853744
-20.0,6.199662379657811,0.24368896912913912,-5.955973410528733,-3.194082252554858,6.034629332311869,-2.8801853053399653,-3.074063288728118,-1.8722682213252364,-0.30685406121218817,-0.2415342066566719,-2.614029219495803,-2.058740518376119
-19.0,-0.9401929693898707,-6.030286207520886,-5.090093238131,3.432444482169525,2.112020053008412,-5.582587523639902,-1.175565710928779,0.24089803953196132,-3.9981627359471985,-4.6647840995348355,-6.180651829810273,-6.770018461991469
-18.0,1.1103168612450274,-3.685687664152075,-4.796004525397095,1.3151797216633991,2.9939456010267116,-4.185377399698867,2.632795811151866,5.69356820971948,-3.8738766545745946,-1.0334067885317952,-0.21573455814373554,1.0247974443508516
-17.0,2.7415268822114762,-2.8572769227432424,-5.5988038049547155,0.08941558839488062,4.136475531437046,-4.254788394603745,1.3831755954422809,9.726068301420998,2.8639170018780744,-1.5553671514184482,4.584820506257771,2.160896858461438
-16.0,1.514667760207571,-2.6624780347869885,-4.177145794994545,0.5318126400370095,2.8153689115143905,-3.373415660759827,4.026403005636256,7.120954957999695,2.6040770151914145,0.5355002677919289,0.6576340296213989,-0.7107888647573186
-15.0,3.8586501972976226,-4.891947876924755,-8.750598074222289,0.47924750661796467,6.353740295692648,-6.860524834064736,1.3716000227089638,2.988389334316323,0.5504582418157864,0.23596295011430213,-5.576166566106777,-3.7247112375184948
-14.0,-7.405284750799473,-2.0533727746686394,5.351911976130935,4.773968871607877,-6.409693890297206,1.6030224853524522,-0.91312684087739,-7.291910628300866,-0.758131718824818,0.3079732791296732,-4.107844342703961,-1.7650229526822319
-13.0,-5.7910660484747005,9.786295137676289,15.577361186151105,-2.03008358707503,-10.718159561817082,12.708619222904042,-0.024184193684560595,-5.3003249077510235,5.186280909223257,4.1623191996551725,5.489901019059258,6.146126605630205
-12.0,-3.435804319854922,10.25943346760807,13.69523778746304,-3.3652818177178068,-8.52324571936198,12.000858282908155,-4.495968092773175,-8.032831646621702,-1.3860992392873979,2.6620431688644333,2.7553558983053748,5.0379195096483596
-11.0,2.161016072963212,4.898800409945883,2.7377843369825845,-3.562891841284811,-0.3253677689221326,3.841409541570523,-0.8913116054876733,-4.621413586647753,-0.23620196805674998,-2.8663403895652024,4.245466182983493,1.9472139798486576
-10.0,0.6559234927152628,7.412555617935572,6.756632125220099,-3.990079068071304,-3.006273252205018,7.109581478152544,3.2530840268957966,6.5451388008074085,4.246122207110765,7.278422490049578,8.862143281752186,7.112157409830491
-9.0,4.807924460596105,-2.1240450498532315,-6.931969510449601,-1.3790032732072197,5.918466979798797,-4.578941115858273,3.824009616222226,4.0201263172290735,-2.6387069548890714,-2.4990735564809485,-3.167753739066294,-5.665137474890097
-8.0,0.6707700550213431,-22.972432395272374,-23.64320245029394,11.189213147355412,12.131178964335998,-23.356295936590115,-0.2761292081840634,4.693178672471738,-6.1144363330334945,-7.9905516677299815,-11.856857061861604,-14.200083975287885
-7.0,2.2711430659123923,-15.77938434897105,-18.050527414883515,6.710110733517519,10.136709663413608,-16.88324789899535,-9.195121862730659,-15.120454259831549,-13.973355278220552,-10.451172033592917,-8.85490157478729,-7.517876809522944
-6.0,5.48955558160315,8.600637652418106,3.111082070815158,-7.091922162637229,1.1620604505327865,5.888254130597259,-12.808614527832303,-19.543330434667112,-3.358511948759029,4.304931409628524,2.417391381112468,10.150600822468292
-5.0,0.4054206435358836,4.834678352503216,4.429257708967716,-2.5885104984877536,-2.04703343297988,4.586398218367106,4.919167795821115,21.361203960401504,12.323735897413924,5.184662888063,5.64044681826193,4.2728889678115864
-4.0,-6.924956640343343,6.364078633499361,13.289035273843133,0.31534884934913654,-10.074237053166089,9.861439609413592,22.4147042961661,39.030783146520704,23.4592325372142,9.315982358865927,5.395444396414879,3.435661789371146
-3.0,-8.897393814578317,6.648077997017432,15.545471811595936,1.1668767430197693,-12.199155682714872,11.134550237331133,10.893852845802323,-0.9657521774770768,3.3063009405037995,3.4255035471057074,4.514169419954486,1.0911447870933535
-2.0,-6.838046414824511,9.717935497853794,16.555981912678188,-1.4666349134451149,-11.681442371772375,13.09965246256979,-7.108223373999377,-31.63643692572265,-10.954492909751831,-1.365815764242631,2.9353854814569567,2.8159068300361603
-1.0,-3.7975070877683885,-2.0494172863567646,1.7480898014114068,2.90650947128151,-2.7580020882394383,-0.1843638271872079,-6.27438361345845,-13.829207789716953,-6.675638496719639,-7.2982662038745705,-8.47647983723773,-2.95323624132251
0.0,5.689738320157877,-7.121659552835825,-12.811397872993995,0.7058189333363571,9.191994153516246,-9.918708455121495,-9.970092154860996,5.247759965381217,-4.881147837210304,-3.6566806362528155,-6.431226446593778,-5.078460950609167
1.0,19.754590027814718,-4.824553277346287,-24.57914330516135,-7.47310204768614,22.196904559423736,-14.731143040041424,-15.938493732534507,-3.0167414814482414,-13.077634759728113,-6.956571272520051,-1.294334550026345,-3.59130165627335
2.0,13.222653259352768,-11.2039035388441,-24.426556798196863,-1.020232559791069,18.866025943763884,-17.8437393036789,-0.9576691676408098,17.741153697091683,3.3523763969069886,2.1643385486654587,1.9078222236928066,-2.74254141869203
3.0,-2.2653805057817546,2.086060514455826,4.351441020237624,0.07285784162648382,-3.3361207684429477,3.2695765816892433,8.483666404177752,-1.678433607462904,10.605500948014866,5.902035491779438,4.502615174825045,3.6134204812482555
4.0,-2.409205126013116,5.38222867440855,7.79143380042107,-1.431005638747767,-5.122689867170505,6.559871905003519,13.336340513335347,6.754133472366682,7.777588232651652,6.806850374345615,3.5587386782008052,2.8012563763109553
5.0,-10.787762023292203,8.304366284464201,19.092128307755708,1.2140864829167581,-14.962091312193717,13.751495606500796,7.722023640449828,-6.386757660895641,0.5414102276921664,1.3357973000755337,2.0340940434785617,5.645406423317896
6.0,-2.276460368088343,3.5905316888812147,5.86699205696911,-0.6067289917628726,-4.0975932078953345,4.704740898560505,-5.425501759341713,0.01829553399435735,-7.239177697129334,-3.65228315908591,-3.7085737538960877,-2.1014126863686577
7.0,-11.270957613131865,-11.961893110811861,-0.6909354976792903,11.590547875950568,-5.24211770645478,-6.34971684949464,3.086632310568124,1.2002969217711459,-2.7625529138261764,-6.547874704383569,-10.02571923669711,-7.465127414021495
8.0,-22.700839509244933,-6.164376241862445,16.53646326738375,14.411128168296987,-19.573991946703323,5.162084675625589,5.485619470926695,-2.9418288165409234,2.8827657179680086,-1.5101310959761638,-1.08462425066578,-1.5060106792447243
9.0,-9.402418178094191,4.425097024116401,13.827515202211803,2.4710767830966245,-11.648436687791573,9.17902175706396,3.768633429519066,-0.41346542960621024,14.328915314369784,9.756369592624925,12.222374535955481,9.966344142681063
10.0,15.713723076681212,-6.3602714988636055,-22.073994575544177,-4.614445250238279,18.865215470815688,-14.24607053032912,-5.506309603183771,0.8340669592312593,-1.602184034837729,-3.4275615266950457,-1.7713572457298543,-6.622613570357187
11.0,23.798406062847093,-2.077036281935248,-25.875442344783366,-10.880321274984164,24.894561806258622,-14.007950718212868,-11.476623288229112,-14.607829204229947,-19.284203577619575,-10.993322989255084,-4.4442720495903485,-2.208252398681625
12.0,7.374154140880798,30.109952531677354,22.73579839079469,-18.76934464919353,-7.694513238184058,26.468133505096006,-12.272168651857662,-15.957246906721277,-2.315941616266156,12.283649199984065,15.020098038143118,19.454955416307314
13.0,23.841613453394828,24.462384256284555,0.6207708028887544,-24.190151438613338,11.600892376271194,12.586394454371497,-17.578758910693246,6.199723553266255,2.8750668906076844,9.857563897453158,8.213076840072636,10.167341609657107
14.0,20.97031001285583,-17.252375001083855,-38.22268501393987,-1.8299530969130537,29.585526955847108,-27.77089270223682,0.056283749025262786,21.414265986382567,-6.077070756169627,-16.291168565119293,-19.947022504610704,-21.401317700638586
15.0,-11.336299401290862,-28.34377118928535,-17.007471787994252,19.859617037796625,2.816967760030482,-22.708167065127785,17.039458053951748,27.474125520476825,8.240925403922244,-1.5571797635746139,-13.439849607273693,-17.66210055107556
16.0,-34.45194828010883,-22.663676360213092,11.788271919896399,28.572297426236034,-23.15110267114058,-5.469912628661088,19.751723332787353,8.044492853263835,6.94920273961016,-0.1356315511231183,-2.6764464844690092,-5.323919634209929
17.0,-29.68968891004133,-8.006188907703056,21.68350000233868,18.86234615371268,-25.65284780638938,6.884706521503849,14.385951796672071,-9.736122025247289,6.974485405217676,5.694041600559579,5.197271435522531,0.7233591957842538
18.0,-4.893015459205266,25.848541746490483,30.741557205695855,-10.459362141371386,-17.79563349667955,28.339847011348734,-0.9271497230322465,-20.467947259416512,5.089848120480866,10.395695067085157,16.072264030244998,17.251945894704626
19.0,-4.286153346779142,19.755730187273677,24.04188353405281,-7.789026444053711,-14.149850007033699,21.8631002860944,0.3366483420398252,-18.224120061638715,-4.5591782566023245,-1.447370875459268,1.7431684217971313,8.59443596401428
20.0,1.8073030497854035,-5.307601954596841,-7.114905004382298,1.7021840916768411,4.473340004230353,-6.24888702321133,-0.3867828471560806,0.8935272440756652,-6.136020301488994,-14.908000494340442,-13.298539276917445,-4.150448390758857
21.0,17.726642054753142,-3.1717557880781753,-20.898397842831706,-7.241371778722904,19.327516648586425,-11.995683027712866,-15.878722356438018,3.6155890801750616,-7.917787107100777,-7.140123728839541,-2.0091459123441364,0.15384762857667655
22.0,25.786706355953587,7.508655407956371,-18.278050947997407,-16.60744754468506,21.974161949464012,-5.425176016614335,-22.255253052067175,-6.359724960079584,-9.976316915716946,7.298989845306357,17.116538114472675,10.132331104534648
23.0,13.2467377726337,5.804625941663419,-7.442111830970205,-9.560659984114212,10.292607350605664,-0.7807311824137368,-17.274305451333063,-10.54802107401066,-4.995745843442304,8.187266617504074,10.412847113275195,6.913572752173176
24.0,-8.081617256554864,-5.792662161287958,2.2889550952671307,6.984420110139878,-5.152257094617502,-1.713297069976604,10.748579576775079,0.31883207693273974,4.871916721582865,-0.41064246686392636,-4.808588289487885,-6.813711584667314
25.0,-25.844134932542236,-12.103918311156066,13.740216621386582,18.946371503036787,-19.75372709270033,0.7789186440069633,33.157776726697655,9.88401430131411,9.581437554874089,-0.8980777621341189,-10.06011290829456,-14.731156919390138
26.0,5.450827021438048,-5.271961022895843,-10.722788044333587,-0.11293619879322492,8.129921701471666,-8.035688468170754,13.51616408855859,42.862913738819735,23.15994741647059,7.306091360566869,-11.447778004137126,-14.182789461108992
27.0,27.76658787617719,7.2688238387710635,-20.4977640374061,-17.536886440118458,24.100189849705842,-6.5733512678209225,-16.515833544820584,34.60699794656591,10.502188421910645,7.70865200029908,-4.385334629952552,-3.9529359243626767
28.0,8.61931967511906,1.9629391738973174,-6.656380501221986,-5.227373957859107,7.608010554606356,-2.3836309320580393,-12.59111096965895,-0.07795044725666722,-2.0675293832880532,-1.4679670421517343,1.9841107204416462,7.564247663297773
29.0,-28.80379777782075,-13.179828320517133,15.623969457303273,20.980384655007665,-22.243449702723304,1.26526026961983,0.11496590807366758,-42.58787173978294,-27.045776928653073,-24.126694535144892,-4.483194008845462,3.288726954678893
30.0,-31.635836540898527,-9.428181475808195,22.207655065090034,20.522880120430795,-26.87409097702261,6.356697400237083,6.600849997441937,-50.79754042200088,-26.01652197136861,-18.767195472547588,0.26226730298889755,5.543229813192326
31.0,-6.142849469307141,11.051426946593166,17.194276415900077,-2.4630021703969653,-11.702494582045011,14.17238119113788,10.091871188207087,-18.144136476628027,-2.302762657839782,8.416869952812279,16.160506399194823,11.51947517857702
32.0,13.456841000735364,14.024934020251111,0.5680930195158487,-13.75134962771222,6.485652232808666,7.271959553648718,1.1855357808975924,15.999814714761207,12.63126421994383,16.529075373940156,8.714981716592968,5.012199483115182
33.0,10.760160012970708,8.584650022161867,-2.175509990808406,-9.686508700154889,6.505273993142504,3.184609133192539,-1.3260081143658113,19.228601164786618,16.957509361415497,11.116334636325755,-0.6523703656308175,-1.3412997354340903
34.0,8.363384256958632,11.833639421446398,3.470255164488048,-10.038603955931844,2.401311606638263,7.635398691833473,-9.682891569385648,10.496247500971027,13.0557470353853,7.213357392078581,1.3203675298641473,-1.4786380600787323
35.0,14.173167736166796,-1.9844085940458869,-16.157576330212496,-6.117966824476751,15.11637725499697,-9.007553762988316,-12.397367545048187,10.033569701030295,1.57980560565057,1.9071541298834074,-2.37010004536329,-3.449873374820455
36.0,4.724517169546255,-18.352046136542384,-23.076563306088595,6.786515112955095,13.927511525177508,-20.73120158697663,-0.7018224596810976,8.242572016345369,-7.001492145679757,-13.66467683633159,-8.273920389360633,-10.293655898557649
37.0,-8.533666134696697,-17.82101132006159,-9.287345185364941,13.148313116058572,0.4032085359896618,-13.575586393801366,4.9269698802702155,1.3829883737526822,-9.794811126161896,-7.722201781113751,-5.621314046538481,-5.2740837723244445
38.0,-1.6655555457877576,-1.7587428876685998,-0.09318734188085953,1.7621980227595966,-0.8357508249408769,-0.9542063759477086,3.6335666712043544,0.7044908998933677,-2.23937588164719,-0.4998493898384435,-3.5045764325062767,0.9396976280845113
39.0,-3.950459127279082,5.152069548430787,9.102528675709962,-0.5489603530871463,-6.490542946774714,7.1699512929497775,7.268836878338505,-5.702350887880346,-3.6211598466691965,-1.7462291996295218,-0.644858568819791,-1.475643748287435
40.0,-9.703395623097563,6.567543595939818,16.27093921903746,1.542853147153775,-12.94123973468344,11.37592996639926,6.773212463267221,-7.280357215706935,1.8256401132563864,1.8725819541996187,-1.1267411416877189,2.518335887536044
41.0,-10.12149028952664,2.7785670263479343,12.900057315874779,3.6465594457108583,-11.532542261211503,7.869622203509834,1.3747037159024185,-10.05043700047525,1.6716310197358473,0.8055547819181599,3.3571620098630746,2.3569693776443765
42.0,4.567020885427388,1.6189178768641472,-2.948103008563118,-3.120426586083293,3.7449478318548675,-0.6367043742423828,-2.3919292002116737,-1.1524329731407281,3.8370158923432154,3.409008439412222,6.1841860051562945,8.036891268398795
43.0,7.080845237626598,-1.7630429399462288,-8.843888177572863,-2.6913512551900225,7.954240044280384,-5.275756933969782,-6.788021160103439,2.888980863264502,2.3731890278621677,2.839478014796903,6.084614080504462,3.5035570136117933
44.0,10.197181368298605,3.1393677738040497,-7.057813594494746,-6.6277440502531615,8.617758157700802,-2.0094790419315562,-7.502013894671352,0.17110442617545774,1.8738151280411623,4.371577503497437,8.303270163354131,4.461406877211089
45.0,-1.2812058326994702,5.515173067495766,6.796378900195055,-2.080733810866623,-4.055669302400771,6.1058840426128365,-1.3704877727526226,-1.3595535639954779,-2.5796145614774337,0.45479286313784206,-2.3712914547531128,-4.871372247267894
46.0,-2.6683909049699666,2.907613351684285,5.576004256654166,-0.163195439581928,-4.1492692776570195,4.269831964701524,1.0684803061731567,3.806642375800614,-4.257658147803403,-5.051607061475989,-11.515553029517646,-6.649450493550001
47.0,1.8207578118801129,0.4997285985820312,-1.3210292132980073,-1.122756073957449,1.6127675609214362,-0.38453423938579334,1.1363298408790588,5.899128833479467,-0.5824072414305146,-5.120543168263131,-8.884185529069875,-6.365373699962267
48.0,-5.250007615977573,-12.212212524805743,-6.962204908828045,8.772772706380785,0.8916360820285395,-9.5632496564304,3.9413652033594095,3.3309041179602548,0.8219379904441086,-3.6216957262147105,-2.0951127814340937,-0.7278913390605659
49.0,-1.8981388866559095,-4.370699638741113,-2.472560752085088,3.100616477605028,0.3214186677714692,-3.477761125393565,5.01090240087845,0.06136410703034634,3.268462672881182,4.053933397131104,8.055708580714269,4.805894318881658
50.0,2.2872794548159514,-2.002072505702856,-4.2893519605187125,-0.17676049507140634,3.247040890946173,-3.122695904134508,-0.4989752118725339,-4.831348961952742,-0.5909063983964407,2.965704588152012,6.658183727928916,4.574726253247003
51.0,0.6250760911713935,-1.3467484977328332,-1.9718245889041286,0.3212315242832945,1.2631722820838347,-1.6335930832242862,-2.1340769849681482,-2.81735935931044,-3.771520131661603,-0.5383877173838361,-1.2917586543181576,-1.1034713539839927
52.0,0.5989217583037492,6.757984706840482,6.159062948536831,-3.6492520767337506,-2.8089534004320047,6.410479093245503,-2.2255320159507845,-1.9827960530280135,1.4472902304351645,1.1840481557996565,-2.5793384381512685,-1.5363594288688893
53.0,-1.637423517957454,6.756387063769891,8.39381058172738,-2.5422385623846737,-4.960878245869258,7.612690817638882,3.7484697445383834,-1.4768949943573237,2.689914320092982,1.3640717382317689,-0.4785680881386634,-0.07361620901851784
54.0,2.3518924486015513,0.4911921147946936,-1.860700333806923,-1.4148666604499636,2.0844936183481284,-0.7180725165860666,0.7503526937491802,3.3816033051045524,2.4279325347755893,0.8301957331852103,-1.601265422007685,-1.4838506690917623
55.0,-1.558358608120213,-1.1366063065898664,0.42175230153022647,1.348052280654325,-0.9339584470583031,-0.3044459261314263,-3.6768266035906922,0.9356356342107426,-3.110937816788603,-3.7764591345306626,-0.8294493144292973,0.37162867046117937
56.0,-4.75188906033293,-4.291873500118742,0.4600155602140824,4.522535978412942,-2.6322868546293563,-1.935745799092084,-2.0134103598924225,3.2982956577258458,-1.3677519676052798,-1.6676469682144883,3.5166646327593822,1.804833508093814
57.0,2.472749537914596,-0.2213444417451509,-2.694093979659803,-1.1188447076154246,2.551420990635589,-1.4741835662996037,0.6495615244927395,0.17198099317446292,-1.0251766604572037,0.8061162100097972,2.3970636186542014,-0.5341265285474774
58.0,7.031628867834831,2.5450368448654404,-4.4865920229694085,-4.770879246288291,5.720927347868013,-0.9868211610745554,-1.8274492802157367,-2.065152640716053,1.4338692550995717,1.1174662088540996,0.6214879926162401,3.710955492108835
59.0,-0.07731724876363666,-1.8687419026473384,-1.7914246538837166,0.9239780798474162,0.8927438031295964,-1.8481574797421845,-0.9356451490748551,-2.1717144980695955,-0.9444907572148159,0.21397974066467096,-2.6304640710205174,0.5401268125618868
60.0,-6.140104520105481,-2.9219582445218135,3.218146275583707,4.5717473977667655,-4.645469903748818,0.20535036134434215,3.8155350478255587,-2.0627002081313,-0.7312140166222656,-1.4787280277672714,-6.1681749406170745,-5.598104198108484
61.0,-0.446536124224735,-1.6751932706442132,-1.2286571464194203,1.030445407828188,0.4260551724114747,-1.4770878788021884,2.8321540539831256,0.958646519993855,3.3608910620839954,3.448091388577517,0.36035257627403716,0.7919157544056965
62.0,3.6037863414688736,8.24849510012593,4.644708758657146,-5.953309398027483,-0.5602942025293801,6.497021749321222,1.3407348175479445,1.7441422178508634,1.5558088962023255,0.38090712628841883,4.339263490400519,1.9800817541547688
63.0,0.8882789786078801,1.106010464688802,0.21773148608098514,-0.9463782598917974,0.3001784707995371,0.6311120707145728,-0.6587480251885898,2.354800186363136,-0.6860781909690206,-1.3092504836695333,1.9386604610980551,-3.1429918319296797
64.0,-4.262157709210557,-2.048057771303378,2.214099937907209,3.1234134435318603,-3.190848931377147,0.05054461501474539,-3.1365616622348313,-2.98110501784328,-2.3160690198772893,-2.231779682369884,0.5589475896283582,-3.175702998246455
65.0,0.8753400950676173,-3.6965915239985776,-4.571931619066196,1.4524969571704514,2.693424885315987,-4.167684344355062,-0.5558418633515416,3.417366801591183,-0.8097375176520625,1.8998234510661924,2.260944561406162,2.5370629395179956
66.0,-0.06893421465585708,-3.4559859617173894,-3.387051747061583,1.7200289381295426,1.6276280242401553,-3.3761213138837647,-2.7009962864607613,-1.1240370953551724,-3.152952610997431,-2.038504301307647,-5.491236139830978,1.373146298392649
67.0,-0.4707260227401252,1.8511941401364673,2.3219201628765163,-0.6593550284221212,-1.351738347725732,2.133196727464339,0.8179827967203883,-2.9247794357608825,1.7034118447863895,1.1192056718506456,-2.8153431777538263,3.008771925718489
68.0,0.06652019688707544,5.947324479279948,5.880804282392791,-2.9814884663729506,-2.9440576066867714,5.8840369139551365,3.0561378578011476,-0.9196681477953983,3.0755899044737043,1.5830016306468138,1.3954984635373937,3.0796145702653637
69.0,4.4344738571564735,0.34618383965490596,-4.0882900175016195,-2.449493364520717,4.301700458841801,-1.899104392508152,-0.6673103995971765,1.2101656135807242,0.5703293238487968,-4.562077329021978,1.947295834307614,-1.0628185359805502
70.0,-1.2733311151277227,-1.6990742387601847,-0.4257431236323904,1.4993193541738492,-0.38341096875781444,-1.011110334516966,-0.5945349508261037,2.250598517383828,0.06253296188509327,2.3871596410907614,1.7417963057424932,-2.0230784661295327
71.0,-2.909950330802048,-1.698261752487671,1.2116885783145555,2.3104718161218525,-2.098283007769754,-0.272534624537237,2.178060876736635,1.2086447867966217,0.1264460268309139,2.6977217812152574,2.7797359198015315,-1.1945913305371838
72.0,0.9411207380623348,-1.5443936421871873,-2.485514380249353,0.3019574267858832,1.6761651201831118,-2.0485969727038236,-2.7773456046826546,-2.7090097153112978,-1.7759258308949173,-0.7788574052342925,-2.4875564874484395,-4.279517606983255
73.0,1.6794176879788276,-3.8191000609267074,-5.498517748905486,1.0662347226209272,3.62891875291907,-4.619778975659059,1.944903725127483,2.519795568849524,0.0938498182790406,1.0204710194049225,-2.5946471011256254,-2.085856578973784
74.0,-1.6305109937431044,3.105373869316989,4.735884863060029,-0.74146006925913,-3.2261986889415786,3.8750513759012204,2.8758017117381556,-3.2641955391555,2.068501197361641,-0.040159824888164525,0.08879124588704679,4.601311884702298
75.0,-1.594261465051447,2.7210145799162024,4.3152760449674314,-0.5634775259575396,-2.925275693268928,3.547983713898385,-4.090067414910255,1.2103705805914378,-1.4155598824546147,-2.1133320366325132,-1.946204044654599,1.444553909488023
76.0,1.4694419126570808,3.144409160788472,1.674967248131186,-2.298894259125181,-0.08009095994988957,2.440588440678357,-0.5259717047969013,-0.2131053119607433,-0.8879490034788968,-1.4665934144992239,-0.12047087442992972,1.0125609641664872
77.0,1.427186278552032,-1.1187336959940681,-2.545919974546208,-0.13519967943356404,1.9251225302085526,-1.8740487690275012,0.5948972464850744,-1.2436274191989574,-2.3685602767540863,-1.5671042727409843,3.1979585451497203,1.661126340408831
78.0,-1.3830124749837243,-3.697741622080992,-2.3147291470972315,2.570925498970299,0.4812377630765874,-2.9589262875111673,0.0020217153312893227,1.9738626064377833,0.0058938953249090265,1.3905434094189169,0.5426379802098131,-2.971167186526583
79.0,1.743101573226999,1.2401573016863456,-0.5029442715405354,-1.5304452241186306,1.141022561266367,0.34926189231246596,-0.9343909765543318,1.5522956594771862,0.8914473940418339,2.493565916714169,1.9098153793505332,-1.1729721640018411
80.0,-2.348813961566752,1.7468457577988064,4.095659719365683,0.26737934041208083,-3.197288129798217,2.912706442738041,-0.2358701348193304,-2.466780723449417,3.289105682140397,-0.03471360158502712,-1.0536385459306925,-1.4409681647827224
81.0,0.9630656375804452,-3.9452729229503225,-4.908338560530669,1.4579075510645334,2.970157322739027,-4.4288163137200245,2.735620571004622,-0.7090060421900404,1.2493524564782712,1.3626037143435599,-1.3326610506032903,1.2262270874062842
82.0,1.3340494384609074,0.5121210801263794,-0.821928358334471,-0.8809715454373054,1.0429596161528534,-0.15656341716599975,-0.5019287093789253,-1.0979865548976318,-0.9845387053156417,-3.097435883439008,-3.2539827757870765,2.964011348767423
83.0,-1.1017139176115975,4.250634860105676,5.352348777717282,-1.5376488043904741,-3.2557546347113835,4.793696581626233,-0.9759595856825254,3.2554913869927944,-0.4650503855052841,1.5131746080660409,3.5827465047455505,0.9821972506019184
84.0,-2.988222389838136,-3.0984119085912156,-0.11018951875309635,3.075099617130526,-1.4658341037047702,-1.6233076205138235,2.216063773369954,0.48536111273292715,-2.0783930489369444,0.5356792059755179,-0.040534485468245285,0.3988209035271494
85.0,-1.094070933995958,-3.0796582415370066,-1.9855873075411241,2.0367567830334807,0.41689773299010724,-2.486463132448398,0.35509390854748835,1.2296340537840882,1.2493491392579703,-0.12768079526356518,1.035541360574808,-1.8691891652782764
86.0,4.628890591022447,2.092530295292284,-2.5363602957302063,-3.4111553414862037,3.628502931062389,-0.2672535293314201,-3.1220963039662157,-1.8254958461253947,0.6108398608343073,-1.0336106462222427,-1.1007684898476655,-2.16138319809996
87.0,0.1034966774182795,3.0373143353934573,2.9338176579751716,-1.5393183268813182,-1.3729205456090463,3.009851240439723,-0.933730432034287,-3.665844186662049,-1.740788941580309,0.6299430410912537,-1.336075079925774,-0.983952375646425
88.0,2.1275938922667796,-0.1217910481473159,-2.2493849404140747,-0.9661544596962954,2.2289112973848617,-1.1652133136323417,-1.323193248839331,1.581437601062428,-3.73682532706577,-2.462097889333327,-1.8427965706223137,-2.4982736295709906
89.0,4.057556909655299,4.627497376069613,0.5699404664143146,-4.376903710465601,1.7054255183926776,2.6204270027903633,0.5565913335419055,-0.6281928512160548,1.9546299434274654,1.3671326851788763,0.64703506591035,1.1688323672418166
90.0,-7.406757514772821,-4.564780157431248,2.8419773573415554,6.038118193798855,-5.16224027258937,-0.9132336324846254,3.6527979143477816,1.1434687951422173,2.302060581694854,-1.5010482089294097,2.1710553551628,4.42768904117137
91.0,-6.43181256857255,-4.229164938267025,2.2026476303055578,5.310390276350719,-4.3554150957569195,-0.979371789877435,1.5520499794641913,0.601010781849018,2.37829543528837,1.4511499326936406,-0.8338232411047113,2.396447862219126
92.0,-2.1658093734669217,-5.022238562568979,-2.856429189101947,3.5767879661641926,0.3840165694554636,-3.9775066122919327,1.8125681750826752,1.5162732368182712,1.50604712211262,1.0804319479716824,3.522228459015204,-1.6526942463763317
93.0,10.99669440561706,5.452630564395768,-5.544063841221125,-8.24321520323285,8.305876981358516,-0.07881493319837718,-5.496555013719738,1.6347965894484888,1.4679684897299337,3.7066304516611894,0.5203665144390828,0.8511111401296635
94.0,1.6341281605280198,2.8593486381668827,1.2252204776389686,-2.270029662767159,0.15744659668120198,2.0909216924184877,1.6088178140879124,0.11540199253002816,-5.191094325877969,-0.5333159298376047,-1.1778329469762518,-3.084868375154576
95.0,-2.2789325363279396,1.7431539739446191,4.022086510272531,0.3173002518832835,-3.122178703174972,2.932290048856901,-1.2796303278915109,-5.527319199344307,-3.9739682743477154,-4.852466752908985,-3.9099469507100877,-0.6501615343604554
96.0,2.16741709450383,2.34434449779499,0.1769274032910082,-2.289873576062758,1.0210832188611332,1.231016332882051,-0.7615585067303621,-0.25499471169458854,0.9125982692571304,-1.459662292897485,-0.2636929058310673,-1.4773498265816065
97.0,-1.1234584202487503,-2.955373202399417,-1.8319147821508548,2.0831305011144963,0.2998762198146421,-2.424910215270818,0.8545392909861479,0.3813889835679872,1.0983891940145294,0.09697297670772742,-0.41583542760638686,1.157838621412101
98.0,-2.215890777927469,0.06862908575818527,2.2845198636855253,1.0419576741064105,-2.2263920801278885,1.1431685743173683,-1.2551765304403701,3.660639972695835,2.9050192305353626,2.8794813645215083,-0.4894974234531598,2.2962480227742805
99.0,-2.626075480280223,-1.6687681723566385,0.9573073079235572,2.2012130702916326,-1.7678903623971927,-0.31222423508759584,0.4422454930574238,1.872820722282198,2.992063201631778,1.734151801898438,5.232243949960481,0.3703972508498723
100.0,-1.2115299889915052,-2.9210411129817313,-1.7095111239901564,2.048773765230057,0.19446715690294064,-2.2725251445708365,0.9930209897103907,-3.1428745327185728,-4.494039308029572,-2.2832404783843128,-1.6391698478122119,-1.2732564838308202
101.0,-1.5925420575838756,-3.3828694217527095,-1.7903273641687263,2.47511259364408,0.12412461242041845,-2.621812844616079,2.222960746535915,-3.3307911150203684,-2.149342946462166,-0.706950924486503,-0.8512864256029498,-1.028553340053066
102.0,3.465434042496072,2.7814862206510416,-0.6839478218449073,-3.136299943042137,2.1019070204003674,1.015841858738463,-0.08085785131038425,1.0664613547893083,2.941546880734267,1.8241501045443882,1.553874408026317,0.15947357788969352
103.0,5.394616585627886,3.291164859819091,-2.1034517258086436,-4.362051421699797,3.7009650340053044,0.6429980968184155,-0.7267363423831249,2.2546976632769375,0.3071028553096071,-1.1151114776344522,-0.29117565312163507,1.6147850607494811
104.0,-1.929584231998013,3.764469473299772,5.694053705297913,-0.9477317970142365,-3.7758113588538884,4.703274420281295,1.1003271567942525,1.2130171227346689,2.561125006022643,0.6829121169510717,-1.0060051910820522,0.716295151799935
105.0,-1.019996504520864,-0.46480028655433925,0.5551962179665464,0.7779123671317937,-0.8231115867915648,0.022299730683432717,-0.7132569487146077,0.7201645076169767,-0.5514400626283371,-0.11480055453193141,-0.7496521882995171,-1.7463405231322797
106.0,3.4146199827339485,1.6177662737904872,-1.7968537089435157,-2.491918825999204,2.657634040701017,-0.03197278309124013,-3.326695260423339,-1.4222088745736985,-3.1930900834536144,0.9288179281090665,-0.9095971001291577,-0.7729004624556998
107.0,-3.121179171892134,-4.131957543330252,-1.01077837143828,3.6439910939987277,-1.0729482874700984,-2.592931059796769,0.11220568566545475,0.2514051074034761,-2.9061756973889823,-1.5332674776794004,1.1304053064506459,1.6817662863187426
108.0,-3.3149691108759276,-5.322297814519516,-2.0073287036438163,4.334497097418892,-0.6633585863335423,-3.689317098248435,0.01962759832798422,-0.7516614838214983,0.8222499233782143,-0.08747087904840067,2.3897374833944127,-0.9189103951181519
109.0,1.239796724108417,2.9893919431491947,1.7495952190406105,-2.174713514677833,-0.25844248058992286,2.418318804725681,0.5639706092277483,-1.7211504663727313,2.26149445715919,-1.1670783164722969,-1.153068280504087,-1.8962085181367703
110.0,0.21843639095279696,4.408777973225397,4.190341582272612,-2.290038466411451,-1.9866186657782956,4.262564691869859,0.33913981083823574,-1.752463415812022,1.4670076624400572,2.814920914966472,-1.3490007542542188,2.7270366985758656
111.0,-1.330835702116235,-1.7358856426839626,-0.40504994056755006,1.5617468648847417,-0.4640425049732667,-1.1145692782018095,2.628185228855676,1.3662458324526228,-0.2340107088537533,-1.529166614020129,-1.8441113272528242,0.9867645714616585
112.0,0.40207207009395823,-3.878053708456936,-4.280125778550646,1.6908602514091875,2.336520466479906,-4.04950858190627,-0.2963935768176662,3.9872371309460326,0.48217358458972087,-2.2973816883200824,-0.7965785926147,-1.000279229316181
113.0,1.4082509211565468,1.245482279544571,-0.16276864161182747,-1.3724633126880619,0.7754083550740238,0.5697692132473076,-1.7098972760059432,-1.5928070519109259,0.12121950997446995,1.9100931654375828,2.761766615678959,-0.9065714235629961
114.0,1.2243328195746375,-1.1200804569896925,-2.3444132765643215,-0.018030312912345026,1.8463788464733049,-1.700249963150421,1.778137349679311,1.6404143831119384,1.5147138250930836,3.069182242994803,4.6117295928219315,1.4212765455898155
115.0,-0.16174148359893536,1.9473533914960361,2.1090948750948515,-0.8567763494278753,-1.15905343456564,1.9891692494073,-1.684073200239913,-1.8970304341193074,-3.3905587392502947,-0.6666751435011181,-1.0534739099541532,-2.923789491475439
116.0,1.9021314052393636,3.0299749347324223,1.1278435294929203,-2.4260451516261603,0.35711189224217643,2.0496206822803513,2.9520356130666023,0.9554240407894858,-1.1240438544081162,0.2898179150658396,-2.9978220996221605,2.2998476143142605
117.0,-1.0324853696639271,0.42564869921493753,1.4581340688787519,0.27054725623833653,-1.2805340016228905,1.0003458487569241,-1.6486024116907467,2.6015130645853835,-0.07246126890661375,0.4505301960513295,-1.342682470670873,0.06075458520258492
118.0,-0.34143982348220614,1.6084948744117364,1.9499346978939287,-0.659963120655063,-1.105481271424989,1.7643648532910965,-4.811422236047777,-5.040162868571751,2.152278951584637,-2.5058966788289894,1.8530059667397794,0.9963956946683964
119.0,-2.1879145535427384,-2.673628538328866,-0.4857139847860821,2.4094658980324137,-0.8119619175771516,-1.5944710135251916,-0.592167092123276,-4.6329564402860255,-1.637259224407164,-3.8510845923521817,-1.2470008592949857,-3.708921826882716
120.0,-3.4939319043050716,-6.2897207330998866,-2.795788828794714,4.951484914734936,-0.3877269169196704,-4.5631795484586055,3.669461625868049,2.3199770315030057,0.5426499485808078,-1.3870058105457195,-1.696046000693313,-0.16403703495926414
121.0,1.3137412069490104,1.2168275895088523,-0.09691361744002758,-1.2858362788938251,0.7474900884358111,0.5297087227163821,2.679089218643577,5.785832261491319,2.9010932025680027,5.426696003877172,0.8493603286731121,-0.19679200851933865
122.0,3.879600814137606,1.2972214770018045,-2.582379337135757,-2.6137618443400914,3.196311278977826,-0.6053102822065088,-2.362488384317548,-1.1230199528546887,-2.616959203584418,0.987995752708088,1.5111554160447558,4.2329953272868135
123.0,1.3649707803271163,2.76644699826788,1.4014762179407403,-2.0978787420576026,-0.052234532020488667,2.1117025058100536,1.9926076380414828,0.5600071239263098,-2.1349406954142127,-0.7882295925671252,-1.1038082945243448,0.9553805054346503
124.0,-0.788041978674785,3.639551347965382,4.427593326640103,-1.3861899573174667,-2.5638924277019264,4.055822859785801,0.9600274396236346,-1.2688493555489684,2.1652515215912036,1.0335097047863875,3.1754498929006965,0.25298270881847923
125.0,0.2621047981601636,0.8753641794860771,0.6132593813258247,-0.5347795719589286,-0.21223707441927298,0.6871890055431018,-1.3136993949483367,-0.6356381152170224,2.9066413167995635,0.5059556491113768,-1.951120991125807,-4.144716881983334
126.0,-0.23194681948712298,-3.9146920665746476,-3.6827452470875865,2.1038069822451515,1.7658241468858356,-3.7735806900067863,-2.267277445334101,1.2184084167430662,-0.1652793703395109,-1.3011599377721064,-0.8497176286535115,3.1676907567949306
127.0,-1.600647196818556,-5.492076209839514,-3.8914290130209146,3.496480207863951,1.1068150710387015,-4.660755567859055,0.299700676635531,0.8127377948590621,0.9985863189729544,2.0694381860842674,2.252401258386529,-2.0206518892866874
128.0,-3.18249636294549,-1.8703765306168767,1.3121198323287322,2.475856525114771,-2.205209467394303,-0.32071944123396445,0.75326453517677,-0.38624413578449124,-1.7031561665472141,-1.6613488080861063,0.6532335057235638,-1.5296918445793533
129.0,3.124717548632515,4.073372171874161,0.9486546232417762,-3.5715900337630955,1.055361130005243,2.4743447557610954,-3.0103708378838077,-4.071936781461631,-7.0509722819885,-4.80407186339425,-2.298054642981633,-1.0453673278245594
130.0,-0.5388550876687421,3.2071549875281504,3.74601007519696,-1.3079715863646388,-2.0913920791911575,3.5217583055045103,0.4732568643410733,0.22422507536734249,-0.03958921586134956,0.3598104929195407,-1.3069339594586353,0.5752391580473498
131.0,1.6346498982880902,1.3925470242267606,-0.24210287406134157,-1.489379848085391,0.9148706704135873,0.5432378206603248,2.7548154730133323,0.31159765958171604,3.032079544082012,1.2445048007604624,-1.3598358801764086,3.196713571075148
132.0,-0.18479318963938507,0.29705930450251783,0.4818524941418073,-0.11316066960205506,-0.35517540950848414,0.4370677651783554,1.5072392458307744,2.6933929341004164,4.511548943327457,4.092257297874482,2.2899548655507793,2.157060707003821
133.0,-0.7549368519404523,-0.9079292978204465,-0.1529924458801013,0.8504332424700289,-0.3248941415262263,-0.5609144730405962,1.3858654722070418,3.8070068296738677,2.2386480518711322,1.4200936755012041,0.4604679632696811,-2.8359212724348124
134.0,-0.30348824023875465,-1.70522562554383,-1.401737385305184,1.0208689206167376,0.5980613577112779,-1.5046658924750345,-4.429923544106941,-3.1235339170249157,-1.108116971369863,-1.280481870755981,1.4782046701184033,-1.9179347685058308
135.0,-0.8020458609277659,-1.3755232428551796,-0.5734773819274592,1.1036525265793782,-0.15279974222021964,-1.004663907136721,1.855180580346,-3.7113878472405513,-2.427282076434996,-2.7242518117485,-1.0091811557309094,0.5123708715298061
136.0,-1.129418675476841,-0.9299246484008423,0.1994940270760226,0.9657076525090044,-0.6339406854206833,-0.39712252107956614,-1.5536355035297984,0.575364423775101,-3.6341090866097883,-1.544977592052574,-1.6039909361233768,1.0753058341236326
137.0,2.5785137705632675,1.372733816448764,-1.2057799541144263,-1.9586622380490157,1.9140181596484327,0.1266709376828677,0.7126534534895725,0.6007545429434381,0.558094425660121,1.7008192001326257,2.0332573135547327,0.5619198800400566
138.0,2.1164001102538816,-0.3499156700378345,-2.466315780291594,-0.8614422341057003,2.2288354022619083,-1.4488188337588257,-0.3660062936649372,2.382819722593679,-0.9332033103078701,0.14568225675588828,-0.566809653384162,-1.4178552892999499
139.0,1.8242250100724369,3.0589628465531815,1.2347378364808428,-2.4125291189371443,0.3097130666543482,2.1795388804851354,1.1811415667214407,0.4624702797997897,4.130905105601606,1.3982975450742607,-1.4760436355110131,3.188575620206933
140.0,-2.877948742497418,0.649181801292517,3.5271305437899985,1.0732959326222191,-3.183920653584679,2.0383881138537565,-1.2597098770424566,1.3884092220688726,4.194265029196336,-0.8157396011619368,2.0281362230421354,-0.4306166563145606
141.0,-1.6994557136760637,-3.6789249946162226,-1.979469280940165,2.734983024480432,0.16658453270926876,-2.80044796923044,-0.448501551696072,-2.048314601304183,-2.234085835141284,1.070301589643036,-1.9685238407590209,-4.0708373228238806
142.0,-0.6493611961202097,-0.9294103456528882,-0.2800491495327163,0.7621263787205315,-0.22632620743258935,-0.5717116961750202,1.8487047980595868,-1.420197207884899,-3.5427299703359867,-0.33352937005279637,1.419405533501077,-0.40815397802394227
143.0,-1.4408692623067185,1.8943235339376068,3.335192796244253,-0.25213508750347646,-2.3405208587914625,2.5774186523953677,0.35615709876508195,-0.915998415388311,-2.3511236547031915,-0.08914577666594375,1.5973577333173974,2.841067506955823
144.0,2.0022938174157114,2.4140919227654556,0.41179810534966843,-2.235914828765358,0.7715875213672587,1.4649192978951615,-2.0588192255410602,-2.1655519923890076,-0.49996932062118615,-2.476620504011147,-2.536320663403889,-0.24888774414928805
145.0,1.1105513223355907,-3.4519729843387585,-4.562524306674436,1.2161291443293343,2.8155114197378217,-4.024369926119556,1.6922704697144413,4.571821741620425,1.402000405425663,-1.9332686816472935,-0.5404762542818875,0.15841332507781336
146.0,-4.169889548185861,0.36044363458679407,4.5303331827725835,1.94290865372079,-4.374168829853555,2.4337884043491167,-0.20268334306170785,0.02416185494743095,3.89452180247157,2.417652833155379,-1.6280909320550887,-0.15260458598997628
147.0,-0.37304336062151455,-1.3355099599300593,-0.9624665993085771,0.8067318953188338,0.34159518681879697,-1.16136406518166,-0.7752805414668543,-1.65179143589477,-0.414260821888615,0.86585096281253,3.1006273989410635,0.20809626162788294
148.0,1.9574283694738477,-0.22914353120387287,-2.186571900677704,-0.8380733512558924,2.029690767643687,-1.2274674507009584,2.294157236158328,1.221085925036716,2.6972433510109703,3.2788544929112518,1.078610402865626,0.19511327538167597
149.0,7.636786870271369,4.085687286704909,-3.5510995835664123,-5.9161505387898465,5.61991868408074,0.23606678477692056,-3.532370506389915,0.1551765601825041,-2.1189372843419383,1.2699743474700007,-0.6594710170378253,-0.9859275594962025
150.0,0.7033874910982574,-1.274756132237192,-1.9781436233353848,0.3105918881698777,1.358435332351228,-1.5912901738568046,1.1337444455653742,-0.9971425007747201,-4.434986315985419,-3.4130805027271345,0.4171624945503601,-0.5509435372773274
151.0,-5.74002803144871,2.121729741415723,7.861757772864492,1.8380582908516128,-6.788258333091665,5.017626228907679,-2.19203847502769,1.0476519111754592,-1.3615773202492436,-2.885005756276417,-2.3611921019171547,0.958025099365234
152.0,-0.5074787838383097,1.6140521167834845,2.1215309006218175,-0.5186099245265303,-1.3037194962864818,1.890030841274602,0.3114914987350934,-1.3686166804983482,0.7587073428018025,0.45143487120476977,0.5444808922534419,1.9081065494734681
153.0,1.0553329544765708,2.782614041444599,1.7272810869679676,-1.9571967517143072,-0.4034689155137299,2.279544091347184,2.0731722347337245,0.746788424186997,4.44814486767222,1.0666136344945454,1.0749287000126673,0.2453366199749749
154.0,-1.1033892827418934,-7.3377545469537635,-6.2343652642119824,4.186675774108717,2.578564263381701,-6.833581810220029,1.870541534888608,0.6241799652820846,4.513359229424716,0.550988100670289,1.497581118907077,-0.7842425085410556
155.0,-3.248230960645973,-7.163743147368936,-3.915512186723083,5.174000081196374,0.34936008624282944,-5.579105014981015,1.2662115891159553,-1.2440128194161972,-3.9422530384857617,-1.5669822700998814,-1.1488387669423283,-3.6094000560254034
156.0,-3.986555917091374,-3.222608937713516,0.7639469793777933,3.650899851681053,-2.3560295414029317,-1.183328845861126,-0.7146260422557275,0.4020970735244563,-2.9652240634365277,0.9217223775713708,-2.430304505118519,0.06748759755574896
157.0,4.267276047351517,2.4257672940898383,-1.841508753261674,-3.3022694940061426,2.999566524410514,0.26316273383590827,0.5577300282093414,0.6462793680242211,-1.6189969469893548,1.6114122582784196,0.5038387141205859,-1.3203607017012005
158.0,4.666307725404922,10.888078173721365,6.221770448316489,-7.814509139080208,-0.7477167095887376,8.526570017451926,-3.746503600575021,-0.0011882604959569942,0.43602424359577086,1.739005935542968,-1.359056625234147,2.750982843811916
159.0,2.143298146640813,8.406209776253387,6.262911629612621,-5.236243537728327,-2.0227087320266075,7.383291833774747,-3.4959479774574973,-1.589316770770938,-1.1006407895312607,-2.440596323158786,0.9422756430246038,2.400157686290303
160.0,-1.8124562699223148,-4.126218594500949,-2.313762324578616,2.9265453483617296,0.21589324973864965,-3.173823180140237,1.0065950759567812,-0.6456640166325637,3.487675763807481,-0.5855237766463687,1.3111836731343764,1.7276700722032923
161.0,0.5550045077859984,-3.6056440472588998,-4.160648555044907,1.4809137416128897,2.4067468009648834,-3.9178996285240935,3.8600212600460484,1.9195419065408035,4.443416315382832,-2.0996907911237432,2.5879757145059483,-0.11690878402580629
162.0,-3.441227977618318,-7.809316166452145,-4.368088188833849,5.659715899139923,0.4348500634136029,-6.124278834617508,-0.581516347482562,0.9320640096196747,-2.0116091472160793,2.477588130192518,0.12128481481054032,-2.736847899644404
163.0,0.6093610965114924,3.677206425829703,3.06784532931818,-2.106299848870587,-1.2610651400210497,3.3380840620270664,-0.23065225444549753,0.3059383591140763,-1.3785411844706728,0.6816373804365745,-0.08796973269228536,-2.9544713403103104
164.0,0.9575660250331939,4.216132491579794,3.2585664665465788,-2.6234686242485474,-1.1893369125480586,3.784969639514853,-0.36666710557383775,-2.7253657459134093,-3.172438181796584,-0.15173770803291226,-0.023177435436536498,3.4209699183360285
165.0,-2.5735306721561497,-6.967190660681581,-4.39365998852543,4.819445737620867,0.9414244005594601,-5.627718176199579,2.912227403782472,1.4470796256626601,-0.5094308260488307,-1.5613262910761398,-4.470915883381054,-1.7968596749602068
166.0,-2.190891185059598,-4.624000589424985,-2.433109404365364,3.3847889793170545,0.14531714806491,-3.5489350485857662,2.2254163620734446,-1.7269666108102628,1.7588004635361492,0.5313544535102273,-2.6327656073055428,-1.2029875821232716
167.0,0.49345968494062087,2.855765627874529,2.3623059429339417,-1.692442525449791,-0.9135310756123088,2.593132331589487,-2.0985097240654227,1.0203198818931543,0.11886457267855721,2.4494065604453494,2.7817708017562817,-1.551392114474423
168.0,4.917388054098406,9.458723068948096,4.5413350148497145,-7.205217714794158,0.21036396975792648,6.9857926171804765,-4.236330961293809,1.1627235983845106,0.7024999822545722,-1.0712504635733575,1.4955430239391228,1.7371217449459855
169.0,1.7066069031837,3.4669911994390725,1.760384296255384,-2.529729005688644,-0.07794553160650088,2.5976327719419023,0.3543871981579332,1.7810774375599385,0.8103949313710253,-2.200778138760636,1.389901927717826,5.879110219456533
170.0,-0.4300684746039578,-2.874846349559191,-2.444777874955241,1.6214254243863988,1.04222748535835,-2.6804816283774677,-0.23963622170209103,0.11616127727518233,1.6435905297131868,0.8026955597972556,2.254838377744348,0.18764498603170088
171.0,2.207514709684491,-2.7532066607830292,-4.96072137046753,0.2294122119898061,3.5469275831472045,-3.804486193504539,-0.9838917247335294,-3.2361909799516884,-2.554124915330541,0.1471059515268444,-1.7463243990533734,-0.8357034660942109
172.0,-3.982967328046482,-4.683263305168834,-0.7002959771223627,4.355843953413311,-1.6739322732835071,-2.7225222016734674,2.548691040045574,-2.528943067099184,-0.04538554924431182,-0.3927827367792999,-1.748933315065927,-3.857200242882559
173.0,-3.8957194659109833,-1.7508328047330721,2.144886661177905,2.8364158128983155,-2.9720632216744627,0.2431659420252128,-0.4346687082968055,1.829311608203697,-1.8763404232074516,0.009973972419975219,-1.3786477000883401,-2.069945916779903
174.0,-2.888091116520626,1.4219910555700135,4.310082172090637,0.7421067745862877,-3.6293983052008914,2.83431748080645,3.7794606449352255,1.0491327493087774,0.5114895223290912,1.4070016908331198,1.2668623641310188,0.6694332398538416
175.0,1.8943376983615525,3.8017481573408363,1.90741045897929,-2.836602691965418,0.04126892015096195,2.904049577137543,-0.8454884492600243,1.203619374365287,0.1438087368478665,0.5296071332899991,0.11426739606159522,-0.6761898997507729
176.0,4.075108735087724,2.3442820529989965,-1.7308266820887135,-3.1903463792301423,2.871379006781046,0.27942614699340473,-1.8311851137228405,-0.9503796665916726,3.6095530288243176,-0.08193240433231752,0.6575208879021937,0.8434842523731029
177.0,0.29647403217513846,-4.026255399316051,-4.32272943149117,1.816415979426723,2.3562926990446513,-4.2021064315099155,-0.19185074430725924,1.0229278552280692,-1.4269278686365006,-2.457633280447114,0.42383312683604996,1.520190523080937
178.0,4.056795569664662,0.923493642353498,-3.133301927311148,-2.449107549418575,3.5622716573836684,-1.1358359574083874,-2.0225213312688592,-0.254790127396357,0.2166895509851104,0.8467872529211611,-1.4255961053699466,3.238525945603883
179.0,-1.3160640071746237,1.0672230334332182,2.3832870406078452,0.09453808384939233,-1.8840699994875556,1.7675713269842597,-1.6033082365714817,-0.4499130199410081,-2.615116889237618,0.9423753802142614,1.571258410031972,1.4264415469746696
180.0,-3.420822238873644,-1.7093439166714188,1.7114783222022063,2.538607201443576,-2.52473367902472,-0.04103898743952217,2.2211172413740754,-0.9626651018714414,0.8032046528554619,0.01917676928383505,-0.7647571245897395,-4.393689303621824
181.0,1.6865925190167297,0.8223773410899833,-0.8642151779267877,-1.2819130213784367,1.23388156419634,0.01211866992990085,1.5984768159615228,0.8856372702345443,-0.37408308804239837,-1.5776479461836428,-0.7692012987080102,-2.5068701689882436
182.0,-2.96800852115662,-1.344381616250205,1.6236269049063514,2.203417578454139,-2.2635144031794807,0.17245140342818058,5.940700366167658,1.8192644843097674,3.0170017892082868,1.5603482630142023,1.214867637438224,4.150160766817944
183.0,0.42432158775787987,0.7135892271140972,0.2892676393561474,-0.527501031427714,0.09485225283507814,0.5371525047061653,-4.52672094414975,-1.6835065622591698,-1.282839879649411,-0.7608207215972128,-2.7314801842788725,-3.210592040641812
184.0,-2.2951833551314205,0.8320273276790813,3.12721068281045,0.766544325404469,-2.767106200097182,1.9407725473653508,-2.4678536844929746,-1.2390901425299774,-1.4505897530065923,-1.306380797093504,-0.7609935798932358,-2.0513235255951736
185.0,1.7550870407689092,5.813567629211969,4.05848058844305,-3.8350723395195425,-1.132612686379461,4.900197528242312,-3.593846906918487,-1.9179090344256189,-1.7547502451986308,-0.19100249973103778,1.3344864321015613,1.825060034756896
186.0,1.350230012020029,-7.210963086419039,-8.56119309843903,2.8722687950723946,4.971669340789434,-7.921895040520205,0.4881293645357465,0.23941028681224719,0.5801318010458317,1.37343890554785,4.3095265633162,1.122038465800533
187.0,-0.38873526871675423,-5.358048986492996,-4.969313717776189,2.886975699080844,2.3034502805850368,-5.124158910461195,4.931562486901119,4.132161576975281,3.380700653494242,2.4695843140701887,0.7942854287387278,2.5633088473636105
188.0,3.037878485295846,4.138815358740189,1.100936873444386,-3.579973304653193,0.9789380814815221,2.653671207248055,0.7086593762693845,-1.3618313781201254,1.246721760632974,1.0790828300615676,-0.8649092283494201,2.3008166606738474
189.0,2.7455382742032226,7.648977053210953,4.903438779007742,-5.190224848025949,-1.1496023485657445,6.225223898668212,-1.5399407874458682,3.8346215367042564,1.1728224539221168,-0.0015309043005534324,-0.40063580720057357,2.365905614710137
190.0,-1.045459167277154,-0.528055699827267,0.5174034674498906,0.7977736912458107,-0.7744596053253903,0.018169895191287644,0.5592533705128151,-0.8008228173351272,-2.2554725114665537,-0.5738285147986195,-1.8080939056251024,-3.9753302728949023
191.0,-7.834985840078643,-7.128279076338404,0.706706763740228,7.501905404445513,-4.262312316146862,-3.1884315787827555,-0.0011237967009820327,-3.067812042844685,-3.600218928625953,-3.662551560672465,-3.5637291648307152,-8.089694375789874
192.0,2.541523254953238,0.8962870885642729,-1.645236166388986,-1.686032535802536,2.107456924940703,-0.34982863292827193,-0.845884908561829,-1.8753618428806895,-1.2938811067467169,-4.5382280156884125,-2.0063968657554394,-1.7549115863401838
193.0,-1.1621389158298385,-2.811940970538008,-1.6498020547082048,1.9537592088921722,0.267678758926141,-2.2799356296088877,-2.3180008413007953,-3.2258703752725992,-1.4201601335028122,-0.9613862460090756,1.5278740853115869,0.930179169929075
194.0,-1.2607746221305294,5.267977270947991,6.528751893078457,-2.027890755434631,-3.8582919777596203,5.855841562705999,-1.4833129267894987,1.3630479252054608,-0.02182704111206968,2.5756107210176444,2.74155987819698,5.259695130119132
195.0,2.474172645809261,-0.6026358051974636,-3.0768084510067824,-0.9571884887638373,2.745883751093343,-1.7967761517740288,4.5483893633274635,3.592756055618619,7.587212990018283,6.259131857724158,2.334656844562679,5.095752657447882
196.0,3.396264822419581,-1.643251539094029,-5.039516361513644,-0.9017328783241398,4.197741269064389,-3.2926393683315953,2.5368706506867453,5.200439145076581,2.868279441516566,2.9002211043012687,1.0738412982505265,0.9064778726652309
197.0,2.3621957167152283,1.4303437955228757,-0.9318519211923233,-1.8518106988673106,1.6307443364211578,0.22337066971770136,-0.18684194430809797,0.08265401710410858,-1.527578365385398,1.904325094310094,0.0002369379979657582,1.097043370251068
198.0,-3.0221886962366753,2.5583230791463087,5.580511775383086,0.26468399781898727,-4.319791342360143,4.0457282877960585,-1.0226727455659406,-5.695059495724906,-3.6020707923376563,-5.017897557387012,0.13553552863395235,-4.202951081291113
199.0,-1.1980069295704718,1.2386573541805745,2.436664283751195,0.0008482783619753742,-1.8422971619953232,1.8145453811812962,-3.738109039421926,-2.0034632512579518,-1.1418633984688977,-3.179342491869651,-1.6409365724916787,-4.814170188463039
