Time(ms),I,II,III,aVR,aVL,aVF,V1,V2,V3,V4,V5,V6
-200.0,3.2789434942242432,-13.139000985080179,-16.41794447930465,4.923371209002215,9.856761930882003,-14.759858237497586,-5.782103109842944,16.54340262978063,5.9445993384349,-4.5286314722799395,8.07862838817085,-6.12021509021762
-199.0,9.482518146579583,-2.8865894138673927,-12.369107560447548,-3.3021787906809092,10.934395737995743,-7.6078716244676645,-5.760463582384252,-4.986900759250512,-0.5422367457886728,-8.5982818357833,15.1768073917746,1.2735430146705964
-198.0,5.333606363287423,-2.86782866830643,-8.20143503159442,-1.2287948147354633,6.779185467878039,-5.509849076573252,-7.332444516306014,-15.277014696902182,-5.821665219525768,-8.318023058993411,15.03770681933462,-0.11225537546664177
-197.0,4.043346913529816,3.892149396231566,-0.15119751729828756,-3.9504692107538237,2.1150843050088937,1.9023660382808507,-4.997056065021509,-9.03747047025917,2.168913977278045,-2.2165992844977342,-1.4333432014992642,8.201991861316673
-196.0,1.3251703910236388,-0.8285409795638419,-2.1537113705872173,-0.2152264868623679,1.6873398769239056,-1.530787960500657,4.3676762030671155,-7.733938436309891,-8.777667710434745,-4.847482548347955,-11.034041937635598,5.288289775288645
-195.0,-15.106923115529286,-12.811687274406106,2.2952358411234393,13.928984659427257,-8.66415134927963,-5.2929333352955865,14.662006894434262,5.608397540031767,-7.810116312018701,6.112124061477223,-2.156582179002771,7.3209715798610056
-194.0,-11.58814891642093,3.587706318902015,15.1758552353229,3.9816715738449537,-13.335391000684389,9.348383973718965,-4.3650244047795566,35.61406799030214,-1.8930352809525726,25.683629741131508,-6.088265047436013,-3.400280947089705
-193.0,-8.31922422854432,7.585659282716732,15.904883511260756,0.3542666578065963,-12.137461222968318,11.788403185235142,-1.3334366770111945,-9.911598043280136,7.078024862603914,-10.416533271869692,-4.374846855798146,-25.877900668938135
-192.0,17.330884881896214,15.493021139931722,-1.8378637419646697,-16.424760125159032,9.560897611351422,6.866394720249334,-2.706480550692639,-4.405111909929224,0.6328220660964039,-2.9842302451567893,8.734271020268324,-12.480453051587531
-191.0,-3.382350529425601,-0.3964951937717691,2.985855335654179,1.949805805665009,-3.2109114258837392,1.2503719764627754,-1.4212493401274142,-9.137261161085824,7.377768674186134,-1.510642758169948,12.92335151928151,9.791546703507331
-190.0,6.507704373850491,2.008890867102696,-4.49881350674712,-4.285257954337558,5.4692259944678945,-1.2131368702685768,3.298000788264977,0.9458943906188519,6.953909206845976,-6.083612614787965,3.179668671542043,20.71600882394791
-189.0,29.295500581157373,14.368147586912933,-14.927352994244355,-21.86773469267501,22.147836657706737,-0.3263787821925046,-7.78624626224892,4.553361201252281,13.271687763371226,3.592418414360319,-8.161887097184206,50.541668201635645
-188.0,-6.476822749865722,-8.909827497411353,-2.433004747545409,7.729220539573728,-1.9918064947518541,-5.636584947828508,0.6127493739730483,2.492486788615524,-16.188332549932063,7.875829649486832,-8.995783724007083,-19.04725144698848
-187.0,-16.658038671613948,-34.638622516496284,-17.98058384488244,25.680725861228538,0.6890476161313348,-26.270292931288864,10.36908658199377,-6.278857392427149,-19.23352223634943,0.4203508417954003,-2.242355938250424,-46.33993612218994
-186.0,-10.558633744042087,-10.25051009526303,0.30812364877868026,10.358331148422703,-5.403893326018677,-5.006279453336452,-0.8582862383355101,-2.1154687485877064,4.968451441585035,-2.08464510085436,18.343389312928316,-8.606700549436873
-185.0,-5.340326571976627,-7.6653297069037,-2.325003134927707,6.538011424352344,-1.552833361124514,-5.027774338688231,-3.496371874142608,0.02764976500016414,9.649838532553742,-5.371846234303135,-15.407262900115771,-1.3904214453200314
-184.0,-5.526120325016585,17.570109019036426,23.09622934405239,-6.062186153048471,-14.35214110007066,20.378912594918987,-7.005583341016536,-0.48400099386329476,4.753168375214561,-9.842019347456546,-13.325156657672078,0.6533217761604084
-183.0,10.75544202538273,38.4662623543481,27.710820328965042,-24.57024879916579,-8.515918643972501,33.05251262969171,2.4296164454026714,1.7261330306889793,-12.948538358619913,-9.741686273558104,3.964209818566542,26.428543953028385
-182.0,7.325728442639628,15.209046491214117,7.883318048574521,-11.306382595739937,-0.23716656389080126,11.50600925095567,5.903941316956797,-4.763227332752785,-4.276918821746176,6.807129645307752,11.182635095766228,13.384866399633983
-181.0,4.256435662645604,-11.721858184932753,-15.978293847577831,3.7681020410125186,10.15953864235073,-13.814606521144574,-0.9068830287602689,2.6462484581620327,0.8049969662730875,11.01537218439319,11.072264889672326,3.189151401906983
-180.0,-8.883903915772182,-23.055198159468734,-14.171294243695758,15.91883268805349,2.608548142798165,-18.57801219056677,-0.8995117790034579,3.67581649778794,4.787181100660041,13.521694332833352,5.628284994106914,-15.30466438421271
-179.0,-15.110211494987809,-26.990772944954653,-11.880561449966068,21.06968673817456,-1.5679865238494468,-19.397212654370303,-0.13061075645436704,4.091803921451329,8.60789254288368,4.095798868620886,-2.885374781045231,-16.802084175413142
-178.0,14.351008345671655,2.9561863080117305,-11.394822037659818,-8.642690212797948,12.845969429921228,-4.253956921113838,3.4361160609109462,5.012487843846019,8.560770656584431,-5.003501427249442,-9.299473338534463,-2.5874569246841226
-177.0,14.24375073523106,5.634019227918019,-8.609731507313622,-9.933864166935203,11.405474439923125,-1.5165716682637154,0.06239003609286141,7.014553420621244,9.331115584001587,-2.238751857006509,-12.152748063978692,10.855067175832346
-176.0,8.79746855632955,6.241974056361277,-2.55549449996876,-7.517141946888048,5.660055725407423,1.818397235060493,-6.082097701343884,-10.83050902196916,-11.508842433023194,-11.1555624100715,-0.2084081518647496,1.7282536194176488
-175.0,-4.672698367728069,19.930463471048515,24.60316183877649,-7.62538201933627,-14.573200035310276,22.321055583383536,-2.4373659340793874,-14.90219934100784,-11.267651125006298,-7.044757564936984,-4.1436742329378475,5.093184521574225
-174.0,-10.920630826689916,17.025504222518,27.94613504920809,-3.0457391902333577,-19.448639085596824,22.457966308134274,0.8485116317089187,1.3055190058543005,-17.61252760464665,1.5731993074447375,6.5528320197846295,0.8534489779799141
-173.0,-11.692060544016892,-2.7945199250037893,8.897540619013132,7.253878412612589,-10.315363615674123,3.0177580606221195,9.345753819460734,3.4539522748696037,-3.3579570810271386,-0.252025915761501,8.950220378747423,-2.028243040725143
-172.0,-4.185463899248378,-11.519359220435817,-7.333895321187643,7.787444169545379,1.5449449102290975,-9.388202077372616,-6.759430017008334,-4.4793233983768825,16.8266090221657,5.119673049987301,10.662041218130906,-2.877859348916285
-171.0,6.731505643173575,-17.575252862652185,-24.30675850582588,5.437512511918967,15.558347329144807,-20.907946536620027,-2.190663994856063,9.224615535340764,9.946318127976188,7.7960384078401965,1.4659842024885728,-3.8390484139336736
-170.0,4.172188789225129,-11.452705837052843,-15.62489462627824,3.656673083333564,9.849841098219441,-13.587459086738965,7.584351171462968,11.451362184972425,9.509106196903588,-0.8163551791279238,-4.614951299277103,11.562030304417217
-169.0,-9.461548723183094,-7.32456291242152,2.1369858107614323,8.410021402062396,-5.774636316303245,-2.56411859036033,-2.9639044298528834,-7.581340870911157,3.201067229664053,2.3676141401031754,-8.029803015907914,-0.3282324755977335
-168.0,9.459986127481947,12.504878001161892,3.044891873679901,-10.96420737923831,3.2321380932255903,7.8058950588203375,-2.012047841354688,-4.227456837127427,-11.65301458408381,-5.35106829882797,-10.658966821579023,-9.78380215110002
-167.0,6.098708946957387,15.078108873287295,8.979399926330041,-10.646380998869269,-1.410599224023353,11.982889300751413,4.678848357462159,5.099423364279176,-8.876052430786258,-5.471330523590377,-7.826397821728671,-3.6428704997243355
-166.0,0.6877629668039758,12.136956143920907,11.449193177117301,-6.3876642984815835,-5.42153412365273,11.748583335461714,-3.0389770056482477,-9.40885759798322,-17.024730482247914,1.9908658044163428,10.196986628236456,-0.47760648688269575
-165.0,-5.284450136867551,-11.664886736641337,-6.380436599773184,8.50423299166427,0.593638784071508,-8.987932890199325,-4.8673397970622405,7.085912122803921,5.655237588320131,7.464579062326072,4.191220721954351,-7.271206169182438
-164.0,9.052387722660566,1.026652445820179,-8.025735276839779,-5.083639676273334,8.509667027546659,-3.4650038396188125,-0.10474525891765185,6.363493114491076,18.114772565119186,0.4488123871109755,9.44449638691925,4.933773511875657
-163.0,-7.480487550323551,2.464757928175751,9.945245478499361,2.5468691467620754,-8.744657560672131,6.160451251478451,2.319815175946909,-8.862519174259628,7.75934970994881,-3.294433864745562,4.419228554823361,17.093267171655853
-162.0,-3.411655156605095,-3.0597952924943335,0.3518598641104087,3.1989074007448624,-1.9217010654160562,-1.319926573589745,3.8278340300753397,-21.16277208691183,-6.957728408681701,-9.698124763429073,-6.147686199195663,2.4542552616870257
-161.0,-0.21886250652883366,-4.1050182316552695,-3.886155725127047,2.2050001866658753,1.8614120285159705,-3.961626639600615,-4.6330555387368895,19.27087040800955,2.3313233295587255,3.5495174695866503,0.6288061146224329,0.8856949580701695
-160.0,-5.040219037473995,-15.925520324152128,-10.885301286678757,10.446723874654124,2.9407387791821034,-13.450629951673925,6.571460189526747,13.858870674260801,-3.6671758420862943,-0.509887966992002,-13.037780616329773,-0.402598287668146
-159.0,-2.341642302754889,-1.6786738351095116,0.662968467644935,1.9727390462708212,-1.4880655873698942,-0.5542548517323147,2.8830181108274084,-6.068469933771864,-9.465436585087982,4.3766728980343075,-3.601719470554336,-8.921432267733099
-158.0,4.918687009391863,20.820460473496723,15.901773464104851,-12.82930514812778,-5.473409179033532,18.391457141075787,-5.5301071650009765,-10.548327831075001,0.609987682446052,6.315152055694054,8.24442056890275,-6.6425941805482305
-157.0,2.209465669285077,5.5191239568846395,3.309658287599788,-3.824083844367861,-0.5207673069106908,4.4421922209985905,-9.90166580252906,-7.13696706267454,-8.840132419539799,-7.735797617227121,5.393674907835345,-7.538453410914209
-156.0,9.598928924369739,-3.490241745591816,-13.089170669961227,-3.0918376769151643,11.310006172113049,-8.264552507053377,4.739689465162506,20.40791243295709,19.292697070716606,4.715271747883397,0.46994188174721163,-0.8222187331719282
-155.0,5.2693663766471985,-8.088363168183442,-13.357729544830306,1.4521951872640453,9.294591950518805,-10.779082357396872,12.34247795607807,2.8191782059101693,7.397152929809491,4.658540362005837,2.7800138431364205,6.477421457867749
-154.0,1.6193219817088875,6.128560343320713,4.509238361612054,-3.909295701445838,-1.4532911878018808,5.339563959504675,-2.1992074457225668,0.8966751768860332,-0.7760755005313023,-2.292628636754077,0.8096279745328738,9.148815617704294
-153.0,-12.571093557558951,-0.6418072863131903,11.929286271245859,6.5701477251724985,-12.254841218311642,5.662937853448551,-10.760888101146708,-13.177550006683695,-11.127157057946643,-9.815884600456302,-10.765470525387643,3.1703491403615107
-152.0,-16.337111913636733,-10.903759473951286,5.433352439685422,13.6601899277501,-10.893280992912981,-2.795321818239607,2.2665281596082574,-11.138366904943346,-1.6722808751403022,-2.0702510955323854,-7.833029601506228,-5.647964388982997
-151.0,-8.78136330450395,-1.9932049320116088,6.788158372492239,5.344707972699966,-7.8013504342449105,2.4168022960705717,6.879796294680238,0.3060275515447328,-8.161639418539933,-1.411074066582354,-2.9834143906637296,-2.3491359138336394
-150.0,17.85984754165337,13.274923280797854,-4.584924260855601,-15.534224169220856,11.273917502964704,4.366396143725985,-3.659992977703351,16.19556025727266,11.756005826438308,12.385403957453118,17.07316912730188,10.497748572058121
-149.0,12.041830311151084,12.919446073990514,0.8776157628394081,-12.448538341539859,5.623920565143968,6.92291472517654,-5.8051912898432345,-2.5149610423800635,0.24257631655405998,1.3110189626219633,16.414410835493584,10.807622339743252
-148.0,11.597159872642987,-4.484312135919339,-16.08147200856231,-3.601509283688526,13.79563809714495,-10.255723096797507,-3.710851112922506,-5.844006590887566,-11.148923149144661,-8.085630605387712,1.7613585947880033,-12.693715289453642
-147.0,-8.104688154389068,-3.9590243404274053,4.145663813961663,6.069363929603879,-6.1717623178554355,0.04293543296929325,6.056084501200129,10.995820686713165,4.156073959668168,3.2872897939244807,-14.387227863966846,-13.874880179580481
-146.0,-21.75604433339266,-23.288050404926693,-1.532006071533971,22.48566621121141,-10.079071741493467,-12.461728879158487,5.940295467593005,3.7391509852052898,9.076537025223258,-3.9647186231707594,-16.249328829292175,-12.245500398260837
-145.0,-0.12188665699883394,-1.048356610526925,-0.9264699535280263,0.6316494615096229,0.43896044481611174,-0.964047171207921,-0.13810441409373153,-22.138862455893307,-2.694714510251215,-2.1872826091154964,-5.91045450719235,-1.7229859695005514
-144.0,11.350676757789774,6.284378772851186,-5.066297984938519,-8.847846041445772,8.172021440700163,0.6276110351597248,-4.215731177107139,5.859708792730126,-1.9380901943251825,8.033008735875956,1.7840008498875224,14.59990454672016
-143.0,9.58333372960756,8.77757353033788,-0.8057601992696366,-9.211901167671499,5.164498997141521,4.000348378689494,1.6864227921424502,12.865045264281312,5.403425266936287,0.08208047253943906,5.43742782161174,18.97911381763729
-142.0,-5.249510152822046,9.596239050049459,14.845749202871545,-2.12985034670539,-9.992676020733864,12.233454087287226,-0.02285121914412125,-7.009434940812157,-1.8934910574684403,-3.961914141629669,11.619171022468857,4.584250737213749
-141.0,-7.879749626917269,8.32136785335647,16.201117480273787,-0.26098887474353605,-12.058925906756244,12.27448339433877,6.316697794068778,-5.521283065009987,-1.4186998985679642,3.0407157360627965,4.757403462815846,-7.895183086522028
-140.0,4.632307101543205,-8.685079871308824,-13.317386972851972,2.061036179898572,8.960084896081714,-11.063515439622424,-3.1244595915561857,2.522286815945868,-8.640492558751381,-5.356294576630176,4.540080715219707,-12.090097906966308
-139.0,-3.9793516660930095,-15.703764323567054,-11.724412657473945,9.79665965753768,3.8593875949655043,-13.69286501482775,-1.9651979143671099,6.440872102948893,3.169698691997806,4.697909328455196,-7.44331408197762,-3.425149077238908
-138.0,-9.742297488160252,-15.54787603256269,-5.805578544402271,12.682458508744332,-1.9037251316063375,-10.650312052657391,-4.425076740600762,12.151514400798055,8.917981390086151,5.515543157558657,-3.7447241521003782,8.633268756337081
-137.0,-2.173965603575281,4.999492590128646,7.173458193704122,-1.3678646840338304,-4.691748365611634,6.038800619375808,-8.358327928055125,7.198512917021536,-2.99814840890343,4.689173729072574,1.375044935244901,4.786032868262864
-136.0,30.340533673475804,51.336105846138175,20.99557217266252,-40.862551692581995,4.647570830144941,36.20032804587178,9.856936469366351,-50.6656483462395,-6.187872405854556,-21.08424545744847,7.975957230527292,-12.327015903726775
-135.0,7.427108602741287,-2.577458795335083,-10.004567398076327,-2.4403036558714017,8.681761542986177,-6.254760872467903,4.617875370925613,11.916490813995985,7.290209992333356,4.169021554589719,-9.666590245641618,-1.9542997522623926
-134.0,-9.125490397019306,-19.68973048227245,-10.564240085253319,14.397072130282222,0.7540739664871956,-15.169381775864753,-3.1080909067166074,16.03170333699864,-2.259574217762269,-0.7868073047702713,-8.545869253046657,1.3141984476966062
-133.0,-2.3522374926461467,-10.342116024725614,-7.989878532079846,6.335930536596553,2.844844947411997,-9.209463606729853,-5.815671324831683,8.894757795820318,1.718705685738639,3.145438637009636,-2.9086110788274264,11.30098870082479
-132.0,-23.63690511771352,-34.36695228555544,-10.73004716784236,28.984261032874752,-6.511351065040575,-22.514469855981496,-3.1671720121883036,-21.0501196645292,-6.353361545541347,0.11272127914293018,-7.3007051567547485,-7.846556376464624
-131.0,-16.121517014491015,1.562437274685168,17.68395428917593,7.33016663021778,-16.88206748186028,9.657000649515464,14.59393545225772,17.030690322759504,7.078446087795687,10.784723844072923,12.937126982865067,4.399696726374467
-130.0,7.910588374380111,25.181310300408764,17.270721926028784,-16.585765926598686,-4.654174899085239,21.18282324800459,2.37247097410663,7.240582251165431,-5.892907444214955,0.7398447866067999,16.788215638475123,5.393631003658985
-129.0,10.630899374012554,23.486757278555288,12.85585790454321,-17.029832539893018,-1.0771224681250458,18.2108175082799,3.378520388612994,-4.532271233328428,-6.018642587608127,-6.39051879591866,5.151651297638196,-2.5077063476682264
-128.0,17.39079756910028,5.7266500908592555,-11.664147478240555,-11.535579979417967,14.495382872419972,-3.002527728820022,-14.504416943639939,-11.2590204251723,-0.9547649854838165,-6.041318433602624,-8.980252874266498,-10.145524712137346
-127.0,8.785835737100745,-21.10228848041725,-29.888124217517717,6.101964288760625,19.31512801019552,-25.444703216624053,-11.813454072382946,0.07699688947182803,2.981534867568756,0.31655142660553715,-13.56931132146769,-6.655242131453804
-126.0,3.624936627886561,0.2336885959599826,-3.3912480319266045,-1.9025616120052184,3.4930100490257576,-1.6031177061741921,5.709643635040042,-8.2984365486159,10.805116324820434,-6.574111105220859,-7.628503194002475,11.298670137471284
-125.0,-3.407113862936143,6.8651829263592825,10.272296789295186,-1.6945895012559893,-6.852608872940095,8.545393971957814,13.368446133681688,9.327762488077571,10.61021655626786,4.238367658151134,14.892862333679817,7.54652613169033
-124.0,-12.13557820812814,2.6259727371312103,14.761550945259108,4.71935501433873,-13.384759067117958,8.668171926164096,9.56552457553515,6.32444180213238,6.926024784288039,19.30682411695639,10.286670709781045,-0.18844675032507263
-123.0,-13.31665037593485,-12.646633201583125,0.6700171743516332,12.953758552201341,-7.0130035543184,-5.93977351855198,-9.534888894143632,3.940991584928557,-13.42350504377539,-0.6849782571390497,-2.2123897345721915,0.901908645028123
-122.0,-8.519351026120258,-13.981577081624026,-5.462226055503736,11.305573431185,-1.5535544575744504,-9.757406333185653,-10.191130343496912,-3.6989869015770123,-21.343686405484075,-11.831985995140627,-12.158154522055183,-5.010774960823606
-121.0,6.529168538013972,-3.7420879658809776,-10.271256503894769,-1.417384577196966,8.371284328652944,-6.967491752238301,0.8321584149613424,0.11651392047961595,-3.19604723080937,-7.398447877994638,-8.213478478215892,-10.472398264381093
-120.0,7.6180825752479295,15.214701402511707,7.596618827263878,-11.444868320821074,0.05927698624493427,11.364536940113378,0.819018079678058,-10.16633567282932,7.898089043959607,1.0530568549524766,2.9024299235920035,-3.96077436231403
-119.0,-5.937624428338024,3.570660682414122,9.508285110752121,1.2258221609576534,-7.672909045517675,6.57819689664724,7.333559428336678,1.4414270140221177,1.3882755293457087,-0.26539728733285595,5.451894923379058,4.704260175879584
-118.0,12.349438967777527,10.847981538106431,-1.5014574296713057,-11.644424157096584,6.899934884275318,4.714626938874075,-2.2350413257933126,4.001505994398411,11.630694832397339,6.000289140725956,7.316137365814095,13.706941472141148
-117.0,12.170028308574992,9.47491192921639,-2.695116379358808,-10.79790956122231,7.410184671554111,3.354787602316366,0.0024416408618852525,-1.5539465606207186,-1.6515442879040618,5.184177788912519,0.6014970777835025,2.2616446770100476
-116.0,-0.6451257689477394,3.2316197354009586,3.8767455043486425,-1.2744932319498736,-2.2817357268710383,3.5191464735023636,-9.219637474380907,-1.4043966431374009,-1.5771057876210386,-6.911594662532208,-8.208948115698021,-11.084739523319346
-115.0,-11.124430599833548,-15.831176036833321,-4.706745436999557,13.494386177676184,-3.2299514367321134,-10.306969229103101,1.7569166389425854,0.3120961334742568,1.2080717042931612,1.200587130546827,1.1840220598606392,2.7601148857495774
-114.0,-11.292116385809631,-18.12897301719605,-6.8368566313860315,14.649720635460362,-2.250023441667799,-12.447611805668192,8.242817131050893,0.76552954496788,-0.745910249075439,-4.005763413889822,7.200678190397857,-0.1653452550922585
-113.0,6.144833526515671,-7.1597599262878235,-13.304593452803198,0.5291566236733676,9.780345050726098,-10.203075119840653,3.6697457380600893,8.987829779079869,-2.018726463091716,5.574592785138109,0.09933673047233404,-2.724010344881128
-112.0,0.25780749681039533,-1.3406200717715457,-1.5984275685819567,0.5675921655856989,0.9846160962110887,-1.445381009287093,-0.30807537020385434,11.403787866008873,12.106855701799645,6.359799183248986,-2.3525896037456118,0.7061714070821647
-111.0,-8.883068763399088,15.798404954362328,24.681473717761325,-3.4280838007909,-16.802404747779633,20.18309378555923,3.329103924791064,-11.079332382273915,-5.278893135048833,5.607514739152051,-2.34505770745087,6.446752231472377
-110.0,3.5308020992475737,10.5894863695676,7.0586842703198105,-7.108360471994829,-1.7824553009090334,8.846965352233262,-8.074059031276457,-18.7336572219449,-16.9545919925989,-13.495634677167715,-9.861205278224302,3.9176057484133424
-109.0,6.2059885996832245,-8.748501229944269,-14.954489829627647,1.221211550365565,10.560536005820655,-11.824938027466434,-3.4519381195671204,2.4828577422195846,-5.768221231494809,-13.361592053089026,-1.374333823168401,-4.291229919149444
-108.0,5.699754865685535,0.7408353578277731,-4.9589195078578605,-3.1952521728218457,5.304000507164563,-2.156096696223401,-4.63559462494775,5.206940046331082,7.666707180499095,0.5429396527632182,8.16513874570528,-6.604798036080124
-107.0,6.46603531699475,18.363633013676026,11.89759769668132,-12.39340380322811,-2.672458610085589,15.167360195601344,0.7226604514362505,3.427528251315008,11.712856253670072,6.240464950065159,8.944722557253904,-2.6502787055853725
-106.0,-4.921135437780662,2.216294330545874,7.1374297683266885,1.3722739917129627,-6.077409531127458,4.638404432850729,4.71939406954883,-1.0619946132745985,1.9329459705638357,10.130419735282114,4.432337775301739,-1.4460776848526697
-105.0,-12.456885649558371,-20.67778976606546,-8.22090411650682,16.588845051067867,-2.099490576735514,-14.407936597600314,10.439667990906337,2.2232825257646356,-4.578132284347362,-2.5324315609469084,-18.81977255553168,-13.885069951763324
-104.0,-1.5316263682269646,-1.4450909074014078,0.08653546082562436,1.4359344054654812,-0.7986605380836393,-0.7181849870633421,-5.523550113667456,3.1813271618596652,3.1327185938690434,8.369628081230715,-4.056158582337323,11.078934876616822
-103.0,15.591586627901016,7.835431091495077,-7.756155536406026,-11.680404533428707,11.68279375314182,0.07564909579471113,-12.531392154633274,3.587608692345039,4.33865096600879,3.7208767968081453,14.20391412175155,19.419096733553733
-102.0,-5.959826037570729,2.637766828315402,8.597592865886234,1.622320917082643,-7.264021494901375,5.569787280911881,5.414138219844862,-6.643699413305419,-11.306641331691965,-6.661797877828725,9.410626854934886,5.858703816422348
-101.0,-15.02479602928484,-24.662192519504266,-9.63739649021917,19.88887730148431,-2.66745405870428,-17.124246386967677,6.887464072555896,-6.586960617527753,-7.4504805487307255,-12.503486022228039,-4.779939868207721,-3.4074292370303603
-100.0,10.077586034957605,-11.481131116712406,-21.558717151669995,0.6709593161652201,15.779853341492874,-16.49880779254336,0.9098765888227072,9.65154940841202,7.370438395539196,-3.3135968414590034,-7.501847752590022,-5.582990460698438
-99.0,18.47415913954404,14.245782352083191,-4.228376787461477,-16.39138054854896,11.32606416262821,5.026876258709238,6.275190087330881,-0.04194716587434355,9.031788287697257,5.22678999137036,-6.72852017538369,-2.6476932191481675
-98.0,-8.815567894768682,11.488315490948057,20.30388338571582,-1.2923161756856576,-14.576135414415699,15.834184846375692,1.4460344531858624,5.143710379632125,8.6555357657058,7.464384330808831,-2.2603927408064806,-7.009826847725299
-97.0,-21.868205582664427,13.50476696027388,35.37297254293777,4.220877327808864,-28.55552085238498,24.45574208229231,-6.652333663773501,-19.76423512931479,-17.815127672925474,-3.341228983710021,10.84330511461759,-2.4415092132526635
-96.0,-6.957425850946885,21.508543838293214,28.46596968924033,-7.320287513508008,-17.728746560984405,25.005193227873193,-15.105533062421994,5.537957643299912,-3.4559682194103605,-0.8852286133485565,9.56028497547074,-5.269733927605466
-95.0,19.438703963237117,4.9873220114697006,-14.451381951766656,-12.261669945473486,16.9200968915234,-4.712306949642405,-4.7557013679440026,-1.6017625665598016,2.158596725159353,3.876074416570929,-3.7072277828831135,-1.1731858348445507
-94.0,14.983664658056398,-15.239818443194931,-30.223483101250288,0.15670963523985004,22.56890048319401,-22.788354266700495,-1.0973361506826773,1.8757331688056362,-1.4040451658669415,-4.391842553657835,-10.738791265173669,-0.25683401236143233
-93.0,4.130837466402477,-34.681841554540334,-38.81267902094205,15.305848460147601,21.507387455969273,-36.72238934084188,14.87117819464956,4.278566950015788,-1.1019803003206978,-4.455095672128611,-8.223153763844444,4.586790293186392
-92.0,-5.948634882747648,-20.372205453253752,-14.423570570505728,13.195404469236903,4.268540973270358,-17.36960224304451,9.592051825310985,8.401192716027936,11.451857581820983,5.285606738340827,0.936603734862441,16.106234803217113
-91.0,-9.37350951147491,5.412837338591142,14.786346850065947,1.9428040455481828,-12.048202150757303,10.053251028419211,4.573439258771597,5.379540343015548,4.570526764972064,6.859985021853894,9.058410833964011,6.627941840571989
-90.0,-5.3547165741823575,12.147645755145277,17.502362329327088,-3.4281994848915525,-11.469973882785364,14.862257449898099,-4.0212458603494,-8.146503342852096,-4.81133215455065,-1.850916840917459,5.4749459486626835,-6.749663540897453
-89.0,-4.272134001782977,6.770539969949091,11.042673971731148,-1.1988127952223682,-7.689841074531307,8.870471516645896,-6.144132830123445,-1.090399986888948,-0.8258068727748973,-1.8240670897429343,2.9456068792716423,-3.9320948421396222
-88.0,-4.604683193755749,9.501315011167378,14.10599820492221,-2.4768934230794564,-9.37747560292934,11.851671786411512,-4.637983945306003,-1.6869082895401668,-4.9624481152509095,-2.627698624354072,1.5977761389070366,2.154742661712282
-87.0,4.387294365851802,20.564396863679903,16.177102497827704,-12.508129185569315,-5.828772445051426,18.34474047029272,-2.7019959602698416,-10.039914164453606,-2.8502729021309974,-0.2948382194690038,-1.9592835144481136,-4.77410496282097
-86.0,7.060413745883682,7.611521920410292,0.5511081745267499,-7.29533140598512,3.248971506029585,4.05855766415802,4.128955953348703,-5.883009663638549,-0.2675298209999464,-2.183618109424615,-5.134907714653979,-10.402239975906438
-85.0,4.26203947201287,-22.464733001832403,-26.726772473844647,9.057395957734725,15.49171532359395,-24.538609231853062,-0.5843529972359043,8.366837682725995,2.1322268833007216,-2.338932322295412,-9.467026933404341,-11.461299929040461
-84.0,7.499851850690115,-2.564454464354906,-10.064306315044124,-2.4367277143203347,8.777705796820781,-6.337096087405008,5.703550049242439,9.152238469347573,10.96615242560757,6.000728225995277,2.721189278661157,6.444513332427592
-83.0,2.0711200227588398,-5.55910051280415,-7.6302205355622235,1.774183459882769,4.840172938380634,-6.620190103841146,-10.111296247534668,-3.0369635272894016,-12.139938600519042,-4.416485426908678,-0.8414285879521165,12.49876669695127
-82.0,-12.11916249273985,-6.597573328883961,5.521589163856298,9.390416481381067,-8.840052997571235,-0.5667103114130132,-3.3301770625997476,3.4607569140171783,-2.1666508621296217,0.5307288692979178,5.900716680037673,13.214665679610365
-81.0,-7.822317060140577,-1.1973505542127487,6.624966505927684,4.465950327446218,-7.25322226090787,2.762095206184007,7.850028448877568,4.9246872569532,9.471105249903768,8.257757021070505,4.893857331427874,-1.3191576745295173
-80.0,8.355538380010977,14.345644558201245,5.990106178189691,-11.392765929944096,1.223828590201732,10.138762368331536,-2.798088322587879,-5.942776715253783,-2.0068463793319977,-4.718859775253211,-0.2532934950868335,-3.298399647117332
-79.0,2.876083346156687,11.258360460750243,8.382277114592945,-7.031457185349187,-2.716376058063245,9.875086062456113,5.534116930855862,-15.604015365977931,-2.8282897674534784,5.052150006878044,-0.4569429068653572,-4.374083735078242
-78.0,2.9848850438114045,-17.09374264519238,-20.078627689004044,7.008060752094007,11.568059873713082,-18.602068275958143,7.705818586185142,13.064614725793978,4.828218858258871,3.3785906097757556,-3.5242390327883655,-5.1964562164836074
-77.0,-18.925697913351833,-32.17558281859445,-13.249884905242224,25.578376153822536,-2.8780298223080183,-22.719815359314744,4.969389840734974,8.371803029918192,-1.5221085588819225,-9.183720391194651,-5.4194631209361415,-9.715313073828321
-76.0,-1.5789433961211468,13.594070420049956,15.17301381617185,-5.983686835740262,-8.41303235802619,14.382895632057279,-6.517225349076731,3.0797347343652506,-1.4301453565973186,-7.014855865091727,7.586067701181638,1.721324312967746
-75.0,11.997332278897598,29.45186392074881,17.45453164185177,-20.70186579667008,-2.763458841847891,23.4537835290805,-12.656164930033245,-19.33565221366496,-7.985803367459396,-3.9040400816538936,0.3005921111919285,6.831534860660799
-74.0,11.262336984196413,6.620584480354115,-4.641752503842162,-8.994790245006705,7.996779884662023,0.98447031086301,-12.094536280006412,-13.413001228839045,-0.8611579020581988,-2.300170916837612,-13.07555506878051,-3.569814616177359
-73.0,0.1282864507133299,-0.6280225643008901,-0.7563090150146596,0.28183935221497247,0.4084214029937172,-0.708995593277002,7.2064725327046615,21.607000802676353,15.366159758956028,16.9100034096806,2.1672829346728157,10.965077104239356
-72.0,-13.685186420499589,-16.370847214506526,-2.6856607940076733,14.990687491017312,-5.454409258615319,-9.560849952577774,17.371707967626435,-0.497466899349603,-2.4104245616758426,1.5550212986758067,0.8018474656120342,4.406545040297598
-71.0,7.5938352314116875,6.0795445314575165,-1.514290699954815,-6.784580196410528,4.600803342910128,2.313034691310767,-4.633013219763394,8.851518455191139,-1.356690739417624,11.574533235062871,16.013774457009045,3.5709959398138573
-70.0,-4.223370347812095,-2.163212698961879,2.0601576488500095,3.176623435204565,-3.1718698648769226,-0.032717646587293814,-3.1786231902158306,0.18965495178636615,-3.846900493200656,-5.996844732976511,7.638280703503801,-5.970212270716366
-69.0,0.4430353991706446,-9.416617883614073,-9.859653282784482,4.477595686914731,5.122528516395303,-9.623779636443334,-0.4958125985498324,-9.712446706885338,-6.548842481062735,-12.555219920806216,-7.224213183950562,-17.34991510733891
-68.0,-9.814965630613415,-0.06164036676183571,9.753325263852016,4.932958296250902,-9.813436657422379,4.8637814402979265,1.6018773598099973,-0.9840281931864432,6.6072777399684215,-5.480133188709397,-1.717349424617125,-2.186421494802971
-67.0,10.014369987795789,8.441429554854192,-1.572940432941059,-9.233130270920888,5.840428985542274,3.383642510716892,-2.9143394849628486,1.7034374236242602,0.20794053131706836,-4.822849442142992,-11.596087817999233,13.904137999575166
-66.0,-2.612246140157994,8.922091592575708,11.534337732733984,-3.1628607259638457,-7.109590188862189,10.270065691701827,3.1222619320485685,-7.230567512210329,4.8306240714472395,8.081104062914301,-1.17828753894001,11.522306280509435
-65.0,5.20130837759031,-9.514800515357653,-14.71610889294798,2.144854097061418,9.996581549673383,-12.138938534592471,-3.9639597396110084,-1.1952585179564847,-5.056404390798335,1.4426610520122125,-7.279681375388609,-5.270158744475983
-64.0,6.390459928879229,-7.9577836219972085,-14.348243550876626,0.846912667994481,10.32527630393939,-11.166658682097697,10.978203182866949,0.1542482077150737,-2.7557983334989764,6.373085517142584,1.643097497934691,-9.22653418173614
-63.0,-6.633539588636908,-5.171848562859034,1.4616910257776723,5.884911341209284,-4.013497067510506,-1.8644047716111474,1.321993854997695,20.958702154095725,2.6090724491111015,6.74821831458539,11.733034546102346,-3.622576118601817
-62.0,-3.0259549637402197,-10.674462938991791,-7.648507975251718,6.831498904289084,2.3478859714747946,-9.172285697686096,-11.456834833403645,-2.4966909945051246,0.8897647693381029,-8.874411714594205,-4.584647846824103,-6.4862304740614665
-61.0,-5.175188664268219,10.606985072770605,15.782173737038779,-2.734987960620665,-10.515876949379136,13.256419240380657,-4.942554865682124,-3.598092030526406,6.71963306702282,-1.4594122563060772,3.7045731027628914,4.6311100600147785
-60.0,5.958079252432667,20.053909455685318,14.095830203252548,-12.947390779349195,-4.1000095200634386,17.049195749463422,-1.1611442353065446,-7.859013144544062,-11.072520222146336,-9.621108463771574,11.437287422942472,8.590385600553583
-59.0,9.829389198678744,16.807861285559785,6.978472086880957,-13.34160127346309,1.4787021426659472,11.858209865146062,1.7162610166415317,-7.058336200600926,-2.5479616029873338,4.182687093496908,-1.0658706258234036,-0.7923179746851536
-58.0,-7.356394640305458,-5.9687547843861655,1.3876398559192071,6.634523880624422,-4.393543340478349,-2.2547915336802404,9.75681909512915,4.301570173775758,6.103007399799404,9.257213653645527,-10.541302612470279,-2.091973154603607
-57.0,-13.942374297414151,-4.5756805449747855,9.366693752439343,9.224086332483761,-11.674229895632738,2.425622969225789,1.2874296668349974,-1.3880591819062422,2.8784898067652303,3.6987722666722473,-2.803243190656681,2.69613326940909
-56.0,6.718445636600776,-12.759565436145134,-19.478011072745897,3.0568744666963417,13.078510567304237,-16.170288338067888,-3.5872906281128003,-1.7478391927402033,-3.51304141470258,-1.294758452098693,7.353873757523224,13.236413195476374
-55.0,-2.9169106745164077,-13.75301398340831,-10.836103308891728,8.364626900401387,4.017631095520148,-12.267564119057857,12.821715707176962,12.062602515907994,8.583926801389135,-2.054472054588528,5.069689468152346,1.0218913108886272
-54.0,17.646637243274228,3.4425169801867472,-14.204120263087194,-10.519721610077703,15.903689507929919,-5.4307202142448965,-16.04299648972337,-0.9441296030980721,-8.565390327615846,-14.039139949549902,-15.156004030449523,-13.354973541143114
-53.0,3.3429813610505166,1.0350592859386474,-2.307922075111766,-2.2457421352436038,2.803451586225796,-0.604387648922414,-16.8727756589875,-8.996217404737683,-4.873390333534408,-1.1227868625786837,-5.258713927526718,-4.986045110606382
-52.0,-14.403533403568677,-13.137044933931275,1.2664884696372498,13.790868845351856,-7.777905064182097,-5.899567524894247,17.922367203215874,9.987371286178183,6.8939242618768,7.686802589610604,0.6449038376588412,2.624783242127056
-51.0,-15.802321243208233,10.76418648477164,26.566507727979605,2.538732398442202,-21.205620981559967,18.625265129431213,8.328759680013752,-0.4736277608704107,4.1542800773995925,8.316269987487406,11.866148436227302,-3.801996003176135
-50.0,6.931568711827062,13.706744013950164,6.775175302123042,-10.379143166768829,0.05667872747822145,10.280593575326881,1.1903576959445,-0.3232511513088039,-4.605968048395674,-0.8243523361814384,2.6259463737122593,-9.1368615664185
-49.0,20.4827050737324,4.09051893296656,-16.392186140765688,-12.268599334585618,18.4142669400863,-6.192004488873201,-7.776380110459142,2.0317829040438102,-1.1775789040048437,-0.11147845156654301,4.739316926176773,-3.153132335773639
-48.0,-0.09689816290028475,0.3673513192099911,0.4642494821105503,-0.11705762395283248,-0.22802157795720923,0.44801716072049375,-4.9079452651639075,-4.687504581152239,1.9406900264884825,-1.8063350321194291,-7.767331065465899,6.581112083182639
-47.0,-9.073864471993875,6.670064476490493,15.743928948484506,1.2221254274292699,-12.438834462470826,11.152612086862575,4.538046006345506,-15.449708099870302,-4.295890927277303,-4.9057342921020695,-3.1076276986969096,16.92869499128876
-46.0,-1.4311504389630638,0.045114606444432326,1.4762650454076391,0.6391711080225857,-1.4870866464308028,0.7766385437087311,3.4214266236950888,-3.0294486611812106,-9.997497140548237,0.748147843834837,2.8193164809547917,10.903476986573443
-45.0,-3.653412941862013,-12.128745846526515,-8.475332904664644,7.923326814768215,2.454127819667722,-10.292512714197045,-13.01199954735047,14.513354036737383,3.842351283543733,-3.7104852335679444,-3.839054376622684,-5.075807134830507
-44.0,4.476805520127632,-1.3761181121220574,-5.852923632249876,-1.5088633565997016,5.207454789332903,-3.60705342237065,1.682595224805219,6.787272868614818,22.413947808386908,5.6523807118937475,5.050826607987609,-3.871502951796491
-43.0,1.0379199256979925,-4.9011408563086,-5.939060782006852,1.904038265156752,3.4529711849549463,-5.409024383523815,8.434479745775468,5.275613514375702,7.004649104961592,4.147825927081055,1.0598843424260864,-6.809748401815794
-42.0,-13.91075060748278,-36.145745012018736,-22.23499440453623,25.00924914822738,4.127409090625858,-29.170315505988473,8.649018953535984,-0.2296506940074936,-20.69551970773184,-12.017649298776558,-12.907789296006609,-15.353159992004347
-41.0,7.2471517036293776,13.457934435221523,6.2107827315919195,-10.365243738200853,0.5619749913767731,9.788129385624856,5.705999776270446,-2.0330742826389807,-2.894705644703712,8.842632906333044,9.502887876833885,4.489364251246377
-40.0,9.74067682925671,30.70354577186984,20.962868942613003,-20.231119452499296,-5.648200176309363,25.878807026788117,-16.37224829376429,-10.300502167870144,-3.474083738800518,9.154173055156315,10.03663290185547,9.064679552510727
-39.0,4.321505458762381,18.120345394906266,13.798839936143915,-11.228444906452667,-4.701180075691462,15.937185692367018,-6.718976945345042,-7.492642693933089,4.875357177890708,-0.010058325491060671,0.04191557584658945,2.873410772438378
-38.0,-3.005798423486388,-1.5106954773683121,1.4951029461182301,2.3293771597889217,-2.2971959644606392,-0.02386727031344016,1.5155850167863472,3.8253893087062805,1.1041184991046613,-11.057246620183747,-11.118710343562379,-3.446557705607689
-37.0,-4.072845465195747,-11.1464453856482,-7.073599920452211,7.600577294099144,1.526889143777156,-9.124718162073412,-1.8856495733511978,5.2170465785452755,-9.152119801738635,-11.996450973940345,-10.937450343527376,-5.937086161763055
-36.0,-7.3608795530953275,-2.558021732821686,4.802857820273913,4.947227075371857,-6.059311241999984,1.1051879386626187,3.776667818050789,-7.001243375595935,-2.15293893508116,-3.737956138260601,5.383741644498389,0.8026507322033812
-35.0,-1.2430337067098134,-7.18397506545035,-5.9409413587403685,4.195769550164253,2.291630924888494,-6.505266672999273,8.995427399206331,9.551646191052255,15.494144691465088,11.516707857061713,1.5568617015600745,4.99860865283816
-34.0,-0.060381018973520884,-16.42564993363306,-16.365268914659456,8.217103918474058,8.176099185532001,-16.420892423363494,4.487864225406324,5.538582037266501,13.791224457611918,11.464216096741467,7.511099448815315,4.373809224590251
-33.0,10.735692692749396,10.914850239953509,0.17915754720417176,-10.782728606005168,5.306944872409586,5.598389870481003,-3.454362254004248,5.975834905063581,0.9312410191949283,4.516075721242635,9.203665316520617,6.9995992143227115
-32.0,1.1151092104782467,0.01564460475542706,-1.0994646057228499,-0.6125127524051868,1.1420746506244042,-0.5689630312522476,-2.558453658629752,-1.7402526877166098,-13.666963296173929,-0.8934422643883537,-2.160436802713443,-0.066039870285995
-31.0,-7.863394738964554,-9.83515337810604,-1.971758639141599,8.871354951326268,-2.9850031480384875,-5.928695373827159,0.6023910183068315,-21.623984995171277,-15.73541588308803,-7.758972031023354,-6.484044357284144,-14.196180404994653
-30.0,-4.887923097688516,-0.06426070457857413,4.823662393109662,2.4919212219311797,-4.893801249430139,2.3565359201339047,-3.0453417361516744,6.610925792828933,7.088298528639123,3.991668182606409,-4.485362074563384,-3.032433101752199
-29.0,10.528564628696628,19.843935210946093,9.315370582249134,-15.172311212180974,0.6437837202566481,14.636383309216523,-6.926707951243239,-2.582436441778645,0.30041541358406687,-12.19304651987067,-4.830413572200893,0.46052919767865186
-28.0,-1.0069720097692114,19.685603294315225,20.692575304084183,-9.322970503576533,-10.899014124583793,20.166473407763217,-2.216354637104849,1.8379316020404215,0.21516436027535457,-2.9006824802840416,6.575157375245308,4.3385731454109076
-27.0,-0.6454855728236848,-2.564810504241005,-1.9193249314174254,1.5483878576101349,0.6568771810931127,-2.267372649228564,4.255151677465628,0.16826123529225345,-3.375142414264694,3.7901447648487068,1.488538889871049,2.674437669355902
-26.0,0.43933977883980346,-13.811078426105631,-14.250418204945376,6.715209836933875,7.356505259081418,-13.982017470600045,0.5384218658844251,5.557854571087757,3.4598233234255025,2.8634790260597214,-1.6189406496071135,1.8305802598261929
-25.0,-0.4713708333480362,-13.266534338661398,-12.79516350531318,6.82717052170509,6.16919247827175,-13.067199073534669,6.614027429256437,5.562393497720387,7.319285899091632,3.101676137778158,-0.1770683496696961,-1.2006697671680855
-24.0,3.8932051993045196,-7.820091841457748,-11.713297040761985,2.0073208546443277,7.811610982606245,-9.73156465162403,2.1856830734555435,-3.8597098939726706,-2.967446222548432,-8.925588323776278,-7.868816591389015,-5.013280579550223
-23.0,0.6872703245975071,-6.285867285679648,-6.973137610276959,2.7700597407963925,3.84447603745977,-6.680443818273134,6.168813468181603,3.574384131680454,2.38971983737245,1.2895847781300736,-4.188378277362857,-6.844127756765225
-22.0,-11.000432439169863,8.361615235044656,19.362047674214732,1.372970030975585,-15.158486849418438,13.883281873492269,-10.852219065288345,-1.7764564888568448,2.876716530788495,9.277138277732362,10.600838467839262,8.072731190709874
-21.0,-11.388442559222621,12.901845446851333,24.2902880060741,-0.779627955291216,-17.887428634249396,18.6131050248341,-3.873341963668513,-1.9989682421620365,-0.3221456796404545,9.645826345729294,12.713146441534025,4.8809807081417125
-20.0,10.11185562840264,10.366551694107155,0.25469606570453784,-10.26173497865129,4.885174797092091,5.325937617110107,-2.1784611194515193,-5.844327690104682,-5.997913272310109,-0.5101304031302963,1.2997968563262785,2.1648279217021202
-19.0,8.259461721652666,2.956441754694298,-5.3030199669584235,-5.631779458138487,6.8166484338346045,-1.2354442835331785,5.717388216739043,-4.996543561179131,-2.3695060160453076,0.11161513932195355,2.1140096356437694,11.253028050641415
-18.0,3.7714336671249455,-16.592396903964584,-20.36383057108966,6.462892620958289,12.09897417283391,-18.457444171155576,7.472551571057277,-4.010271704635365,2.64608541509138,-16.116652448777643,-14.29823607256008,-5.336145960089038
-17.0,-0.5052405883002051,-8.097773412144392,-7.592532823844321,4.272081507835281,3.4899750563261156,-7.818407721089713,-3.890400085187233,-5.967204016940443,0.5008124779853137,-2.5910195422323206,-3.7853046689958845,-19.830389893099554
-16.0,2.950127995446686,14.559939571672924,11.609811576226106,-8.708798318629725,-4.310621621900736,13.11836129264576,-12.024489167458107,17.902564634257338,0.1338348160648608,1.3039458378344038,-2.5409247680738014,-3.448731905631499
-15.0,-4.438264066305675,3.839450919197896,8.27771498550348,0.2641696037880209,-6.3418820041782755,6.019091883602831,3.166222220517453,14.996666090465112,-6.049155154398564,-2.3261320895020914,0.913232830307882,6.440466983764098
-14.0,-17.488139465421316,-8.388075915944508,9.100063549476767,12.900710264738358,-13.277059255209156,0.3198901050106784,1.614157978636475,-2.0041872029532968,-1.3767111016192473,4.42326545020016,8.157685506841657,-1.6428973659161201
-13.0,8.890915639794876,-11.001291196241818,-19.892206836036582,1.0950648299605898,14.413473595432661,-15.403736588414548,2.117700094358058,3.048235909675786,2.9964085135764877,-1.2836218078715405,-7.338293861548321,3.1637261999473663
-12.0,7.533416414349803,0.527607189225527,-7.005809225124104,-3.991318862975013,7.220227242915829,-3.2770356117395534,13.947826312450546,-5.523654152497221,5.077535279616022,4.7388932865286275,-5.575787278702014,8.50472952951434
-11.0,3.1656868766812134,9.71385133716853,6.548164460487412,-6.479110064702946,-1.7325950089957658,8.16848017043889,-4.190790860811168,-7.628555815525755,0.8651674526025204,3.529065416695977,3.2901215285239176,14.154378013349138
-10.0,-10.60851862679759,-7.046416385632798,3.5621022411646694,8.789406335313505,-7.041306383205212,-1.78606686847154,-9.58111935881546,-15.270438219059196,7.346839240140697,4.90031456549759,8.901459297998654,-12.389518335527622
-9.0,7.7947608163059465,13.200233981138313,5.405473164832251,-10.454200177646241,1.2422911025269299,9.337377623847669,-3.5076513960155618,-0.10263073591374638,0.5099641397646542,1.022155032048829,18.500611008280384,-8.352144599932743
-8.0,2.3582164176146216,7.870022317370751,5.511805899756102,-5.145358512228285,-1.6080982531331491,6.728179626645105,-1.1451286181291773,2.2172867865763366,-3.4310340118854583,-8.56575166253603,-9.407419048664114,0.03242276749036588
-7.0,-12.490900687240007,-22.04367901037844,-9.552778323138176,17.32066154071515,-1.5044371276473278,-15.83432735254866,3.9476482166855162,1.6093915071337799,-15.236717189594449,-11.015187591057051,-20.011311937784217,-6.912034585150351
-6.0,11.894782505503615,-0.27581031497291875,-12.170592820476084,-5.8277822163126345,12.069107970798417,-6.252689421865919,-0.5676377032863118,15.169527937413452,-4.165497977240084,3.2324290702765524,0.8433004106412874,-0.3058347500434655
-5.0,0.6970314019034993,26.01415086548333,25.317119463580358,-13.366494926734942,-12.360226579309463,25.720815651354997,-1.5473888009613845,2.6478669312298777,-0.7894816755514786,2.6098547137821813,7.698176738225883,16.387409722109552
-4.0,2.8165234049705132,3.134366290503385,0.317842885533024,-2.979801565703373,1.271725488952097,1.7059869731831183,4.706341866505668,-0.4490610079044197,14.570807279637958,8.113956394356844,8.248649350824268,-0.41546375178559813
-3.0,-13.129433174227072,-37.07738089690866,-23.947947722682073,25.103710400905637,5.429539575192448,-30.532866474398915,25.698250278953356,1.3202723877867684,10.300051533718477,3.1448866511700313,-6.5582920458739595,-13.02116517242117
-2.0,-20.42826156455505,-14.227621263359417,6.200640301194722,17.33037081711139,-13.290770058923474,-4.037358022488069,-10.032659024068384,-24.398192319161115,-8.224315026983316,-2.387407430418972,-11.068200230727653,6.115223572596189
-1.0,1.3027001910421765,20.31142355830704,19.00872336726413,-10.80519337736829,-8.899292258803003,19.708654138336364,-21.776861722567645,-12.194288406610266,3.8876077588320825,-2.7943915386821643,7.424515995403126,7.5198564774010865
0.0,22.55965638203904,23.53197069635837,0.9723143143190534,-23.046922535888182,10.838642370075164,12.214557891908356,-10.953799086976968,27.168982089158526,3.1023751204594436,-4.248632083709337,1.605220075759814,-8.005202469710555
1.0,11.255057251324763,21.971611860655017,10.71655460933031,-16.619318517320565,0.24893599250086762,16.378210055436618,-3.4003098300627075,3.315125513857323,-20.032392041432985,-5.338730034869293,12.187254285196861,10.444137215713786
2.0,13.6092556083708,-10.986834969599514,-24.59609057796971,-1.3234067875531714,19.09377334906355,-17.763057344082156,7.2020268924123885,7.0663649200092244,-2.3222817729557663,4.635345949189222,-5.933823058707301,-2.0715588367198507
3.0,15.865306043110504,-31.62375449314184,-47.48906053625137,7.938661914085112,31.675263252574467,-39.610945503125144,3.7688633842059422,-2.914564644059656,6.0698911032256095,4.395927489300071,-5.596889718577666,-11.442001261084943
4.0,-29.740591382003778,-26.89398375421642,2.8466076277885897,28.290231102201954,-16.294077909293698,-12.002450011933673,15.298571137295967,3.0285854500292295,11.714251636992445,5.648717004048855,-2.0571618374278926,-5.516534316341077
5.0,-8.259684935863307,7.697610595152492,15.957295531017005,0.2458755048466692,-12.112632492614189,11.846552916813176,9.719117192679555,12.149032830823801,6.3182453633230935,-1.660599876912837,-6.142807361341341,5.453262849342583
6.0,-12.99994834437441,21.072913550979486,34.072861895354286,-4.000852346056794,-23.547594038905814,27.51189287804922,1.9768824369740732,-17.33641943958869,-11.719113991894417,-12.538398103136291,-0.4307523457957477,-1.2194197248632248
7.0,-4.776916132718334,14.628033845544756,19.404949978262014,-4.975611253747929,-12.110212733361877,17.034156315628735,-9.315520293621676,-12.650254548096477,1.4100122188882085,1.8533664341654421,5.311823445794319,-2.1241789841936694
8.0,-13.545422033265558,12.664155034851532,26.209577068114957,0.46450321472260825,-19.82510519209846,19.456460925419297,-6.666834159688927,-5.962461902125708,2.7117767782532782,11.293769007528642,13.066286771252164,1.8188977731453781
9.0,-9.931229481471423,1.490046836574062,11.421276318043372,4.24257187388261,-10.628906265612603,6.4798111413558495,0.3848843446464514,-2.5831255938197533,7.539331351469133,2.60641069200954,0.5556760392450482,18.146621092356558
10.0,18.90031689853116,-30.62442533804563,-49.524742236577815,5.885181877610269,34.17783115365889,-40.12206576041826,1.7737104993277821,-7.495939993885697,-25.88938437747113,-16.90263076057802,-17.909614147277715,-3.202783798245548
11.0,25.859057148720034,-19.244827685514267,-45.10388483423385,-3.359425210499365,35.44410661181324,-32.13439813498729,-5.976734709516709,8.003407347658928,-10.912952958909951,-11.486003046005536,-1.1268330617737305,-5.655491615846588
12.0,25.293782395489828,14.099279814332593,-11.194502581155508,-19.666257001365803,18.203612649462226,1.4220148072802168,-8.263374446539924,4.113325265510015,20.827906704050484,25.588313090940524,14.610217021559688,0.7382148577499281
13.0,27.491756016678508,23.60344959991968,-3.888306416757316,-25.514808645521416,15.724125421231388,9.911809928792366,-10.656994711476402,20.012616444321658,6.61078956162192,6.5250240643947395,2.0783559828734646,-1.41685317345026
14.0,-14.384448179152097,4.54287137845351,18.927319557606165,4.8747433429945115,-16.62656602225269,11.711834550824864,5.2448427938756,19.006601925721338,4.548125094033832,-13.240453558934796,-5.519882954625103,-1.1614992782231925
15.0,-37.204141143066636,0.2886365773482633,37.49277772041488,18.408869298095865,-37.32386807413854,18.863036981899086,6.4285475223303905,5.00398944924941,6.339985475043907,5.855079439212178,6.1582505333353845,-0.7862415227690447
16.0,-33.70767971166292,-14.704156318138965,19.00352339352334,24.231387899216976,-26.413804036961984,2.112503882474746,12.135367607423122,-16.242446851076988,-0.05018005495295341,2.4845018307090196,-8.060828612003057,-10.760464936853964
17.0,2.2846479302058995,-13.133860267758157,-15.41850819796456,5.446180945884976,8.869113168695048,-14.246981694074647,12.840470826594771,-16.554943092245185,-6.335226938552638,-7.4327564492279645,-9.951953037586453,-7.833021606131786
18.0,11.548916775904845,4.596597352165613,-6.95231942373953,-8.05257842228754,9.266281912717346,-1.160577571971662,0.046624336155757895,-14.943978209232847,-9.978072227643484,-3.3385351082257646,1.7916540056960155,6.977549119723653
19.0,-8.405335110768032,-11.263701676992266,-2.858366566224417,9.856802447086627,-2.7585185185695646,-7.051942148582778,5.63766372412419,1.694727446146393,-0.11247833887996084,-5.371073700443736,-6.826866765365482,9.526305988055558
20.0,-1.1551461780069339,2.763069413462599,3.918215591469311,-0.8552455502838061,-2.599881315391924,3.3474396018089365,-11.823552447299654,1.932477866004401,-6.580253009966501,-1.4771729230933892,3.5071922658795027,3.599025403071039
21.0,29.662013919041662,23.17744141645173,-6.484572502590593,-26.385624836811576,18.090949384252376,8.357267944699027,-16.938912719915315,3.128586404901391,-6.706532623466433,-0.9007900846814151,2.4157268849875484,8.931657440293062
22.0,5.5809037903264915,25.710111249292908,20.129207458965784,-15.684186340885047,-7.252614980043425,22.860804517456845,-9.1458625634211,-10.823964087788042,3.214267242631442,18.371565415328618,37.27334774379279,14.460828750078427
23.0,-0.012245735789196743,-21.647283984864295,-21.63503824907537,10.873316052801796,10.838578874834969,-21.609743067288505,-1.5844825899215929,-1.9282341176908635,3.7138873950766045,-1.5512977387813942,-0.3462378235441417,-20.11971409427628
24.0,-9.25566574775398,-11.072826056618677,-1.8171603088645671,10.129134102474435,-3.763907488860208,-6.402685532541846,12.486273857669428,-0.8312015897392726,10.153633781176236,3.3008449490545946,-10.825149452187498,4.125006797052579
25.0,16.73349200667689,4.446215387842251,-12.287276618834312,-10.628025793315384,14.551685925948146,-3.949544523841776,16.3457856837819,49.25699094103702,27.751218850520015,4.193744525631141,-19.85179341749737,-16.30228315156254
26.0,-11.05659185956252,-13.087252218706027,-2.0306603591430163,12.107467854978378,-4.544080544882895,-7.585805512776089,-14.581443495067322,22.169611875067645,18.275935728672152,7.44220866072767,-7.314451366578416,-2.533554556677922
27.0,-10.380940429032686,-14.073063662305488,-3.692123233272227,12.25705215956474,-3.3710361456182003,-8.912778867018497,-3.2322146075795746,-2.247813669213808,-22.27026683996461,-8.67595591579811,-3.5183530463911863,-3.338770658025417
28.0,14.626766586121434,19.24264183643939,4.615875250318336,-16.909448915693766,5.059713481606943,11.970382849891205,5.829962169348098,-32.50600025098894,-45.339926330910245,-33.7775723104129,-8.946880253187098,-0.8618120347119929
29.0,-15.342221437187108,-7.18064984838394,8.161571588803197,11.204298766737047,-11.776524277166546,0.5225677064539376,12.127817019239362,-34.27516536347271,-26.128144865484504,-18.290712171441857,-2.0959818616170685,-7.0872635942995235
30.0,-12.46876039846824,7.855064008088395,20.32382440655629,2.325833189102516,-16.422889234997836,14.034992711612787,4.7858792327516015,-19.634569675522133,24.447351807266777,23.124313911342462,21.83665833229968,12.874660036859906
31.0,-3.9454488846880635,2.2053067291312045,6.150755613818755,0.8871666546914456,-4.999094219283082,4.1979024692003835,-10.530312792139375,4.806978054658894,13.022949156874697,17.99858950901015,11.428898150512103,15.555456313415615
32.0,12.374635282132012,15.60993734947893,3.2353020673463977,-14.055066463757635,4.536185014723043,9.442402405887407,-10.269869925214527,24.706190477899288,22.289243126713316,14.26260514158661,13.518435054964726,12.556073657721516
33.0,4.995325088455516,-1.6831608222325989,-6.678485910688337,-1.6400215898756692,5.878195476293165,-4.1572403070541615,-0.1118583609409578,6.398352547311472,1.1893750245597374,-2.992577808982018,-5.389785112441338,-2.9288267527701013
34.0,1.766295608571438,1.8486768344696558,0.08238122589836117,-1.7895217267107864,0.8004142169622952,0.9164595110246303,1.2251632355378415,2.693912456716877,2.4926002667699,1.4620774637206089,-4.7598189110943965,1.778321598183572
35.0,-5.1269608451088935,-12.072877941512694,-6.9459170964035,8.621795390782689,0.9425789038797507,-9.473402571636107,-4.803297429364927,3.6235099536524835,-9.90245956969567,-1.2364024829891065,-5.325981289809986,-6.593993477928087
36.0,16.088729753062022,-10.60361519740962,-26.692344950471426,-2.7154169230047462,21.341009086299337,-18.685978829806942,1.3780702294041376,12.200458579159728,-4.697304666325463,-7.655888268388602,-15.48900363409197,-20.4598758314865
37.0,6.32859043426517,-8.132473846979787,-14.46106428124493,0.8554662701622544,10.420936322388808,-11.33246227957239,10.642149013635974,-1.3965556476243477,-11.859210293646218,-15.285819652595192,-2.812978883439156,-9.7122108408229
38.0,-5.9036566835993725,-2.5500329611355053,3.353623722463894,4.262393070353223,-4.60413282028676,0.4447986300601112,1.4601315440517126,-4.672182072783729,-0.8728076473427944,-11.351479413799536,-9.22131882702973,-10.965450081262327
39.0,-9.30647746842591,12.50432921665045,21.810806685076475,-1.6418258348587305,-15.612287280677352,17.19886370690248,4.9926357109941835,-4.708585563516609,6.602483356293614,10.403809503376195,7.2166722928513325,10.252573321171884
40.0,-11.834724226931609,11.689305799264218,23.52403002619601,0.027312918339029407,-17.651175626473155,17.566618656658893,-7.735948252088168,-7.672663004257988,11.436411168113194,13.128384440967448,12.306918233308565,16.387293734285322
41.0,-2.3547231745843558,-4.071758870200546,-1.7170356956160617,3.2428020973925613,-0.2853960905139381,-2.8587055909569514,-8.352447509399045,-2.425858601169246,-2.554839752827018,7.284389781533748,7.232250542973427,10.346389415945616
42.0,11.015474806174769,2.0496449087282347,-8.965829897446575,-6.505941548491563,9.95168247714233,-3.504371554971677,6.113513782119262,3.3092735814344865,0.38159091991316085,0.15534395123259515,2.7164920619938737,1.0441286915392887
43.0,3.6351580654867206,3.320591060801486,-0.31456700468548515,-3.4516315593189617,2.020523988636782,1.532253920311534,6.223749781808245,-5.583440535195571,-0.5995571063773352,-1.4501102690817467,12.055054830214932,5.087033814302247
44.0,-2.231559264367206,3.4490540979545816,5.680613362321411,-0.5798632811370787,-3.9852289867798287,4.512531337797128,-9.070038608192913,2.5947370143999553,-5.68173251132479,0.9616876203559546,-13.12937376931065,-5.976597848735901
45.0,-1.6648129182111897,-2.3810646916193656,-0.7162517734083833,1.9778044687260725,-0.5022245927450415,-1.5239110480853886,1.0283123645329755,2.573186372217231,6.4816588567221425,-9.128125992751023,-9.058230193992543,-3.471889269854339
46.0,-0.9286276498130317,-17.068845509162326,-16.140217859349207,8.958777017171027,7.576551237025541,-16.579832399252513,-4.190993570230385,2.3155321852497943,-12.310401704666068,-13.423631128985818,-10.92333522075606,-3.3659830436075584
47.0,-3.6995566532074178,-6.843356453284548,-3.143799800076912,5.314462267410463,-0.23096870733942065,-4.967227874920957,3.1899980104001022,-11.431410950013813,-3.662844972826837,0.8579642794688844,4.682816953708834,-4.8511771145367755
48.0,12.383803649083369,2.0069374924065064,-10.37686615667681,-7.228324704770788,11.424919066710013,-4.23468626783292,5.816071981906257,17.530480961584463,-8.78388417390681,2.2220030470656456,-3.060048491293724,-12.49586299607998
49.0,3.3568545902843976,13.483063526069373,10.126208935784728,-8.451006059976763,-3.419696437131882,11.836150134894403,7.025902946286456,7.230606462255558,14.306133230897421,10.213048753184735,5.35494953150298,5.452248353051239
50.0,-4.7606221840073175,-0.9397893986857886,3.8208327853211266,2.8999537117448195,-4.324764804858361,1.3942705289649524,-5.952566009467746,-1.5862434743787488,29.09795277193969,20.104409615047558,16.27476487377647,5.868717668166333
51.0,-5.062232690463722,10.332143750749593,15.394376441213009,-2.5823213060615173,-10.181302109835272,12.894332907630737,-15.54905654047292,-15.857902977953696,0.13585558212095528,-6.058433187556032,-2.539112868564006,9.19536381463487
52.0,-14.387644737543004,3.1895987708017812,17.57724350834487,5.576452282947493,-16.01174867700261,10.410466801046375,8.074862028613085,-8.1206374524048,-16.443425905264498,-8.51048816413559,-4.15424406644878,-0.19842301449314625
53.0,12.21274156168733,-2.662991252026499,-14.875732813713363,-4.7942683849953,13.594934530380884,-8.82706575702695,7.814786626217273,7.752222150394028,-8.595174483945314,-5.633407616242705,-6.090053417149986,-6.759715901955966
54.0,12.024428579182347,-9.770880068092204,-21.795308647273963,-1.14459536152238,16.880880749529272,-15.768676192045227,-2.591219001784393,6.1974562388628796,-17.74922317137029,-12.53391465532754,-5.586119760503337,1.8078485015633907
55.0,-14.553855566247268,-15.821046255269012,-1.2671906890213496,15.168924515817087,-6.6755647609531135,-8.535203692028983,0.9296623508909108,9.70852542409505,2.0072512063531107,0.6803713130501974,5.427967261245446,2.8307002261447742
56.0,-4.7899755317190245,-3.3752670077069604,1.4147085240120063,4.0613920859103505,-3.139115974296713,-0.9740552445266308,-5.307190867767732,-2.510124281502092,14.834883294636995,3.532552242946736,-2.9259046115491687,5.389724455149197
57.0,11.442945228526167,18.289263684019126,6.846318455492541,-14.812292003901973,2.3363226847611585,12.575251447602206,4.360048307832712,-30.89330818003489,7.877165923690276,20.999576452766178,9.059486673046834,-5.544486856597625
58.0,15.420570177937227,15.03176603773921,-0.3888041401984186,-15.176014534832225,7.941226787282059,7.334308886084093,4.566046591482013,20.5635322739936,6.71318588127781,3.2589469785948317,4.615180189979443,-10.749382134842232
59.0,-10.277006694982415,0.9923083107315538,11.26931500571386,4.610704163211629,-10.734556073397215,6.073635109071842,-4.434435747812957,5.287145210983295,-9.083055484766444,-14.622868233840682,-10.280782039086013,-0.1796860214121807
60.0,-10.21516876979674,-13.024239726561134,-2.809070956764261,11.585606313744535,-3.7379173562163532,-7.884461037486952,-21.90922813955642,-7.713609535940591,-10.123847621296756,-8.091788295582873,-1.7953432358978891,5.372752143192949
61.0,-6.114529627153055,-7.055005251811387,-0.9404756246580741,6.548566204025489,-2.61481671691202,-3.954949544475136,17.116014458595178,3.2757212389310237,4.447815466692494,2.2633626053634783,-1.2228783439334547,1.3166906368356606
62.0,-0.4832296092304995,-3.2653846793061976,-2.7821550700755,1.9149957805031428,1.1288399121467296,-3.0510154113337475,11.33386688679785,9.306226496668417,2.2370689681446594,4.428007996615866,6.747079351147017,11.602573786174515
63.0,9.278541434522017,-4.666037639570053,-13.94457907409217,-2.267065850559837,11.59690175342976,-9.327045406266562,2.3844329989032635,0.3259295768325128,4.062834833988606,7.016973541378755,-0.3873895475206113,3.8011820874909463
64.0,-1.699272974794539,-11.31156068401517,-9.6122877092211,6.464884514218872,4.0247474180433205,-10.481730633663396,-2.153942538723712,-3.376740948699434,-1.415505367529097,-2.7453601296817136,-2.4958684872960957,-12.823361829306501
65.0,3.0293579929477885,9.416009430216608,6.386651437268162,-6.184787059092717,-1.6869586575016773,7.880517790903233,-8.569392803324737,-7.846247908341028,2.1634069009974404,-3.545826630129585,-3.0120458312343525,-10.431172698830533
66.0,7.561323937764523,33.63140455587143,26.070080618106452,-20.636785354193883,-9.262408011689653,29.90596010226566,-5.553488733404862,-5.649163058175151,6.124859346795059,4.319159624017818,5.042536506691824,3.653637194894393
67.0,1.2295001471894857,17.524076369953377,16.294576222764086,-9.415801448183398,-7.542110661179431,16.96119299324166,0.3937193213153938,-3.0661404673472337,-23.424981656017103,-11.90025418311812,-0.3595984197824127,-6.221611992690632
68.0,-11.935589949305427,-4.09766010863029,7.837929840675956,8.059048993334828,-9.899459329906511,1.8396803618284547,-4.527727792004723,-6.48796615068283,-6.07427992996615,-4.716632984581086,1.372167371695245,-4.698320826778451
69.0,-5.628768535267819,-28.623964352137815,-22.995195816868677,17.172870283860593,8.666289898467852,-25.84405990286955,2.5254458169797416,14.706010766560267,10.402690030176718,4.6989239821328095,-6.9043527297949385,18.952916047784814
70.0,21.6967401651374,-9.899007377069964,-31.595747542206084,-5.926034832452187,26.703391099849785,-20.78671677876579,1.9478071910324681,17.29986519769153,14.94696677108229,17.24729308777443,3.237501470688051,19.52782022755442
71.0,-4.683379883868081,-20.203285408129403,-15.519905524260867,12.421256941419069,5.392068036417118,-17.827899381970568,9.292506039847026,-3.2449376713933518,-6.369218437267346,-2.7891525881813335,-5.25962116765992,-1.9989315358459185
72.0,-24.081459464131807,-4.310825215620548,19.770634248510632,14.177854108964345,-21.95656527042471,7.757494354434861,8.167265285711148,5.773607637485833,15.001754855332731,1.9796557468723965,14.679995439555174,-9.605998640122543
73.0,-8.026006042171051,3.1579976397312493,11.184003681901128,2.4957104675803468,-9.56110456001909,7.192802763427683,9.48061879539949,-15.088330964697475,0.15443710791966314,5.088637643881233,-1.9448721817273746,-15.742368929622595
74.0,21.00094181532581,26.821740271801637,5.820798456474719,-23.93044237357033,7.629043244106517,16.25951122673272,-13.816772013386132,-6.200706890464619,-12.12949272754804,-15.308156275273218,-1.8314767949849071,-9.631748396517642
75.0,4.469407271559893,15.001475156103709,10.532067884543332,-9.759887587264803,-3.0771453794195565,12.780399217961486,-10.446843628155388,-6.727801632798103,-11.433313334379196,-11.258236312550899,-4.705313257453559,9.091532907382941
76.0,4.43104431815187,3.7286600074231355,-0.7023843107285126,-4.112004174625568,2.5138529063325588,1.5251126463221212,-16.148411675304096,-6.943406745080305,-4.632737356720685,-1.6410831751580073,-7.379635815052711,3.9757278866727894
77.0,4.117400348358526,3.374082692862879,-0.7433176554949595,-3.7075110687794286,2.449256144318687,1.327471805306672,0.6925665976953859,13.175574338192412,-0.8602208277891021,5.834994279325063,-0.07428672892356358,-6.691709024527125
78.0,8.97631460455747,-2.944548469204178,-11.920863073760975,-2.9846869603648347,10.462421673420932,-7.4188942460222265,6.43148846321438,-1.2889435017929411,10.251876553705875,5.996765208262221,-0.24911763241910478,-3.2210760478299405
79.0,-16.81111285777234,-17.910049613747674,-1.0989367559750285,17.30896868357006,-7.843437617890649,-9.56642080523458,15.63590852657336,13.871004643305875,9.517758349118989,5.704981794423561,9.159906401498267,13.551698433336664
80.0,-12.49385620234017,-13.680832997562304,-1.1869767952220611,13.114158534473042,-5.636985318474999,-7.413160868978856,6.149424018391606,5.0031822025097,3.8681442612494283,8.12742125553078,7.903512378252737,2.8228636420372855
81.0,-2.2587992779370323,-2.918964094261936,-0.6601648163249867,2.618783610116118,-0.7744412081408685,-1.7643791384622016,8.260859407580451,2.944681904980455,-2.3513961664093848,6.174215679255152,-5.2569912560067795,0.30631195327584115
82.0,-4.605707438857646,6.766099547817348,11.37180698667484,-1.1237665351299138,-8.031420558845292,9.09866314386906,-11.071006307506757,-12.832566532422891,-8.224321561076195,-16.572353198024206,1.4645181028117,13.737965060563091
83.0,11.54290314195531,-7.981096461496693,-19.523999603452186,-1.7398709693013146,15.502105324499656,-13.79746191721232,-8.737121154190682,-0.9495381644206669,4.698992779007109,-1.623853132989634,-2.044827082043513,2.1934763882174684
84.0,17.48955381729884,11.346118921671863,-6.143434895627109,-14.450479731681094,11.872651514958225,2.5597303934376114,-3.615328447147318,-8.33445010444362,3.025899530959018,7.273334413603191,-2.1164259095880875,-7.98141887717421
85.0,-14.548280405713129,2.664927311844499,17.213207717557623,5.912755498991702,-15.899056028906125,9.978408939031295,8.093917346403192,-9.47902094471532,-15.969602766599138,-15.97315134293785,-10.796190904040316,-26.225989384199853
86.0,-1.8982833624638962,13.531651953398162,15.429935315862156,-5.842935953488228,-8.683325143095097,14.521061161337173,-7.792917923493957,0.3005754662342084,-11.37418149276901,-8.45885809077921,-4.774991887721912,-11.317619078119154
87.0,19.1568745316364,9.923544008358189,-9.23333052327813,-14.485385188010609,14.170354183708884,0.3060531921376679,-13.251281511389987,15.282132775376251,8.507533917471177,3.005530439824498,12.463275338533283,-0.542672278131727
88.0,-1.0383601304645964,5.098456374394772,6.1368165048593815,-1.9729168469134664,-3.54219048635479,5.6549986094756495,11.944894122472865,6.030909136489397,23.60014851928785,21.7672017599202,16.224422194313135,13.486538687567165
89.0,-20.49454358866059,-15.510358595182774,4.984184993477735,17.98247013749828,-12.703580782665286,-5.308631282115353,8.654499017680749,-2.7059115309286756,-2.3175255177872387,-1.959470271636535,-7.042039155236353,16.632742198267422
90.0,4.6913773231672025,-7.141138305031495,-11.832515628198957,1.2043366598808234,8.210419348202072,-9.459079725946308,-0.5422533863128871,0.7672563496021073,-10.230806736628416,-0.21005035650791548,-10.401189748400789,6.1735135260757446
91.0,-4.946762616469182,-24.03791257954641,-19.091149963077463,14.467415961005976,7.093673333920112,-21.620987779850466,3.4215634864123174,4.913916565601295,1.6640682970170388,1.0653543442930316,-4.352078125163965,4.287250025000319
92.0,-6.421668002430332,-1.448133170833322,4.973534831596917,3.901087398245092,-5.756472200840513,1.7814335249650863,0.17014793308009335,-5.123362077263878,-3.3118119930438783,1.478794623261261,6.926479571652673,1.0290185357413266
93.0,0.910887966026088,-4.8106075339335135,-5.721495499959433,1.9821817603746354,3.339317800679142,-5.247159396112923,2.9972850422860704,-8.031120988584245,0.4925042540538618,-11.822927946796813,-2.5096442436270925,-9.079836707237895
94.0,19.786583376978538,19.542117515696248,-0.24446586128205094,-19.646239382814226,10.046487999649546,9.67253365503733,-4.587698321188725,3.7661386508782595,13.437672191118063,12.010323985566014,16.88179455497899,-0.8705648810134523
95.0,-3.2765603120602584,17.911792721140543,21.1883530332009,-7.312558981018547,-12.19059774779949,19.58273486942678,2.9828160775802424,2.4705581891610944,2.249641155240215,-1.8271648891484622,-9.492737012696644,-8.791632566702559
96.0,0.9093242769048433,6.836570790289764,5.927246513384864,-3.877249690716657,-2.5346153816397585,6.347032263000324,-6.515592227092184,-1.1268054489463122,-13.811560462180333,-10.926841535117585,-7.601765811905885,-12.990782706655962
97.0,4.910379788112208,2.232545125087716,-2.6778346630246754,-3.579727707007761,3.7768500075474996,-0.246527268666334,-21.871619276530502,-13.97079531770151,-14.369774351550026,-4.235913179493904,-5.4095400452315445,-4.6699002592162016
98.0,-8.613708335729928,-9.291014097010862,-0.6773057612811528,8.946101738826892,-3.9823937045244975,-4.999293783079369,3.2846510880643986,8.274232697074126,-0.1522729624638144,1.2319219239086348,-2.6123475592733296,6.554244093667362
99.0,-3.9613748979912726,-10.591283757700339,-6.629908859709114,7.27744348722934,1.3170404817624246,-8.620081692940552,17.225246624779437,0.6156578601977691,3.4633043301735844,3.2329697495747087,12.510728174460015,10.964073049159733
100.0,-0.1633233474883209,-6.138921188160719,-5.9755978406722985,3.1633195884346623,2.8811097920091635,-6.063859261349101,6.085622334138616,12.054290885175053,2.5482451389028187,2.1044163519594443,3.1327175469925086,13.428978123641354
101.0,-0.3032188275701152,1.0592872215907256,1.362506049160948,-0.3534851400007559,-0.7887905412653051,1.2840720433564705,10.132753821291853,6.102653142868375,14.181409085900983,5.697860719981124,2.697127087538143,5.6239419190665
102.0,-7.0738009475391745,0.5641192920250193,7.637920239564243,3.2115181869165603,-7.319962357968827,4.095261798459347,-8.059737247852722,-12.316037913620125,21.11609645848872,11.463969849082597,0.945941571002144,4.571541875822096
103.0,3.160829483530874,0.9666980903908426,-2.1941313931401902,-2.0213041328928423,2.6303742237238668,-0.6209102394896235,-1.1640523252309718,-6.4721002986004095,-12.513099822007907,-9.291339026862701,-11.260329825044867,-13.64664959194111
104.0,9.74230418696499,0.5865524118297549,-9.15575177513547,-5.198835228576456,9.48104453491601,-4.295013882967025,-7.482402981143535,5.803977017111647,-18.703768103974877,-7.300164107829742,-2.360094926382444,-15.254911516786482
105.0,8.24802677943213,11.218675353280835,2.970648573848413,-9.770788186981374,2.6745812146214414,7.078898671944242,-9.891665616321273,1.1500337035558736,-5.675020835026507,5.339221898224662,13.32764252379915,-5.939941317564452
106.0,-17.71995166278262,-10.774517841871543,6.945433820910986,14.282372591097678,-12.370495927986603,-1.9372873480139026,1.8848681345591798,-16.367286808884298,-4.709479497289642,-5.65571264848915,-15.166695422390664,-13.388851276671483
107.0,3.7827804805603824,11.752115584148545,7.969335103588194,-7.738881226843104,-2.12729711966219,9.830829933558727,2.7665167896407,7.44139353645991,20.864392213449968,1.889031876220121,-2.5753596417257993,19.759426539419607
108.0,-8.093228272002339,-25.454614569201023,-17.361386297198614,16.719567546920405,4.60101672480527,-21.36460752036568,12.4187168042987,2.880561553367245,-7.190247719613682,-2.4967692309742766,1.0636488171329725,15.613092055888611
109.0,25.93228470432645,13.088686535526312,-12.843598168800064,-19.485993894037136,19.431583136164384,0.16338172558337138,2.988138691813072,15.13996855393726,6.018114444065515,-0.2954218463562033,16.505939879005435,9.71323909011683
110.0,5.334873784564474,16.919491888982673,11.58461810441827,-11.098082911876316,-3.0853205203610123,14.292959898762206,-1.8505377910873064,-1.27266881657921,-10.652166403125289,5.4960670786481405,13.238071588268786,-0.6546531693604054
111.0,-21.719727011660382,-10.799868714408905,10.91985829725157,16.296504622724132,-16.363715231399386,0.02298220739660728,-6.265489230094689,-4.962290155650183,0.29017277711787814,-2.895505306931468,-12.045280751958938,-8.748907195011911
112.0,-14.253407482389273,2.003993240294962,16.257400722684363,6.090552041797895,-15.22472033090653,9.092733700182595,-7.313301865119979,2.115721101979684,17.588218356282116,7.749676682788622,-11.856426026503536,-12.811285581972957
113.0,14.71682301628671,8.152844993340185,-6.5639780229463645,-11.46359366410124,10.668270222063756,0.7518601131740748,-4.391422585099566,1.8940638235726088,-0.21994795683538904,-2.678251546473523,-8.972484996191248,-12.318369368522733
114.0,-6.211232907175754,-17.03184348813206,-10.820610580956176,11.594106976863252,2.252729288425628,-13.898486917667249,11.526364090293043,-28.708952845566657,-27.373865476444976,-22.60563990672978,-0.7440524347277435,1.6683351461954858
115.0,13.993547157332815,-0.8014373727173592,-14.794984530050149,-6.625899884267053,14.343294772540638,-7.781048109369359,10.74044339518364,-5.386741973480008,-3.9303405720273705,0.929545412269511,7.15773868648225,11.49433229892311
116.0,-21.581444844993086,-7.1136889588925944,14.467755886100354,14.392256537226917,-17.99343105419544,3.684280313654975,-15.885765404364149,6.2284131379100245,21.53111470717446,22.815288427186662,6.889532886615574,4.827705634907123
117.0,3.2894899337225834,-0.1418090371815154,-3.4312989709044435,-1.5327286730486096,3.3973752622823996,-1.785788572417353,3.9963562530074217,31.102295775155653,15.49245377581352,15.322782488899396,7.0979737043899584,11.525708357171432
118.0,12.486159277642802,10.948585779869067,-1.5375734977740272,-11.677543075671878,7.056279892152434,4.704959632622996,10.863467434715753,20.552724139925935,5.037130763908392,11.38835334121704,2.7336604200750627,-2.9710499985243093
119.0,19.04033955502701,15.160954040404171,-3.8793855146229137,-17.13835617854956,11.432767156500631,5.644257291393105,-10.332001835479694,-8.448905515814516,-22.4157817235119,-24.486623327951353,-0.5306755263110758,-8.482306166079415
120.0,-8.893576932768955,4.50714486828421,13.400721801053317,2.158198216584176,-11.169554999880377,8.965386478787835,-6.600914848152547,-30.160143044172376,-17.155200395902774,-25.97015889981247,-19.28047884734157,-5.112412471736266
121.0,-14.907115996966244,-15.055632840113272,-0.14851684314673008,14.9491680550822,-7.401501794690859,-7.581032159519001,-8.73196969025639,-14.144330402309787,-4.5442310077140995,-6.2631522554202625,0.2833942883648568,-3.3610970439755548
122.0,0.45880171066097475,-5.182471488559797,-5.641273199220424,2.4104220682580335,3.0229636360203447,-5.460833857020097,13.029876989301883,5.084750819958512,22.371857435421617,16.950033146133336,8.722327790788498,9.714518156609525
123.0,2.01103112210494,-10.810671398319956,-12.821702520424527,4.3708145465787,7.459196587404288,-11.858921982816607,11.134483020190064,3.2497926427767116,-7.909317457554057,-2.493065395567701,-2.310269912083263,8.11408096292086
124.0,-1.0662873999146545,-2.5624035386482316,-1.4961161387333117,1.8647645080250457,0.24733764685061033,-1.9899411247926269,5.628618773059851,18.54834187736821,13.067677172697458,12.2803810275328,-0.5058226020570538,-13.573247711896466
125.0,4.679557218142099,11.412612988106325,6.733055769964322,-8.07378355032514,-1.0821342807827417,9.113296897371024,-8.43180436520328,10.284075225752972,12.347505515706201,11.963636118211731,2.4696052485024502,-6.433270779918763
126.0,-5.889182337398978,8.526574263379228,14.415756600778105,-1.345731149623675,-10.134278774846633,11.433230274081252,-10.823263002505726,-7.406600152286019,0.43671319689029975,2.7553465161874753,3.065665993810705,-3.261199865935456
127.0,-4.2669760974427255,1.0004468434261833,5.267422940868657,1.6852060520722545,-4.748779881550552,3.175660487503687,-1.6644111149216059,-6.55272965548758,-16.11364391279026,-8.371992681057893,3.205506961489481,-0.5515186755315203
128.0,-0.04115518427451931,3.6153879487461453,3.6565431330203553,-1.8150634685611817,-1.8246096391721696,3.601361801910624,1.9668532531469207,-14.66061529962411,-22.887486092037477,-11.765821398424343,-3.11767304123628,9.638500889513569
129.0,-7.0602082224175735,10.031476461800143,17.091684684217373,-1.4383972994119054,-12.120141646415457,13.531358929633484,2.5974033872011404,-8.58368594737976,-2.763741223349607,-9.699320695506461,-4.568865378802691,25.253190597825437
130.0,15.586197527797191,-5.505557258493915,-21.091754786291443,-5.078483461703166,18.307569585946617,-13.243808217032871,-0.659910388878322,13.440546419884264,16.192023238319514,0.9101478116329584,-6.869795629465162,7.870136724303872
131.0,17.370706094702825,-16.37027537977807,-33.740981474481146,-0.5477853659593709,25.615987773246108,-25.071755756409196,5.87007068122278,14.67798583460308,15.001318717095003,20.02667855758017,3.3062212980044654,-16.53487496570645
132.0,9.585465113684622,-21.845055122764794,-31.43052023644951,6.150410320679562,20.499745114474464,-26.64561201528914,-2.6322719549690916,3.8756502724470003,-5.391871317442417,-7.189902779813568,2.9983833130198367,-24.62269878846453
133.0,-20.49332241451217,-2.0616414066952826,18.431681007816877,11.288953496118726,-19.464886350859857,8.18473605258824,-3.229365880916814,3.6844525378458215,11.161284219941114,7.344768288945118,8.30092314028062,-5.173843074194965
134.0,-17.897725484424768,20.456152470828005,38.35387795525287,-1.2727610880401423,-28.12805613747359,29.410038366265113,-0.45504159389376775,-9.417368990683428,13.074803450804147,10.801841516437133,13.993895005795608,7.6076347396573025
135.0,-3.215593663156252,12.798238932308633,16.013832595465043,-4.783999362831797,-9.622585493803054,14.41273639600407,13.710252369044301,-9.67221522355705,-25.13773632736129,-26.6981128720715,-18.186676286603337,-2.6296172404004734
136.0,5.434403376488582,-3.676813166583429,-9.111216543071817,-0.86466563504875,7.254978389290791,-6.390281709976492,-3.3360850744800823,-11.191113549418215,-32.52852724861096,-21.328475643772546,-23.286390722447123,-3.9487052790674495
137.0,0.5995618121522481,10.344538954163703,9.744977142011528,-5.447001182540814,-4.6022390136202,10.040571753730497,-6.919898642763556,-1.9146845055936037,5.558849134175809,12.459306985503181,6.676155343868741,21.097333123133286
138.0,-3.007486296268379,-4.418311235260534,-1.4108249389922412,3.671109869880363,-0.7594899954323227,-2.930955431309882,-7.340818958196717,6.906233885239401,16.706332097550945,24.238119643323415,19.37436734641878,7.389214515686087
139.0,12.812513515480624,4.06929011328325,-8.743223402197561,-8.473149407326162,10.810144620307588,-2.3681368205507507,-0.35197012473407296,18.812566546444476,27.28041224499431,15.663967229422642,11.294314518448182,7.7502801110451145
140.0,10.60925503567147,-1.5722192360599658,-12.181474271731636,-4.4673374052248445,11.425936472211427,-6.844205938525591,4.388672505670646,5.921929111060793,0.9306973565055898,-2.11802888783663,-11.661546035374764,-6.701093230108127
141.0,1.0915084495902425,-12.116713966121758,-13.208222415712081,5.483959611983114,7.1041912742419315,-12.64240036327615,6.191496696619669,-7.294567285658829,-8.412054110115594,-19.761905753649952,-14.50609812808474,-18.610335152106877
142.0,-13.986515506342977,-1.8564120035157163,12.13010350282733,7.886847069997789,-13.099135114715272,5.148634386114179,-2.6368720782628507,-12.199436213056883,-19.53817146576481,-8.988792467351706,20.363030639863364,-9.188158544176796
143.0,-12.005456129622626,-21.841579633376654,-9.836123503753825,16.95893103638985,-1.0417264164860844,-15.830118773618974,0.31937648317960277,-0.11699850465056194,0.7284617163966001,-4.800537607108797,-11.361385914376072,3.6160486618707015
144.0,19.051293828804297,4.880105003057217,-14.171188825746913,-11.939110641044559,16.57893127682633,-4.713414980770665,-3.897952893362541,6.53462280971044,-1.4812690353351998,2.7835108512565276,-2.3083910249935076,5.482462647379273
145.0,-6.505401283498758,4.666754837785431,11.17215612128423,0.9392632518658024,-8.791125018537016,7.937033040884316,2.459211360808176,0.8537924439896785,4.087263543177533,7.918552621414504,-6.189017680065093,4.298623283123257
146.0,-2.244705464562653,20.662939143121044,22.907644607683544,-9.271031042015137,-12.608182630191994,21.813153494099833,3.8053174819295483,-8.515994772680326,-1.5758775282734439,1.0623297295126903,4.6559045563915245,5.224628103498979
147.0,-6.448711873299053,10.844189269845078,17.29290114314375,-2.1801166323449257,-11.905005169417352,14.03027184688739,7.421084017813066,0.797418474265869,12.519423087349047,6.055646710065374,4.068363101097985,-4.146310592185137
148.0,3.676835269282778,8.268783194553965,4.591947925270831,-5.951008087174299,-0.4153625464740234,6.484144774637937,-10.836601583305697,13.373977188070901,12.635626716114565,13.68335411698995,15.321809972146042,9.026902972134222
149.0,5.700535738613963,-17.41497798383557,-23.11551372244977,5.806738218871845,14.448595627392294,-20.278293385219317,-6.598781629203323,-5.026309232203714,-9.961446291099346,-13.669256590430692,-5.868620675282502,-2.201197695091574
150.0,5.508982990760763,-10.105607804232905,-15.61459079499365,2.3337984986486164,10.523044474628232,-12.864851781391776,0.11445546370924653,-12.931328759404948,-22.008125715030918,-18.421665518625367,-10.806351767996862,-9.883223967407305
151.0,-1.3733267317284672,-8.77871799991283,-7.405391268184255,5.1176935598807365,2.9774568631521916,-8.09404036053224,7.474393133765975,5.725987416043451,-0.8146815283934341,1.616238518822808,-7.89807418680565,-7.523097459825022
152.0,-5.644178858702112,-7.14612582008253,-1.5019469613802725,6.361474001273002,-2.030823991435973,-4.329696813540096,11.105801254785494,2.182489687631798,4.992519196295783,4.580747190990539,5.229874921819487,-3.203957170315116
153.0,4.754021061515071,32.0548719587185,27.30085089720352,-18.43876862197321,-11.233949007196147,29.66261221393837,-26.680740125697717,2.7740415757533894,16.58204968574122,11.922867950786594,6.171888916528687,16.87358205129856
154.0,-10.927649255054654,-1.938054169004749,8.989595086049986,6.472308206362303,-10.000320424498295,3.4969951615803776,9.171709896868636,-3.4270015121905293,-5.1528427362530795,-2.6111394808924344,-4.468300407290172,3.918261955974213
155.0,-4.525900071584965,-6.198651118862173,-1.6727510472770444,5.3146185994407515,-1.4723339918680711,-3.900295655960883,8.185670233123712,3.1552154960488075,-2.319081448231101,1.6316767663357532,4.827719007501948,-4.3458372950124255
156.0,8.261067615440762,-10.241029884364783,-18.5020974998054,1.011273889399479,13.409569912442734,-14.348874995149126,-3.822457567693461,12.330321840151793,9.069422258004863,6.85825667852587,7.451483856008398,-5.1805177285685655
157.0,7.620994338370331,-6.567155167607224,-14.188149505977513,-0.5145014986990556,10.927933616048247,-10.363834031429507,6.0931476896560355,-4.910524672258372,1.984757434426526,-4.9522390247086285,1.1237070764499522,4.388546577422338
158.0,6.68880647354224,3.2871981276671542,-3.401608345875201,-4.9815511396602465,5.0657935676680825,-0.04777651861708998,1.4685352876948783,-13.01220470358134,-15.110292128082415,-7.693995366877841,-5.1231215353266615,6.049016057367419
159.0,-3.5812106291540564,3.0776137869142315,6.658824416068,0.2561595121792508,-5.178010637601533,4.798430728084698,-3.3356922233708244,-0.12070330354099568,-3.250047464351228,-2.225954727405445,-16.68430585331173,-7.269620149831809
160.0,-6.870928209838735,1.1859136419705738,8.056841851808983,2.8483948862771076,-7.439650507430646,4.632626869223346,2.1342910451564268,-0.16856906953753548,1.8844099366872702,-3.2041209305333487,-7.265541110268534,-11.205343409940955
161.0,-10.136410403123964,6.630611339561133,16.767021742684815,1.7627105613898522,-13.421192541825778,11.713909018757159,2.6851436095038603,-6.212771187678378,-9.121678272879452,-6.651234493922789,10.11801447572116,2.368770830610547
162.0,-10.774638512095857,1.970558204577088,12.745196716672815,4.3378419336875815,-11.80030457897112,7.377442197374577,-17.707324152905205,8.7212706473505,4.689694710203073,4.723558828411208,13.483925587300291,3.1610961566838895
163.0,9.357964806130411,8.076784316640309,-1.281180489490084,-8.698587025202713,5.3655925112435705,3.4218731632674277,-4.5100010092660225,9.854604179731496,21.441264110364212,21.72854249189382,9.555725434306126,3.1173967476639923
164.0,21.523413221649854,10.097418944462229,-11.425994277187481,-15.788624895695067,16.447708258160155,-0.7146841945224933,4.245947418920079,-1.412088238251994,5.673453357823453,3.922200613293546,-0.9996144577571213,5.828355703566825
165.0,7.0480817860899325,-20.775245127824345,-27.823326913914038,6.886981436912625,17.41128024037104,-24.34555752592528,4.1825377582502625,-9.90842656317903,-6.538438405766062,-4.570276684996628,-8.721244333551589,-0.49160439415018153
166.0,-11.81634045624578,-13.56380987148271,-1.7474694152366492,12.635091304973965,-5.059873935664722,-7.618979535369684,13.452013869529925,10.933323199529259,-11.461832310016955,-15.030839225816383,-15.364853227158775,3.8950242573204874
167.0,-0.3987314131594166,-1.9045502991467433,-1.5058188859871349,1.17474756932521,0.6026136138462308,-1.6643578038638163,6.569610635014238,-9.613258841532852,-15.405494165046832,-9.36235672476,-7.864531012968198,-3.732103101298389
168.0,-14.702675738853165,-8.972381440090444,5.730294298762764,11.859082407540399,-10.174088944205499,-1.57685689677521,-0.5785635445443207,12.009870330636629,10.03550988439318,1.454098575998061,17.954198770614724,2.0682844614055105
169.0,-5.890457746878072,16.396416651013865,22.286874397891694,-5.233837416160213,-14.13324440692957,19.30814620073633,-18.937085866934236,-24.626938446950476,-1.8714149064899033,9.372427428323324,18.039504603168574,-6.121321938870234
170.0,14.97280121814337,31.427984262616302,16.45518304447247,-23.26320322185014,-0.7158893641065269,23.905360697834922,-0.36826274794339753,11.818647991956508,10.949958142194541,6.713196731916585,-1.9554796743830494,-10.48329951361675
171.0,-2.721102134897186,-11.349347824899464,-8.628245690002817,7.047480992879265,2.8917553123519575,-10.031997608179223,2.897783570520967,12.281071072564792,7.407988634137157,-2.011951839346234,-20.979925541761176,-7.635846383360211
172.0,1.3102175542588421,-23.72364027626236,-25.033857830521534,11.215459781090628,13.182680317740472,-24.35319549506977,-1.7743591697008378,-11.022611322691347,-8.153028221557772,-2.0614529476522856,-15.56840392315331,4.7647687555755285
173.0,0.5845306871893139,4.5282660486051185,3.9437353614157917,-2.5501138299154205,-1.6713619975895195,4.251312332239005,7.108220761559623,5.830296515410872,-3.826153545336961,4.224472126649145,14.185146731285565,16.76240981359
174.0,3.2652932394291208,6.6601765139037745,3.3948832744748882,-4.957109953698692,-0.05364521993299309,5.035692363954239,1.1224988407107537,-14.577814893037473,-7.17863058732195,-7.368032319083218,9.801098766531178,7.735180614009514
175.0,10.295810072043743,4.412705342193441,-5.8831047298500625,-7.347124602287371,8.10909682842995,-0.7284493211559948,-11.450665599563283,8.619479898466391,7.627886183851994,1.9891142248333145,4.511569280086404,7.674823081097026
176.0,-4.976281278275001,2.192521801682324,7.1688030799574065,1.402567869726707,-6.0401651601184705,4.692721171986387,8.064293322080392,5.147242450507202,12.675648658611056,8.3637747769516,1.2407810760121456,-3.4584422609155583
177.0,-5.332048979103778,-9.504786251994659,-4.172737272890984,7.355476193923996,-0.611764347078565,-6.815644787437425,4.483015746289877,7.261501831106071,-7.3175802353727475,-10.362344858254312,-4.946841920558215,-13.092094056862138
178.0,-3.7143980010116104,-16.581539399067918,-12.86714139805644,10.169811459970171,4.556803646892479,-14.76565913304944,-5.653346348753475,-0.9448068903251721,-12.85100263054799,-10.795255097117774,-9.854261724731117,-15.58793530724093
179.0,-18.18499189797044,1.8407977567487075,20.025789654719087,8.200163095959747,-19.116800182162024,10.906424785467642,2.877412863616789,-20.398403814507816,-1.0654339911476587,4.089450312873653,4.823080542453694,-2.1733767121991825
180.0,8.390426719426014,28.07275194755336,19.682325228127404,-18.197902964004076,-5.654804941406038,23.862425267269685,-4.828263699226951,0.7811739137555254,13.323290214825317,18.47062667624485,9.829587737234952,9.807175953129569
181.0,18.17405975877326,1.2253928492951935,-16.948666909477957,-9.740552908966649,17.549841624459233,-7.7909158382082495,-4.818871159234924,2.338996589062484,-7.419620860729626,-6.312176585128999,-16.394597883247247,0.4030261806197819
182.0,-15.809048650655749,-3.6623969173042825,12.146651733351563,9.69723434230133,-13.917020243973404,4.235537273389232,11.314448547247327,17.590158161416646,6.545358009699894,-1.3418940662804397,-2.336543739564742,4.8997426220511615
183.0,-5.93916063536617,-10.799025714342793,-4.85986507897658,8.409824074211166,-0.5659498238773059,-7.840241443800449,15.634773876474817,15.272649274953439,6.8516209802289625,7.5027046622108315,15.838786817156596,8.900584717886606
184.0,26.772057598356383,-11.96739998358645,-38.73945758194287,-7.441131042522189,32.79916042409568,-25.373080406031413,-10.562425950126471,-23.989459957030846,-5.786448687450662,-9.252242601160736,-1.4546534244996288,-4.286844412829425
185.0,22.58251020893958,2.62595351701301,-19.956556691926686,-12.565414853691772,21.22517474603599,-8.696460650088708,-17.257996971418486,-8.277580887449691,-6.978532391019238,-8.538907194306756,-4.780933421122418,-2.522382871421221
186.0,-26.960266966354414,6.301804223028494,33.262071189382795,10.367307766214426,-30.085374035841774,19.81813819305591,-14.186202404331153,-11.594659666819227,-12.01844241523242,-3.1080256166564952,-0.842739016304719,-5.103990231226453
187.0,-16.334083945825043,22.82314108457743,39.15722503040239,-3.2852939168210558,-27.80620957525482,31.01806228841119,12.283375720336384,1.8124501342457169,8.076014931554688,13.620870822327358,4.1967143833989216,4.73543793458249
188.0,-8.61785843102239,-2.0948143165893764,6.523044114432942,5.315908436922533,-7.557776076109082,2.16033954628179,12.170030105295186,8.348798934174283,11.937541778621693,2.887043731645922,-4.701440660461688,2.052419645221269
189.0,16.90842058417275,-11.414179453644914,-28.322600037817732,-2.708501837105095,22.62614678496165,-19.839849169403344,3.027624972379561,23.24598026294845,7.211658885782069,6.946892702183224,1.6897392845053052,5.777853804037814
190.0,-7.2615993682166,-22.41585212341692,-15.15425275520035,14.877130658832241,3.9594789052375354,-18.747063508890307,12.655553956101826,13.836759704791074,-4.351003801118455,-9.398214661353917,0.238997821894337,-9.90014784032512
191.0,-8.002861105145579,-3.363838948011754,4.639022157133834,5.641979825786313,-6.300716507985291,0.6100405553307606,-4.338056392688931,-13.789483710186953,-15.174630077150688,-14.460369719248844,2.809554121816536,-5.768380263484919
192.0,5.656793744340582,20.276110301544797,14.619316557204275,-13.009693841352544,-4.450845710123376,17.43404392454299,-10.224384290067876,-5.7512751190688025,5.801248186419109,7.255369881638702,2.5119847540994233,6.01329727547489
193.0,24.038554414516607,19.065116450783712,-4.973437963732815,-21.518820633082115,14.468383920124522,7.043519352067226,-21.549263328277142,-18.029602599577967,-2.1712733909056023,7.626868103310927,-1.2780939213863929,-5.095334527953674
194.0,10.042565541774112,-5.696130065038803,-15.738695606812843,-2.142996318165684,12.861415338767234,-10.71337724120356,4.770759552758356,-20.84759326786152,0.9986654507498871,-3.6363946922496027,-8.947895392772383,-5.1922842534700235
195.0,-12.369417787095962,-14.239547240434948,-1.8701294533389419,13.331810347488112,-5.27490092900395,-8.050578906506523,17.49546295217889,7.5813896908292175,-4.058381168529013,-0.6203200472870736,-2.9753247060803694,0.8403455536651181
196.0,-2.3274767320800134,-5.04205898707287,-2.7145822549928313,3.630397462205658,0.2458198189298555,-3.879584445796353,-2.498324166739301,13.628808709094518,-0.14652933410260532,-3.9162569942119734,-0.019113453285423687,8.415339001118372
197.0,-18.742038135822465,-9.172191886239807,9.569846249582659,13.978641144627348,-14.188230095057625,0.18802544076761452,-2.824782073025967,28.510438858330097,24.56568875556032,14.562508914655625,8.186507909902982,10.843941697414625
198.0,-7.96052291762597,-0.546566207289723,7.413956710336203,4.194146480390377,-7.6497011235043315,3.4119297947678993,9.949364362595386,0.0692583942652174,-5.268045174811883,-4.495123600422376,2.190333593551902,3.0712068859745445
199.0,-10.06270836243636,16.430907369539796,26.493615731976085,-3.165190274184486,-18.25094292955543,21.50956898533391,3.5323523563640364,-5.635882172709435,-14.077499486512473,-3.8710199353771615,3.357418713966526,7.118869753878517
