Time(ms),I,II,III,aVR,aVL,aVF,V1,V2,V3,V4,V5,V6
-200.0,1.1062281836545926,-2.9733364579590305,-4.07956464161361,0.9038790585474112,2.615285293210789,-3.5461095095122506,0.6608115817226552,0.368835534372006,2.4941924033934546,2.2309149958544605,-5.049086571747192,-3.869266049672863
-199.0,-2.435399279373268,-9.143087437464347,-6.707688158091069,5.83405792373356,2.1613951089904337,-7.868018792354263,1.5463678454496614,2.488830335400965,4.66844423251141,0.22409925340294823,-8.889211395281013,-6.93883360906145
-198.0,1.9668828488521564,-1.4928619341045524,-3.4597447829567156,-0.27547732502899014,2.7441258316602224,-2.500823148035885,-0.013722248348596366,0.5163280599785625,-1.1127341211803943,-1.0102059981115978,2.680693234329539,4.151283785336355
-197.0,2.3577442910988453,2.2112742883717393,-0.14647000272712507,-2.248931748109377,1.2104106070052314,1.0048984458791954,4.718448956587199,1.1500367544409553,-3.165525008155474,-0.6405078349298186,7.385513182255217,2.4455732245432027
-196.0,-0.15359786059652114,4.649376536435408,4.802974397031916,-2.296014447291003,-2.5153133987229603,4.775473513932374,-4.288735810718631,0.102269578586763,-3.1368054408886814,1.5308542704909982,-0.3467301130514491,-1.3350777062531327
-195.0,-6.679987923868186,0.5398543199622088,7.219842243830405,3.0955654138456286,-6.906674102216633,3.9279447718717395,-0.660244754875861,-3.7227221645471364,-3.3718295046774864,-6.740025856958743,-6.944033686611912,-6.057708132466091
-194.0,2.7610432602237984,5.266340870104242,2.5052976098804614,-3.993027797802428,0.09041840475974228,3.8533950130173436,-2.5811458219569077,1.917548359223502,6.022491115000972,2.962928861345501,3.7412808675321543,4.385557766468986
-193.0,1.8367812605713052,-1.5904139013398406,-3.4271951619111345,-0.18490817339295462,2.668874086148266,-2.5451304303386424,0.17351860308493894,1.754654837372489,4.503834775877179,5.410797446287961,1.6332338294887716,1.8591658703745986
-192.0,-0.060472985366079146,-2.954030174191918,-2.8935571888258425,1.5229663554743855,1.3696561695415324,-2.9669112852978565,1.0391957894140247,-2.779123041596562,-0.43332248790319894,1.3375287990042068,1.2277429130397155,2.2085437246500526
-191.0,2.9494600356143854,-1.7308313071394688,-4.680291342753861,-0.5916658871171809,3.8430571317490823,-3.1788779880382205,3.5634528958188603,0.7303675282260671,0.7173508708136773,-0.22453022118273752,-1.2857365248203907,0.2847000434060224
-190.0,-3.620007345187992,-5.027540603911635,-1.407533258723642,4.346774309887487,-1.0791203898680681,-3.1998532021896526,2.9531387849162125,2.8576872443195387,-1.4262383716025482,-2.534330728182845,-0.4602814409968976,-3.623301708987656
-189.0,-2.000135183016585,2.913266694747479,4.9134018777640724,-0.42566870777861854,-3.4279767941261627,3.924594167332664,-0.8335928013054108,-1.91767552783315,-5.136661502628813,-4.6985080133243615,-0.9542170282583446,0.4672972557902635
-188.0,-0.10989435435241979,4.050013646630568,4.159908000982997,-2.0091964809561564,-2.1814398417537264,4.114423491533344,-6.639553831507692,-3.3659022229928373,-5.7662080689867246,-2.4586417513299885,-0.7059401696880077,-1.9687525692846368
-187.0,3.562264641741326,1.4702973223685154,-2.091967319372805,-2.547785295438983,2.784174073773356,-0.2978587121056684,-2.4211591076118264,-1.0474596775361344,-0.47460427449632103,-0.30039993922901054,-1.5947880853887741,-2.6688116615063193
-186.0,-0.07091721110319082,-4.141426824825723,-4.070509613722527,2.0799079856643625,2.0379720901964986,-4.163809761441643,1.7021496721418081,1.572013074784149,5.907722160217348,3.996165488441359,-2.7267841259581607,-2.0004578504804504
-185.0,-1.9028970282767137,0.5660834126418842,2.468980440918604,0.7234164223023094,-2.147330732050655,1.548648026879173,4.093438437797168,1.5214003907823215,5.750905675048544,3.9818529115217864,3.3382093572867566,5.024367811106601
-184.0,-1.1047495674065209,-0.6264531072822084,0.47829646012432225,0.842141044857569,-0.8329951475900467,-0.033226185752091186,-0.6704505111440249,-0.4076119424220024,0.10371165859473841,1.1202876987713486,0.4241127919386969,5.032960063540025
-183.0,2.9237370654082615,2.2309332732482643,-0.6928037921599896,-2.5232748167671466,1.7646338576311977,0.7378525570861076,-0.21974127466419702,2.2204885454719205,-0.10456882068895934,-2.4934942040636106,2.8290074529412528,-1.6450363915154602
-182.0,1.30781073120843,-0.7408132410949237,-2.0486239723033495,-0.31039253529916955,1.7116450423141456,-1.4239612179645724,1.7919245325313642,2.030728609550156,0.2305985239278736,0.5187017441812416,2.536693761805191,-0.1562367550268692
-181.0,-1.3852336629811384,-0.18449117174161328,1.2007424912395357,0.7550206659185175,-1.259626454443704,0.475881002914493,0.2985287798144124,1.4958835701456463,-5.147505660614913,-3.4503613699161915,-1.238495680207821,-1.4376384740542136
-180.0,1.7834667566007143,5.5868060038467995,3.803339247246104,-3.6397700642606132,-0.9745830883727706,4.734750352199304,-2.6344991487310163,-5.661699281885634,0.14615058925384172,1.1873032376044934,-3.0891962330288494,-1.0003669824529082
-179.0,0.5630077094682304,-4.961309404369573,-5.524317113837782,2.162002154290888,3.0038806226664994,-5.211806988416085,-0.7081364470876841,1.3392872227792294,1.6568951781635541,2.787361714857143,0.24055486216384692,-0.3508946765596934
-178.0,-3.0930505530531547,-5.519557457019068,-2.4265069039659037,4.265873452009457,-0.36878918669164507,-3.9505398685284945,2.5577116460396305,-0.9477836725435798,0.41098950071686785,0.8589526929183017,0.2847239621027322,-0.8530960224596286
-177.0,-6.509332176439058,-0.7026449003768231,5.806687276062236,3.6423340504837123,-6.189558534093891,2.488818232563732,0.8805332580789209,-0.6608848767110238,-1.1619283888774783,-3.752027423263525,-1.8701514093332163,1.9054732854543286
-176.0,-4.839899914925686,1.0968011074563782,5.936701022382076,1.9076954939450737,-5.337982733196762,3.527570185908148,0.6088644449298689,-1.2900991180084562,-0.9402395068985796,-0.11241483246863226,-0.20089947171570965,3.235550992545006
-175.0,4.231956068418151,6.591167038318919,2.359210969900771,-5.374152038863128,0.9887499082889168,4.48353065042142,-4.5424363191272015,-1.8909150536485533,-1.2566863970621043,-0.702740033807204,3.21783592375506,-3.039285851729078
-174.0,7.492936829400174,3.870697091995925,-3.622239737404275,-5.721493482130951,5.532160264549073,0.13198846827024924,-2.578086423715268,2.1323413144773653,-1.1410476268492031,-1.5885934617091402,-2.5990309203655606,-4.239862093213791
-173.0,5.908333371168474,-5.245726457706635,-11.154059828875166,-0.37014638485154094,8.505664307951111,-8.191356106145246,0.2014528577810354,3.7014325234282293,1.94075100309214,0.7970830810578843,-1.2353832603502697,1.0666116194541018
-172.0,3.8958665853741317,0.6632605472173321,-3.2326060381568555,-2.319033570197379,3.537941883140351,-1.2744978125157336,2.0677662879427596,-0.37842374424126746,3.88694825712974,2.91069146527961,0.7861559829153925,0.9361200558675282
-171.0,1.123956508790203,1.0576680440901374,-0.06628846470008054,-1.053273253488906,0.5682293936340916,0.4293812965293631,3.632435567305641,3.6960364088805457,4.403215389037342,4.847098592926509,3.037665831203683,0.6182594880592118
-170.0,-4.982450645860379,-1.742198630555901,3.2402520153045153,3.3980301030743005,-4.058979907022024,0.7644962616536664,3.5819132727618905,-2.730170757537402,-1.6582389631394476,-4.205124237488986,-1.1840521952397018,0.3428951756169065
-169.0,-12.315003311401739,-1.8395108894635037,10.475492421938325,7.112011956106672,-11.340803550677443,4.337558815691659,-0.3031910648872129,-3.2567494828889725,-4.804445446449095,0.3780138182405117,0.46296734753205965,2.279019561884268
-168.0,-0.5983407695544036,3.337172215010905,3.9355129845653947,-1.413130356667097,-2.2881582488489585,3.6611325689550522,-4.184806984547039,-0.4498296292911719,-3.077223648527611,0.9627663367189125,2.5403941761472506,3.4028949730572524
-167.0,-2.756057873686579,-5.155751030058346,-2.399693156371687,3.9133334239422073,-0.19679921857606586,-3.747158172333295,-4.9806068323082275,1.0024196927734037,-1.8876460863285927,-5.980006372562713,0.19309410804095484,-0.4995748918055487
-166.0,-1.0442574195393906,-4.041897323760939,-2.997639904221499,2.580493892978059,0.9585848105501806,-3.562788159326825,1.3362170944411558,0.05521114291271215,1.7982020546115107,-0.32698626820398324,-4.4197943195983225,-5.378898300218993
-165.0,6.688980102575043,1.7401866680972726,-4.948793434477766,-4.176602395585638,5.798249737772641,-1.6440179877968037,2.163379549127762,2.329709125674801,3.969372900899253,4.545944415961101,-2.160731032369509,-0.923518319755368
-164.0,6.871786401484128,4.098932022109522,-2.7728543793746225,-5.526710836942062,4.796357552768874,0.7028016074185934,0.8623276560140395,-2.7478386406337663,1.7896212479086633,-0.8107126961602091,-0.3242175945542686,1.886650057672083
-163.0,-0.2790888230995199,3.279943355643957,3.5590321787434025,-1.5435442872518013,-1.8732001619502139,3.3788174352240934,3.004073848955652,-3.2633520959035263,-0.8599630514875047,-0.2931249692739799,0.9438681812126313,-3.642840704852413
-162.0,1.0977985932317793,-0.8771150124111986,-1.9749136056430967,-0.07728573365480029,1.5750758067836663,-1.3911214738096065,-2.57362819528147,0.4427294178322645,-2.4311064793109067,-1.0238418186277318,0.631810132524145,-3.9259887802857985
-161.0,6.569858353981755,8.016243270788882,1.446384916806967,-7.262846338941375,2.5939578563051526,4.762669310526016,0.4875327832266655,4.802928546965101,0.06400657354258876,2.6336993124281087,1.7181412141443002,3.378297905326825
-160.0,-2.322004525005915,1.7992136481179148,4.121218173123673,0.28885595822336363,-3.2738393696919,2.909808806289352,-3.1215897095566603,5.614724869889475,1.007473563704313,1.1654657397283685,4.4006562096055015,10.550249385329343
-159.0,-8.43293419617591,-9.195897523405256,-0.7629633272294152,8.760592859683117,-3.892186724350074,-4.953257468471394,1.562841378692253,-2.129147462019342,-0.8593693550316363,-1.715526268523176,-0.5830151446465087,-1.7975922892622322
-158.0,-6.208075553831513,-7.697469794232996,-1.4893942404014702,6.9754033675189095,-2.3416940711022236,-4.568785514298936,1.0612802565152253,-2.7327088807466997,2.025444948578428,3.2990413897095685,-0.24202522314180908,1.3750689606222493
-157.0,0.11191934938458115,-4.465407108606055,-4.577326457990515,2.118855796556025,2.360443454887132,-4.576782100530482,-0.3877776149582751,-5.7884311482090505,0.10709021595147916,-1.997282494721508,-3.4348129820897806,-3.7520614738157643
-156.0,-2.792731055089993,-2.4889970433097455,0.3037340117803753,2.661156772362616,-1.5308842033393408,-1.0706870868117118,1.3812797566765875,1.2137243985428685,-1.7411208176069484,-6.194335673133149,-3.8257213701934862,-5.60910919884832
-155.0,0.4043612502098686,8.118805329684513,7.714444079474758,-4.239901506873117,-3.631988221267547,7.937206622872644,1.1788290773920012,-1.40689945273631,-3.72127947585912,-1.7561534528747946,0.7261243862760707,-1.2692175129238756
-154.0,9.275952406940243,11.565772817818177,2.2898204108779936,-10.395533200221937,3.447041631844661,6.868817863170548,-4.030030853663305,0.38825599916874143,1.4776936137374364,2.80841779782499,0.015575334508441646,1.1539797560077651
-153.0,6.818236106425973,3.91226016947917,-2.9059759369467972,-5.334545385963846,4.907114997233266,0.5233253891432605,-1.4254087079387563,4.885813087162839,2.94901397260886,3.7550378046636324,2.4530129794873137,0.43990223427184505
-152.0,-1.0736958105588448,-3.2075045375872446,-2.1338087270284465,2.0984346874020385,0.5090690421818378,-2.648498752189965,-0.01656809399116843,3.097892798291928,-0.17092048800603288,3.034036684072257,4.701267168779814,4.647757602217953
-151.0,-3.0445413378347124,-6.456749125261368,-3.412207787426744,4.713613263937264,0.17379867800738436,-4.9092271284886735,0.13670903600152495,0.22689114197960092,1.0589816217926031,1.3987999016383408,-1.0351584024760663,2.1286639512721104
-150.0,-1.4977502429008704,-5.00668648678914,-3.5089362438883995,3.218976810656958,1.0029977222411999,-4.22967185364806,4.02357541751702,-1.9676127657367377,0.6200510329187781,-1.7571835802759774,-3.599486481746864,-0.004121570235103178
-149.0,-1.2436468546304953,-1.6350621371009977,-0.3914152824705731,1.4876118817475366,-0.42545932421254107,-1.0628961432702972,3.313355228860695,-4.268161068972601,-1.499678784519601,-4.829970507173944,-2.649059808174512,-4.569712083330375
-148.0,-4.725302930872514,2.052350274091485,6.777653204964039,1.3872448033263836,-5.751279408334547,4.363119060753872,-1.4582914230735669,-2.4419976800606014,-2.396697596676892,-2.275165843251088,1.9217736318590455,-2.384670470463697
-147.0,-1.810124676689529,0.6256241286518993,2.435748805341504,0.5671579190688698,-2.1255549626823154,1.5521885861897902,-1.5952569851014808,2.1709732145874705,-0.43798493172375896,1.8152209707228795,1.1751424138685154,1.6552344066345013
-146.0,3.898794160436387,3.015769391345116,-0.8830247690911897,-3.479154426398081,2.384766234618313,1.0808634083231186,-0.08375427256408874,2.550812564310372,0.8475522380746247,1.478007048546371,1.382472882753961,0.4273551437829082
-145.0,5.94909919887626,3.0987523966811334,-2.850346802195084,-4.542975346344965,4.390610873017906,0.1324122211376717,-5.119961612876312,3.6294963768358794,3.3407264758116293,0.6664343312141574,-0.6974222290520831,2.54711590723011
-144.0,0.02715415880020222,3.098113027500027,3.0709588686998393,-1.5015815456339126,-1.454369257251999,3.0894590708452103,-0.8609569988448391,-2.6166658009976973,2.0574663832822093,3.1168262100498407,1.9080946558153928,2.6081152588727967
-143.0,-3.656239771310704,-1.0221159933059358,2.634123778004672,2.3204002477858228,-3.158474573554006,0.8119015790412428,3.2824625365904723,-2.838033308426094,-2.0682263859765024,0.18618833202279772,1.4209247027934644,-0.9840603613852337
-142.0,-2.1372285648674314,-6.513459307824718,-4.376230742957426,4.302673791214695,1.1025574403526326,-5.433856068381825,1.0533048735223258,0.04991603049225701,-3.4024405218163425,-3.000198370208906,-5.533989068015583,-4.053458566605159
-141.0,-1.9475515921506146,-6.224978963351101,-4.277427371200627,4.0574342179925456,1.141238619164799,-5.232360708815337,0.6886091722009846,-2.598889625332604,-3.7134507593527077,-3.7505568117303456,-2.893782793168307,-4.14808337686109
-140.0,1.1062630296046712,0.5728732023669361,-0.5333898272377797,-0.7965620812995264,0.7857070049578052,-0.03143779568056537,0.8301097989780309,2.9678654294640676,-1.341324531782302,-2.7573207608962065,-0.20212169897498633,1.0450204396546932
-139.0,1.6149707411027894,4.608392886126394,2.993422145023721,-3.152994334117175,-0.6578202762813345,3.757717082017268,-1.8492088473322945,1.2988405023469107,6.007318270049424,3.7100566873269565,3.20523335615895,2.4405678542412224
-138.0,0.5773197551572862,0.2173370408941948,-0.35998271426287975,-0.3621806005806545,0.48607239915600386,-0.029341801315193372,2.147779201708099,2.453633802506666,6.453869709024166,5.728909260218348,3.0713438096121948,2.7237608489370753
-137.0,2.0513793839419128,5.530916634547675,3.479537250606004,-3.754020960940565,-0.7089050059316592,4.551998146233682,1.0271697435226281,0.37830544796887045,-1.5984850307581113,1.0276073066390827,0.9170972207253836,2.5099903416719513
-136.0,-1.4641372212049073,2.4267680575119015,3.8909052787169403,-0.5171101260837032,-2.6807299185892774,3.1303128697089955,-1.9528188812803724,-2.9662173007276857,-0.9632765469018189,0.1447362563884702,1.425317577114567,1.0715034105756185
-135.0,0.5561670234321847,-1.2847056799653598,-1.840872703397586,0.3363820955672208,1.1920014187176688,-1.5889495988165412,0.6383222880705426,-0.818831242018601,-4.537225267095858,-3.739994599276127,-3.2946377515647107,-2.3513383616100105
-134.0,2.7318816877770167,-1.943077744293068,-4.674959432070277,-0.3361272386076224,3.6987779205617004,-3.2551221209451344,-3.088351539127034,-0.4065917975404807,-1.7352934817997352,-3.3167702476834404,-0.9940928422667545,-3.3696883445105423
-133.0,-1.392603347919569,-4.4870357529664675,-3.0944324050471366,2.923696756068969,0.8524675235326661,-3.8154071918325645,-1.265084122960301,-0.968233556361964,-1.3481510969998998,-2.3576692478012378,-1.3411086697719525,-3.31001298109438
-132.0,-0.35999193706519805,-0.7494647225437991,-0.3894727854788447,0.5381939722213054,0.025255331623866256,-0.5950490786367761,0.3030681976007137,1.8663892772667583,2.0540377626217663,3.731556811709533,1.8624532569194687,2.3894235134000694
-131.0,-2.0261904891932385,-2.3436006996743104,-0.3174102104811875,2.162986636585198,-0.8339892307993765,-1.3577913558298078,1.5099396597034105,0.6208124386843105,4.2963416781980825,2.855122212420003,0.060006970646148405,1.1920540840991682
-130.0,-3.7385689286192134,1.4249613199947082,5.163530248613941,1.1260374952305972,-4.500249148996757,3.3436752212766714,1.652020680300742,-0.6111377236792217,1.4357133683632646,0.8070701161625122,1.1605664952393129,1.814054306303109
-129.0,1.0012027114611541,2.341185134622458,1.3399824231614659,-1.6328793237960944,-0.1324570302931607,1.8880471754786243,0.5306416277408257,-0.5550811499277373,-3.2215504741731884,-2.111951747337011,-3.0775020443752505,-0.7029482134330145
-128.0,1.5711726446713243,3.1708086429775753,1.5996359983065171,-2.3403330279141707,-0.05058348178273829,2.3521736575146,1.6509634851883206,-0.33248486647832326,-1.0345268998116826,-1.0590646433636253,-1.9810820496943828,-1.005992977504619
-127.0,2.2292814589436425,0.45975506105416253,-1.7695263978892792,-1.317648933385037,1.967213075033703,-0.6895285036852061,-1.6664558554970157,2.490440683838519,-1.1723278699449144,-2.418483933074789,1.1799937217013192,0.27123080074617234
-126.0,-1.2290981505491168,-2.9865433498154754,-1.7574451992663354,2.0562673644693423,0.3144483914458225,-2.4079870297563137,-0.09030042190306986,-1.2312695051983664,-0.36721236504607613,2.0138266769334603,3.873515198429424,0.5713817441416447
-125.0,0.2298425496509121,1.7150881016424009,1.4852455519914411,-0.9420773455961016,-0.5737444053422842,1.6421432483418372,-0.7801256590885708,1.6517730339879737,2.5803702644358344,3.512540149807883,2.142465086282391,1.567463209193388
-124.0,2.4240872049733735,2.492988886371299,0.06890168139782604,-2.502887901089639,1.1559669518673406,1.3230653425680274,-0.5008519366544766,-1.7356671306886038,2.204808098935941,0.6737972001889432,-0.4761307106654433,1.5005669791984086
-123.0,-1.2717918978738,-3.9674444649530893,-2.695652567079419,2.656905117962423,0.6917471638227857,-3.3671152498048977,-1.920086535358988,-1.2683964488611732,0.37440562084639006,-0.07890936152923911,-2.062394961743006,-2.363879474984826
-122.0,-2.1699183328085625,-2.829184225415065,-0.6592658926066024,2.4586901238174423,-0.7769821002182474,-1.6995996667352884,-0.34571536745493847,-2.536805603565524,-5.195382166382377,-4.108384977916888,-3.641488819696395,-2.9154006684107387
-121.0,0.41880914924965196,0.20946036649386057,-0.20934878275583763,-0.27801249503435077,0.28772783906370114,-0.033073067593915484,2.2380244456657334,3.2329994001409728,0.19516452441675547,-2.178892056365593,1.1592758121084863,0.3533411994352287
-120.0,-0.1690679673439447,-0.9421142752963366,-0.7730463079523787,0.5096841844609223,0.3474805939732317,-0.8907459231019194,3.738698594809739,1.3466149578404447,0.8488645844289735,0.6048745425978905,2.0845150611478886,0.588675566869173
-119.0,-1.3896482701924298,2.736452112363244,4.1261003825557045,-0.6440157214378345,-2.7981785512817225,3.3970892022964145,-0.445085021813147,0.06630164295301255,1.2299388135256961,0.9877024739151798,-1.7442999571018865,-1.9796427722372885
-118.0,4.762536045193086,1.3962860238916002,-3.3662500213015027,-3.0524257628743405,4.097999918270403,-0.9418288160775377,-3.7227691620951084,1.1490337725404949,0.9037701371573681,1.719922839338607,0.9804439626045434,1.747486424148963
-117.0,2.0530560388168846,4.670992608570748,2.617936569753913,-3.3356805455753484,-0.24978130188627756,3.6864024903655226,-2.611409350196487,-1.061962180857392,0.19713528236227434,1.364046420934459,-1.414439018537285,2.2121214218145453
-116.0,-2.6260484020910937,1.37714695711037,4.00319535920159,0.5732708907173854,-3.3573950810370934,2.7310586115537445,4.720304919878354,0.753324054126084,1.4795284072082227,1.6236765471002657,3.4690912163100776,3.7140496028294727
-115.0,-1.6169196295330375,-2.863705900485026,-1.2467862709518376,2.192003218915735,-0.14254501378855355,-2.094712229257655,0.6704460867447808,-4.688760994474205,-0.861801582443317,0.8893413584856331,0.7365561174974242,0.459165323938064
-114.0,-0.3456986772732411,-5.575316058751368,-5.229617381478048,2.9951877456304414,2.4134943526481614,-5.444872153794036,-2.826746517438724,-0.7729452994980583,-4.289522882299167,-3.31847530706887,-1.5429002867605224,-4.780227774038786
-113.0,-3.664998756952645,-4.405503096412433,-0.7405043394598239,4.075216815164758,-1.4839530273954007,-2.61963968129925,-2.6077362561512025,1.7055059618541102,-0.9090910045629415,-3.0471295627208494,-2.220383999818785,-3.3747724423493235
-112.0,-0.25551310034293534,-2.895060553591618,-2.639547453248851,1.5422017589809855,1.1743510921034583,-2.739407085472933,4.017190580336833,2.2466264018334687,0.6212268288088558,-2.020477016611481,-2.4555452125571255,-2.940871183468941
-111.0,0.2452689879870359,5.152781609132085,4.907512621144919,-2.6483813970305783,-2.2695157896071967,5.055954377231304,-0.3289676334479241,0.4394666160384506,2.883709112003874,2.1863816151031235,2.3330294885882346,3.077760804897671
-110.0,5.465482516210349,8.957689759147248,3.492207242936927,-7.236901185998459,0.9666556038591047,6.252608947415707,0.2424065010974955,1.5261042928118702,1.1549507005727289,3.919565298435598,2.9164669919351773,5.4125356070027095
-109.0,-0.5664949655478364,1.9133909892157623,2.479885954763776,-0.6994284122212249,-1.5484411438914707,2.2305494321979564,1.144066817888016,-2.0713222333179715,1.7356110930780886,1.478961970609692,-0.3177445457631296,1.3778982089123462
-108.0,-1.2108159663522184,-3.6023622647785785,-2.391546298426088,2.3760319263924323,0.6376375341115006,-3.0324066390971023,-1.1017063380899457,-0.3282375731463496,-1.074949548826259,-3.749386490155568,0.4027401462682926,-2.060420735424193
-107.0,5.473494591088237,-2.347104888132564,-7.820599479220647,-1.522808963995683,6.610170067562787,-5.1092254376796715,0.004485912409201931,1.5426001715156201,-0.36006054040189495,0.5537635029610104,-2.121542875680436,-1.991946885486759
-106.0,-0.44844172070064203,-0.9272582376114147,-0.47881651691089244,0.718858368032686,-0.024459770378000956,-0.7202148911670485,0.06179569251824213,0.044963396755306445,-2.1576083746479235,2.5429566602806206,1.631358437436709,1.447140449803035
-105.0,-3.6040064837462027,-0.41277994119855044,3.1912265425474233,1.951814624314354,-3.357275388133477,1.3766025554744978,-2.4591198209813827,-2.2519900892236535,-1.259464086606864,-1.9228986697652304,-1.9067486013436632,-2.716641718518909
-104.0,-5.084488984177865,-0.4150177675396596,4.6694712166379375,2.7655616798072784,-4.830959705244036,2.193763997271972,0.6040736807837808,-3.1055391213720087,-1.1563342058232666,-1.663913304309173,-3.8697151127497436,-2.6897109600746982
-103.0,-1.0306601271252913,-1.844620689794046,-0.8139605626689053,1.4507836553687123,-0.1318478301866901,-1.3446193793835906,2.236474328153256,3.1946464266754115,0.5976320726892106,-1.3291805174195757,3.06412795609994,4.27736532811813
-102.0,1.0141433322034712,2.188422971352915,1.174279639149477,-1.5869165804383556,-0.09293004615487654,1.660769117991817,-0.23465139158657755,0.8980336706499374,4.75338355530508,1.9079129225096998,2.070533622527379,1.2927078233659217
-101.0,0.8871152411196523,-4.785180497790909,-5.672295738910421,1.9676554144797986,3.2760466200802942,-5.25495790220801,-0.12208494483386911,0.27540510601546764,-0.27659789719906414,0.030206293144208085,1.7047238093277874,0.26953001571112045
-100.0,0.869656569491094,2.417936204483264,1.5482796349922698,-1.6981703038788771,-0.33788270985830504,2.031353474472759,-1.560086839292152,-2.6319164523312413,-1.9425834196614826,0.8756808912460496,-0.37383561538714083,-1.5917094032982662
-99.0,5.790941673156491,4.599582887472875,-1.1913587856835717,-5.1652219140300435,3.4918053382271013,1.6719869220453523,0.16329221841950847,3.0620507541740976,-0.8968660475227238,-1.0720506199513005,-0.21658600184293914,-2.1315344652292807
-98.0,3.857427411466009,3.5721257900782426,-0.2853016213877204,-3.758949504620048,2.065049224080724,1.6915978539367496,0.46922724997786625,1.8017801975685401,1.642144238563494,0.6342645656279782,-1.5220924310514126,2.627643907120066
-97.0,-1.326186468295209,2.323559933594095,3.649746401889392,-0.4609257972931552,-2.506296841052163,2.960391830905802,-0.21036607638972465,-0.81681424046273,0.3296812140292189,4.413932677262938,-1.8226747127132965,0.07331404466333274
-96.0,-7.088646388599707,-3.467599238837202,3.6210471497626004,5.239376224446146,-5.309156489047683,0.05623766357861859,1.80550501443308,-0.9689903983777441,0.5688821270009803,-0.69196618537656,2.886577143677995,-0.38557697795384427
-95.0,-1.1709874806703615,-4.181829118381099,-3.010841637710713,2.7182787079970763,0.8723330335135162,-3.6113342523073317,-0.11160903673770589,-1.7056106894940315,-3.792498375036759,-4.825731412858201,-4.642314487532015,-0.20397881796042402
-94.0,-5.271693798030689,-4.130662274356586,1.1410315236739832,4.744776387564686,-3.1867910654194835,-1.4277119736734964,-0.20797211969464452,-4.217583852171765,-0.8144662072400701,-2.7062875764110874,0.07618297313339462,0.6258463864592194
-93.0,2.854510405458785,-0.5569616295797415,-3.4114720350387477,-1.1825995329908225,3.145848119060398,-1.9961792914940981,-2.206012216798853,2.2595796754008957,2.205259535078675,1.7253934301436173,5.23433438128316,2.044264073746784
-92.0,5.53396966265242,-0.1608468513666701,-5.6948165140192515,-2.7199621149734097,5.626045112677912,-2.9445520645312877,0.4250278444155844,3.3824885933763547,2.7850952348450364,2.5521235417336654,-0.026042096620988442,-4.387246073317705
-91.0,1.372867238617113,1.0227784117323293,-0.35008882688478393,-1.2319680740016143,0.8767447844035745,0.31085362899140906,1.0335400558157781,1.351951224263124,-3.1044143842833822,-1.1051342986006878,-0.6363449013324771,-2.8737588445866304
-90.0,-1.720457823602703,3.746419858212259,5.466877681815085,-0.9700456821184735,-3.650355207000396,4.570190508677666,1.0616672329969332,3.0352927771312634,1.2697375647420706,1.7354679083996616,-0.03433344081231521,3.1099977021075365
-89.0,-0.5434225012179263,1.570652552612072,2.11407505383021,-0.47265997382278324,-1.29864885966415,1.8743112728675762,-0.6661230425874153,-3.6628196423595076,1.5589341235019727,0.4301543767420951,-2.654713202020863,3.0278413161625988
-88.0,0.18573560680942558,2.1767437944920243,1.9910081876827919,-1.2207353522478068,-0.943653880193845,2.108942919023715,-2.59885240946846,-4.544678045671754,-1.9889829898655322,-1.4398334981315686,-1.126600214759879,-1.1233320349841853
-87.0,-1.7747685003308737,2.547016798232965,4.321785298563829,-0.3480121078454245,-3.004395473624136,3.4577391470389074,0.9372677588424968,-1.4225190506810073,0.45352127144064236,0.0529449556312922,3.285889749893668,3.5461647279179815
-86.0,2.672380016321539,-3.0574828174215885,-5.729862833743248,0.1513001069905867,4.1703220436758714,-4.367122814203157,1.2756522071332344,4.126651221906268,-0.3430119851192446,0.5289829097782976,2.114644645654591,-2.816681477578181
-85.0,0.9528246974661626,-2.366174027212804,-3.3189987246791453,0.6651719389711699,2.1854737626358416,-2.888632247440221,-0.22418037989460193,2.0608351807773957,-2.4084525247958077,-1.9681887409535834,-2.5130990877793065,-4.093738690071094
-84.0,-0.7841449202964643,-1.320087796464636,-0.5359428761682836,1.089245187620723,-0.15447046955440857,-0.9678433590138789,0.8527977415035987,-0.2099340897599633,0.8050697831978585,0.13258073363492728,-3.3860982054088558,-0.2674897501572593
-83.0,-5.470056561715655,-2.37557921143222,3.0944773502833796,3.959541845475475,-4.238054195506331,0.40209760960361396,-0.010157137694687818,-0.7187218194203553,4.014239744979686,1.8899775840796873,2.49553826895405,3.801501189851944
-82.0,0.28834714203199985,-2.1482579604579386,-2.4366051024899233,0.965239003237877,1.3210978858441476,-2.3286172836134313,-0.024576095127305186,-2.330386956974785,-1.7398678758840735,0.34941546165781,0.6721526935776129,0.7446880958125193
-81.0,5.8922656296909,3.0675370023830255,-2.8247286273078402,-4.526743826713699,4.308817806987495,0.16028811043185592,-0.7103826162625622,1.4491285505056657,0.028061233808236746,0.5496626224816731,0.7709596584214826,0.6828923921450196
-80.0,-0.7645340827534595,3.2972057063149394,4.06173978906846,-1.3189660691499654,-2.391657438581972,3.6337879772880273,-0.7548864622155159,0.6750844650351437,-1.0320512685338292,-1.758802069497796,-0.5394127451801033,-2.469104377455788
-79.0,0.9896980465561547,0.3475333278187067,-0.6421647187374293,-0.650124458534175,0.8331276491072367,-0.12017091646495226,0.0974652645133911,0.5020243005836436,0.7650446060221107,1.6817420917388024,1.3833354248954173,2.1043073216264614
-78.0,-3.3116869365948025,-1.0612429383025563,2.2504439982922646,2.1972679030157467,-2.762817825619611,0.6175781111808383,-0.18591231459842283,0.43732948562309615,-0.2321606703980869,-2.9543570079600325,-2.101545282165567,-3.361668427213729
-77.0,-2.3401020653182205,-1.6354529530234228,0.7046491122948444,1.9933147243891107,-1.4972821239885974,-0.44373795450655085,1.3270124395004759,-0.5708228948862926,-2.7225114874066065,0.11942925867083143,-0.4580478620080255,0.005185941081277123
-76.0,-1.2089596085995562,1.230126746555692,2.4390863551553816,-0.005653090785883386,-1.8666031472332376,1.7792364249460124,0.39949679574117347,-2.6758863935683737,1.704292388725158,1.6449602730971185,-3.028121385784048,-2.090379798162743
-75.0,4.305791188100401,-0.5885191102751126,-4.894310298375388,-1.8485854167279752,4.648287466812958,-2.713794703396024,0.26473585182258624,-1.3429708893562815,1.932583136720623,-1.6995685726755432,4.264808715009145,3.44978929075726
-74.0,4.873671358888807,2.273560297531663,-2.600111061357101,-3.553320968469854,3.715567139931137,-0.20840595437455,-2.7138475606508545,0.1701149105250872,-0.2530300251881453,0.4990870612912222,0.768286329297345,1.7392358162846562
-73.0,0.4365801152392679,0.8332569487417698,0.3966768335024229,-0.6801765427547048,0.0018185429759238758,0.6556131148675655,-0.9418931805812024,3.1719342333562652,1.8004920071537511,0.962190027129739,1.0135830308477896,0.867334019607293
-72.0,-2.8696016915699643,-0.46554498081241574,2.4040567107573763,1.7141335243101683,-2.6589393827358165,0.9385211796896631,1.8571096820277213,3.8354942544405297,-1.6171289650494267,1.8978804045302862,0.7176987845008442,1.972441400250951
-71.0,-4.857609081933473,-4.8694231518877,-0.011814069954389383,4.841256505803993,-2.4548356439043038,-2.3857049575043745,2.88654879626083,-0.8724306532406636,-2.6670633690806946,-0.3079632875672558,-2.8257081271320623,-3.672010989589019
-70.0,-1.6903979649607903,1.0773730556289092,2.767771020589617,0.2890945083208649,-2.194570583797851,1.9040891589212035,-0.5481961122788637,-2.3075438956138243,-1.5941935615032046,-1.84599668287212,-1.198465829334736,-2.2386649565655588
-69.0,2.0680324929737397,3.2103781294768394,1.1423456365031728,-2.6571122664876152,0.4867633387347945,2.1604513772816487,-2.863847658315816,-3.693918870963281,1.6203402205660695,-0.0903149709481148,-1.869779410119797,-0.5305159688259669
-68.0,1.1357013244460068,-1.1681898219173639,-2.303891146363203,-0.005975696369215688,1.7382134958502515,-1.7532155281085848,0.994447404347398,2.8094570900966565,3.432232903855487,2.064458156951199,2.3785236197932815,2.281945314883494
-67.0,0.09642399795940104,-3.9548185445339863,-4.051242542493238,1.9802082009734834,2.093255498020561,-3.947004568526711,0.3022201088686003,-1.4708562577945634,-0.974033429372891,-3.10181951197606,-1.2478239794082704,-2.835456810615982
-66.0,0.32510108440050023,0.7564674148899464,0.43136633048948436,-0.4938219015406969,-0.10581167314158457,0.5618448241947778,-0.5539117131738435,0.3393356810687542,0.05537541274049326,-0.3757655187018858,2.5410029673651713,0.2536035595516891
-65.0,0.4876614438757833,3.4857648849944103,2.998103441118623,-2.0192986002827285,-1.2194150755597204,3.1982295041618,-0.8140135636969856,0.6148596466473593,1.3920214138673686,1.6163308068963291,1.5713842069745403,4.059064759431384
-64.0,5.465140352271913,1.4535807001391707,-4.011559652132797,-3.4890431539103672,4.705082483680197,-1.2555396088151662,0.8978344961646108,1.3498209391356164,-4.998821893928264,-0.48269436396233667,-3.5528393379058905,-1.8723597792500528
-63.0,-0.8465598821414384,0.06793640740490203,0.9144962895462498,0.3654757989012496,-0.9067906281875839,0.5056569929384134,0.5715865520495542,1.666586838447417,1.3131702621834345,1.6487099131067346,0.2042129415366296,2.5086350090141645
-62.0,-2.317745154730557,-1.9039883259498138,0.4137568287806245,2.1730066612840777,-1.3102720887048969,-0.7351258476866669,1.2410875638323655,-1.0992302674851018,1.8319322915300105,-0.22820257056598592,4.152465342523358,0.9660684157948591
-61.0,-5.8361279022890935,-1.267805137727497,4.56832276456149,3.542010848209089,-5.2263826652485355,1.6610594959055354,-2.6052295108841657,-3.98065182282757,-0.6990925981264025,-1.961580343769773,-0.170163570583584,-1.4651239189355472
-60.0,-1.6172675670227927,1.9636304825135564,3.5808980495363087,-0.17896222066283762,-2.6266521667733174,2.7883373883430265,2.2471011569859236,-0.2383032252805264,-0.09925678026221194,0.6986086671882534,-3.1080823031875133,-4.662614850755879
-59.0,2.039216510338232,-0.2230031767449571,-2.2622196870831512,-0.9135569212729611,2.1979683529727105,-1.2975135658172166,-0.5739275229114169,3.49591555040339,3.336191288389604,1.0858686223556528,-2.143674295687601,2.456152528573535
-58.0,3.3989148198266745,-1.4048974142985824,-4.80381223412515,-1.0063050821539,4.067396536707316,-3.0726114772346844,-0.7539925872086586,4.3974662249863155,-0.12004226115888716,2.116704462352298,1.8025252738671416,-0.037674700620359575
-57.0,4.44818812905068,1.9923114181865413,-2.455876710864019,-3.2366319260201295,3.4971418906345404,-0.27280786196692586,0.31574573059207645,-3.309791421041232,-3.4230543818036683,-1.626432865851847,0.29788896154318634,-0.8561306860577449
-56.0,-3.3053045980593416,-3.3242068407927086,-0.01890224273327612,3.290016353985135,-1.6734396171369066,-1.6309714275244107,0.42462505631874675,-3.2842244838814643,-0.9682691382403823,-1.958375943576129,0.3480674109897339,1.984277334331529
-55.0,-5.584845950906579,-2.0494252255543564,3.5354207253522274,3.863786779803496,-4.584734739854763,0.7042524728247733,-2.052737339726245,-1.7748796804725664,-2.276771733283873,-1.789593184509946,-2.632147033978206,-1.9112242728637887
-54.0,-1.6631220800882565,1.4193615863200377,3.082483666408213,0.16378933281012253,-2.3125113795072987,2.287251728651173,-2.5380058823596254,-1.9726105764221886,-0.7063172987925005,-1.4374410713610648,-0.05973833661035777,0.18427420396485955
-53.0,5.815902270688337,1.4281954527038818,-4.387706817984569,-3.6607378297844626,5.08785190047474,-1.449541978856773,2.8892607540810085,4.08850826809446,4.693077148094874,3.0379964103977795,1.9660443687999696,0.7183539831486188
-52.0,6.72417585284542,3.3814082787768083,-3.342767574068691,-5.012778357911805,5.020479144998376,-0.03700958768563822,1.3183355452452545,2.0071070363645984,3.2101287424830636,1.6208381847341053,1.7758296916444074,0.46144350067692774
-51.0,-2.9367224338816573,1.9538249377174617,4.890547371599132,0.4526913506972938,-3.9301942742206943,3.435990413487918,1.5065044739532305,3.1000237638806447,0.2570567707726499,3.9638970153003794,1.6241177345942734,2.1898455177756975
-50.0,3.5757094739652358,1.7959797127655137,-1.7797297611996024,-2.7260097077643546,2.6534976601647884,0.013540483032421613,0.9406741586462629,1.7070729647563456,-0.7324062845861963,-0.30703711200922257,3.3520590515570445,0.17912542834868392
-49.0,-3.5092080914787083,-1.4759186926846122,2.033289398794234,2.5281388754989025,-2.7266364194571926,0.2772145975501945,2.60991674957737,-2.16838598872485,-2.1211133023782573,-2.7568496457096114,-1.033160775444797,0.7910209356189706
-48.0,-6.967653265717177,-5.718026842273999,1.2496264234432832,6.296217493168824,-4.152265029679014,-2.2396849202724205,-0.8895203224752704,-1.3785857668351607,-0.8623114893843089,-1.9696483163574383,-4.842178761387943,-2.0973471802920707
-47.0,-5.181368944249497,-3.728015418326199,1.453353525923358,4.48489385845237,-3.288728725603855,-1.1427804306986735,-5.878763526342699,-6.590802420139623,-1.087703553693575,-3.864660455649047,-4.882637482758884,-2.5269794818704634
-46.0,0.4840946691917114,-0.12212181252591758,-0.6062164817176419,-0.14948143109265843,0.5717895816328827,-0.364930501687343,-4.826866907578305,-1.2433554911760734,-2.8327763660284555,1.694338802634248,-2.747623269788746,-3.1576711151412566
-45.0,2.60167393671445,0.41342054720572596,-2.188253389508836,-1.4710387722667286,2.423973792582,-0.879180508586323,-1.7433144118662742,0.33301300305912984,0.306519194729983,0.5456128659875952,1.103979213675015,-2.0648223129589613
-44.0,3.617807451409176,2.6371048345409007,-0.9807026168684703,-3.1621482123481375,2.2546462382517225,0.8482447152988881,5.329986830232762,3.7717299439425136,3.7249535330371666,2.6074684140988764,4.255252133295677,5.688431769659153
-43.0,4.328353020634861,4.490089074223029,0.16173605358796783,-4.436198399194442,2.0441998596076525,2.358077363873025,3.258228704622294,4.3113721737620425,0.7596600787561267,0.5959423653221088,6.223641432394339,4.030947477095442
-42.0,4.9146047900203005,-0.5713973845412252,-5.486002174561616,-2.193381520245192,5.2436303327771965,-3.0657171982311837,4.778755572864368,1.3309701849078115,0.3113404523182137,-0.20371691844166184,-0.2138298479222427,-1.3529046293604432
-41.0,-0.8644987058806342,-0.9776127645939532,-0.11311405871325364,0.9786770828235276,-0.4104991124596127,-0.5776485468252477,-0.5276846244948712,-2.444868351609656,1.5345295599329665,-0.45340435116864697,-1.163801991647177,-0.49297044451120364
-40.0,-1.2767993542196412,-0.2059793706734363,1.0708199835463712,0.7155458075092038,-1.1324114568172006,0.3991895309270166,-2.4837589203484773,-0.17675695407638492,-1.4522772868969387,1.5730616134456468,0.12687482336467482,0.6923761693557355
-39.0,-4.851803872163339,-0.1791710002790725,4.672632871884461,2.4800884058309673,-4.804418706666325,2.2865036818190916,-1.5247756956492378,-0.49134353301272693,-0.9099148508680925,-2.87349133482659,-3.6369273302664813,-0.7574441808322852
-38.0,-7.036779799380426,3.012581290414017,10.049361089794582,2.042656188723967,-8.512317808321047,6.562340169310721,-2.80341143831347,-1.005357312725456,0.5482756690826447,0.7783508073902901,0.5577887161566766,-0.09987789394106272
-37.0,2.906929854908622,0.3163666155739786,-2.5905632393346254,-1.5949455884249897,2.7741198087281704,-1.1142599823070873,1.0446392358942203,-1.3762846128913309,-1.24709798073105,0.4402709635243607,0.4582611731814379,-1.3841315139403951
-36.0,2.226200083018611,-2.2634193804413956,-4.489619463460124,0.0225910453650372,3.300580642050102,-3.438964063871418,-2.2319882027248323,1.091740792583573,-1.3628899352290473,0.7755341001805983,-1.0913957157192336,-1.0535193533134546
-35.0,0.8010385034406493,-4.172442062837596,-4.973480566278443,1.6799055578787856,2.90662382821907,-4.559871675955226,3.4413181213856507,0.9784693779685163,0.11644637278468367,-1.2894881735439259,-0.3693448943477196,-0.1165892993735057
-34.0,0.02950043395754509,-3.651531096745325,-3.6810315307030548,1.7996947089430344,1.8743769195630366,-3.652628060722234,3.072640476256951,-0.10901616436883987,1.2373304743427473,-0.2862181520043213,-0.7880099118781931,0.7693505047896811
-33.0,-2.6735601285206645,4.8381262164973515,7.51168634501795,-1.0940004861188293,-5.072510761180812,6.192609265569317,-3.7773486981992597,-3.4852493054591083,1.283107954629115,-0.13619811549321997,0.9019212022241138,0.3103513356734253
-32.0,1.0216623470439739,0.273938441795603,-0.7477239052483124,-0.6543198733887232,0.8275420108289739,-0.2912972264968716,-1.6458154945825514,1.8253601689341798,0.08496044366457589,-0.7834973665690586,0.30861800541987283,-2.10547058547432
-31.0,3.4157325052070555,0.6929187674866117,-2.722813737720241,-2.050159702328049,3.09218348525666,-0.9826551167201489,1.0692945163377003,1.5096623244187042,1.4389891712812226,0.00875677222869714,1.3039856891509833,4.334269716369373
-30.0,6.536940710970001,1.5151338126214393,-5.021806898348312,-4.006698686898219,5.803173156355099,-1.713215080575025,-0.7267160544059555,-0.9816379906144739,-5.032395520154388,-0.6843424400801787,-1.6153206598540173,-0.7810320094973355
-29.0,-1.8971323549889623,-2.1530226557888796,-0.25589030079978636,2.0619597957589058,-0.8748165931611456,-1.2366098776949475,3.527284861461392,3.6714529166406966,1.6238960399199243,3.432049608920719,0.3324674605161349,-2.5579104358259706
-28.0,-3.4006660676301426,3.8668125364490376,7.267478604079069,-0.2580866225805417,-5.308187453147941,5.539410905034726,-0.03067503665464466,-1.6650146179853067,0.594549460976113,0.8524984208721855,2.8998000345995343,0.1626306143985452
-27.0,-5.630414150749733,-0.9368636994331598,4.693550451316212,3.271476707685993,-5.1333770625176305,1.8530327715463542,-0.10405151531922069,-0.2378111767997958,1.0916971743734423,-0.28031141065616727,2.5125290107806753,3.7673960893881233
-26.0,-2.633988741397848,-2.9075636645543055,-0.2735749231568474,2.7649119801916555,-1.2257232632709671,-1.5359721861007958,-1.4797047515111328,-1.9871344650808516,1.0590357371632295,-3.1761408103554247,-5.551874190005746,-1.5222584514961133
-25.0,-2.5011924110201527,1.7728382370357894,4.274030648055722,0.35718218425095705,-3.3479528174774003,3.0001012139040526,-1.654938617951395,-1.9046352993196938,-1.8155802232032636,3.194370614684366,0.6726540050350769,1.961114147893789
-24.0,5.745135922939159,3.114482182137028,-2.630653740802134,-4.444187842341623,4.1561518236224275,0.2983665354905889,0.41612726340849093,1.573834099167083,0.1487472246523418,-1.9542566007793636,-0.9097121483087939,-2.3122961122144177
-23.0,3.5329660283790703,-6.963457233718818,-10.496423262097755,1.690084384919785,7.068474599752433,-8.751098860898548,1.0750798748243242,1.0513692470086802,-0.3896561937641943,-2.633488634598418,-0.7702845806220048,-2.5958516496129427
-22.0,1.5200085622583273,-1.7774170227147574,-3.297425584972883,0.17161398464009453,2.3882376583109126,-2.5579209582405698,1.7654168598065711,1.7198953453943757,-1.8280783318926686,1.0345735162372676,-0.5733304320369967,-1.3200196025669544
-21.0,3.667182065820457,5.039122384742975,1.3719403189226678,-4.317968182176366,1.1280504669325029,3.184688476985083,-0.5414630581697982,-0.07877586994136043,1.2005058915412719,0.9933517060386479,2.6946832671164658,0.6644408356289301
-20.0,1.1100369210230765,4.105054533343557,2.9950176123206482,-2.575913905672262,-0.9650429476699104,3.5278611243873215,-0.07930194883366516,-0.45751426987651644,2.877235786339731,1.2026380754376143,2.3252368136338757,4.6556841559312865
-19.0,-3.703585565330516,-3.5910220920097196,0.11256347332089689,3.600234183523256,-1.9366130982556982,-1.6843569936243066,-0.835594412621751,-0.37351559169072035,1.8143851634121213,-0.22022847011611835,-0.6907526621373226,-0.17044645676050774
-18.0,-6.638712957786631,-1.034967411616661,5.6037455461699395,3.7917557382880807,-6.07831275630291,2.2592970975272104,-3.6219332466767993,0.5843607598297581,-1.0958179794790461,1.086614144378701,-2.103005429176821,-0.9346094263116318
-17.0,-2.0809086580950935,0.7171590641041742,2.7980677221991836,0.7178054393158677,-2.4035207938672567,1.8111451165207657,-2.011465909532636,-2.5216066408061626,-3.3895975810301127,1.393815455257257,-1.0189237362716996,0.47490852219639806
-16.0,-0.3123472524024087,-1.550779016230155,-1.2384317638278821,0.8904788493793269,0.49321852340096783,-1.4187837675486927,3.5558252312852487,-3.2739448924500523,-3.6404199704280993,-4.789791875789219,-2.738133165919213,-4.093017161147556
-15.0,0.25127888211506,-2.7747019065635574,-3.025980788678662,1.3007954476743855,1.5851773460716423,-2.92261651143158,6.759938257506475,3.7587968733288637,0.9109869486335866,-1.05294527172249,2.64664249501275,-0.5288868319883031
-14.0,1.8864757469475497,4.329495775100784,2.443020028153244,-3.1457776532052284,-0.25770828394428413,3.366443605181142,2.089732069131292,0.38315041114407467,2.1455451775216803,2.9012998255813582,2.4096166821444966,4.865788076241106
-13.0,3.2283650159024173,1.5993043073247244,-1.6290607085777031,-2.3699822393452914,2.365576426213708,-0.03171933782657066,-2.0804866311637205,3.0703073759024146,4.061126361740808,2.743008517737599,5.42265067006461,2.8688602466150717
-12.0,4.590118724545153,-0.6530691812929421,-5.243187905838193,-1.921023546967072,4.927832931177332,-2.8826191234021774,-7.653293797290312,-1.4256174384938187,-2.2864675306557563,-3.0421975527927354,-4.596595894121309,-2.256146359554071
-11.0,-0.5693324912401196,-2.6102848270966783,-2.0409523358567245,1.56178358507259,0.7448767143377959,-2.334739714956215,-5.9078004461629146,-5.418358952007797,-2.6889382079375848,-5.006898532506426,-5.208465539653008,-5.932354186735484
-10.0,-3.230691719648296,-5.363388518014635,-2.1326967983664686,4.27029370453619,-0.5376180828896011,-3.7531869934229505,1.896580393775806,1.1236549044011812,-1.5756932231111893,-0.7342179235435407,-2.0713140775531373,-0.8358934686189561
-9.0,2.254814959900302,8.167732562700111,5.912917602799786,-5.23961592694805,-1.8096546375189217,7.037825084591759,3.7861513327886906,1.9708863400352983,6.52947400424373,11.288483609470934,6.43158624835559,5.829262087228908
-8.0,0.8303643065570561,7.3141871830618195,6.483822876504915,-4.104739166528668,-2.7940418894173016,6.896502934628614,9.641268599361977,10.36260956857025,7.691473725717905,7.458454963367361,3.8782105913561224,3.530270275377183
-7.0,3.4388521634177462,1.8495631388280174,-1.5892890245894105,-2.6029915049876435,2.484248154394437,0.12410932583093093,0.6349461591837757,2.939254958673257,-1.4182740865099275,-4.718239984317515,-1.0240342382511454,-0.9573267682008493
-6.0,-6.280390601455024,-5.0266232766055285,1.2537673248498902,5.690710400803393,-3.7812998856062983,-1.8995163994576296,-6.999429217887295,-9.810915933194403,-7.820607124382217,-5.577219581611121,-0.8892102361252391,0.0864345713972999
-5.0,-0.9689642814875301,-14.232926303516956,-13.263962022029107,7.636599539084773,6.1445426210514675,-13.771186624040368,-0.8748450605355722,-6.133268980357843,-6.134986948211877,-11.532500249960172,-9.664778523057935,-9.23625455405052
-4.0,-2.698783447951398,-8.633589681818464,-5.934806233866956,5.624201912893111,1.6193599056834405,-7.23884268319938,0.5703304022190592,-2.140982736963954,-4.839591402419018,-6.769401518915953,-3.4992623774070486,-7.23914527609598
-3.0,-3.348994668140743,3.1844814351918247,6.53347610333239,0.043166737011374044,-4.943307797578828,4.894403866916825,4.589471672971353,1.9599684323375306,-0.8450869985764616,5.692551467195285,1.0750611430559336,2.4621497947312547
-2.0,-7.424605914695543,12.299464586774576,19.72407050146967,-2.3943778771572237,-13.586304685217364,15.96062168874164,-2.7293667244720377,-3.9151622650180045,3.8776610624402035,8.396743100866313,10.122456787472494,9.998397799357313
-1.0,3.8278706997131557,13.917697889887624,10.089827190173851,-8.905604311130539,-3.1565128759951744,12.02654046267596,-6.559879589781814,-0.6216980376380659,9.399000117236664,13.095614273651794,10.863361077625699,12.465179977546786
0.0,4.89070505820935,0.7876713542444636,-4.103033703965215,-2.8700539658151065,4.5362321076347225,-1.7150277365778992,-3.8227830838652554,4.788203654783927,5.54886143400664,-0.05970530961226839,-2.0322459535508735,2.5953507247824303
1.0,-5.36717103296464,-14.208337729203816,-8.841166696238886,9.83671928817349,1.7650783817274478,-11.501176709149789,5.929005028288358,2.054166706575107,-7.251547435009369,-14.022654514461442,-9.956144819463827,-12.645958680616102
2.0,11.628714163000073,-0.5704298205510465,-12.199143983550387,-5.479852725873572,11.934767428442717,-6.355870317051829,5.058183910672365,8.585146381711109,1.1150757345972302,1.2297100708938231,-3.548056233764812,-5.459991920758505
3.0,19.227668498577312,11.840228860968358,-7.38743963760837,-15.563956735279223,13.246318429113098,2.2627911105421985,-0.5150897631433606,6.021454789089423,8.781604795772356,9.431838636512643,3.9234664992066346,-1.759470128035514
4.0,4.083075111117076,2.838136647428024,-1.2449384636887655,-3.4923202489378684,2.6808817009355583,0.7622181377253381,-6.585087506752428,-6.215436614894125,-5.185045291272153,-0.5516848263784934,2.2067812898763712,4.067158826128651
5.0,-3.4906714112066854,-5.566254461464414,-2.0755830502577464,4.49378092755414,-0.6901326010726132,-3.848685089933748,-2.7578825708002848,-5.1537287443261945,-6.791412809899988,-6.469443062495372,-1.907300259742474,2.6701686411883854
6.0,-16.796859515724677,-19.048189041908508,-2.2513295261842226,17.962736681273007,-7.333435763872055,-10.673714398953427,9.444507491859333,-1.3881422670116343,-5.129945514578991,-10.201834793612216,-5.044327843072725,-4.0517181928257235
7.0,-20.00596043949008,-21.990998992824895,-1.9850385533353254,21.03474912890391,-8.991848568697751,-11.932819240481937,13.459555139637345,1.9927237227524959,-1.5610106352068227,-6.492072202622329,-8.957767245277699,-8.584089756935855
8.0,-7.4075842411021675,6.87190158988819,14.27948583098982,0.2222314643543779,-10.824195080966271,10.549429191064222,-1.5934292890250576,-2.717274852742036,-2.3104872015718447,3.483832770641084,3.2911345505765617,1.0071769611883188
9.0,9.85021067960395,27.150160415653264,17.29994973604929,-18.468694295633025,-3.704195123729436,22.272647928892656,-8.783222829832136,0.2711163348936789,12.629748791388499,18.332072115662548,19.10005867887552,13.675435129696883
10.0,14.475798070969969,34.23515043607337,19.759352365104057,-24.402636712305902,-2.6191405341764287,26.960335984128253,-11.926107924056545,-2.2743849821595767,13.689302913445621,19.473532148118387,14.937311869834485,14.827718489819107
11.0,6.05074040562579,8.541016212983502,2.4902758073585973,-7.262599037872226,1.7262290565800313,5.473591165133885,-12.6734822365202,-5.286838823772933,-3.181059468170618,2.885358750524343,4.939076261126795,4.2209433875782265
12.0,-5.360640758533741,-36.157321660149485,-30.796680901615172,20.795063024694798,12.744352802163963,-33.443380416087905,3.1643577920514288,-2.351998477174549,-16.587365183446078,-27.769644535941204,-30.427816808436447,-20.862237974200983
13.0,-13.622582080915805,-26.48855629796489,-12.865974217049025,20.016167232402648,-0.4300563204401353,-19.643580695853057,16.993670858274125,3.521976343532479,-10.286629654974424,-20.647493566819577,-23.063181945506056,-19.172122579303725
14.0,3.374220111804005,-4.431660313490294,-7.80588042529468,0.49249934509945703,5.616951170739313,-6.16033587180007,9.197300842135666,5.3582139230447305,1.1223232277975557,-6.533997967226873,-6.26344156629221,-6.339868405529905
15.0,17.308866516630065,3.1670038292278226,-14.141862687402487,-10.192528424458313,15.752058308205063,-5.44403141710336,-2.3067217270655007,6.350740068308106,2.9367207983704606,1.4319808879170184,6.9449487403324195,6.21066755205893
16.0,8.751455672383551,13.605890258075409,4.854434585691647,-11.20929464691588,1.9757401189195019,9.202078359750145,-4.1903504412482455,4.455216872058531,9.119277485201952,17.315010637965106,20.074532426961067,18.64116048161933
17.0,-11.369354101784419,10.226841200572409,21.59619530235632,0.622276802528841,-16.53222323887575,15.889570967210567,1.3809644849761438,2.0633278124647845,11.974263561011478,22.020421133078806,18.001820369696624,10.954458028930409
18.0,-6.181028985714921,5.86015504515952,12.04118403087391,0.13601321279503814,-9.156341580838058,9.010363465681628,-4.438471802068345,-5.525090962155637,1.9894241805979687,6.4724859254102505,4.716538813619176,-0.6938446745053737
19.0,-22.992060231643915,-0.12695125688827225,22.86510897475534,11.538793581145027,-22.88841304065515,11.348253218513701,3.0118052785023925,-12.230988621698138,-8.91617733594312,-9.889243590892145,-9.966687957529794,-12.892867781312267
20.0,-6.287372749273336,2.4775892167815536,8.764961966055004,1.8879924722471184,-7.477143296497479,5.593823677710147,0.8353109277059385,-7.991676583503503,-7.195131913647759,-9.21670657702955,-4.489129151360993,-3.467575352293176
21.0,22.91545858224057,7.088598965538196,-15.826859616701922,-14.936851869971042,19.351429513249897,-4.406806729552036,-10.429395375583223,5.022895351590618,0.9068821841409882,7.800243348672414,12.17742617905682,16.687490871397756
22.0,34.63590451178617,3.8022650256613577,-30.833639486124103,-19.230623010114346,32.72436043365382,-13.485982829606392,-10.25700270909742,10.956851370300061,5.803614350181535,7.283094782179063,7.550562144441461,12.853607946085475
23.0,9.45287547866093,-19.698692633627306,-29.151568112287798,5.111310921600389,19.298328996977922,-24.40510009684943,2.992704493920745,7.053036740932171,-2.593817181995923,-17.12868416622952,-22.822865377151455,-17.03840509894222
24.0,-18.21658712202463,-26.262534340232044,-8.045947218207424,22.22540511369489,-5.087183049750807,-17.1400381355448,12.953695707097749,1.9964285527417651,-0.5137932889682775,-11.668158363644466,-25.67736265765308,-23.778796251330153
25.0,-18.317672143745128,-12.983685840070772,5.333986303673724,15.631841109084435,-11.83077031296435,-3.81197975696647,11.565267653568338,-0.9757841307268809,-1.4845465751643547,-3.235689644515743,-4.6244707316570715,-9.201172469997621
26.0,-24.928769768628193,7.6781527487515575,32.60692251737915,8.600865205401476,-28.78025525375068,20.15759618907523,4.446845999841467,-10.060415903443118,-7.3450901332452165,-3.473177089807723,5.166116308558166,5.280502328653414
27.0,-11.876670360232051,26.60088706446321,38.47755742469508,-7.312743812406013,-25.19955571755873,32.479284185353386,-4.624763808753626,-9.726112908324309,3.8440315391441486,13.620224058596861,20.508388927542455,16.285580939006383
28.0,8.08800810635288,24.059831128124394,15.971823021771765,-16.027609944611214,-3.8959176066055736,20.0380711122012,-7.276901085528557,-1.0050732230830821,1.027669171069065,12.557077704141754,16.731704368389707,10.486551671604545
29.0,30.36294659905345,4.425924929275842,-25.937021669777454,-17.42778934532057,28.187288345481306,-10.809857000637283,-9.88356593422504,6.4091305738461255,5.331340374847526,3.0311188282242814,1.4193333615063466,4.06851649010124
30.0,27.31637702722166,-9.454095227727953,-36.770472254950015,-8.96406345144682,31.995891870410567,-23.08653475789174,-9.033594792433277,5.523474218976991,0.8701337992673039,-4.193540234538938,-3.4426537463028346,0.6990817175274442
31.0,-4.004155445581009,-8.372889483641451,-4.368734038061103,6.234747237855568,0.20994206280971284,-6.343478060308641,2.1528553011266487,0.8546969087809861,0.9485242419836553,-0.9745785344957762,2.0193159733035606,5.677815263808538
32.0,-21.345274350368626,-6.034031456284222,15.311242894083588,13.656248361936369,-18.381135971260875,4.668938350176539,7.980791430480134,-1.831448883867489,-1.3486025876818422,-0.861261471307512,-7.932451924677109,-6.184434116478047
33.0,-18.404287581314463,-5.166185087750618,13.238102493563492,11.749148869741697,-15.796169651031931,3.992314026017093,13.686137135053025,2.057205828265006,0.2666420239604378,-3.146537586985098,-6.934913347079972,-13.449435690076967
34.0,-6.255349834950588,-2.043809860041211,4.211539974909913,4.1881483616276745,-5.208901331509353,1.1248498294952674,6.124117407791941,1.7203834667929723,-0.7460497525146657,-0.5320460535883647,-5.072847234920285,-9.955355996797715
35.0,3.6040063421021804,-8.759230986483354,-12.3632373285843,2.6117774829455964,7.929122675790798,-10.593400141536968,-6.378469279050582,-0.7211668441493488,-5.220032423625512,-7.257844228976769,-5.669500575946198,-6.204944758204222
36.0,15.999243264057695,-10.031698176806124,-26.0309414408625,-3.0317196423251187,21.03931311254942,-18.059650501225306,-7.85976021954713,-3.6858543390851604,-7.948975580322587,-7.63248070491103,-7.342481661232415,-2.0865358040459543
37.0,14.108732320195774,7.394548542262495,-6.71418377793253,-10.72202809988801,10.435976633400966,0.39169636477206926,-5.8144837716523625,-4.7282004553389605,3.135275461937203,3.490092230809685,5.55525855500505,8.474613442562674
38.0,-4.7115531427611534,15.694411703325468,20.405964846086533,-5.539013394485667,-12.533760121624429,18.021171488150124,0.893013564151409,3.219528000734125,11.121310588888067,11.840872169106083,13.433175044497485,17.117907867169066
39.0,-0.487558431616985,15.288935509907915,15.776493941524649,-7.3654197721404415,-8.185450843148054,15.499728265025885,3.7187540938676076,6.580027333317759,4.813920106937121,8.701874769908748,14.826333702136385,12.884549272632494
40.0,-3.242244025413457,14.8464297518769,18.08867377728981,-5.7612101307056856,-10.640222347361284,16.508340280586356,-2.9051516442892957,-2.2007769580572587,-0.30960930044017276,5.048569406183334,9.1033746075788,7.155725087191588
41.0,-8.979329552840078,-10.815667234304001,-1.8363376814646832,9.865029854452084,-3.625391015148696,-6.289993336009368,1.7718234870527734,-3.664033124946955,-3.610746483205519,-7.495979082528512,-9.503455744199663,-15.52025612003339
42.0,-4.677715716718073,-15.615946224515458,-10.938230507798092,10.11760133754311,3.1550072498778263,-13.32360384038962,4.275980376541712,3.6648241171541556,-1.8532767679400464,-5.5732951065649035,-10.491602793976025,-11.957248903175467
43.0,2.2286388738553167,-10.707067230202453,-12.935706104058301,4.288334134385621,7.607810485995184,-11.791642642043042,0.1502565745027007,-2.676061259600818,-4.605890324280228,-6.1329771939318585,-9.772561031614078,-4.213486156000201
44.0,-3.600457700055791,-6.837648612396881,-3.2371909123415303,5.184989103001341,-0.15373209249509312,-5.087732774923888,-3.859255714485605,-5.9465748192344225,-6.252705303243561,-4.017473408390131,-7.980344699161979,-0.888940585667318
45.0,-0.2560868922118842,-0.12770996143512292,0.12837693077691004,0.1503281841816546,-0.23971035404632346,0.028428054831229232,2.855926980477981,0.2436002797054002,0.22233221218806953,0.6034768535072188,2.1812113793295405,-3.8660468020105285
46.0,11.823255487884428,11.6668203993171,-0.1564350885663906,-11.716361752627137,6.024764612812529,5.783754763049919,-0.5354054828804217,6.254986627061613,4.3479037559695435,4.276297554713628,7.317045844050806,5.435696219064889
47.0,11.235346837084972,9.757932704850997,-1.4774141322328016,-10.475000122550139,6.3155310343613245,4.0913035801825846,-0.4413935036687363,6.864860081753655,10.792637360351018,9.494986464256174,12.536817231453108,10.626224874838588
48.0,-2.778543307001934,2.457566543352712,5.236109850355269,0.17848765209973116,-3.9676245690884864,3.8786449277874775,-0.7695566422432513,-1.2160148261617358,2.8490342305718865,3.155447558268481,1.9110244034048272,4.615016778577461
49.0,-7.154477198358844,-5.8663197050227875,1.2881574933364748,6.528867599679051,-4.259464497492782,-2.3332642235774657,-2.0812114028430133,-4.373086775027807,-7.009124405798696,-7.589253877886239,-10.59532112139727,-9.077658203881608
50.0,-9.679113218652233,-9.924872112038372,-0.24575889338620094,9.745691031493303,-4.753768049138427,-5.047481483488234,0.18320972622781717,-7.082280763812422,-7.346427946611511,-8.968707123327919,-4.674370959643669,-5.5801708818388285
51.0,-3.401309093450134,-0.8840509435054558,2.5172581499439817,2.1711632994045917,-2.915031040018861,0.8576266704485092,2.97249255876921,1.0233214626734837,0.40064535820680014,2.0524091032517635,2.2766976102779077,0.37562745249598617
52.0,6.888578372149587,6.211260873512478,-0.6773174986384589,-6.593711953640762,3.8322985718986615,2.731471315844101,4.155819919526968,7.018752813525724,7.585582785054244,6.711875859663486,8.029541447872562,8.696533113010855
53.0,4.942288615854316,2.500969274125976,-2.441319341729791,-3.681005913452071,3.6699045264020342,-0.005276475585797136,-0.7320032023689957,1.5386580135577654,-2.807431560522965,2.022593491246406,-2.2147726932164082,-0.936603777976168
54.0,3.6910380742236706,4.088990032949977,0.3979519587255296,-3.9239912678313633,1.6332045453864263,2.285310095762356,-5.487733531034941,-1.9623892327394012,-0.3527757762595337,-1.014188140478909,-1.6180086899438186,-0.7063431371014148
55.0,-3.442614005527035,1.512989792773537,4.9556037983011665,1.0119266208810216,-4.204962911642543,3.1937971148454087,-3.7002525752572475,-3.229045418228093,-0.8562246534345189,-0.8530946832322428,-1.304617434772036,-0.8653470131687191
56.0,-2.836279135213314,-1.2836225636271847,1.552656571587687,2.028745822809582,-2.1960455419069245,0.16860393891241587,0.7344975276958774,-1.9290792432364678,1.4074039623301284,0.856568685932078,1.1290730143598724,-0.24917305382336608
57.0,-4.884333377689542,-0.8893357162400513,3.9949976614509293,2.9328708754965387,-4.44153661454623,1.5049958844472768,2.217945061149372,0.9362768123423112,0.6504282856066612,-2.7542387247326214,-0.9091564325111713,-0.06585004845030218
58.0,0.41646870415428294,-8.145301267974268,-8.561769972128072,3.828391752166498,4.482227795339203,-8.323524071386638,3.38986752226007,2.6584810918078348,0.38053924707539855,0.5063327826545563,0.43412062099287896,-1.4830514800631178
59.0,3.529932555200623,-3.3610477361613538,-6.890980291362093,-0.12507100550280725,5.194866945114862,-5.094280343043433,2.5324904480541424,-0.03337919809654988,-3.6105796277035536,-2.2343262436190834,0.29981769994295104,-2.49542964146223
60.0,-1.0038599353553619,-1.5157622193890692,-0.511902284034186,1.2930249419240294,-0.19330462195425913,-0.9786031494418852,-0.06429722414323091,-0.8685457987773189,-1.7026793705725796,0.27248877809362765,-1.360988252037005,0.8588109249479905
61.0,6.0441368837266225,4.190607351384631,-1.8535295323426866,-5.088068937549491,3.9126534446831807,1.1285387850941944,-3.1990251859403727,-0.5278026385952796,0.33894226954966244,-1.2258633935706593,-2.7914077194299343,-1.1525573331642838
62.0,2.494087483845316,5.3479705825350266,2.853883098688983,-3.972204333080411,-0.1451232305867746,4.062691964631802,-2.782906564764107,0.37395922400551423,5.189229491907101,3.7090860767404528,3.44713560847254,3.505440111017596
63.0,-3.4030579745301095,6.489893549845254,9.892951524375054,-1.514793429151852,-6.696135979412611,8.152333869619197,0.23405138924917157,5.366426255409255,2.2705652569220787,1.5737648236632757,2.1853114574977086,5.165003936752103
64.0,-3.5393102239823007,-1.318564632037603,2.220745591944783,2.4610983248499756,-2.84936436631604,0.48776545891331136,-0.0680072198887019,-3.190320821575957,-2.859146775632464,-3.0159415477613676,-1.775391030250085,-4.829574367291011
65.0,-2.829530883374983,-7.50165554392196,-4.672124660546424,5.123868687793059,0.8771489427628529,-6.0538576121742995,2.1237779988612973,-1.0069580588881388,1.116664629870846,1.7121005203092559,-0.1217530480466182,-1.0993709671294285
66.0,0.15977819243709535,-1.1265620793513755,-1.2863402717879227,0.524957118778957,0.7642578675205877,-1.176118036993115,1.6372652363520683,-3.1638344862888106,-4.548783905398164,-0.30814284232971767,-0.5968732738356483,-0.6060267897807836
67.0,0.8235102352007524,-0.8513118280817729,-1.6748220632820932,-0.020590683916418273,1.2975302811350862,-1.3122944268437058,-0.4068841541013579,2.1535586917325764,-0.9872884664223154,-0.03037132886769922,-0.38185785131769046,0.39204209981511284
68.0,2.326451770846472,5.993986998419006,3.6675352275725337,-4.194628113255222,-0.6957271602807935,4.861396541213965,-0.8766949316682717,0.00938830572608823,3.9530172674083617,1.973097906753593,3.3832326891563493,3.2330224683170816
69.0,1.1572839804412711,2.5340798416938632,1.3767958612522568,-1.8035545255014147,-0.13386501628624248,1.9097468310324222,-4.716143534059636,-2.143875077617497,0.6347930224804699,-1.389898925155383,2.475605340380067,0.9066497613082598
70.0,2.923970622954119,-6.104569058068105,-9.02853968102239,1.550386724145067,5.948287306916595,-7.530538302997962,2.6168983314950984,2.017710110988784,-1.2533245690940347,-2.9848682005903076,-6.421610259157632,-5.844798311010034
71.0,-1.650984850912903,-2.542512439067683,-0.8915275881547933,2.1327445013389474,-0.41537187130045083,-1.756815184462995,3.171448399972012,2.9747274422052543,0.37150701619394144,0.529852408653759,-2.1066231291354587,-0.15600833845749063
72.0,-7.130888099651683,-1.9104819562896698,5.2204061433619495,4.555379105838502,-6.141263438856718,1.6966519749678326,3.5226067276550124,0.0388328678883989,-0.485200628462156,1.1885621993062303,2.2820706109238658,2.1241877491429344
73.0,0.03478107720162393,-1.243658621006527,-1.278439698208283,0.5607896520456654,0.684495774289752,-1.2954862003892682,-2.201993061594548,-2.4435624149343846,-1.5214864831388757,-1.7089156256243625,-0.27907830007393963,-1.638421733812865
74.0,5.288766988443089,4.596855551137118,-0.6919114373062014,-4.906344372436114,3.016247940900672,1.999466178968544,-3.732984233268548,0.04631886490708348,-0.5123015735983547,1.1805949056551566,-1.8088625020608313,-0.9591928663425395
75.0,3.438357642393898,9.536045920712507,6.097688278318305,-6.528341671247754,-1.3009242022662189,7.787928494524502,-1.8156967558412276,-1.3135428952922372,1.4909946269907628,1.1343125954678197,6.075664585540423,5.4688990546880785
76.0,0.709024784122873,6.0158638315655395,5.306839047442658,-3.3248149764200363,-2.3430415293860842,5.635286919201443,-2.8146379221523485,-2.057124360569482,1.3590977448456383,2.331331525118509,0.8922919350370853,4.547270043608971
77.0,-2.5178625412487947,-3.18166479455304,-0.6638022533040062,2.807511623043582,-0.9651401168449671,-1.8673268632383122,2.022981598057014,2.3131561095142845,1.553591238344267,-0.3746636648428412,0.9522209777591635,-1.2345878372722552
78.0,-3.086648405034903,-13.252087357948238,-10.16543895291289,8.125845812692146,3.583566580747352,-11.729811615671112,4.14062792018171,2.2542704777309064,-0.90895970888492,-3.1579624431950575,-3.852264039469262,-5.9142274061779085
79.0,-4.8837422838506255,-9.27973698955858,-4.3959947057076985,7.11717452902845,-0.27867470880688994,-6.857308666558723,3.339717997842972,4.214562978138576,-0.8777805324785001,0.6934220307907137,-1.0292395672940935,-1.416714629219873
80.0,2.923481825594663,0.09145488360569676,-2.8320269419889965,-1.4690564565123707,2.839519847901434,-1.3890128093980563,0.587749414360403,-4.658538670066836,-1.7015519528376408,-0.4343503884223479,-2.601532586068207,-3.696344852414824
81.0,-2.3994707631314776,3.7986483704847105,6.198119133615922,-0.6554157767773825,-4.262990722262039,5.058079237544217,-1.5017830856540642,-2.93482836618223,-0.6842928921069301,-1.9777051833144577,-1.4235365619552525,-2.9466610573892704
82.0,2.0439134493607214,5.439573578040688,3.39566012867982,-3.769408186682849,-0.6437523958976468,4.397006345128347,-4.542994464569761,-2.5760065024964027,-0.4090809204173974,0.38142127992444064,-0.5342862315934042,6.487891215853995
83.0,9.306499825592596,11.279214970707027,1.972715145114397,-10.315181044584618,3.6979019114588803,6.6023255287714235,-1.7835382472973,4.16588114107344,1.1537673490933589,0.706694898976246,4.330713343776106,4.126898664832005
84.0,5.65682792464543,7.381915861001174,1.7250879363558307,-6.540495460401971,1.9196992375172397,4.603921659286602,-1.302879534137732,2.9920471631824723,1.7671020593281566,3.184095296642009,5.03286469973209,3.12040551362188
85.0,-7.608694539683043,-5.446940988488899,2.1617535511940957,6.502590697523354,-4.849612229234165,-1.6771737337905168,3.6212056327427735,0.20207800948606658,2.9072445502937008,3.1556095712263685,4.85883875643245,2.408637647663678
86.0,-3.689243986312933,-10.87857387138818,-7.189329885075347,7.328880873244235,1.709611796657256,-9.075740756373795,2.7990892566034224,-2.5221928907683604,-0.6412580961067023,-3.1132930696532894,-5.875437974644053,-5.030416359039255
87.0,-6.372224498706972,-5.240678613758699,1.1315458849480828,5.762250136296953,-3.7913513863578414,-2.024677133218934,1.6497123327094543,-0.5347435956007487,-3.418727063504686,-1.8194878332009667,-7.00600612900625,-5.054888690066174
88.0,-1.4778881534531676,-4.973761770504742,-3.495873617051605,3.251338485759529,1.0470886239058723,-4.210564183806166,-2.6318103132055892,-0.6731037366520786,-2.136502315227406,-1.3544624675918673,-2.057084045315293,-4.18993876071474
89.0,1.2331339283523832,0.9364837297809645,-0.2966501985712675,-1.0643064683237762,0.80031748668267,0.34100937741561177,-0.12027963029847033,0.3498678822292749,-1.298815889874033,-1.8112920084275814,0.2835886097396274,2.637083586383292
90.0,3.5870867140937683,10.180164775662822,6.593078061569253,-6.863152127546622,-1.5491127565786247,8.328691149465724,-3.870459297381289,-1.0645426468977808,2.6947252298314606,2.367584611890466,4.241760227954244,3.4229034742270743
91.0,3.8470417733272178,4.104114662082125,0.2570728887550664,-3.951215944974261,1.8261848060872667,2.203736245277982,0.0463277226415324,1.10749846592091,1.3223756246174927,-1.2800289871293193,3.66552409687022,0.9351164184500171
92.0,5.214797365978155,1.5351877199024226,-3.6796096460757486,-3.4241320791136927,4.400669654492268,-1.0449744414891655,4.97583215156288,3.8898399144485953,3.939877837709008,2.8186078442997253,3.451327048622429,1.8410215646479908
93.0,1.3366328466146145,-4.2815653245452445,-5.618198171159922,1.4270470707293574,3.513414643274842,-4.9965985941769695,-1.7085640817920105,-0.9337021808063071,-2.2715053968738834,1.635341643648853,-5.4186318266665205,0.21207891699816717
94.0,-5.3760784960397805,-1.7704230836027945,3.605655412436904,3.606780101583997,-4.44894940218773,0.9541309535516151,0.2515265366240249,-2.0785247293253297,-1.572976337906809,-0.2044260013358552,-1.7492865530285684,-2.1881585244215556
95.0,-5.728201764766947,0.027995735331052263,5.756197500097915,2.87993452807274,-5.772437358383298,2.8533017191203633,1.4463303381410244,-1.638419077169671,-1.2600949802805441,-1.671055632934224,2.0218231648530027,0.6799345067971609
96.0,0.6384653690078013,-1.1276146267347438,-1.7660799957425808,0.18932109028528155,1.1775016997605445,-1.4047962680834267,-2.5504448216151046,-1.0357300306846806,-0.7151314257632364,-0.3811294760237671,-1.476648801932639,-1.56871131909057
97.0,2.011659707920708,0.574029732976522,-1.437629974944257,-1.2759982823798701,1.702743351348462,-0.4676210926380676,-0.7700143458277563,1.4932544724635863,0.9222197368864145,-1.4876352659955758,-1.7169984802315614,-1.3247188266605756
98.0,-0.3979747446949954,1.2976554772558844,1.6956302219508856,-0.4374637501629324,-0.9902659257263955,1.5397011283397304,-1.3292601693032702,-0.650401512870552,0.3447818644378211,0.8174464000740491,1.0836024875268588,-0.8161227109235766
99.0,-0.978385009285473,-1.0580665291391178,-0.0796815198536171,1.0300570869170176,-0.4745818559798789,-0.604510094476058,1.9545609099338375,1.2795631027519465,0.12214488410737678,-0.13487503652734512,1.6060777868619678,3.7953515421188655
100.0,-0.05736526200509506,-1.2007726796055198,-1.143407417600367,0.6446363288663578,0.5133991481047506,-1.2070481257832701,4.3508360139986095,3.124659730474323,1.8821233599960332,0.27920649263529307,0.8742799569099657,0.324491907069957
101.0,1.3082749812645613,-2.404620499784776,-3.712895481049273,0.5706586198469485,2.5556671338701493,-3.013203377372248,-0.17244984191227908,1.2084891633614254,-1.7539648007361421,-1.2792587881539688,-1.3540907410004301,-1.842711013601043
102.0,1.3516203167152125,2.9352247331646155,1.5836044164493763,-2.191577854528461,-0.15182341587497272,2.307781351157696,-1.5801612418567768,-0.8151688744862062,1.1731347454285581,3.371001228703989,1.7365227677089243,-0.13120710180187517
103.0,3.177093075828938,3.284706402203341,0.10761332637440207,-3.271716199292714,1.5781943259238167,1.6690295537865336,-4.565943497196429,-3.638792593059613,0.24304443662982658,0.3522381658477738,-1.6460704353199995,0.7407675307447977
104.0,-1.3087987823850664,3.346168252436123,4.654967034821225,-0.9753148304915469,-3.014165068815212,3.976235958478836,-2.6603807118836844,-3.337064764580608,-1.8736015547339153,1.4493070517223705,0.33458729642047635,1.0533058449161137
105.0,0.032775038620565744,-4.287160952303615,-4.319935990924119,2.095294487282203,2.2271151494914125,-4.326174297028106,3.65829030732234,0.5280303941824616,-0.8843460463325351,-4.371306995339966,-0.6137528595155303,-0.8289970937726492
106.0,-3.116450700130327,-3.1475389269011353,-0.031088226770877636,3.181050693063245,-1.5668040578452525,-1.611304319951849,2.325703380493416,0.9512197639450584,-0.003479263182945558,-3.9925268097923006,-2.345669418592894,-1.8218226079988988
107.0,0.7230436014866228,-0.8294148299884181,-1.5524584314751002,0.025170412145863352,1.1156129207238195,-1.1340174199137163,0.6125417436017588,1.7953776171577887,1.5228246148252882,1.7387960352187513,0.6199578057167886,-1.0347857600396102
108.0,-5.949388861842195,-3.2485635535152846,2.7008253083267784,4.65115199235112,-4.347659906086224,-0.29540388515622096,3.4682367546448725,2.5102000678813843,-0.1306823177529578,2.997114061310608,3.9926024880691395,2.753826072334552
109.0,1.7236523974810973,5.679017450981595,3.955365053500407,-3.72701358935988,-1.1405407290334708,4.874831231572078,-1.919797701994797,1.6168142584172422,2.65790584866017,3.0957830534835957,2.182447668659268,2.9048704054840977
110.0,4.060035775041653,5.091334948782477,1.0312991737407993,-4.601614347252482,1.5660739694777872,3.0398983018456365,-3.5340425879971216,-1.939687947147527,-0.03519998328303919,0.30332249347555873,-2.882570344458898,-1.5304916161104374
111.0,2.3400180933029824,1.4135337660984635,-0.9264843272044012,-1.904504162792084,1.6838045579323824,0.2197199277302575,-3.9639742497627815,-3.1038725632464197,-5.1048795887866705,-2.080653647289757,-2.194338267057594,-2.7919860235980782
112.0,4.311658494113085,-0.7439954164679998,-5.055653910580815,-1.7360422846541277,4.656092784202505,-2.929129700700134,1.549080456950723,0.37947702608697154,1.729640832983045,0.407992412343962,-1.1942015242586184,0.6636321948676205
113.0,-5.821748690956136,-10.152540647085301,-4.33079195612893,7.952094386332089,-0.7711761600718892,-7.2008251161907015,4.1572905008571235,0.7921197711022483,1.8520249141901313,-1.2977459914818785,-0.6971416333258162,-1.332655148326868
114.0,-2.830768386918786,-4.644875699303599,-1.8141073123847178,3.7772648454407514,-0.5322776812973578,-3.277780248165193,1.8162801004504137,-0.45478046004723915,-2.3863835567695952,-5.765651419226122,0.7077177186253139,-1.2372283233884287
115.0,-5.00406754629136,-0.6322475962841847,4.371819950007061,2.8536416784784953,-4.633012413135429,1.8903862040590438,-2.2079451015038827,0.5792218305629071,-0.9228109629274104,0.6915972417809,1.8482865967882458,1.4037217205686343
116.0,5.241872879936146,7.787288277906638,2.545415397970234,-6.561330640355445,1.3218149363662928,5.180059345289618,-1.1152819404887175,1.7000611709265852,4.60729125137051,5.686400917205242,2.8210893444625587,3.479403386994205
117.0,2.7370463391087303,7.258666914950988,4.521620575841985,-5.047507299453294,-0.9243881033731683,5.901607395127472,-0.009434764043068311,-1.3263649031515508,-2.1503535172238095,0.8908382242914863,1.649707464296244,1.0727779659438044
118.0,3.1539336490839176,3.5184570372580257,0.36452338817390917,-3.3091198496101653,1.4330221543477937,1.9556404454338834,-0.5997539292746543,0.5122422282904169,1.2813679386241197,2.2679284974471443,0.0076200366390438146,-0.31716685082803353
119.0,2.7148880059994815,-0.21114364975749678,-2.926031655757035,-1.2254805796558328,2.8489477359938613,-1.5479627837113261,2.6048009957170195,-1.537968996021578,0.4924418461967868,0.13763812501228911,-3.1066193867302307,-1.9376041337701966
120.0,-5.447167133065201,-3.940468151896538,1.5066989811686833,4.7211962511644705,-3.5369104665156463,-1.2667072123266843,-0.5145744195554087,-0.913472391827545,0.011544370840576773,-2.148712168881756,-4.280823879704787,-0.960686657939964
121.0,-1.1404393437311895,-5.631044167063767,-4.490604823332455,3.336912244604849,1.6860360262583693,-5.102365049245261,-1.1607187370002245,-0.3129096998886426,-3.391460064067786,-4.4518677549187915,-3.3017857196586657,-2.65795867899227
122.0,-2.2494808276137093,-5.36114691575405,-3.111666088140199,3.838713782486351,0.4377257009753348,-4.191927234451891,-0.08786611702434077,4.498106097405904,-3.174687721375488,-5.011222311081693,1.0852540795709167,0.29205567567913904
123.0,-4.592517465437874,-3.8323714069441555,0.7601460584939033,4.170620375957309,-2.669519850237632,-1.5640935756716214,2.043988890621904,-1.0144930472045126,2.63094331938954,3.1893111224341633,7.104587197119976,0.8577267418729708
124.0,1.3647951444640252,2.4827808178896014,1.1179856734256979,-1.8841233508154933,0.13489649882080712,1.8570997279223282,-3.3407558179554697,-0.8647032173325235,1.8926222781279836,4.915380274337311,1.880998410532297,3.5694122132026136
125.0,4.037035245148364,6.739840558582008,2.702805313433707,-5.426094466336271,0.6866334860478326,4.70547666736878,0.17989078265774505,-0.5014795836561045,1.336246171566978,3.7871939775840304,0.029183138083433535,0.018677196387344885
126.0,5.589290891069584,8.202453782783508,2.613162891713931,-6.854762253983546,1.4381237354481822,5.398426259084632,1.0679954985454587,-1.7299115292802254,2.3546773889392236,-0.055027594294924764,-1.4347083998917496,-0.8024939368494687
127.0,0.12926108724887708,2.6531800033500863,2.5239189161011866,-1.4299542775439438,-1.1604021125685673,2.5852886987549653,-2.127420502492249,0.7829712945496644,-0.9099861826051867,-0.9980808746864565,-2.067939561757134,-0.6996904135814292
128.0,-2.3172561825899014,-4.938058441226764,-2.620802258636999,3.6660815043446764,0.11480532444562014,-3.777974678169061,2.1392432406549187,1.4021839036236348,-1.200554148993461,-4.728096317720206,-0.0573998968257996,-0.5828005795091832
129.0,-4.618630674237945,-5.163203687356026,-0.5445730131182531,4.849286762387369,-1.9947865609488835,-2.8502600638181876,3.690571835608686,0.6777905049220494,-4.197586883570439,-3.2221899916208794,-0.41853037115313807,-0.7272489682158461
130.0,1.5039103908869773,-5.343653698455031,-6.847564089342251,1.9567629759740268,4.1354564018541975,-6.093197040549952,0.3680614489019334,-0.8202499427874558,-2.2943381204315587,0.2950488395211748,-2.6194679709298834,1.4729547499058968
131.0,-0.30660425264921665,-0.014848504597688716,0.2917557480513673,0.12030770821341807,-0.2672370620859953,0.13601023073370477,-3.5078310429871173,-1.263260133907936,5.894481077246892,6.158381029357673,0.3691055291533756,-0.2913409778444084
132.0,3.2471812964543263,2.064227203917422,-1.1829540925368232,-2.6140748963098175,2.161455041750239,0.43022494655791965,-2.4108627136657574,-1.522840128832158,-1.2081148901190413,-0.39310893057935203,1.6789858905755932,-0.781102999296428
133.0,0.3942389586439533,3.984415039537785,3.5901760808941106,-2.221649707731138,-1.5771125114883762,3.767095476491885,-0.8627652007338509,0.155524262082814,1.237028509967641,-1.5819693002732709,1.2051893281229207,-2.144595912910365
134.0,1.1480164990952506,3.9972900185909808,2.849273519496082,-2.52082508749689,-0.8292994672737868,3.4720381052411398,1.7341435849671107,4.025354460112833,-0.3124166888120256,0.5614751491914489,-0.6681341792235338,0.8339783386972365
135.0,-3.7408592670319223,-2.2538053814860453,1.4870538855461324,2.97521764356685,-2.586623361594345,-0.42126780186791013,3.2181248123926385,2.998210283372158,0.010831195889183548,-2.733020389721509,1.4167312198939226,1.61818154051979
136.0,-4.184218643533507,1.216942307941737,5.401160951475283,1.4646817382639283,-4.833733558002745,3.3454040004223007,-1.6772773572911401,-2.990159842418003,1.0723607435644589,4.56496500999341,3.1443745770581755,3.145388885541185
137.0,-2.811846126664595,-4.025948152175446,-1.2141020255109904,3.400989553222139,-0.7493425524113418,-2.6628210030598067,2.283544880143873,-1.378990908599948,2.394478917738417,1.9370626301278835,0.7020164926114687,3.6739053225756777
138.0,2.1453433744100048,-3.1847625524819234,-5.330105926892208,0.501055385866157,3.717965378405873,-4.218025414794553,-1.4352373647744632,-1.9927066726276301,-3.5940521033989916,-3.6356588970207553,-4.0081536510185085,-3.5875459615175775
139.0,2.374075298448613,1.1188259953515594,-1.2552493030973708,-1.6880740448232037,1.7985750018247129,-0.10143906910637934,-1.560898264545464,-0.8931252904147438,-4.0388120370416285,-0.8688460312302242,-2.3845481463234615,-5.118717328072196
140.0,6.88806317024382,2.5434058525565355,-4.344657317687516,-4.7380511270320795,5.596365626156437,-0.8482143732346884,-1.0192940147370892,-1.640838906940896,0.692465762621131,-2.7530932300446618,-2.9211357346107922,-2.687806575407812
141.0,2.4666104460902916,0.5720912264854219,-1.8945192196049914,-1.4649247207690848,2.149666928975602,-0.681989237017486,-0.06931119245623513,2.571183656552588,0.5962129307357896,0.07962667838130744,-0.9439520068361211,1.0425869522389548
142.0,1.4195762690645766,-0.5151372358030957,-1.9347135048675215,-0.4791127967255613,1.7099334436323426,-1.2431467561220721,0.1936537918934701,3.0990443051256267,2.2053349503328157,0.8405617848718255,1.7363427500214677,0.7079298171384543
143.0,-3.947767644003423,0.7436813201700724,4.691448964173759,1.571315843411155,-4.301920458846137,2.6982071832987486,0.4299324864611551,1.06247036936509,0.3709683894155984,0.19646481833891594,4.785526660468135,3.48685240293581
144.0,-6.046944384079898,2.3643784135668446,8.411322797646992,1.805227920069076,-7.222576269633583,5.364231492760057,2.320034076313457,1.5947682799428864,2.3417298651979843,2.442377896793367,3.5878373614618213,2.5695024845349836
145.0,1.1903118795980485,-0.7048330666393922,-1.8951449462373149,-0.20619321400854407,1.544762682683416,-1.2507203483992986,0.599344338664647,-3.1566646941983234,-2.122874578324917,2.255850951678111,1.5245284189449109,-0.5017194543329366
146.0,-1.5302986840583293,-2.7723002707138753,-1.2420015866554612,2.182331495470863,-0.139412108318811,-1.963563631459166,-1.3962984101720453,-2.7640620333453634,-1.4204237157971253,0.834346857074205,-4.700167160418551,-0.7935411640152072
147.0,-0.8613767510934651,0.4302692136440234,1.291645964737409,0.16460981140909856,-1.06314935180052,0.8216216634416225,-0.8613900247854107,-2.599578216267787,1.3785231472391037,-1.0054439708200467,-3.5446551741723855,-1.9229811225252007
148.0,1.264660282683698,-3.7624991899786044,-5.027159472662429,1.2769246591999495,3.0925451482532136,-4.436321027105516,-1.7795284412905246,0.6352057736318115,-1.477699718757181,-4.747428763324488,-4.400585059039245,-2.2547812201499813
149.0,-1.2853439428894644,1.522267463309321,2.8076114061986637,-0.0867314436000286,-2.0084679149616242,2.2017952166109636,1.6694588763810139,4.576746380636817,3.0332623134264702,-0.6142748262781437,3.1431933781044297,2.228601202852873
150.0,-2.5737420117448213,1.6715371704667046,4.245279182211622,0.41026538798129497,-3.4392614751912927,2.9958455667248653,2.9582564510461684,5.58229572322919,0.6324353218867951,3.6138190399765904,5.543923668305002,2.2897737818338797
151.0,5.4468461422791705,4.324600126712469,-1.1222460155666143,-4.8410938172442854,3.2629086919019574,1.5604870380692137,-1.764988169126398,-2.685676520303512,-1.2978695107397769,1.6114820335146334,3.251413512239978,-0.3685016259641838
152.0,-3.8023913115577237,-4.233279589910042,-0.4308882783523771,3.9888583803111444,-1.6236749417397585,-2.372900597583686,0.7290363169483299,-4.309965432285749,-1.9242941989325528,-1.8234404996861928,0.014039951376667581,0.21392110861959854
153.0,4.764418413144014,-0.904310951455356,-5.668729364599592,-1.9569728274758245,5.202058822466046,-3.2498705240113233,-1.5350068820077314,-2.4375272405310486,-0.2384982383465014,-1.9335099494157992,-5.073522102535155,-2.519425754902808
154.0,7.029860455470914,-0.3452841302417473,-7.375144585712853,-3.3706262821819872,7.187891144012565,-3.8260120271590186,-1.5698450639007042,-2.0361131275331203,-2.2634369958099345,-1.9028211481849142,-5.643744711924937,-1.6112580666070615
155.0,-0.592410504073944,-0.5102442497891313,0.08216625428473778,0.597583644199323,-0.3537550431904298,-0.26196795365469283,-0.8079218127622878,2.2230371928307657,-0.7925453366274411,-1.6017988038199231,-3.265657465169845,-3.8638583082270945
156.0,0.5808608101892272,2.8543767820896493,2.2735159719005376,-1.676876441365624,-0.7872786993564596,2.590742137352827,-0.6372270151503965,3.0266909521300738,1.153889920860467,3.0577276918222425,4.165535614103474,2.6533188709765874
157.0,-5.440871772383551,3.3441228860599095,8.784994658443683,1.0048446943149625,-7.136892068879614,6.086986804276238,3.958088812370518,4.377840048369954,3.6792533455030605,5.153570043201119,8.41663798201075,5.75159795059542
158.0,-3.9590396926397045,2.9317695968626203,6.8908092895026005,0.5442117500831682,-5.453663004545037,4.850637125296895,0.020616670770852608,-0.5579703856242135,3.85121554408477,0.1788990436620912,1.9254738835545977,2.0364912244618067
159.0,-2.279094479835094,-1.0307481516880348,1.24834632814727,1.60336097855789,-1.7970004424311,0.12312368926503736,1.4076588478975334,-4.904004356227265,-0.13096036836493408,0.8347111607808646,-0.7064257636443305,1.559188519678254
160.0,-5.3096619109574945,-6.388246493624044,-1.0785845826665292,5.8740831181649416,-2.073476743933302,-3.7217209676052456,0.397319507159026,-2.1948019677277326,-3.5429119638183533,-1.4451829727919254,-2.9726345078645133,-3.310093377643083
161.0,3.6453628340901836,-6.719384202906665,-10.364747036997025,1.5613740609676217,7.045472390428076,-8.53144167117714,-3.467159112691159,2.04517158664601,-1.453581360567199,-2.909107845390402,-4.554294599348175,-3.067161231075975
162.0,6.054777468656734,-0.8502401690389831,-6.905017637696035,-2.656176398909878,6.441609971196625,-3.866521545036846,-2.2166432589965073,1.5355567133432424,-1.7857689832748962,-6.353183853604879,-2.2391691400531832,-3.961257627910305
163.0,0.46255469745347,2.7552963815358273,2.292741684082131,-1.5824767689541912,-0.8737980605168607,2.536679316639307,1.2251633418293861,1.3801426472967675,-0.7820003892822898,2.1309796549990367,1.0356388309146325,-0.003552220207653667
164.0,-0.3588964044447791,4.230779148067976,4.589675552512695,-1.907055985469151,-2.511502862654032,4.346012695772631,2.35575433606565,-2.418968877076013,0.32771433727092714,1.7708727585442534,1.0187206614011792,1.6592916822106925
165.0,0.43591852919431606,3.0404331626720347,2.6045146334778813,-1.7853486774568692,-1.1231045753346094,2.8385393557927667,-0.1888160983833742,-1.0858632239391641,2.662593241978894,2.470614958470827,1.2716549217336552,2.3446442273323127
166.0,-1.0293356206575073,1.6850935516589862,2.7144291723168084,-0.294181257835586,-1.8358765563233075,2.216647794050814,2.6010816986581493,1.2354758781887307,1.3827297100124831,1.2881458112709518,3.1926116894325878,2.6692844247241556
167.0,1.9252484168257853,1.8729793456396158,-0.052269071185867766,-1.8647249809448045,1.0188777426920397,0.9272809563205484,-2.7960691122349517,0.05005878358312127,0.06352975052440168,1.9534769336071718,0.32855205278520105,2.869522942892395
168.0,3.7884726758307337,0.4504688896477689,-3.338003786182907,-2.165067342447968,3.50791333936261,-1.4274923275237048,-1.3649665663586528,-1.179612513914434,-1.344246925080817,-1.1066199284612277,-0.7577562276178689,-3.8701611299044876
169.0,-1.5881158500291832,-5.488734356138664,-3.900618506109736,3.489939054105424,1.1736514866213217,-4.7582979231165075,-0.8561933241864906,2.79080598957607,-0.5402230385075598,-1.9335700461388705,-0.7736452990378058,-2.8606529800077727
170.0,-3.532158568624097,-2.9920795150441553,0.5400790535794839,3.2890310186387532,-2.0227429701191273,-1.2121911006212436,2.411364324328716,1.023467438896831,1.1766390218036538,0.39357636413330743,0.6145252125821565,0.9418397376126904
171.0,-7.332391211004579,-0.4094730604916532,6.922918150512528,3.8958068312478105,-7.1155330379641315,3.2694611241412055,-1.033576731559291,-0.97123620056762,-0.243655003267402,-1.5554203798802433,-1.5112706540818583,2.432456652479652
172.0,0.9351481698238615,1.647343172695399,0.7121950028714723,-1.2654693431120159,0.12510078000162528,1.1920285407834346,1.5831450033604306,-1.1743078092767458,1.6948756550374509,0.8180473882818433,0.6362101486028395,-1.3447190853160513
173.0,3.6027059117537346,-2.5359608632185258,-6.138666774971835,-0.5818030647104767,4.809094000393387,-4.32488459371038,-1.858396975091311,-2.714434466895124,-4.729984685903529,-2.758856955932261,-2.577530487300731,-3.1182550344583913
174.0,6.63444186573141,4.9978488962261505,-1.6365929695046522,-5.778279657072642,4.157103782012844,1.6936333472801937,0.8846790017160101,0.6790150177622065,0.8169905431043061,1.874796034231653,-1.0002702757702118,1.849842381167079
175.0,-0.6438492977941581,-0.7018241697509962,-0.05797487195632822,0.6405937293028447,-0.2672090915233847,-0.4449449018017204,0.3991073014669784,2.4831440224007735,-1.4139265049267769,-2.196570117140153,-0.9642928165386146,-1.9265199601586154
176.0,-1.0419744521437782,1.8477537395358978,2.889728191679802,-0.349327771446172,-1.9371803912754213,2.3833088930107835,-1.010976098118507,0.0505215436548927,2.719002510369985,3.237072416785735,4.050610386367641,2.0480425484597613
177.0,-4.311050304908854,-1.7323092581113093,2.5787410467972167,2.999294886001183,-3.493588545355277,0.4393551853875224,-0.9820882621814219,-1.49773404939181,1.3340247767885547,1.798429255928315,0.9891681600596836,4.046963944693504
178.0,-1.1049539260838102,-2.0181192792322227,-0.9131653531489641,1.5359575668905716,-0.14434004802334965,-1.4463499088501304,3.8665264020799635,0.9242948787658434,3.422994396967158,2.0135263270210424,2.1617030862329876,0.20658210942840682
179.0,1.142809905490981,1.939772601229365,0.7969626957379252,-1.5761579909608672,0.20349497733561786,1.3144057887989613,-0.9334972887143462,0.786571797530463,0.4483564841341865,0.49622500134953196,1.2857025717814052,-1.6210121955148182
180.0,4.341075179872122,2.9570095536459626,-1.3840656262263769,-3.6187702981179277,2.894879513323689,0.8192542074831084,0.08073118247806893,0.2118440550621719,-4.737854804682046,-3.7593763118347776,-0.5988166944735154,-1.7795349075037223
181.0,-3.6491485599603055,-1.8194713293970177,1.8296772305633104,2.7498169223039373,-2.7028675394941306,0.047591577916629615,-0.8559949055515444,-1.822585050942687,-3.911875444468103,-3.8781935271826242,-5.689675011466951,-2.0798407089009383
182.0,-1.7216032778432362,-3.5060745795173887,-1.7844713016738931,2.6170163338000108,-0.00398114675717531,-2.6718647428699764,-3.7963061279917665,-0.17122991568295265,-1.1941020401351898,-2.487642723090903,-5.267388767710545,-1.7845246666044734
183.0,1.5047699704577617,-7.197028634268076,-8.701798604725523,2.842342285341225,5.076229717848694,-7.968704834809349,1.7892555442983729,1.3753244955210886,2.523373653077048,1.6614438630335895,0.5047790929703346,2.0786246740763454
184.0,0.4749838781088533,4.464427977670358,3.9894440995618496,-2.4736198405216703,-1.776007840745039,4.21035122060799,0.607651467172091,0.4863575669294954,2.677010359547495,4.751711810122426,4.85893350786713,2.5137928139320636
185.0,-0.32461858497450247,6.6986788420927414,7.023297427067389,-3.1845520734113877,-3.6076309569378746,6.91988671787132,1.3975431128267384,-2.1501994887552804,2.190213532319393,2.126694387398427,7.635691250287856,2.4446773202960133
186.0,0.34277736412803905,2.0455123050885775,1.702734940960521,-1.180722989660116,-0.689573393422271,1.845038146941571,-0.6515848456525014,-2.072289222609766,-1.1279435629785812,1.049558356162643,0.15462027834936265,-3.660271052564623
187.0,6.1577535394935365,4.253091073498614,-1.9046624659950666,-5.179553146762589,4.019922918976015,1.1315265347074515,0.5861191406433826,2.925822334979593,0.30046655744530265,-2.514655964741241,-5.088162633251401,-1.5011950123338975
188.0,3.3735007706749416,0.299547804746745,-3.0739529659284313,-1.8787001318559304,3.206242956992482,-1.3661084445520322,-0.2428617503794314,2.8220523724124176,-2.46699046277413,-3.861512198040054,-3.825210711853818,0.03433218064308652
189.0,-6.348317526344828,-7.884759171260573,-1.536441644915922,7.080851803601185,-2.432854411587021,-4.702075852255489,-0.2945786362699171,-0.7237035387699675,1.1002466468123289,1.0981878243033196,-1.4836627024193239,2.898922935111063
190.0,-3.6121748593760445,-6.848066063506479,-3.2358912041306205,5.27446212567995,-0.1465671009876962,-5.0401038553301145,1.4175424470524112,-0.500603115148705,0.80484012398971,2.3969184039496705,3.131340597969963,2.595243430637729
191.0,-7.461089643165291,-2.7204068224045037,4.7406828207605995,5.053035442883635,-6.146257163012313,1.0134886690250369,0.13697840725672733,-0.07164065468523684,2.5464411927721757,1.9225600905762577,5.593617712040472,0.3782411576185911
192.0,-4.945001805582703,-0.26111821808702584,4.683883587495567,2.6380185798902938,-4.784838315492342,2.22446904649318,-1.8131571173566392,-5.038243000599218,-4.164294995846973,-1.9583138067624177,-1.459853860075405,-3.084212580160903
193.0,5.517037526840068,4.453063676424782,-1.063973850415267,-4.956735074720487,3.321595429753544,1.7235403928223325,-0.9553174230068678,1.1091726152049781,-2.966774312726396,-4.599544867636186,-6.2735410053796,-4.743816589794162
194.0,13.287666209951237,8.353773140978443,-4.933893068972641,-10.876508015490021,9.147439126952259,1.6785147238107887,-1.130547717331076,2.974502150044215,-0.0823168056717315,-0.7450236759227433,2.03577888072665,-0.027114235476362714
195.0,6.795936927090411,7.000158616460929,0.2042216893707436,-6.878140001255937,3.260562532369019,3.587198192352662,0.82288309853846,0.6295544462943026,2.7198714176855745,4.5522516203342445,-0.7038595016120018,1.7258019786160421
196.0,-1.743372655896422,-1.653064124961983,0.09030853093459668,1.7173942032776912,-0.9475228414832033,-0.7854388887851824,2.1046633708114983,1.2269609179062706,2.0171590566354203,1.0324362582381712,0.26182175952501496,2.041908411628068
197.0,-4.2247685969425115,-6.767751798961547,-2.5429832020190446,5.5162224290852615,-0.8716475468894438,-4.655924118070357,0.6627524374565383,-0.22392409818014947,-1.1028470312703746,-1.6688927856065299,1.2106035691867167,-0.23391913852830148
198.0,-9.657447816074061,-9.377983249048967,0.2794645670249102,9.460025845147419,-4.925740944630505,-4.553628340090459,0.8238123448758796,-0.9786784898909161,2.7998530849004286,3.879223117191454,3.3458151962552916,1.304756100467027
199.0,-5.932407010003264,-0.33201167158571554,5.600395338417244,3.153638766560756,-5.811265215961862,2.620511471682585,0.22676625952392626,-2.1565942176211212,0.9430546210979901,0.2489999937358217,0.9671803790269855,1.6423509898433535
