Time(ms),I,II,III,aVR,aVL,aVF,V1,V2,V3,V4,V5,V6
-200.0,49.285377668129236,2.400461343461673,-46.884916324667955,-25.809084325845483,48.141718300127266,-22.217205462897223,-3.2945356430627033,41.96126239156341,15.474833539573613,4.52780716858689,-0.4116462467738898,-9.033840809428689
-199.0,5.289255446193916,8.286479486626327,2.9972240404322434,-6.742412155608132,1.1218113640961889,5.589789557485727,-6.318729391581633,9.095786404572086,7.2888022480727885,11.67748203455409,9.217463472024127,-1.6869006677974223
-198.0,-38.51502427179073,-16.382103982628713,22.132920289162477,27.424244900326894,-30.35391939956862,2.9056752441544815,14.664955819574095,-24.750370122317896,-4.572585697188357,-8.437998711420427,-9.815129383806854,-13.15587617685609
-197.0,-56.3871689669259,-20.069418288587155,36.31775067833983,38.20766821271596,-46.39120606375437,8.158463324834916,20.49466214529961,-41.34598476013229,-13.806105637892276,-16.395832877391058,-13.28213678955755,-9.68452129901436
-196.0,-29.178356729779416,-20.917151377681098,8.261205352099552,25.024383194766184,-18.68987270917787,-6.369688267869293,6.126813921773561,-37.43882221921894,-20.874719686162173,-13.914090739734792,-12.932920019327597,-9.762733645427907
-195.0,0.18152811246948986,-13.391907214336854,-13.573435326805928,6.573469610894975,6.898405184708453,-13.524257242231236,-5.951795818222266,-12.673591078550064,-12.734178073551616,-9.24180287294648,-9.392363777445706,5.107937548936742
-194.0,29.004447161105247,21.052405617422018,-7.952041543683841,-24.992803889277916,18.493503535882642,6.584530470840966,-14.96616780703841,18.134339072549317,8.322932313225765,10.992873126932306,12.000480598391958,13.217262072834226
-193.0,31.573232811443475,15.703674951773998,-15.869557859670579,-23.614088369357123,23.73554135712362,-0.05357272244905609,-12.936770160068932,27.842690615776682,12.081576626839913,13.3929265900802,10.83838830439121,4.310411386708427
-192.0,20.344794460004966,19.4580619419506,-0.886732518055025,-19.885615699806138,10.554504740256696,9.230717880691934,-3.7278750808218906,21.394014445406192,9.783700497163544,6.70687454400862,10.594896705975751,7.589876832331207
-191.0,0.3140176467252189,7.497919274666703,7.183901627941354,-3.895033560831518,-3.4109100764432725,7.360336648651448,0.2956268036476395,8.83599946274688,4.2567367802699145,2.5664973734440313,4.878623714247757,3.337517125090205
-190.0,-10.380726902594144,-5.976085911291424,4.404640991302869,8.187441792645812,-7.360894573305006,-0.7681571496230815,6.391540455106517,-5.997835571551086,-6.223195874570309,-4.864326479440726,-5.023176216170927,-3.025548940670078
-189.0,-18.775475085519368,-16.1875191978055,2.58795588771404,17.41122224960676,-10.721846281124478,-6.781143700377116,7.518709416043605,-11.409284545885933,-3.3727567912867125,-5.4194432070898975,-9.890474631263785,-5.730469431533888
-188.0,-6.035138046757442,0.20865154853872525,6.243789595296378,2.920997545720322,-6.096700059369374,3.2482940840735326,5.544962225400719,-9.476795579402033,4.220173528473431,2.306690845505222,-0.7267825335214013,0.7117194747150402
-187.0,-2.091874034666837,-3.774490329289385,-1.6826162946220924,2.939519591927029,-0.2400335807273679,-2.78059826719109,1.6068841202864075,-6.892650259715872,-2.023954600065169,-0.20625755433960347,2.8231846369330444,-6.202838262976253
-186.0,-2.7058317445456863,-8.260422743076079,-5.554590998529769,5.487957946126903,1.3862909705256312,-6.9548204236452715,-1.1668610060756524,2.7035774632791565,2.9190261938452444,2.084599528248831,3.1673502065590875,0.011041177445831885
-185.0,12.77387691955569,4.395755538673354,-8.378121380881986,-8.580286024690864,10.612105760153943,-1.9554230982638576,-9.00937832992729,5.9118026663171594,-2.4372656161069353,-4.020112381791991,-2.381024246301167,-0.8327576845051092
-184.0,9.974008096004601,8.389229615094216,-1.5847784809105927,-9.174949782536594,5.811057969702416,3.4420144320822095,-5.717319909349511,3.1109557436759228,-2.7870043210294932,-2.598861498552014,-1.876060986309622,1.292540833400906
-183.0,-0.03840233783235991,2.485460664760347,2.523863002592302,-1.2117683005914426,-1.3307398760960187,2.469769722059352,3.718233648132899,2.9213436637037837,-3.133745398042679,3.7565551628466043,1.4555381252673971,-1.4422218549881416
-182.0,-4.347225065964341,5.665647061257677,10.012872127221518,-0.6398888718554496,-7.150577051709717,7.8873132944561695,4.212871641846197,-1.0377984205185493,1.6899709761617847,0.8277612732149906,0.25218052884728503,5.894622669733557
-181.0,-14.861433807242936,-10.519621132168417,4.341812675074156,12.639840984840765,-9.56927604623775,-3.1156316374201314,5.714385903478663,-6.791042917803787,0.1440737665645364,-3.862352112362664,-4.1926249110522935,0.2828964911544789
-180.0,-6.849569561364053,-7.494974130824058,-0.6454045694601334,7.208693673710728,-3.144486782681174,-4.0938207493038,-0.7367518272981299,-6.37649709668031,-3.0687712493196013,-4.66193160080851,-4.573176830186811,0.5482176590153087
-179.0,5.450800511819321,2.440636383924236,-3.010164127894959,-3.9813229293693877,4.26996748001838,-0.3068140390735288,-2.462365113420473,1.8982773583166195,2.506623579923077,1.4931066181592818,2.3896587176468236,-3.347705364667738
-178.0,8.428166845931806,2.5265552903411828,-5.9016115555903035,-5.508477808079599,7.126187781603234,-1.631208684002805,-5.967414813168418,3.8861744109363143,6.313228475762913,8.006193822780437,5.486584028612072,-1.8869988694485207
-177.0,9.995921182915394,3.0287666073391604,-6.96715457557589,-6.4624653413162045,8.4401190039678,-1.9942222789491608,-1.3799601750083537,7.031110930671268,1.0781755151819308,6.848124391833872,6.814151672820724,1.338768080820777
-176.0,5.958135881980505,1.8190994151113382,-4.139036466868977,-3.8384879529597202,5.080544969723974,-1.1111847991311015,0.7296909058871459,2.233101921550314,-5.865574923842271,-4.827803011669133,-5.770476949997527,-1.3029526132966502
-175.0,-8.90149259767548,0.0045837600222699,8.906076357697842,4.418287588482614,-8.878163890457214,4.418180834961353,4.230146912151608,-2.307087491212928,2.9549412995784152,-1.2027674583805406,2.978714800889897,4.271970800073385
-174.0,-3.871815830739613,-1.1741412229967017,2.697674607742927,2.489609404603161,-3.2643669313584542,0.7157429941505642,1.430478648797187,-0.7383814585686386,-4.347411107612206,-5.917251947857764,-1.8705070213141115,1.2064279846193666
-173.0,-1.306636557592327,5.260230478938903,6.566867036531187,-2.014694605686419,-3.9975775328704946,5.936888830710059,-0.32185996767429437,-3.9984692630123484,-1.3749999035062408,-5.262957716583392,-3.9284644731887326,-1.2854967011409895
-172.0,-7.3165890676070395,0.1641099545230842,7.480699022129978,3.6118980337815785,-7.379566653074366,3.8374945027269045,0.29418760774366565,-0.6328353099775432,3.8585489964843345,4.043215656466698,0.37800983398724375,-2.1953143158923747
-171.0,0.6785582789524058,-3.9962761541354004,-4.67483443308808,1.6894522633735165,2.700284066043997,-4.32596164767083,0.27674000896472933,0.29304893408868105,7.4256124105716745,4.610108008688899,3.795831318859825,-2.1651538718345558
-170.0,5.048358249919794,-2.706840429424269,-7.755198679344351,-1.1445721254100065,6.432007808581553,-5.223153054140207,-1.8250057925584753,-2.002629737507789,-5.235494359133593,3.8064465615625176,-2.1124652954741023,-1.0279379055385451
-169.0,1.2200430690758899,-2.1802463407319115,-3.4002894098079963,0.42383917082559264,2.268609265979376,-2.7802693355952703,-3.6195502850713344,-1.5766370667760385,-6.442569198326444,-1.1087510510489986,-2.604019590636321,4.467692921257843
-168.0,1.699013933887703,-2.300167160649091,-3.999181094536813,0.3198257127233912,2.8130705405476766,-3.213223320083622,5.309762831167815,4.551679282997832,0.4561010539549515,-1.5341614716167977,-1.312384472928268,3.2241598600883528
-167.0,3.5541931615770106,-0.9018920725108766,-4.456085234087596,-1.309761948445876,4.05089716659508,-2.6568924261065376,2.678048616739697,7.460226910087224,5.72719219974433,1.9751059810020546,2.5267683528967884,-1.0072424171342664
-166.0,-9.209705566328232,-3.9432396778978207,5.2664658884308,6.512103862368107,-7.270563116943595,0.6906623783658057,-2.991067305613452,-4.00468065628249,0.4971064182556817,-7.828058408320519,-0.7065029285156825,-3.863725158675013
-165.0,5.802661274484348,12.5401331447284,6.737471870244329,-9.157102360587203,-0.42221191758965304,9.673270887159708,-10.16140757414316,-4.194877155353133,-5.516917742442745,1.2614497983465442,1.1051676767075522,-0.8841006191589438
-164.0,0.7236896908965089,7.078622233331639,6.3549325424352805,-3.8837957436474664,-2.850385454554057,6.675202777953216,-0.23452796888840766,-6.233502141167316,-6.478894392561873,-1.9682331712745498,1.198624487258405,-1.2747511070191997
-163.0,-1.0664217342843385,-0.99062228942228,0.07579944486196055,1.0527625064936537,-0.6057754320632802,-0.4992943769038032,11.311479847296187,4.002882656689335,6.526150357566573,4.350285308852101,3.952048223690541,2.3598771282664943
-162.0,0.498873727495067,-3.6479264861514267,-4.146800213646834,1.6089322809485667,2.369136162032005,-3.862923853165369,6.137710974663882,6.600842104768433,10.099753669878126,2.4228321668762183,2.730453542506689,2.946055397026843
-161.0,-7.811663283806755,-10.106334755072629,-2.2946714712662253,8.926288334185246,-2.708149878219194,-6.247416545833181,3.9434621969367605,0.17482360131967667,7.566266578340445,0.49021779820715494,-6.719542099571977,-3.0399503144414006
-160.0,5.807508786901481,-3.9727188142925742,-9.78022760119422,-0.939545052765391,7.769889746820601,-6.845169778074938,-9.415670467463476,1.3853472823835258,-5.388518720423857,-0.48624692133614056,-3.3629426045205006,-2.7679105146104233
-159.0,2.9136956707581563,15.11027594241531,12.196580271657194,-9.026984536926285,-4.662750367732644,13.687745610689195,-13.206483353263184,-3.672890300986915,-8.626509026091993,5.459085837991897,4.671124781845197,5.589247302836328
-158.0,-2.5344158966632526,2.7572597032900505,5.291675599953512,-0.12402557720840335,-3.9353178426382946,4.065212972858131,-1.716637901424365,-7.716843210393546,-16.970341369851027,-9.395535148469861,-4.3932249527674525,2.202652631966681
-157.0,-2.201806398703951,-13.626440439891661,-11.42463404118739,7.977838884407678,4.5838187577136775,-12.555535953510041,8.683819505141415,1.2497869891519477,-5.000581320826118,-5.303019946880958,-6.69055003041121,-8.507745343097458
-156.0,0.4126241679178645,-6.160684918921323,-6.573309086838824,2.8527445862417493,3.535243669526074,-6.390129360762291,6.312435803160721,2.7382291999203447,9.838832879610154,-3.7734177165707434,1.18727506761114,-0.4629005636761394
-155.0,4.715425272043845,4.440839560058807,-0.274585711984749,-4.607842194521186,2.526877800108295,2.0634761627901366,1.254800390088338,3.6649355441680216,20.7337513408179,7.69304508550648,9.05021557250675,4.398775908184583
-154.0,-2.791275908507542,1.9001739669082482,4.6914498754158735,0.4858541706148358,-3.7976650168807202,3.2756502565265135,-0.31926718648233354,2.4595045051742908,5.922702959939331,3.5250914412253236,2.1609524428916194,-0.6135682816694781
-153.0,-1.1472631634091353,5.625540564533354,6.772803727942272,-2.2849282735042835,-3.94385570238504,6.175871736691461,0.5446818979378083,0.8016017809674703,2.1798800994325953,8.228782895964128,3.018308636280743,5.179491683479788
-152.0,-5.047112928137673,9.147925260701982,14.195038188839266,-2.022163712389892,-9.606796596218484,11.723820767311643,0.9654935070839297,-2.1685171042165043,-6.922559827240216,5.982088170736838,4.397310657239513,7.232537494784086
-151.0,7.9171362658279065,6.240885804729075,-1.676250461099145,-7.052370849071491,4.813393781446241,2.334192767377291,-4.76102023198478,-2.3108741409077025,-11.00759994747779,-2.057327794098101,-6.459028947180472,-8.896343982217253
-150.0,1.9865900449536829,-8.605692368294816,-10.59228241324865,3.25859442536657,6.3116540965943395,-9.622359235884122,-7.9110366687492,-2.445141652766628,-12.968019423249686,-12.025674953593311,-7.073801620540649,-7.814286627012933
-149.0,-4.553536548724357,-13.457061083557992,-8.903524534833473,9.035910527237421,2.1252010936719268,-11.19672858224431,-2.56623730306339,-2.939422114070476,-0.9282257723903937,-9.689781978085051,-0.8328566850914196,-2.9682776304861833
-148.0,4.548303420752752,-2.070754770532055,-6.619058191284394,-1.2051392315878235,5.540081556746718,-4.353041424985704,1.030038898910357,2.4011103457868925,1.6961066867388883,-6.938393701453022,-0.2387084853259711,0.916271854224612
-147.0,6.878454852760849,7.602996714361498,0.724541861601061,-7.28392764760633,3.1166989655213264,4.162582977548938,8.285781725938046,4.98647291919059,9.335892157955113,3.6975885268458883,1.1176240043082266,5.809633569902856
-146.0,-10.3552449206555,-4.684883552481647,5.670361368174058,7.477004385586635,-7.970265829326455,0.49475280730909654,8.224779853416841,0.994103974703572,13.616888938654892,11.264962830133184,3.7615936076565877,4.344421986328747
-145.0,-12.336904187505228,-4.320641218377455,8.016262969127759,8.363096370567291,-10.211405132930757,1.8479074131125022,4.095632973877986,-0.08473951087437848,2.62631221982263,5.228886214274309,-2.2948408604677537,0.15204959350947478
-144.0,-1.993357094152962,2.9544343166200586,4.947791410772803,-0.4480569114025198,-3.5048497202481217,3.944139109550384,-3.8104580658375564,-4.637062840087738,-7.712086142450392,2.702979336368017,-2.5597940205338,2.3255582672151505
-143.0,6.8655078235920985,12.44021232576752,5.574704502175189,-9.700160792644972,0.6899644259359878,8.98946602334199,-10.68207252297998,-2.010224865979099,-5.537869040439109,3.354887153371587,4.64513405216249,-2.785006733876076
-142.0,15.10187607336531,2.7132048156315554,-12.388671257733854,-8.875380261890264,13.789529689691843,-4.789919568786155,-7.4694768341181055,4.006686749316632,-2.74191697290592,-3.4837946988485577,3.553756486194506,-3.0894684234868923
-141.0,0.7719163744973114,0.9023505367971127,0.13043416229977378,-0.802327460498403,0.28537590407292335,0.47282030914700535,2.8579631750932215,0.23261805073049124,2.57040707179167,-1.4472457279054867,1.7862896286653622,-3.2492346269848285
-140.0,-6.360197730161609,-10.546085433560378,-4.18588770339872,8.413201307497411,-1.124026541547393,-7.341290606574073,8.869407958262109,1.7426716163995108,-4.208109865993705,-7.714516043344643,-6.974310446980123,-0.26285546551925343
-139.0,0.18174782929205735,-5.953963670608046,-6.135711499900118,2.8504873497353485,3.1200916916959116,-6.027411660843929,0.3523612567681127,-1.1850285208760627,1.9924052728509252,-5.7278801622621955,-0.9822723808414611,3.2182092314285127
-138.0,0.1734074800515777,3.0138713524084944,2.840463872356821,-1.5469479199679972,-1.2946224608392018,2.940729308366888,0.7580808003101729,-0.6470367582553214,4.146308744827366,3.2928046726701905,1.9907589738761353,3.757056089574591
-137.0,-3.534266818375577,0.3974105614947189,3.931677379870176,1.5383919886923119,-3.6939262518962823,2.0984713339449796,-1.5874541405731222,-0.33825831374408444,-0.5904240915274919,0.5350557510483043,-1.6747817155760418,0.6968995007179908
-136.0,-6.449839146509333,-0.03463227513283207,6.415206871376391,3.2910605673876514,-6.391866439667412,3.204417564813972,0.03199289883106421,-2.8949463785010847,-2.572212639468865,0.41176718430033477,-1.8562582620582375,-6.252667859483559
-135.0,1.8428845773814957,9.085341336464861,7.242456759083325,-5.4958039653068615,-2.7355589169113412,8.181260104155841,-0.11619437313400083,-0.745588529217177,3.2503596789915608,7.8638870361104285,6.110113542515437,-1.1397541365714436
-134.0,10.013629812679842,8.375903617298354,-1.6377261953813331,-9.229688767019558,5.791741192522112,3.3910209980288823,-5.2040663907711515,4.321459619615329,2.670915044698079,2.1535795952744006,4.888227265128819,3.7839063873768835
-133.0,-0.2670032960520432,-8.22073781174403,-7.95373451569181,4.28373167933546,3.8099909329212536,-8.138612747038982,-0.07598817942353286,1.0878417657754407,0.8657327738298863,2.546219474960547,-5.3169442649213146,1.246996105691464
-132.0,-9.378096792559498,-19.9067736794728,-10.52867688691313,14.678505424210877,0.6201868243213213,-15.184706104983649,3.515578153354723,-2.178098969235164,-8.226419050115373,-7.728808142815112,-10.3621033819906,-3.853264206702595
-131.0,-0.7817152277354062,-3.1756867515071194,-2.3939715237716426,1.9333155786541933,0.7719680695604412,-2.7468473344512514,4.958655314202047,2.0981912726180116,-1.0257474384732155,-3.032475983133124,-1.549110159889488,3.3073046733000346
-130.0,7.574049683008662,12.540171621289996,4.966121938281331,-10.103389160951709,1.3499303851982414,8.715707152498759,1.0276420389628815,3.5063601806987643,2.784576998749909,-2.067991927751118,10.112477990963544,4.491275808660179
-129.0,3.698361136288226,11.909187768936931,8.21082663264871,-7.7700504474887335,-2.2850672872419246,10.023555657502891,-4.187813687957869,-7.062798308357269,-2.1833074042077874,-1.0059823871535354,4.3078984538769,-3.6564985262182654
-128.0,4.885674381025697,6.708079143271791,1.8224047622461734,-5.760100546126289,1.5876567369284744,4.306015301486493,-5.677818470087789,-2.0683994114261783,-0.2686695002390904,1.5819504752386218,0.5917932508138652,-3.6740761326622127
-127.0,-14.801327562023584,-2.9514412860874866,11.84988627593607,8.916794700406378,-13.341879539295679,4.407619356820992,0.03545726358461332,-0.6181803546031686,5.6592252038272015,4.565138102632125,0.2770000681266643,1.2518465798486527
-126.0,0.01944656488883556,-4.899067368563941,-4.918513933452813,2.4038204425399643,2.456903017843083,-4.876639067188479,4.360603709656303,2.817043069012132,4.4490566615498714,3.4497557821506364,-2.843800530694671,-1.6174936835267226
-125.0,-2.880175535776656,-9.271830878317788,-6.391655342541143,6.039318606840948,1.7432466552837695,-7.805311912305992,1.0758118736346338,1.1054475640078343,-1.772937736010026,1.9477602032301111,-4.113112034161463,-0.558111417090676
-124.0,3.8644151694051065,-9.214760539968898,-13.079175709374084,2.634026983033781,8.453238169906932,-11.1266784466604,-0.5197405300075981,4.403537126099813,-1.7145317566975393,-1.0307750613828002,-2.237485025966706,4.154142632669808
-123.0,2.9025481949570615,-1.390298805571037,-4.292847000528192,-0.7259330772421859,3.568256282468115,-2.90650903906161,1.350463475697004,1.1885974735034852,-0.3260367954787986,-3.4556465431377705,-1.5097444394990687,-1.4527860039553593
-122.0,5.6319825031710495,6.048083259858867,0.4161007566876562,-5.818157011150891,2.643997206692225,3.239394017032684,1.2724619316678907,-2.635152705787192,-6.534928812287699,-6.687751956237595,0.5964191603618704,0.03839726734511495
-121.0,-3.1063508581342703,4.864283233914774,7.97063409204881,-0.8639558763409405,-5.514906429169545,6.419122003572543,-0.2027838783374374,-3.1220242891545595,1.6239561868015908,-0.3138730948076347,5.353516220103125,2.2342073350133353
-120.0,-0.1745141187546544,7.197863103052505,7.372377221806893,-3.5004083825745695,-3.758848094020499,7.2835628774753225,-1.9542138996011746,-1.885419856297452,0.05774433530802192,2.785630058697344,0.37117902769466316,-2.562364254100518
-119.0,4.631860158190629,13.59847243584053,8.96661227764974,-9.104046023152932,-2.1568554616674622,11.281916625469607,-6.443279208849389,1.4388675516872724,-0.8523845743614271,2.7078152921894256,1.6980749952293868,4.569426996900251
-118.0,-8.361018979038695,-8.484753601232958,-0.12373462219422215,8.358124505714809,-4.186060357397785,-4.298594954605118,1.5722572587867893,-1.1686453829337773,1.132390834422957,0.9640444827399426,-3.522792673624271,-4.769490063345476
-117.0,-5.469953468919111,-9.879413889137037,-4.409460420217728,7.693457197142707,-0.5143376993691445,-7.1272122813776555,-0.017033416028727766,-0.8294897041896602,-0.9991956638604802,-1.6575331757216696,-0.08819455362589634,-3.188914006883799
-116.0,6.6455165483507095,2.6246942448660118,-4.020822303484473,-4.610675065408487,5.355748004833542,-0.6655582524409489,1.279896658958485,0.8311118737157095,1.6988832268477148,0.22001966327151198,5.558079194476572,4.3793364773827435
-115.0,2.6199451077192037,-6.934698296546801,-9.5546434042658,2.108874591004804,6.116893169718431,-8.274812861284708,6.359218721606167,3.004336047848473,5.097540224363003,-0.7229599096068651,-3.030597399455901,1.365422645838501
-114.0,-3.384461778793279,0.7294803029322177,4.113942081725571,1.363315397194224,-3.7924195957949207,2.405140211980573,4.3936775924988005,3.514204545422518,5.973290211016634,5.3976271128330655,2.8625651560074945,-0.4190272191250062
-113.0,5.05767284288775,-0.6329711878108617,-5.690644030698618,-2.171460608016658,5.334944422784425,-3.1701044722226883,-1.6264522754397046,0.8277764461583039,2.5027264473347066,1.6398695144983475,-5.207760136620502,-2.5279491192774133
-112.0,-6.390808212935257,-0.7276488202945304,5.66315939264077,3.5256636011434157,-5.9854987601410965,2.4610838590558286,-4.782347188102619,-1.290893822689069,-8.832158411134841,-4.893985188965945,-6.542767038323481,0.7219522725701863
-111.0,-0.24212971618756418,2.4874366464771724,2.729566362664789,-1.1529071302396061,-1.4440147226017945,2.5971268606600955,-7.961563957983851,-6.356306229186916,-14.216625943112398,-5.693300404187882,-0.7293417741912278,-4.112901477027611
-110.0,2.138033968689096,2.2863708850794016,0.1483369163902104,-2.2402033694139787,0.9573889174048462,1.2753443959637805,1.2761957277011184,-0.3906288640782263,-1.0725281174465353,0.8358857481935886,4.675191837013297,2.2683584392997282
-109.0,0.26747690557141934,-0.018383456801041476,-0.28586036237261236,-0.07259872135585166,0.23843536133121168,-0.18466447219187332,4.189462937816319,-0.4592152063028092,4.205789121832111,1.9041211261186133,7.132484071793605,4.682761507980099
-108.0,1.3783704310860785,0.4267691341022035,-0.9516012969841334,-0.8506273021736845,1.2049265353238783,-0.2281445591175565,-0.061072498141467424,0.6232457799641722,7.21502158395952,2.3003293015802453,1.7902923723503248,-0.8273945575113826
-107.0,4.785095229114416,5.834273959866469,1.0491787307519247,-5.338156409682372,1.907631789502354,3.3869464114784495,2.42412952446062,5.527234257870632,9.561153785594062,2.4248821837004355,-1.955464888481403,0.027492443020920895
-106.0,-4.685683545834474,2.9149566599215992,7.60064020575609,0.8530289738506105,-6.182385646727537,5.274272082470727,1.9650412393928767,-0.19125014942274543,3.4741189504866234,3.097227178012495,-0.5858664118907277,-1.303294894092892
-105.0,0.602836486882365,2.5561476267803687,1.9533111398981438,-1.6179968137925234,-0.7148173087364007,2.2670355866935745,-7.153568186226704,-4.457118738359483,-10.396230876146104,-5.033458858693736,-4.165402773650027,1.0560595075479569
-104.0,-3.3961559182340473,-11.98551406427874,-8.589358146044546,7.723330282461683,2.6349826125826747,-10.276075687541057,-0.6656450664315678,-2.177005844732601,-13.812538603066889,-8.425100488837344,-4.475766064024166,-2.8497540724240875
-103.0,-3.600223211462042,-7.7030320751342805,-4.102808863672209,5.6763115493186955,0.2885143054241246,-5.889920862150874,5.974724364516019,4.851706759247755,3.329742367426923,0.02294557892940796,2.7722207522795803,2.1296137938347197
-102.0,-0.1291416540506276,-6.351527603039186,-6.222385948988611,3.258986440564506,3.003948830194434,-6.349406137300721,1.336857941306641,0.5150650863090569,5.5801115819199225,1.8033197870830469,0.6617793788455443,-0.9599897392432155
-101.0,3.296047180692362,7.651306875530899,4.3552596948385,-5.536442138818961,-0.572767792664725,6.023650009865644,1.0369058089174266,2.45658219426874,10.207823077448339,10.44881537888703,2.059214575397946,0.6426013790006876
-100.0,11.925579479164183,16.218830634070606,4.293251154906313,-14.054623380564305,3.8526184182771797,10.280591766178794,-0.9647293732925114,0.7722576030562338,6.584099134024876,9.851496295609406,5.289438575879647,-0.16444625254532963
-99.0,11.669820365370153,9.573323344911493,-2.096497020458684,-10.59815464896935,6.922233097019839,3.7669351380168665,-2.391719114022423,-0.36469500073207245,-4.279551210225265,-3.9266393760393212,2.6161000320196566,-0.27698001077644874
-98.0,-22.55360487041702,-15.481358678664334,7.0722461917527655,19.04997996552119,-14.848496570844812,-4.25105151056939,-2.5032996216144694,-6.24802531596667,-13.824901550296124,-10.249564427375873,-10.577332741974269,-8.183177467185622
-97.0,-11.156620633662115,-9.417829686825655,1.7387909468365792,10.25155075689743,-6.399987403017462,-3.8822640251366116,-0.1863502071312202,-1.8369124356564157,-3.8738015776988277,-6.688654721394935,-4.676175088008499,6.484548300148387
-96.0,-6.501694041112523,-5.707621706407544,0.7940723347049727,6.079041536832463,-3.6754332166484,-2.416591170750806,-3.1863864017608754,-2.72781613306934,-3.001717680120807,-5.759380403038149,3.7294975122941083,8.081745350530044
-95.0,10.093328470429288,2.581159406123611,-7.512169064305808,-6.355023077862038,8.776357171937326,-2.4204762071467583,2.8494121775301497,-0.4655475253814142,-0.20644059540616022,0.5122123443713422,5.189099499179873,0.8516537990488269
-94.0,12.910670584170564,5.332096894801741,-7.578573689368972,-9.055795260277264,10.21667359437285,-1.1517660404195678,4.431081846213164,8.203993839593682,8.049964050945206,4.523258656503299,-1.32357132661051,-6.051774071815904
-93.0,5.602645727284849,11.206534067207144,5.60388833992225,-8.416567986929614,0.046621440496557476,8.381195497224464,2.0738833609199747,5.88831457255453,17.301270902900775,15.044555407001434,2.779729030719089,-2.7405524846882865
-92.0,4.40881139420716,7.940684136714381,3.5318727425071454,-6.18850650435062,0.4028791867992547,5.793356313678833,-4.201406094115061,-1.1310587836866994,-3.1492097143064406,5.114307343897735,0.003325070599333735,-3.5378671765336627
-91.0,-13.409464116491304,-7.65678873019816,5.752675386293132,10.515647298936765,-9.541007481401499,-0.9749040285282522,-2.990432699732564,-6.457917635601267,-8.318935791414164,-1.2099960482126066,-4.0423484168958375,0.30146086514553594
-90.0,-1.1035708539774998,-7.14005503675665,-6.036484182779012,4.100065386750931,2.5052400704407116,-6.61633300560217,1.6972204428332898,-0.3633084568090852,-7.025836735113512,-9.031774411039446,-0.9423118935197858,2.392455950421313
-89.0,-4.866031194478703,-10.38201030154896,-5.515979107070027,7.677608198203944,0.28540673673839834,-7.985521277795333,4.163448695793638,-1.2880814475292373,0.31520612012561955,-10.188967475558833,-1.3536897120268165,3.103046708950048
-88.0,2.2578871160407905,1.2373440114594585,-1.0205431045811322,-1.7744277862774407,1.6008473007350876,0.14100873047784823,0.7034063230170394,1.0144182302045255,2.1480573020297986,-4.289076551423378,0.7288409393349486,3.08848028379988
-87.0,2.970237111440911,5.941199558666174,2.9709624472253418,-4.403643717148233,0.04096416741733602,4.480701737899007,-1.1564955244774182,2.439630214550495,1.016271218175079,-0.5579921624810344,0.6766691020426265,-0.08869559747720479
-86.0,-4.336485913616592,3.4536106231386077,7.790096536755046,0.4157878871715126,-6.100742405412793,5.642602328071222,-1.1015977837811315,0.8341948859957725,2.4805940076118165,11.881067437338961,4.767128124298871,-0.7031439634167581
-85.0,10.001792536955383,18.090570726356308,8.088778189400685,-14.071319323299214,0.9966375094659241,13.033234529491345,-7.775235744938463,0.3168429609330756,4.468887482526506,15.786380028658169,8.168186062183556,2.427596992036735
-84.0,-0.5397790133696398,-7.216970152339609,-6.677191138970215,3.8519653593808965,3.028066412853721,-6.918060200496164,1.7889511331259107,-4.2441029195037485,-2.9682062646298557,-2.3555018895739073,-5.541842403683199,-2.753495950719504
-83.0,-5.934478851530453,-12.95889406695955,-7.024415215429234,9.495331080210704,0.5807053525681187,-9.952561757821883,7.672150949636769,2.1234448572217337,-5.283596513608735,-9.574600142494205,-4.907117814279728,-7.2691141116053455
-82.0,0.042494990489250206,-17.081462489370075,-17.123957479859246,8.483365665267415,8.616724135937586,-17.131676433524323,-0.5498985673380026,-3.2868296978628537,-5.5876801283535364,-11.535014845232352,-10.673264568633215,-7.761015419193541
-81.0,-7.02200632807245,-1.918023016250923,5.103983311821798,4.504963482841898,-6.109947205520557,1.5724562601590861,0.523982698366918,2.1035819952260537,3.5068277376268773,-3.934425554614956,-3.2216325323584067,2.089247282690018
-80.0,0.04137824565500159,16.977922742009763,16.936544496355026,-8.483173050496568,-8.495316393593363,16.940770889408356,-1.8567618284521403,-0.24777340541914716,5.235251964242551,5.185487683378222,9.436876315528805,13.957613029136564
-79.0,4.611028200340232,8.868412129665737,4.257383929325617,-6.800309244428652,0.20833546956260873,6.545246504196843,-3.370529063837111,1.2184448063480864,2.074759018533901,5.622355067813368,8.369651700803661,3.7351787900121147
-78.0,8.382926049337339,7.644003934672013,-0.7389221146653728,-8.002472167559484,4.594334658940959,3.5076029297644675,-1.2225713461500696,1.9026609696724792,-1.0137655515345814,2.4211972311728616,2.756567124766242,-1.790155151368392
-77.0,9.48471235197534,8.795441572715726,-0.689270779259771,-9.13404585955825,5.123272016482941,4.098552871071401,-0.6607013020981527,1.6144569273248743,2.022638425906848,5.247765151830027,1.0238958911904348,0.38572289635361856
-76.0,0.8146494650691816,-7.776771907063516,-8.591421372132892,3.485341356954134,4.6633487159341325,-8.228756381534085,4.917847367607101,-0.4650897256765148,-4.217516573807919,-0.35036712451338303,-4.873856812575733,-0.37984789436941035
-75.0,-21.15232137588267,-26.240905884673737,-5.08858450879112,23.703046861686076,-8.070186747814189,-15.720477575644072,2.816999608072609,-5.254745367218156,-6.930801961600605,-9.009718839341025,-9.776199625164368,-9.442398000111055
-74.0,-11.556246650842986,-8.136897865321975,3.419348785521054,9.859178813951477,-7.448372849985639,-2.344209386805602,1.920492549125449,-3.4683824350601045,2.9801391068908636,0.377169092696259,2.293796852717147,-4.179296395726617
-73.0,8.14351149087621,16.5743911670593,8.430879676183189,-12.415512293550355,-0.18648281168190062,12.513572957854095,-5.240777109122025,2.8361711645803243,8.587541837474609,7.770529166501868,5.743171670973073,5.224617185642021
-72.0,6.715453950517211,4.993751378827382,-1.7217025716897947,-5.820766993561826,4.249454069928989,1.6495362737007868,-1.5807992625262592,5.740132936515745,3.530991199530371,-0.9397323938754765,0.43443680160357356,0.9247620310896827
-71.0,9.081936081227704,1.4730193958160855,-7.60891668541162,-5.231886365797139,8.371121617833985,-3.0458976464146783,3.190790469040521,0.5413174036809623,-1.2571342087568267,-4.372897575489397,-5.195539724612324,-0.6097842326439005
-70.0,2.336289775905221,0.4852528040497246,-1.8510369718555262,-1.4343321011597672,2.0369120938105443,-0.6485227212965401,-6.993020684991849,-2.7769579032719003,-9.653782071591506,-3.111883798771813,1.0359235168652474,3.9888283189566236
-69.0,0.6563490087085628,3.5942385962377728,2.937889587529162,-2.143468518651276,-1.1198443701314722,3.234123271846457,-0.9595096885406527,1.2749830428596416,-2.975532835932563,-3.894435050746079,1.9895028165715152,-0.3538219442143422
-68.0,-10.704907369304959,-11.178106878189327,-0.4731995088844423,10.923303721912376,-5.093088458618688,-5.84894007540915,9.586559421209,-3.2281985976035483,1.0640347823648222,-1.1501571464521818,-2.355607780666026,-1.9964541335260848
-67.0,-13.19704352149438,-4.443458521263753,8.753585000230549,8.79668786307034,-10.94850536981661,2.133959309731741,2.6045521056115857,0.020547621962557328,-0.9979821056332578,4.904009683836831,3.8136410640631655,5.695864392268723
-66.0,5.770423278871747,9.782344727077824,4.011921448205953,-7.730565384397716,0.8320752321976075,6.871317153919437,-2.0258314328095635,0.088205562729602,5.33483515698706,7.873008675910871,0.808373860062319,-0.14147108004133585
-65.0,8.691822170085178,-3.8951529313527224,-12.58697510143795,-2.363849596969591,10.674802172000614,-8.197772809635515,-6.577817138823571,0.8607217795499023,3.5544307046544628,-0.12297073819174731,-6.794457362755754,-8.364406231267253
-64.0,5.139263448569453,4.323760597029911,-0.8155028515395202,-4.7869936476492,2.935840903540927,1.786405508604262,-2.3339224497543327,-1.9960819604876117,1.6641065867787455,-3.580083837449201,3.391500919562206,2.6571675816569353
-63.0,9.559958662472363,15.479115711270651,5.919157048798366,-12.505756166816983,1.7786288249126918,10.644133433521034,3.2103811619893547,6.297315433686177,2.6384728388823095,6.207010614008943,10.227977450779344,6.872105714458158
-62.0,-11.498316782053173,-2.4275234662885703,9.07079331576469,6.9698715244871146,-10.248812745980437,3.3422236403205465,3.0148026493951274,-3.751042018113494,-7.616679054486335,-3.2424675260462936,-1.1499959737242027,-3.711918357161206
-61.0,-10.571889195694226,-15.697698941691607,-5.125809745997366,13.137837160830019,-2.6880922258476105,-10.387894458188244,-2.6640141005521514,-4.839485297478744,-9.183554340266275,-8.984864921568498,-9.611692364514635,-6.128383566001001
-60.0,-2.433233958504088,-12.173322548138998,-9.740088589634988,7.305108277180747,3.689048592958218,-10.924165770047516,1.973611476289473,5.359265744450189,7.529875771443262,3.941674402114807,-2.6196316601839564,-1.5428066549579156
-59.0,5.582617029471536,1.7422357002333104,-3.840381329238337,-3.6595328022725853,4.670590068276842,-1.0838653959064635,2.370499235954266,3.09183775068089,15.047490075408056,5.473870366653285,1.3155395631435152,2.1232767521717437
-58.0,0.6979535763679166,2.128626503801557,1.4306729274335668,-1.407317340980146,-0.4043003950752291,1.7556828849712889,1.6393311770230072,1.703681382618641,-0.7972707534322137,-2.6471664401267296,0.25796797658659965,-0.13498060107263
-57.0,7.290086607722451,10.60388776145933,3.3138011537368754,-9.014530863676386,2.031538083447338,6.942284969695426,-6.802482387424792,-7.214899236347735,-20.2962227509149,-8.346192283958336,0.835316334459085,3.9025468584856764
-56.0,-4.367503242563774,1.5883413766098888,5.955844619173687,1.4086432831287894,-5.19568157888402,3.75801093311562,-1.533028645407268,-6.048267969873432,-15.384166086414075,-7.717357688544464,-2.836175765190291,1.2971674139853073
-55.0,8.760993394819378,4.1480034949852875,-4.612989899834095,-6.424636285222301,6.731637220746406,-0.1703211107921847,-1.2964754675086387,2.241954801583153,9.528801420415721,6.063555005912445,2.3131616667341115,-0.9120347148631137
-54.0,6.829360647350181,5.489509780491583,-1.3398508668586577,-6.116340314391049,4.049484357436231,2.051808516569745,3.3189156072855632,9.49935195364291,17.60538914052093,8.828586480533849,5.615499811439292,6.1305404170283815
-53.0,-15.889871098708904,-6.938042394158099,8.951828704550755,11.392180042754783,-12.456843062197917,1.0537790666713225,5.077391953928457,1.9658334461817142,10.423082540283339,10.463322951988516,4.428940251327731,-0.6227960011197403
-52.0,-13.808993041227026,-10.493886311609092,3.315106729617858,12.141317662892506,-8.518818545615153,-3.6307673584493574,4.458198381805429,-5.7557156740038025,-0.5350421034459876,1.2884602490204182,-2.8222587770517844,-5.423124864473534
-51.0,4.200927567806215,-4.1305127666198365,-8.331440334426102,-0.038997114963670754,6.312050785380685,-6.280706276532552,-5.900548732516795,1.135353383148637,-4.039689212318027,-1.1627233735439195,-5.147955873275559,-7.381047759014187
-50.0,5.023458107943559,8.610651265048595,3.5871931571050037,-6.822022709779171,0.6900730696570352,6.122609354257431,-1.6938083037529243,-1.1618445059234483,-6.287885708125907,-7.067141959149502,-0.7544001638934246,4.742536199179667
-49.0,6.472109901584009,2.7369857533949946,-3.7351241481889907,-4.618561705804313,5.081766457053959,-0.47614888163276026,-3.3233447622269097,-2.324373482214446,-10.409805583482047,-10.464963727932012,0.11536048388184827,4.2197113560973545
-48.0,5.904417003588735,-2.5025056438566664,-8.406922647445287,-1.730094019364346,7.140090663078054,-5.427329338854657,-0.9679957142503721,-0.9867983543308682,-4.269292397254821,-3.4592685778159478,-1.114985048243327,-0.21431352258119674
-47.0,3.132368006659648,6.899137039177733,3.7667690325182286,-4.983847085234706,-0.32788330613770844,5.290590472621365,-1.9961806230503607,1.7175334730462797,3.2202142072657103,4.082610253478737,2.1458599590644707,-5.567569715736752
-46.0,-8.09332635426762,-3.7675308882055067,4.325795466062193,5.946200151227339,-6.139266022924432,0.32698193338969883,5.126290490259353,3.5110163919167063,5.405632515787633,2.7124761656652865,0.39138307146665174,-4.398766028992014
-45.0,-4.438663071558926,-5.602813981471608,-1.1641509099127196,5.025494105547325,-1.6471622428888746,-3.4033946015069816,4.329238894145274,-1.3247287753297838,1.3918629923690862,-2.202623449436163,-2.3109697801137727,0.5612463590483506
-44.0,4.318927931385601,-8.454419170888164,-12.773347102273917,2.0685489873513454,8.530596934178527,-10.626148842856217,1.8448626822408345,-0.9226068042794002,1.4965928332904554,-0.8181735774495249,-8.165864099184583,4.25799396265018
-43.0,-4.136410890765397,15.901397055004974,20.037807945770204,-5.8786083273514915,-12.112098153985754,17.959814517577797,-3.477954021390601,1.5247049044795498,8.866412750122835,13.069659924677875,14.637691258248609,17.119619594199506
-42.0,-9.906512670039907,4.658243178102829,14.564755848142601,2.6364243642514364,-12.272365217252755,9.598876958037366,-3.1144287811614833,-4.998806001231232,-4.665673581111162,0.3704775904348816,4.177065271344563,-2.656380678793796
-41.0,4.142934211183601,-11.562374056852471,-15.705308268036136,3.654366590130241,9.954596282785673,-13.653054858217516,1.4247661575847306,3.6768312539079426,-3.392832846891914,-4.343118689960814,-9.137326747938896,-12.923290908234769
-40.0,12.609571998365313,-2.0568636004777128,-14.666435598843002,-5.241780281264109,13.659848149504732,-8.30986920378498,2.2075688131413793,4.559466601479919,1.4925024750651796,1.8299439415815626,0.5899660433357603,-1.773909509247213
-39.0,4.447460684058257,-1.3222421748510367,-5.769702858909152,-1.5974881657235223,5.126621914131837,-3.5793248901525105,-3.6715296520577105,-3.006606548611688,-1.4330641351746793,-0.0024284599130441897,-2.487036092430672,-1.0146734657022565
-38.0,-0.67480072433814,8.993367280631531,9.66816800496986,-4.108969243989185,-5.152072546236224,9.372591178168166,-6.336937469576109,-4.839725536386071,-6.939956419203764,-2.7398368163575806,2.451738932032791,4.6987184385212375
-37.0,-10.331984385402103,3.632947673940115,13.964932059342344,3.3245945112310533,-12.20255776694309,8.839805163528945,4.384085500085334,1.5275613656481872,6.940781181192931,-1.9334693662787834,-2.9358897949278804,-0.5911436643866426
-36.0,-2.495693104614457,-4.854198124459948,-2.3585050198455155,3.6511304452955753,-0.037218527245399535,-3.64413320418254,9.408381122206407,4.843431924068996,3.4178358892483756,-6.49705952394834,3.5784354488642034,-0.20962968578332752
-35.0,1.0796461493185445,1.9948563494789369,0.9152102001602875,-1.4828341624178623,0.040536604394334486,1.4164488575514476,-2.853363118181595,-2.6949411450858505,-7.580502262003815,-3.8687303188609743,4.471762442373507,0.5390465751415519
-34.0,-0.9709439323434144,-7.207773204025451,-6.2368292716820735,4.063591010369819,2.6728706414343035,-6.76385320111673,-3.6226943946240953,-5.477980831020397,-8.956326592619266,-3.6181443682183154,-5.72066158509335,-5.17903418390385
-33.0,-0.8684465572014697,-6.459560948484054,-5.591114391282531,3.6363105852735536,2.3219397040176704,-5.99318559993023,4.947406943369945,3.4731996622539247,4.52894165100903,5.615276001329217,-6.714779491196205,0.1878788924183874
-32.0,8.871533187159214,9.575347738880158,0.7038145517210053,-9.174740544419219,4.119852103468915,5.165841030396733,-3.0285683023425154,3.041038187056263,13.300156546853604,13.556279639612018,4.966753587862102,4.146917663479694
-31.0,-0.6058761832600221,2.2271244152571863,2.833000598517285,-0.8437212568053916,-1.7668351022346593,2.5511411434222957,-8.547498820890379,-1.1153054107198388,2.415214018532348,8.86744137004479,3.017828434154405,1.1106382199580842
-30.0,0.6023221128702506,3.1006753154021034,2.49835320253187,-1.809987220488087,-0.9208229616464888,2.8171542853832054,1.764383124363197,1.6460287766511732,1.416945400306873,5.765105200008316,4.043071556049513,8.032579417216304
-29.0,3.934833709046624,3.965162663424139,0.030328954377360606,-3.992730363106565,1.9770600096604558,1.935068664888983,2.353929505970305,0.18060591029716608,-5.035074041927095,-6.225930006099276,2.640163901089325,0.20560127457552668
-28.0,-6.688402218436621,-10.57623836773705,-3.8878361493006905,8.661715312675291,-1.3757436152701765,-7.216248393201228,6.712339056533272,-1.5139844544267695,-12.457091580978394,-20.81020394635087,-9.492983577828664,-11.476539738993376
-27.0,-6.091594497040353,-9.110529419554796,-3.0189349225146747,7.544864968758509,-1.5893635450689443,-6.048764076312513,2.1708866362359442,-1.1933934281518306,-1.8690763577003588,-14.34844489512151,-6.6013328885738956,-2.2054164350400427
-26.0,-6.098672378435651,3.802130335033773,9.900802713469302,1.1652420738778773,-7.972666607292279,6.867491607594161,-3.0870487931500956,-1.0858331324824415,9.10889971737743,5.147658735514945,6.320648865271281,7.730181412111523
-25.0,7.472008396092919,11.359372015025231,3.8873636189324396,-9.401501174466478,1.7409597388035731,7.560500443526646,-4.409573432408952,0.6921573211027336,7.6260565451296545,16.457936502913558,5.351948551233284,1.2453333346432633
-24.0,6.593420634898893,3.747807972344818,-2.8456126625538074,-5.155535026620011,4.745532653206021,0.4670842929615939,-3.411469655132327,0.7093267350024393,1.0533118287317,11.423993137401299,3.190403087464617,-5.186646575903387
-23.0,2.665518576127461,-7.664805889359391,-10.330324465486449,2.518925213394283,6.5209651624956795,-8.980531157454312,1.101141646023788,-1.6180395020948424,-5.523101670687777,-1.8745386748460433,-8.0790083891639,-6.62321106947993
-22.0,-5.686942591383127,-7.25147113035964,-1.564528538976239,6.494395757517157,-2.0420441324092518,-4.38849726045696,7.825109279613735,3.9479773650487497,-7.221985758759131,-6.823141322205723,-2.9915917059015595,-1.3561262458714025
-21.0,5.235008237371025,8.173812988233163,2.938804750862206,-6.752549630466696,1.084783166336329,5.579559878745451,-2.147829521155973,-0.027469861751896474,-8.684206478078817,-9.067948377292982,5.147599029691252,5.888439577424154
-20.0,-4.6171104171084,1.643940976110794,6.261051393219025,1.441671612333579,-5.42605015335432,3.9012249639605265,0.2099375021917478,-2.1632463838484104,5.206919541464407,-0.7256874954690478,1.2455631402955256,6.013648383063565
-19.0,-9.355778607652766,-7.896521871138253,1.4592567365142957,8.660669908048726,-5.39453331318369,-3.187525102306583,1.2033790511939677,-1.9957126026747956,6.937469678576361,0.25840167784708123,-3.753662308314002,1.0421917210673342
-18.0,1.1399128755546721,-0.4240222628307979,-1.563935138385775,-0.4028495151235787,1.3677291653560748,-1.0393751929577295,-2.5775144007030986,-4.043192534286929,9.140698182462998,7.691141565831067,-0.9551958083403027,1.043766271572939
-17.0,10.656387612266547,9.083209333152704,-1.5731782791139606,-9.835953524657533,6.135988932062929,3.7891618013137256,-7.6609763295246855,5.592725864994096,4.3424610090381925,9.86667088424845,7.802143801723118,2.8950457450884395
-16.0,1.4961367511705221,-3.1828376247811367,-4.6789743759516975,0.8795406710453246,3.0368865874523316,-3.975500122787567,2.5833980391275833,2.297110911753059,-4.292238501378875,-3.354302173110883,-0.736062598100657,-3.9397122442795633
-15.0,2.07923638230129,10.415872214064311,8.336635831763015,-6.206409550084628,-3.0938765476592556,9.410670073238604,1.4221073217367506,5.287890386923721,-0.583437849686129,-1.5048758420861614,1.7719727484578405,-2.341618751162769
-14.0,7.587755633528907,3.0144517504142847,-4.573303883114669,-5.332590161878588,6.041608598704666,-0.7436886028666856,2.480839588485707,1.3021901189345193,-9.660321348828267,-10.606040149341169,-6.818966663793411,-6.491589697976241
-13.0,-10.90045948218129,-18.270819801319153,-7.370360319137941,14.558937781496054,-1.7230878870362083,-12.86111441035784,2.972922719337599,-9.389251380917274,-12.64844268264407,-11.376382911714398,-8.931234656088032,-6.459152866183452
-12.0,-18.833561580480684,-17.963947470842186,0.8696141096385968,18.373186013658092,-9.889510931425738,-8.505993955750942,2.7795954154198106,-6.772860155513443,-3.062372148791761,0.7753527357753027,-0.631412781225495,4.7673891173403184
-11.0,1.3226854959237189,3.796531346927776,2.4738458510043873,-2.5887338649681677,-0.5387565138116814,3.0998199450851764,0.8543186735421465,2.4414142497970213,13.148913753773211,16.320108529643743,9.837503396350783,7.026002600268475
-10.0,4.872216800956268,17.837765389623687,12.965548588667817,-11.313002409056464,-4.09441338685783,15.366641177893715,-5.529682121252311,1.0379332551048777,13.208057420307725,11.748366274995348,12.583065386897982,9.261390250721178
-9.0,6.006447221500939,12.330755434162553,6.324308212661762,-9.1365028010503,-0.1341635939338936,9.369244397678266,0.6214836473090695,3.0281058313754583,3.5058691042095154,1.1637054177880142,0.19006880512528745,0.49225716327182667
-8.0,11.224016482176157,-1.2402364357425189,-12.46425291791889,-4.969735150062747,11.863620488951518,-6.814584160315929,-3.060402509892235,6.328488579896231,-1.5688593411775176,-8.697020587775146,-10.343861724566354,-11.647008370616025
-7.0,6.614360831640518,0.266696953251352,-6.347663878389689,-3.505239803673573,6.497153263190686,-3.0864539306214507,-6.453750720870942,0.9346459041745856,-6.744583451066057,-5.18747301081781,-7.3301837136888395,-3.164347529949552
-6.0,-4.093585556899114,-5.743076848601701,-1.6494912917029696,4.927351718906386,-1.28565878705066,-3.7461206472595765,4.566692098831277,-2.1308571536119283,-3.646765018419491,-4.3880762975719785,-2.428920019910942,-1.6051822380595109
-5.0,-1.3962566591873,-3.912530691395731,-2.5162740322085035,2.662141803017354,0.5763131866077575,-3.1863081634999078,3.413615871153987,-2.9893903132410813,-3.8741593215249415,-0.3307450525164666,6.309125745668096,4.896284591954632
-4.0,-4.22275522012699,-6.839665148136937,-2.6169099280097505,5.54149778892353,-0.783953119969913,-4.696471803094759,3.029392755220724,-1.8438641967934104,-4.653972061672573,-7.74761499149057,-0.9292919065083445,6.628082923748483
-3.0,-22.242157522165524,-13.464101957029982,8.778055565135814,17.86925167194788,-15.488020203107059,-2.3027771969475754,6.038582048445671,-2.1199520060201134,1.7601326210293329,1.9501903776409957,0.19448179064520987,-3.0655528220149444
-2.0,-1.2027686305121899,3.690755906980259,4.893524537492722,-1.2985514187938643,-3.0236632891229194,4.265221177571674,-10.05065490252214,-4.4336276869807145,1.4008699236100268,5.843690448286838,2.149519590917624,-5.970095227895291
-1.0,4.175354544461153,18.812992630415327,14.6376380859543,-11.461126710913332,-5.284547488519282,16.710195648727392,-7.537273074846216,0.3902390097156482,4.015218329122282,11.956773738237015,9.45894205195872,4.429187723734826
0.0,18.061019269738754,16.601998439196002,-1.4590208305425838,-17.29041508295265,9.706025499401067,7.565035615111682,4.521960957883797,11.091920010483461,10.676119212286915,9.252963761316211,1.5198863221217351,3.424415213245598
1.0,9.927611811409806,-9.162567774932997,-19.0901795863426,-0.4143339648538653,14.532799991062138,-14.129879378306851,10.78256061556135,2.6614812478948933,-0.022549328962135462,-4.695590600685047,-9.893441989501566,-4.2552481020672595
2.0,-1.4939048504951646,-7.4442067527302225,-5.950301902234821,4.4400741815144045,2.25280713123409,-6.704501961289555,-0.3041183409543393,-2.7736136271814336,-3.144354816371188,-7.951983535396511,-3.0205515158151366,0.3007343308208603
3.0,-3.0845385702350923,-9.392143651520183,-6.307605081285019,6.2092275002177,1.6398468867316447,-7.866657608353462,-4.45074624469793,-1.4445679809022207,-5.29976346827287,-8.009169450161021,-4.436550507794005,-1.7871561384977033
4.0,-4.14876199376669,-2.954288750457276,1.194473243309363,3.5989300156066504,-2.6364746724939074,-0.8308828223506111,-1.069422705284739,-1.6237450968060365,-4.616756953568834,-6.956511849800672,-1.0601042783800279,-3.5979175417075515
5.0,-3.8616656607498525,4.619213135257198,8.480878796006811,-0.33445717914692974,-6.2064074090035835,6.507047582721096,-3.4628935910623104,-1.494723428175067,-5.426785612113622,-5.997287984437598,1.297798768221505,-0.5403370753808476
6.0,-15.14926817302519,-1.6380505392989795,13.511217633725877,8.356353748049083,-14.35778042539075,5.96156691087309,-4.645015588403319,-5.17853673851227,-3.215311343518816,3.3413055641969764,4.577364853682214,7.9438379688850365
7.0,-4.584847276131766,1.3142692398032632,5.899116515934782,1.5958889162041547,-5.265267446696693,3.6252720560297593,7.1215695342648075,1.290786669059564,13.210782797076233,15.721197610162745,9.642321026389126,5.212055396762924
8.0,15.981094075754847,13.252995768861457,-2.728098306893487,-14.578979155700827,9.40953866584774,5.27953472774092,5.750085592175151,4.87958663866771,11.887616919412427,13.022830671495853,3.960281711219525,1.2263989796029855
9.0,11.996996543853585,4.814587882922363,-7.182408660931228,-8.3685132434547,9.560693789160148,-1.2427819024397389,-1.7398278145827382,4.017967399148771,3.2168448269298686,8.456655141437949,-2.595355664179431,-3.6477083277348785
10.0,-2.149250005933867,-10.360078932840914,-8.210828926906824,6.212505222387837,2.993378017637956,-9.259815671426065,-4.926629785713357,-1.7675092164491053,-13.397292830453743,-14.27049331807969,-7.071252432284876,-6.056773845688473
11.0,-2.684501785092207,-3.2813765658352905,-0.5968747807425361,2.93997443841047,-1.0118476749647094,-1.9850044055652116,-5.6517258772616525,-4.20891886411832,-13.28978506671343,-15.576430876266121,-6.751230264614702,-4.092436094417778
12.0,-6.76079537555831,-8.520150017145253,-1.759354641586364,7.675460077995385,-2.4769969451837834,-5.099557261871839,0.8000270535858944,-0.31623614911235287,-3.5216858272779294,-12.823901242699066,-10.848541962514851,-7.39369722485106
13.0,6.610113356414732,4.392705214509598,-2.217408141904886,-5.466835658769873,4.431546134800955,1.1340205942502415,7.004004439750195,5.301408800396233,6.103798161702999,1.6076940766530168,2.185232958338474,4.481104807629183
14.0,1.059312931667277,7.853540841431544,6.7942279097640865,-4.500309959297774,-2.8533843373584227,7.295441652345918,6.990679645158197,-0.6153561805009631,12.903808240850541,15.522760089853488,14.599545352868946,10.380431502916954
15.0,-14.984787739749066,-11.184543887635515,3.800243852113205,13.120491697286099,-9.459687402982508,-3.7196738939526264,3.6242112629796823,-5.754899932987009,7.308420868053039,11.627976625173101,9.373850742886463,1.8104838048200076
16.0,3.83301892601863,4.139574538937343,0.3065556129184217,-4.028126384122778,1.7723627762328817,2.193306720717562,-12.229819517854413,-0.08927962930120992,-2.4419849044645074,0.6097587477768336,-2.4419455019622722,7.532432757492204
17.0,8.944177024725372,6.141747937340907,-2.8024290873845685,-7.5057170317651485,5.879448049220227,1.7139566481300772,-4.784781920928522,2.0604899948614777,-9.61588897399221,-6.551484299833685,-3.430234340088564,-1.1327525721265892
18.0,-4.41545220062584,2.118212553300493,6.533664753926319,1.1844681192186601,-5.471613337723262,4.36448269229233,-1.9599811841308448,0.7111318309467873,-3.22007028959235,-4.875188724795235,-6.810597395888447,-11.3302366760469
19.0,-3.4808434413927483,-1.9070864512931995,1.5737569900996133,2.6474322058046322,-2.526707568880381,-0.21194016052082748,5.333145610598878,0.37522990519013577,0.18113869891464018,-2.2538123415801428,-0.49411406268392977,-8.948140158357871
20.0,16.10992287170045,10.480899666895283,-5.6290232048053,-13.347380190732888,10.869857648040977,2.3779284814138615,-2.2696295889595284,5.757571421200054,1.0899076552014253,2.7076608165515186,4.940002346054808,4.052558615409278
21.0,-2.134323281431964,-8.556916871805143,-6.422593590373311,5.366728416484479,2.1474208922364566,-7.45830063483736,5.807178950062884,-3.119915136534367,-3.5218742985801716,0.2620825908775719,1.1060040998124956,4.5634843509441545
22.0,-10.404540854184376,-13.240784461008445,-2.836243606824074,11.840186397151832,-3.7746461004609717,-8.00279357524662,8.939376843214948,-3.5927498882721927,3.1382137629316693,0.6448491345887533,-4.324348127937728,1.481179134930641
23.0,-6.556959037484363,-3.458368276083207,3.0985907614014048,5.025852423731403,-4.8094375044823785,-0.1375804120274724,-4.277922428328585,-3.4934134353684225,9.453631547972996,0.5312315794632106,-7.606692647042586,2.2748013937841063
24.0,-7.750769653978118,-4.132512013540584,3.618257640437833,5.965725540208986,-5.7348961928341256,-0.28703776477741866,-6.17089373085051,0.021808131047383883,-3.0414314792929957,-5.843737167664244,-2.446225165131542,-2.6494806873671157
25.0,11.034433108525239,11.189340865257844,0.1549077567328263,-11.156205161060079,5.477633546280558,5.64601256115718,-3.9840437739236387,6.60984462785878,-4.785480676664602,1.236317737541424,12.0045018485548,0.2454448156436197
26.0,19.113957933217,23.965589712395484,4.851631779178641,-21.492943953051757,7.097743499825378,14.381797832666772,-3.8102031560820104,3.0751624441962955,0.3871059147332101,7.12953697856755,8.588740949201291,4.5981078277361975
27.0,-4.608082289374607,-6.244138269660093,-1.6360559802854673,5.40541182906772,-1.4361611337053968,-3.972076511281122,3.144119898681898,-5.35276191939629,-2.963597642957066,-3.447987595017655,-6.2461890927998756,-5.882664677411387
28.0,-8.386223993253495,-14.611009562922275,-6.224785569668946,11.485043729412105,-1.1080523627701993,-10.37887951315978,5.637091652444006,-1.8275989421508663,2.2667574316390975,-0.5289751505169481,-5.797844404327141,-2.198158383196631
29.0,-7.6686865418152035,-2.9686725856421416,4.700013956172696,5.306582087637804,-6.212177208408711,0.8972239381687919,6.224719899577012,-0.10870171434088616,2.431878298344907,3.2115286987037424,-0.36606816777052575,3.2669352602063846
30.0,4.918821577431029,6.085298568773886,1.1664769913425452,-5.5179495103450495,1.8473575747659958,3.652875506102403,-0.30722976985841566,0.1480349406327937,3.2265714721514653,4.0483301988033356,7.683795085519298,6.771808682130921
31.0,0.07918571260553081,3.571788875414851,3.492603162809226,-1.8483148918674879,-1.6566235724114629,3.4801160225853933,-9.183367112385177,1.2174153775452123,-3.2064273091113424,-3.1778859945802385,5.294052348763957,-3.7058006980980958
32.0,-7.753364052334099,-4.849496842455608,2.903867209878704,6.35018521182284,-5.276337333725923,-0.9424694425130768,-5.894446018935559,-0.4633420253438094,0.2061102046030181,-3.4420795936483626,-1.0655889303579145,-4.461203726735891
33.0,16.719765831736886,-0.5459493829334288,-17.265715214669928,-8.043142881157223,16.97011936263683,-8.948138395413118,5.849357659524259,7.740592740837807,-3.855570725887012,-8.322471240705994,-13.805324503113575,-5.345609361363287
34.0,1.2275178403032392,-14.402361592651243,-15.629879432954114,6.550480178769196,8.40997847222787,-14.973417180178968,4.793374853770401,-1.034307605595635,-7.8790573255081595,-6.225336925636633,-18.751793702363344,-0.8672077927841477
35.0,-14.882082206528572,-1.6188616462370584,13.263220560291739,8.292399586590143,-14.089514437064263,5.790281053274327,5.07690860246549,-4.9675250077031965,4.807974888434086,8.769181056018548,4.435798041396906,6.446393774412682
36.0,-0.357983347645666,12.895112785578995,13.253096133224645,-6.30530744183792,-6.824177426772919,13.121318131512536,-2.937155213575514,-4.723530614983335,8.704527666517812,12.030579666868778,15.936298466651596,1.3479382755197626
37.0,5.565222654014413,20.945671390494496,15.38044873647992,-13.294221407551031,-4.85324584280472,18.127496096235603,-6.402157897566111,-1.8961166920227919,10.036422561481496,11.581007565561192,18.443639708487833,6.010841531427014
38.0,1.939000903599066,1.9299837073539363,-0.009017196245303616,-1.8995367111107635,0.9410253010746228,0.9172194528243605,-3.8709295461381714,4.475958441610401,-4.424067939348842,-8.976111106959781,4.088914608120438,0.3809561068669609
39.0,0.8099333101487871,-11.225769641038568,-12.035702951187563,5.156974674445058,6.380600366136006,-11.604712620590435,4.231149326264266,1.4171041590240634,-8.423902644975977,-13.534293192601575,-6.364360104321921,-4.328499451760581
40.0,-1.986166937832041,-5.739408316407658,-3.753241378575744,3.8835955311882184,0.9127625651039928,-4.729015289662128,-3.3378819869269467,1.357040789617252,-5.553366386191081,2.0095868079666994,-4.302179427694305,2.5185438555573914
41.0,7.0324660476902965,-8.907029144083014,-15.939495191773322,0.9539063905335792,11.511732889605874,-12.411693775346965,2.237974798373038,-0.8959279846833441,-5.549133166472606,-5.335173490604674,-19.887953729451908,-9.122071366040037
42.0,-10.568663772407113,-2.3231027167726133,8.245561055634596,6.462897088528043,-9.380596567548764,2.9711769744398913,5.287390225706264,0.39113318739865727,0.4535975412560058,2.8438321471868986,-4.636941434435062,3.608370114933241
43.0,-2.218058204926125,-0.42645331678364296,1.7916048881426088,1.3441283453489061,-1.974660338871022,0.6947804572914741,2.512761131770037,1.2178446971829453,8.673563388380668,4.495921111217499,9.86357273085421,1.382860711423234
44.0,3.548417560268011,-6.322062885805715,-9.870480446073639,1.415953875021603,6.664960105463902,-8.158046127050529,5.796377650615484,1.3005435648931094,10.362515855523817,2.339809575433018,-0.5964564505819805,-4.988592371883643
45.0,0.8508127801455472,7.173802544511412,6.3229897643658814,-4.055434590774015,-2.778329770559762,6.770817965505407,-9.500942625266768,-2.888915550019391,0.3211004067256962,-1.6739631233823307,4.93314490823822,-3.070708625460301
46.0,6.39504439893728,23.770563376890607,17.37551897795327,-15.122976594441775,-5.5329140983020615,20.599938076172055,-8.422212953258633,0.2986863467385865,-0.21204947497064042,2.180017118292317,6.403447845179953,6.090135108126297
47.0,-4.051208973883606,0.048660344792192944,4.0998693186757675,1.959511761765092,-4.04153184783048,2.024892500531733,-1.463437282435951,-3.4464856859364166,-13.530618615563515,-2.936485033382437,-1.2272106579787314,0.03253983327831644
48.0,-1.1418088786370917,-5.021905674070235,-3.880096795433082,3.1139612248662396,1.4017609522232326,-4.421398821690272,0.32083833617343727,-2.359458029067034,-6.7909582442744485,-2.9767688805142503,-1.0429201143191755,3.6786906840448568
49.0,2.5358934146650363,-8.64795462181059,-11.18384803647549,3.0827953360910616,6.893977195524288,-9.88791105984715,9.873649411749213,5.770339016149839,4.069354070462399,1.383495526460612,-0.1654004064750687,3.290937931980453
50.0,-2.521898773079731,-2.5979148391221676,-0.07601606604233879,2.5838589589872063,-1.2623913264597775,-1.3902674858254764,2.766402858587008,0.4140418625043374,10.29888713546062,8.930592477528828,1.045879650689073,3.022121183113921
51.0,-1.1954400721137493,-0.7052201596290724,0.49021991248469377,0.9757117596314742,-0.7957216799233418,-0.08435944428143838,3.153397791601988,-1.5176180055647626,7.928314795586735,8.425523912089933,4.206368229191156,-4.936205767125478
52.0,-0.7650681475282958,-5.470636726345295,-4.705568578817127,3.069931674026615,1.9464385768081416,-5.06585607716832,-2.561575363062289,-0.7626688995343786,-4.4540328764465205,-6.513631163995333,-2.0538277175715898,-2.6413909619335296
53.0,0.10847360583801663,1.5223855404387467,1.4139119346005073,-0.7770021352991051,-0.6716798090469844,1.4130813229993708,-3.821352943878053,3.6009174180941237,-3.566281793162633,-10.980265865633697,-5.911979138556369,-3.162711272866371
54.0,0.27125831479233986,-3.1447285239934706,-3.415986838785941,1.403640453374813,1.8243887710903106,-3.252544322262269,-5.656413664175835,2.977882070178209,-5.377266057674533,-16.011544253291156,-19.515615273151386,-4.774875208636124
55.0,1.4429379683145585,4.38783555342561,2.9448975851110872,-2.943658869622478,-0.776023487512888,3.7005757764411444,-1.047255412696161,-3.9803217516992593,-12.084974510945367,2.31495739046394,6.01109712041488,-0.9735307707501206
56.0,0.02076889433677165,9.256368271745275,9.235599377408684,-4.66522418037495,-4.563603129965456,9.208809081617945,-2.483626103744875,-8.117820079977532,-0.7030817371406903,7.684456431977348,11.80914164036419,4.222814086806503
57.0,-3.922087657946043,-7.125862383996487,-3.2037747260502156,5.5749644299379755,-0.3266003628468841,-5.116832901128617,10.424168912182358,2.7659628176102906,13.957632497629277,10.261569210730622,3.9289497422307136,2.214316762807632
58.0,6.522048580926427,1.3631479230825674,-5.158900657843743,-3.894228228770945,5.784687411803503,-1.9251752314410535,5.112792493632504,7.428439070858349,17.017104458838176,7.196234242889404,4.71783078748595,2.7314142595017423
59.0,10.62463626109249,15.202098549070527,4.577462287978004,-12.946691956677544,3.0410283230750457,9.86167664990803,-3.906530783632582,2.0611572725037837,2.5596314223395833,5.287787533370568,8.740139217425572,8.505741493668676
60.0,-10.62716586677948,0.9516785883810466,11.578844455160338,4.801863662984464,-11.085831641888204,6.23196755038912,-8.501807643610082,-7.431187348167327,-13.249277154243842,-0.0036584751793924952,1.474177869284076,0.8712344294897365
61.0,-4.698920670442835,-12.965615670442007,-8.266694999999418,8.87317791931791,1.8057768489021249,-10.579135166219798,-0.29153382397547256,1.2027600606346267,-12.139227686090814,-13.767085999375759,-17.06982469147486,-9.977021560476485
62.0,-5.903196891523178,-13.131950537152349,-7.228753645629359,9.478266384208837,0.6140804603913852,-10.153133819146666,5.605252733596744,1.69990970493226,-5.894710578009328,-11.707885304811448,-16.938668226928343,-7.489776780037238
63.0,-3.962921057468997,0.029668181982204445,3.9925892394511067,2.004877507258283,-3.938359416167769,2.029043361895546,2.3978242529742335,-3.85397166903494,8.04619530032706,4.3880393860693,2.378114522515901,1.331163006110775
64.0,14.300590585024455,3.526157125233142,-10.774433459791238,-8.955032941866266,12.506406292837092,-3.613692397662531,1.242486960792377,1.069588228768302,6.4667686915038,4.177700567625006,8.444834194798458,4.40419570494851
65.0,-1.7454975967771693,4.306191536433042,6.051689133210429,-1.2446302345390352,-3.9242082940497185,5.105799894563652,-0.5274700146177557,0.4141132407520517,2.569284385124039,2.993405776846373,13.772096059338537,3.803620000659362
66.0,5.351827423310143,10.902446840516841,5.5506194172069865,-8.093208764312553,-0.04425436014134976,8.230512988361978,-6.090363487198645,2.7540350646599223,-2.136735851753063,0.5563380474216784,1.7230444460880658,-3.409993932624003
67.0,1.624568384488784,-0.9457891748675262,-2.5703575593560712,-0.38643766611577046,2.0725488965107295,-1.7519644294412986,-2.5283435770511016,-0.8553056093460196,-1.463245396809699,-1.338245716440181,-4.804968484346134,-1.5715002812720091
68.0,-4.982323742418705,-8.67545421834433,-3.6931304759254955,6.779489645060606,-0.673356743856711,-6.171966696499867,-1.9413889436075125,2.45403109143159,-0.19890988697045675,-2.8648041619769753,-7.579520899214127,1.6908727632564344
69.0,-4.837528566224272,-1.7149570174325302,3.122571548791705,3.3037571988377596,-3.9354606327349235,0.726049475657212,7.735500303657133,0.1428921994832265,1.6515958745623112,4.645150358037553,1.8549076062993315,1.4672968305026053
70.0,7.223646130066866,8.640673671325205,1.4170275412581455,-7.9053462120714215,2.941841207933944,5.063238082650459,1.1187256609339045,-2.328482798653359,-1.3354682891666392,2.963794349105145,4.20710718583382,5.2392404254925635
71.0,-8.342195193440451,-6.59281634596049,1.749378847479677,7.494813045488426,-5.091997826930655,-2.4541163236116037,1.19293802123682,-3.431314012676859,-5.495548617855999,-4.74597990048151,-2.717936334286288,-7.794101034736518
72.0,-5.930080285554215,-0.15369546680350976,5.776384818750456,3.0700735221159556,-5.9046957790354115,2.788096722204093,-2.3599529764509493,-1.2248312660383758,1.1106157914413375,0.09932374929927512,-4.295944254833957,-3.702395036814827
73.0,-2.64496143882337,-1.2831267509175452,1.3618346879056888,1.9133534133483554,-1.9798596534824449,0.020515533310466766,2.4758866469525644,0.5217752001632955,3.8143421424125563,-1.3401445918378938,-2.2030426309936684,4.307333370884487
74.0,10.230987125445496,1.4340013228429007,-8.79698580260255,-5.88548444733522,9.536008668451677,-3.7012331211512572,-3.200640242385845,0.9385222239288915,-3.004844198919506,0.29753614617669144,2.4759483066994212,1.7568541723508668
75.0,12.06546192493211,-1.257877319582656,-13.323339244514553,-5.382656070050926,12.717446699782869,-7.237008947710138,-1.2927878400921848,8.586851079976093,7.806347431687913,2.9989568783593006,5.630268747261372,2.2350739267932807
76.0,4.591060726299896,5.694657130766789,1.1035964044671047,-5.12756293394726,1.7699106729779883,3.4444941404938265,-0.47127580631740273,2.2007984749418203,4.087790318413455,2.7898178829269735,7.42007875982305,3.388914093339233
77.0,-7.485782260926905,4.61547802034241,12.101260281269502,1.4452866455453766,-9.84193501601819,8.315894533067807,3.4850710228271375,-7.36392907969819,-1.646891836008795,3.167948594565695,2.5425702061533393,-0.6286900245277716
78.0,-11.217106767113181,-0.038297039568498725,11.178809727544749,5.635176849557517,-11.242418317015169,5.51969896034417,-2.1794650294735227,-3.300021092417426,-3.7167831971106855,-7.745066744361028,-6.178340809345645,-6.66523777502679
79.0,-10.288068749891096,-12.272882961872046,-1.984814211980991,11.288792236932794,-4.1143841340814316,-7.106104650772124,-2.1640630529895466,-4.924486828916903,-8.150406140181698,-7.653406583670373,-11.27124863429127,-5.862155383762088
80.0,8.906630563036982,-4.765610390928428,-13.6722409539655,-2.0579747396423205,11.328546460302299,-9.197795257990759,1.1445559756878472,4.81234413322344,-8.099207632328746,-5.651549665892416,-8.888899091381823,0.1529866545638101
81.0,10.947530473717384,2.0525411554455917,-8.894989318271813,-6.559696480680879,9.882910208041856,-3.3974104063362627,1.2600438631600452,2.3728936783333063,-3.15789526880277,1.158247259720188,-1.0175695443575323,-2.0124584787141213
82.0,-9.904260379440881,-1.9217415129307438,7.982518866510196,5.9395240837651,-8.980283399916324,2.981871413891435,0.6861074435189847,0.7728118281739165,8.57490068896719,15.764991298476982,11.153758075284617,5.909769756378339
83.0,0.895300540841051,8.10700344020762,7.211702899366703,-4.467661108273377,-3.1141598751038573,7.6981388026374775,0.5421232303970643,0.07582132316061085,16.213880090554106,12.660788439816066,14.15898439208091,7.906333748994522
84.0,15.427074620513993,18.47857052943747,3.0514959089236227,-16.992476274709606,6.234768756122039,10.733430227753198,-0.8034640841744376,3.3091454393982134,5.976952177614718,-0.2753647047691228,6.736914153644651,6.5980028324212405
85.0,-13.930977225613244,-2.1837160346578903,11.747261190955397,8.021587258806985,-12.867846757813215,4.834615281579897,-3.5451865443153214,-7.850007352421827,-3.2505808209245273,-9.159297965132305,-4.838334956385722,-3.458443228802979
86.0,-6.396886519080002,-13.241621439188275,-6.844734920108365,9.86448794253604,0.19726313660676187,-10.067968792747063,2.0397331201121824,0.6620908851372835,-10.563262112846452,-14.109541662882704,-12.791641554793328,-10.381117189584282
87.0,10.978181948166181,-2.1579218781736476,-13.136103826340086,-4.364136270459278,12.030579605661224,-7.675937651629825,3.947437446897019,5.608233983288331,0.4172079565586335,-1.6387328070380338,-5.77506176033256,-3.0262031039997765
88.0,8.294871858464948,-8.656491002429997,-16.95136286089524,0.14734096792574558,12.673010146131539,-12.841280109211755,2.5304638329606264,4.241061847401757,-3.3676544064341587,-0.7298804274849022,-3.350990584127575,-1.1655111045294215
89.0,0.361007073626495,1.9584658882546797,1.5974588146279887,-1.1955444728942974,-0.6514697893573826,1.8090277443811704,-4.337251081720684,0.3298419785156954,-4.424208321507221,2.3346859449408126,9.16485317617764,7.303536278318859
90.0,-9.511940755131326,0.0679587977113445,9.579899552842651,4.760888028944851,-9.506062169149352,4.845745854504571,-2.0184962641897846,-5.985159836736163,-7.015316887629716,5.680101000912472,3.0566192863024533,6.942205304022562
91.0,-16.626013558785914,-0.6824994311123995,15.94351412767373,8.608914554456597,-16.3295500549445,7.646583083908219,2.339600662712178,-8.824605196416046,2.178642200639119,5.565982247341155,0.05466509436101852,-7.087033405765217
92.0,-2.5416917921947286,10.435834965832955,12.977526758028034,-3.9199315185082053,-7.730910874525657,11.721501042571035,-2.8780976816590993,-0.555634199742213,15.50573825565271,9.741403722829702,2.170077396479648,-2.8859882039965754
93.0,12.524312599932239,4.9663443868259405,-7.557968213105928,-8.724324264959346,10.06573135904957,-1.2783818867758958,0.6324434279225304,2.1201871334735563,6.521130170336426,-6.906515688366395,-8.67060293514704,-2.590024655164268
94.0,0.15656023471209757,-4.446873770669838,-4.603434005381784,2.1610901354276697,2.323015280148698,-4.581579656274539,-2.2849860248144727,3.5353713047704463,-2.4742720141052352,-5.617006175584889,-3.383676580309955,-3.7473795546109425
95.0,11.26929634952473,1.823068359162256,-9.44622799036256,-6.6121818677372515,10.377788969966067,-3.86235590550948,-2.6191115465055557,6.444804441210529,-1.2821783551607648,-2.3026020587352285,10.962169379710069,8.166506813335488
96.0,9.443296654719134,-1.9175074523260942,-11.360804107045515,-3.750757978556238,10.421021108942341,-6.60549518902385,2.630538790019759,4.754313395068831,-7.969642470220608,-4.97316291089575,2.356664461206326,3.08034830865887
97.0,-2.2597066452792687,-5.1271495466467565,-2.867442901367716,3.7079895020168223,0.32202844905466943,-3.957753629865676,7.034115363660746,-0.719629938972703,-6.322708293693893,0.1675354360703083,-2.7449545365444594,3.26590826220842
98.0,-12.842716261380957,-6.724134357186337,6.1185819041946115,9.80352606304291,-9.54212840840994,-0.3354335638469439,1.7782459497448908,-9.096773294184826,-3.8607241486649384,-1.7102322280590652,-6.799250056908137,-2.9123059997556955
99.0,-13.093475766132974,5.900659028959853,18.994134795092982,3.6246846102845662,-16.027572689753363,12.500777731567737,1.6085096877269711,-2.3368266175052836,10.12644378869461,9.96973518596193,6.68331805933787,-0.2828345200821101
100.0,2.4094286399989446,6.226041003403884,3.8166123634051363,-4.358354459497684,-0.6883260725055607,5.003278447238698,-2.756409188077737,-1.1942845649965332,6.9709710151726885,3.783560479826612,1.0379473160468862,-4.779171965298502
101.0,8.50956946389637,-2.778051143471534,-11.287620607367769,-2.895951286451193,9.913357043958875,-7.044826326079057,-8.922664875447536,2.8532023756912235,-5.343518860950134,-1.5696424802561015,-2.157280558817838,-1.6164147645798375
102.0,2.9071998576366798,-2.1186233016128884,-5.025823159249587,-0.4144024351834359,3.9816340830496757,-3.5806972471179748,-4.2779308656004025,2.315955016953301,-4.545585711498931,-5.569944649382682,-1.8111668628326294,4.337626713777
103.0,0.21371192017254215,3.789610032778416,3.5758981126057243,-1.9340070495910533,-1.7431509361831194,3.674668251639528,7.404470934682468,3.7696323227619146,8.39491156510842,4.883074523503256,-0.5086502038892715,-0.8009326834245865
104.0,6.7774606572086284,-1.0808261448484995,-7.858286802057307,-2.85223694223861,7.337655878662973,-4.479919859252692,3.9361623197226345,0.7522429593876923,3.508613490458813,-3.6160134476488905,-9.383496324830304,-2.3081786233850634
105.0,-7.724032194700959,-1.8405967562490726,5.883435438451776,4.782596654005424,-6.77910103472869,2.0074571875457754,-0.09767465797578101,-4.324471506925203,-3.8399465311115564,-5.003404742848803,7.829739558502716,-0.7335333619315068
106.0,-9.00249738050745,-4.1846449114579745,4.817852469049479,6.593678990367884,-6.957713142720624,0.3780652330443107,-4.490860300173835,-7.38556103599772,-12.466543121175281,-2.8191923076140846,5.415213300103444,1.3443067506170938
107.0,4.35321174906341,9.367223039620725,5.014011290557393,-6.865809179227689,-0.29146758158607033,7.171322191395836,0.7471126584326233,2.4979217784886423,-3.114996448972666,6.475465070258336,2.992444805745212,5.933073385120581
108.0,6.476595890380173,-1.39296622195771,-7.869562112337746,-2.558816011284405,7.219591164690034,-4.651302136894271,1.1661378419327875,1.4338492270470486,7.034253851842249,7.913936444853237,-2.0917553993950775,-0.9768832960742726
109.0,-8.842893582488625,-18.70506701817207,-9.862173435683323,13.74114705354358,0.4830889930952931,-14.225587035900503,6.5328631506271,4.875672599241349,8.624400483714918,-0.9939660455602479,-11.216543796281316,-8.686394341675667
110.0,-0.006518236531113164,4.826989372432575,4.8335076089636395,-2.381835731302627,-2.44435300118973,4.807095438839798,-4.112574371599866,1.291176653332755,2.444472610801764,-3.7510736768761133,0.8908628857218446,0.5756433399485092
111.0,16.55597308566771,18.673741906428557,2.117768820760694,-17.60209694652571,7.192883245477583,10.366848154654512,-5.546695806997257,1.6712666607543594,2.7925486403303426,-0.619371289041224,11.727792518170725,10.445843094579722
112.0,0.053233149752711206,11.658010620312293,11.604777470559446,-5.853241605838743,-5.807139527455583,11.59298549063549,-3.0238217732534265,-3.1329126411324837,-9.231349163028499,-4.4753566614882265,5.45897214023217,2.6676846587920036
113.0,-9.017726630277856,-9.639278790804452,-0.6215521605265861,9.327981157511804,-4.1571323730898,-5.102200792768276,4.564976611649374,-3.6981331171603276,-3.623828080247739,-2.8581340554783914,-7.69845028868917,-6.346282882046138
114.0,-3.110278472886816,-10.724345301109881,-7.614066828222999,6.921821905323078,2.2873682333991603,-9.153354989970962,0.5088803799943362,-1.6346702011019678,-2.8587527590940707,4.256480968783162,-7.766346018924901,-6.222934331435705
115.0,-0.40588995687844376,-2.698224036952756,-2.292334080074232,1.5681539667634228,0.9755498687853964,-2.4892296230928634,5.9158258409182585,2.5097843327464626,2.9358955692067266,3.875200122617197,-1.4403954904247942,4.147993300300742
116.0,-11.560814556040055,-13.661275784429312,-2.100461228389233,12.563748762334832,-4.7774190461087045,-7.879843903473934,1.6759889752075046,2.5291947528867578,1.0882511132333499,-3.115410312787652,6.440336811202663,-0.08616267016460344
117.0,11.142947166798583,9.960172384714998,-1.1827747820836103,-10.504421038603514,6.194751222647105,4.390414639418598,-7.72968232159292,0.24639807803974723,5.631120220556531,3.9877353568330376,6.79058422298016,-0.7520168905649052
118.0,7.583784569171881,5.136119228166624,-2.447665341005417,-6.378785833354863,4.969112801363509,1.3518478645437897,-0.8921533764158642,-4.618286761675537,-3.105224442555054,-2.0313213371167507,-6.721101187798627,-3.4253161780266104
119.0,-4.953251865875917,-0.11183015987056866,4.84142170600517,2.521306044520624,-4.944455952082585,2.3819327414357114,4.123964023973136,1.3949719357021695,-1.985634671855497,-2.3981645688391224,-6.347912748920777,-1.1763533781552469
120.0,-0.5277895205789871,0.23028797142075597,0.7580774919995772,0.13911990686449816,-0.6120769685903953,0.44364313720309,-2.8642266056527106,-0.893627689190332,0.32568019066587617,-4.410413924832954,-7.377995695834401,-1.7211519255078693
121.0,1.8005959401287268,10.045351291479319,8.244755351350609,-5.936275654835347,-3.1910509745701017,9.105282041086365,-1.6029926924274833,4.660258071500953,6.0344976564511486,1.6450210427193412,8.54758557669898,8.406811715099318
122.0,2.7485583419257336,5.584721351881306,2.8361630099557456,-4.108238796381649,-0.010592312008538718,4.258529182940155,-0.3523809147837452,-1.090309245707641,-3.0517327736186215,5.110458016200724,10.533721173311525,7.318954345629034
123.0,0.9246448071527295,-5.276387421771726,-6.201032228924237,2.147521287897608,3.5216130832801333,-5.6841219656888615,-0.39858993619112904,0.9644682595412164,-3.00061489176917,8.044957936827211,6.038562641635573,0.35176626173236203
124.0,1.5748135096432623,-3.373390178305093,-4.948203687948167,0.864211943093268,3.3044572136719914,-4.1818639485559075,4.914007355568941,0.05422170243033664,3.786505008976228,3.322464091954277,0.8352956445184798,1.6524179389476288
125.0,-18.139653142537576,-20.244352790612528,-2.10469964807489,19.231691123935143,-8.04846499544141,-11.196582242504228,3.9308398901785093,-2.4668955449469636,1.5625940743143796,-8.98978904957257,-9.21964276381388,-11.873460860175982
126.0,-0.47623263426539797,-0.408402673532013,0.06782996073332415,0.4811482022824407,-0.3004273057953952,-0.19765115111315446,-1.8355468212263335,-3.712040801680019,-3.7541562331050766,-8.460894029220153,-7.93044314292984,-9.022402840217008
127.0,10.007449084636324,9.220639113631377,-0.7868099710050585,-9.652371096123114,5.368299038371559,4.259298492202322,-1.5565093374954886,2.3946468567689507,-3.5093085779901614,-2.2919122206666147,-4.094190877137863,5.081581742451158
128.0,8.645034022583896,11.214871226963638,2.5698372043796485,-9.965610827818962,3.0842664641096,6.844941430348084,-4.689945233047739,3.7165437185363666,-4.5775229678601566,-0.9248948939528903,2.986617213501551,3.9762271121816584
129.0,-5.650511455256038,-7.516743259422817,-1.866231804166766,6.628974526211833,-1.8506312088497767,-4.670848996140883,4.54800927587529,0.5786657155065997,1.039793439257462,-0.7205055975606802,-0.8821765505360535,1.3946785021889503
130.0,3.155763777106325,7.885489356613412,4.729725579507261,-5.553266373286722,-0.8302186429966832,6.320416364853927,-6.749791947346912,-6.745015684653451,3.6344034302668797,4.620762584608391,4.616423379314703,0.6794080070759243
131.0,3.1597154958295284,13.989509647417757,10.829794151588349,-8.529609477459871,-3.8054896127540876,12.419426576020603,-3.50561723725611,0.15372214788995442,8.20749973738247,16.349355201472598,11.955217788192373,5.131550426089925
132.0,-9.446500677338173,-14.791009994857696,-5.344509317519512,12.082389216903104,-2.1054882643182506,-10.055437944063353,3.7882528549768133,3.225678396419834,4.442753032065324,3.719157560989218,0.9693090937007067,-6.702452305975463
133.0,-6.128224301119564,-8.749927535940763,-2.621703234821382,7.399487233516911,-1.7330785702928537,-5.744655169902029,12.553073578847075,3.46316550140699,-3.2702017645605865,-9.127401949162762,-10.32876806184238,-1.5627524324432858
134.0,1.149293823430241,-3.8769515291549377,-5.026245352585425,1.4002289573606301,3.1056414931214773,-4.420748376669177,-0.5787113744123564,0.6736055510373811,-7.0055810989445835,-14.132745603991895,-6.285826357606627,2.343109331642495
135.0,6.17593570478096,-0.9431809456675135,-7.119116650448694,-2.581582762647021,6.665357356195956,-3.988433833938317,-6.753174236967688,-3.3658203703399936,-3.17077116312546,-4.814722475683605,-0.8746859035093397,1.7833981886915435
136.0,2.2012526462488413,2.951347735240603,0.7500950889916134,-2.542024779445802,0.6672359871705833,1.8248738516731762,-3.245639268352884,1.948896780763818,6.7242474080389805,13.43389918873357,3.9357639755715637,0.2740065318990135
137.0,6.821094808701873,8.368016556370364,1.5469217476685297,-7.639228047457128,2.6627802392039657,4.938007324201508,0.7373489624530141,-1.7767034225226468,-0.5598429428542249,6.558313280674368,8.327415848369036,-2.214942088504481
138.0,-6.588182785790368,-2.080318657785326,4.5078641280052025,4.2888345191355635,-5.514576298891355,1.1958471635814503,2.1982386305097723,-4.95196811680271,-12.44509037543047,-8.711315816975702,-6.022423021309119,-3.5086475313461074
139.0,-0.10382150925411748,-3.8737985293735577,-3.769977020119324,2.0206340402358,1.7973322894829966,-3.842832384600757,0.07035618962785106,2.8240826551498586,-0.18334470257202673,-8.01237375954227,-7.934809290306156,-6.112092031032934
140.0,1.361607947216903,5.943269457073741,4.581661509856886,-3.7008515526193273,-1.6355354488411047,5.31407707878354,2.219603717507588,4.411363412746403,9.84526044901342,5.995836348784648,7.996231664936529,6.896627164276545
141.0,-5.631934830319782,8.353290839151999,13.985225669471767,-1.330334589310659,-9.74596196939625,11.213321860608186,-1.4622817147591107,-3.984276506757696,10.137337894341336,9.783800556813647,6.994819398054228,10.301673276373416
142.0,-4.351759359975686,2.983199097516718,7.334958457492357,0.7174196109874464,-5.852754022149359,5.117106290860034,-8.363046461588407,-1.7195743695340417,-4.744994917341382,1.219945665519981,3.1140421629665234,7.9038487952426975
143.0,3.3344273136591784,-15.343633228593903,-18.678060542253167,6.043579300408216,10.999276298329578,-17.058751740688244,2.6017726953632665,4.067115045588385,-1.4164444665106013,-4.836036016673189,-9.758229951063763,-8.2715960342311
144.0,-8.574294304197036,-14.616828146981788,-6.042533842784794,11.56352842644904,-1.2757606355485498,-10.30285360167985,9.108420433784651,0.7615948499549323,-3.642755389983646,-6.3394576128268785,-5.204561510109357,-11.79435029344586
145.0,18.83200472480987,8.998822852601709,-9.833181872208169,-13.93990975492575,14.314581416920568,-0.3923506956910936,-4.823829190763367,1.2883995384554556,-3.1342298325056133,-1.1325737614735178,2.265551497087468,-2.687943896147611
146.0,10.70388987202518,9.36640458921278,-1.3374852828122954,-10.054475360940131,5.990790688521329,4.038995491554174,-2.8382544798801654,-2.306143369559378,-1.6918988058995694,-1.7816922435292397,-0.41847704530448937,-1.7918949283813737
147.0,-11.503606662986822,1.3047099752136333,12.808316638200598,5.081546642055858,-12.1202901565972,7.003080112744214,6.8197110861027985,-0.3294007859395962,5.160394776431239,4.927299401533439,1.4289393268644492,5.346697217584969
148.0,-7.973685658840671,2.130608739677799,10.104294398518501,2.979830451228931,-9.015162502154507,6.14392110406453,0.1462603393529287,-0.7720491267843639,4.925926932582035,9.121356360171685,6.21519520248435,6.706214214419042
149.0,-4.166774279131246,-3.1129238836944166,1.0538503954367888,3.6135287113249355,-2.59506676867845,-1.0807890404187583,-0.9221972472644893,-2.3000983409775366,-3.3422182069267454,-0.29591695810408325,-2.953432063419506,4.624025607385257
150.0,0.951672475021061,-3.715756855829288,-4.667429330850462,1.4264422833496007,2.820200868848855,-4.163395261603598,-1.8760034087191388,0.2417399100545332,-5.090351584185744,-7.712816280190963,-5.292876227267709,-1.7411275962500743
151.0,0.18671528727017306,-2.64051509703411,-2.8272303843044013,1.1836143032390058,1.437915178544426,-2.7053846473164405,-2.1979707929261196,0.17267801382889614,0.14406728812677172,-1.8633220100073156,6.105375530016943,-2.6220500420621304
152.0,5.8742146724418145,1.2847974701742744,-4.58941720226766,-3.552584679811787,5.243324390907658,-1.624144822948534,-4.982983273594876,2.6421218421433745,5.348336108667511,-1.8435152648738875,-0.151616365403348,-10.365346281358597
153.0,-4.214093896753142,-7.485816001401663,-3.2717221046485028,5.791354237656516,-0.45590682856671316,-5.4306415928950695,0.4156912333893099,0.4109239190494438,3.2488928377765034,-1.009535727603258,-3.030786598375409,-3.6284085986873382
154.0,13.713618158717349,11.745246257204043,-1.9683719015131667,-12.712910926730352,7.861473756802004,4.9128653922765055,7.415126964885595,5.277203101941244,-3.346961517484961,4.251583154929333,-1.3490192792759408,10.3771320213843
155.0,1.9475111138938477,12.497911492764207,10.550400378870467,-7.205666508899357,-4.353400236362439,11.466603078840164,1.3108224240590007,-1.3729444831390634,-9.339410803482785,0.45013125421891687,2.148537125813269,8.371138092936832
156.0,-16.13066075360414,-9.393856506402269,6.7368042472019445,12.784094661415665,-11.399841398391885,-1.3102109268896225,-1.3753156252171748,-8.32346993922511,-2.407926229212081,-1.035181810241069,-0.4680365733587336,-4.849040362415478
157.0,-7.566260794958149,-1.0878000198989617,6.478460775059151,4.356804228904181,-6.981144872919312,2.712694824643473,-0.5755715068912087,-2.4696239814608716,6.726933759826268,4.83314849345374,2.5698985968409023,0.5936424569923726
158.0,8.703873727864682,2.2255938016289183,-6.478279926235784,-5.5048182561702825,7.560307759618582,-2.1066290727769985,-6.089717262870525,-0.43655813756930595,7.2368343630828615,6.131653765181308,3.049911269345813,1.3570567579264323
159.0,4.533540813890557,-16.052465700519118,-20.586006514409686,5.726677808528213,12.534397590216305,-18.29336518236643,6.3925035244362345,8.070179602710942,5.824994130973916,-9.895829746234497,-6.714123006405325,-8.022767065030958
160.0,1.3605229159034287,-1.0437960882337816,-2.4043190041371565,-0.10862972004889726,1.8605432338989756,-1.767587843578048,4.326264792172505,4.7231382806347195,-1.9189195717774532,-6.280670634327388,0.019854754751934323,0.19352054830459942
161.0,-0.4885294498314934,-0.6047152793652093,-0.11618582953371037,0.5172650142408927,-0.12775470792184196,-0.39295300074952644,-5.360432555518708,-3.311627632409897,-6.393022802421484,3.3580264437380496,-3.296364582804261,-3.3635315922654097
162.0,-6.911894471878798,6.2077898242376826,13.119684296116331,0.3192719684221379,-10.036225836137202,9.720785527369024,1.3274794392548976,-1.1303103474352074,-3.599968743804034,3.906681596312298,1.5676156587478431,0.44557670040523867
163.0,0.685682150116909,10.269846193910762,9.584164043793624,-5.436024895918103,-4.471031665760897,9.91408054300869,-4.208748439840657,-1.2240062743938966,-2.0185436656691995,2.8824355322930115,5.532160073058268,7.725060333722856
164.0,13.018165997973599,12.705159171611873,-0.3130068263618684,-12.901053475970157,6.720198015402148,6.188588682630666,-4.036954377227431,-1.2378897765770045,-6.173051283707661,-3.920449187699832,3.1166383588905338,5.163713365772977
165.0,2.1808843703490752,-1.4166899596438185,-3.5975743299928595,-0.34132615101285246,2.8618078203244863,-2.5131136285692306,1.5366427343835343,0.11043334354655676,4.754829558130593,-0.319760236093683,-0.21836375864517632,-2.4204510426793098
166.0,-15.963149411733273,-15.437739102085047,0.5254103096483851,15.746738580690948,-8.275941784944894,-7.464344556909718,5.655692310813837,-5.272432848160698,7.385164774080806,-2.0416168400984387,-5.995500548747795,-4.724663943033087
167.0,-10.74857931303346,-17.305378180012706,-6.556798866979057,14.002575758764488,-2.0539035165619897,-11.94425675614437,7.050719654246109,-0.4445122745560919,-1.1464624283242966,-0.3413909561732106,-9.397157276434461,-7.151036178910081
168.0,11.86838714981175,14.498398928714522,2.6300117789028326,-13.200138800096797,4.576809138525694,8.623262711077404,-2.7988561475312554,8.189662586670785,5.50667373822,7.587317310175475,11.220708347874883,9.474892725243102
169.0,10.650950523662651,7.027366601076761,-3.62358392258595,-8.851716226771819,7.168091480080364,1.6752981638042013,-2.4485182693202243,1.989845445681543,-0.8551447917965707,0.18579039034914402,4.284596516926629,1.591809160903189
170.0,-5.1144121010141745,-7.64844167585436,-2.5340295748403507,6.3676510709777405,-1.2641557182479426,-5.124343983703409,-3.0199023862617906,-0.8072647034905107,-1.6524377253128266,-1.3382395955457336,0.4732373214652914,-4.575393803045474
171.0,-4.950668196710551,-3.729965050153256,1.2207031465571778,4.31990612589594,-3.1417623118334412,-1.2148225272136952,-2.983748023809075,-2.6505312985276612,-8.060464307986004,-6.968607706282565,-9.311901813329019,-4.007712877525618
172.0,4.889789816956106,9.476174551837191,4.58638473488107,-7.1347999770922765,0.17301155371399402,7.065927010628476,-0.9885810773936432,-0.48716567456610527,-1.7751779164281816,-0.5042034553462438,0.7678108857768713,4.147250463174023
173.0,-5.376359011950869,2.973365958420998,8.349724970371998,1.160276997048324,-6.840676135697736,5.612943992337958,-1.7486451365044584,-1.3979114067590153,-0.4645939012777427,-0.2383770381469199,6.013145604022508,7.2972708372352875
174.0,11.447460205117697,1.4901433416637202,-9.957316863453848,-6.439410979543004,10.64966540017889,-4.285718573239994,2.9737837027824443,2.4177612909798336,2.949762121896151,1.042672306553301,-1.4123990541099958,-4.205834881031553
175.0,-3.7328848813411173,-14.248235890340572,-10.515351008999376,9.01624019291296,3.4233283654083264,-12.357029593139263,4.973326551895358,-1.3739815875989918,3.264017913911555,-2.937609314794872,-10.67455350009701,-6.968439420356769
176.0,-17.151946256876222,-9.446437730675035,7.70550852620116,13.325850688886737,-12.388844886865925,-0.8451103909414686,8.22129940105707,-2.014931713225796,8.034575799410499,4.971334749252161,-1.2337976268378443,-4.551990383937049
177.0,0.9952862132850866,10.974051774192578,9.978765560907382,-6.032338689217551,-4.522250822302782,10.50499602974342,-1.8896528750237223,0.6787941569084383,1.0172266603634523,11.503916748405146,9.252828451319475,8.099693228279204
178.0,21.097786051983665,25.114258829876146,4.016472777892382,-23.14784669757877,8.517702907216355,14.599009062976805,-7.675895483078759,5.941079875360323,-1.9016637618593288,6.9310257642549615,16.137721540216308,11.375237184719127
179.0,0.7066197175374027,-2.9330517338516735,-3.639671451389155,1.155510230854146,2.1557356631747355,-3.3262428483061797,-2.027162985839598,-0.8465435179716052,-7.025007504416498,-5.755162069938977,3.7026467124118847,-0.4442432419793292
180.0,-8.34132605780854,-16.292401297068594,-7.951075239260108,12.284084987213756,-0.13100765147033133,-12.157883695753448,-3.233796076428312,-4.347688492271729,-7.68367403480319,-12.323378246945193,-11.750161948604308,-8.421257728087166
181.0,1.9446117199190764,-10.502533462853805,-12.44714518277285,4.326447812323523,7.181104926144831,-11.509433967429317,-0.1703261125508524,0.27346891735830736,-1.9852039634956138,-14.786177008169293,-19.59611801963659,-11.84710413802044
182.0,-2.3187961531937917,-0.43125312465135046,1.8875430285425105,1.3430991579985085,-2.120535699031436,0.7723826433480143,1.3749561275457933,-4.317586733294485,2.406409370611184,-4.041489581853463,-8.07003598549087,-0.9341798737632878
183.0,-7.228717243429858,8.50236467876452,15.731081922194488,-0.5927328903435001,-11.501263957658596,12.082532144869539,1.5126556682420904,-1.0145138970095977,5.600994916047494,7.966689394189713,7.134502992682903,5.755910114825059
184.0,-7.6073925215930585,-2.0522123245657222,5.555180197027428,4.790431032889273,-6.606627309024068,1.798220408111093,8.211517822911459,6.913253792666273,6.223051554907791,13.006414893553927,16.268222358165485,10.820169581245345
185.0,6.342544304589573,-1.3740638511755967,-7.716608155765213,-2.4513673067863517,7.080382955106762,-4.4941537185513,1.3468642588133508,2.2459840626753924,1.6529858185180135,8.482566986493053,4.625867844752733,0.8611271835737071
186.0,6.749900261557205,9.300242364620813,2.5503421030635054,-8.078740313575262,2.150042728637725,5.903159093325366,-5.952916200065589,2.0325632037041923,-2.559048647089207,5.212141132332547,9.461474095319277,-0.28861001633040173
187.0,7.168935957159649,13.066254829839702,5.8973188726799926,-10.100618324518965,0.6085005501711005,9.463591552554929,-7.8990312114204135,-4.633331054530872,3.103587321128146,-0.14051056910093584,-1.3819312850338403,1.0798363102887987
188.0,9.19832482050632,-3.4400061064604888,-12.63833092696676,-2.8692624904776283,10.892753053121462,-8.057362132437651,0.19671021940743572,2.4128525155214215,-4.022250402832788,-11.877813443443621,-16.295581873639204,-6.627348167474834
189.0,-7.627285117891789,-15.321174682446172,-7.69388956455423,11.479411002145014,0.008676715729696749,-11.530690256244853,7.035739640955944,-1.7773548528118628,-7.761994719435307,-15.069999367064195,-13.044536497007993,-5.177486402112184
190.0,-13.934390732287959,-18.31538289994191,-4.380992167653865,16.12863076714287,-4.80200952596896,-11.380159263756742,6.478234303829909,-3.1115040508877723,-8.003487791672143,-5.804549581329081,-6.836425859522757,-5.961068162191468
191.0,-6.540915413583775,5.108678287129562,11.6495937007134,0.7219150029476538,-9.04426865372907,8.416217633554147,2.794042668059686,-2.502257989560402,6.444222567778961,9.945553041103555,9.482649654985298,6.45514853393453
192.0,1.8949652747586674,12.602413705274328,10.707448430515655,-7.237836361132773,-4.359150487198391,11.685040120954788,-10.013636163438697,-0.10441167539144136,11.891175149115998,12.256574553859647,14.662169446590338,5.063121294697654
193.0,6.883924930379447,10.483584513590994,3.599659583211465,-8.74452735642309,1.6055415322769755,7.070206280742467,-7.740182901537999,1.2638582309819846,2.9567381614741377,8.081626370134732,17.022799554907223,7.4587282534520725
194.0,9.344167076148137,4.633870041538486,-4.710297034609816,-6.962932337794187,6.984993377402523,-0.08372585852450776,-1.5745535201558591,1.9114325961356298,-5.510462792797108,-3.9072972842138176,-5.166002613360776,-2.91036997297142
195.0,7.976745859682749,-1.7395215203125662,-9.716267379995452,-3.084476630226994,8.877022030503372,-5.685320527865304,4.189783619105061,5.716280830602579,-2.4901678015267303,-5.399430707851208,-12.193666959937886,-2.8973913233723008
196.0,3.6397469480544853,-3.715570111046729,-7.355317059101245,0.0003157830297834119,5.522295757262587,-5.560676981143947,2.9354750372604794,5.07783898500444,1.7582811843146027,-7.4920449071342325,-8.915678385796404,-4.833311100800355
197.0,-11.01694530391861,-5.495171915657319,5.521773388261357,8.302315166011445,-8.32801571579965,-0.0028761720933401236,9.523196568049977,-1.9952355185698682,-0.12163749836142967,-1.2474304477796867,-5.321160201874339,-2.8321407562638328
198.0,-27.0309157979146,-21.660746747445412,5.370169050469348,24.315846258120565,-16.18314677418379,-8.157007227052047,5.133904842455528,-10.243252685427613,-7.979876216939286,-0.9725896325786432,-0.13622955167507866,-1.6911616797244673
199.0,-3.2967525512405036,-0.5897650241450734,2.706987527095643,1.912939139718258,-2.9845912716414364,1.0456204377562126,-8.366085093032064,-5.940394976001637,-3.058486368938497,4.607786660654503,9.425525769289564,10.327367038674302
