Time(ms),I,II,III,aVR,aVL,aVF,V1,V2,V3,V4,V5,V6
-200.0,15.688581454730826,8.2134362232282,-7.475145231502545,-11.932111753658521,11.536691992359199,0.3429123777659706,-1.75468130628506,-2.7276680119737815,4.624812944433945,4.8755940034277305,2.883107536817855,4.579858002969257
-199.0,10.478281628126764,6.196476082549953,-4.281805545576794,-8.313268285906764,7.332777435619121,0.9272612693783848,-4.241441743047639,1.6946596667294673,1.784679702318746,1.7157255643225224,3.0602065949056563,5.845917612410781
-198.0,3.1991314304093805,-3.727866212665157,-6.926997643074603,0.2927882904517487,5.092772784545832,-5.28388552142804,1.2180260836701793,3.440004982227085,-1.395732371738431,0.8782551617124525,-1.1393597436014171,0.44908812338625337
-197.0,-10.99601885232075,-5.872976079740105,5.123042772580511,8.387116387310064,-8.03105505452066,-0.4152639851379518,5.128770463646004,1.285095957608635,1.1864570194376212,1.189584810696919,-1.4232849774438354,-1.2266878626748237
-196.0,-23.160751474177214,-5.026938914241928,18.13381255993516,14.126484528541114,-20.61943924177881,6.588000542888358,6.219638594721894,1.7648312363360683,2.4521085654977046,-1.5057585761633485,3.5594123606150645,1.2211677025888856
-195.0,-6.241105931254246,-1.578596964787907,4.662508966466279,3.8632696629543855,-5.503009040200498,1.574150342951473,-1.9005548984253222,-5.755054827396551,-3.6954707563427163,-1.8887800758207585,1.71991936387217,-0.18011357462485078
-194.0,22.38792312449288,6.6523413475594175,-15.735581776933437,-14.489887596794468,19.088889650010817,-4.511073933961074,-9.688085004316324,-6.270941039450028,-6.6110585556342905,-5.294952720639994,-8.05072259083217,-7.84081864839643
-193.0,17.382620228058016,2.481382060405615,-14.901238167652327,-9.904504639494192,16.08944567610324,-6.260537231644964,-7.933972609883411,-2.084103795594355,-2.8985130171637308,-3.027937138984007,-5.028143962294138,-5.678141124488518
-192.0,1.722182263372364,-1.1098695557876403,-2.8320518191599193,-0.36013684743853247,2.3020474500599803,-2.0259276731246585,2.015873398382474,4.613190120449787,5.311151548575143,1.798705761519513,0.3213674811542728,1.534640824468152
-191.0,-7.828870130405036,1.0262213767115291,8.855091507116642,3.424288921111496,-8.318553127678411,4.958150385820733,8.1358566178014,7.944779627121878,2.8355520384785637,5.630155215858645,5.491616028973079,5.827334773473648
-190.0,-14.66060828723562,0.09902258166708003,14.759630868902734,7.303653588525478,-14.687975938513844,7.44012355475445,11.138861459533343,3.846693370625936,6.015814973779633,8.243987755657239,8.863696199895099,9.50953106489969
-189.0,-7.485600321644574,-0.367202279463136,7.118398042181436,3.8725680868593297,-7.359387147297273,3.3817368886312393,0.5477345130595044,-2.1204136231853856,1.209299852959481,0.06430100760957691,-0.17338452420052075,1.371925220327297
-188.0,-1.7370474865134344,-2.98628755443578,-1.2492400679223552,2.3907367699307223,-0.22266581227551097,-2.1120104965357402,-8.25695850533708,-6.169185370380502,-5.384419634705739,-7.376830592973582,-3.257103614841097,-2.9967863967819808
-187.0,11.798052678739868,-3.4976916378115557,-15.295744316551438,-4.1155833729977,13.568767369445588,-9.386187145736155,-6.105177236969962,-3.395380523035826,-5.030977162121303,-5.661184646114681,-5.828597084824326,-7.172330499467762
-186.0,10.811870185317726,-0.9903214665088655,-11.802191651826625,-4.9493600076875115,11.25160087201769,-6.37683311030024,-2.9814640986519527,-0.4783776394654744,-2.794845412416624,-2.344935533838041,-6.3791435669111625,-5.897204718108881
-185.0,-7.359855635926124,3.901247555569263,11.261103191495312,1.773444901497069,-9.28494978249398,7.610842039241269,4.467389633938112,1.4485711742227187,3.5406626023419356,4.520527339845003,5.742114878459326,-0.13105464519418009
-184.0,-2.0130428307354475,8.37221480469483,10.38525763543017,-3.2131519472394947,-6.171001754547667,9.337793169065721,3.052206024264497,6.323886528594946,6.478765553262566,7.479773425159652,7.834046045752186,12.47925837007406
-183.0,0.21974141465651886,-4.038538853344029,-4.258280268000654,1.8735208983444305,2.2694738843979856,-4.186000369432855,0.5885870652757599,-0.3933828168710485,-1.6592350174420378,-0.026648600536166356,-1.5659064159749647,-0.581842493736068
-182.0,5.953341834025838,-3.0449658628050313,-8.998307696830935,-1.4161202152229535,7.428643020658084,-6.061358271851893,-1.9856814522290218,-3.318988537485061,-3.1719603338259326,-7.076204110471625,-4.349044970073942,-7.145296863430597
-181.0,0.06966606613322379,-5.951958198372306,-6.021624264505508,2.8951521534736857,2.9976713715128396,-5.953745869931012,1.5072168970556519,-3.231077166778499,-3.2856372580877693,-2.2083561662612246,-2.9270974881084064,-0.9230721189065816
-180.0,4.61617227019816,6.654908821382584,2.0387365511845355,-5.606195590453947,1.3167094578667156,4.3732201404797415,-4.279684858520902,-1.8942681414726499,-0.9811946469977065,-0.9266986884632995,-0.9553577125222629,-2.933625394035076
-179.0,0.3106390863834315,6.542132864956402,6.23149377857314,-3.3966860840701467,-2.9366759984103803,6.409175432330102,0.19591536034756096,3.9564719743076346,4.403858215645441,4.725351117347955,3.93771471593621,7.934859205523049
-178.0,-12.10600650881409,-3.5259295442132323,8.580076964601009,7.850337168321754,-10.32412353566799,2.5499872350332065,3.1073417846188933,3.261796644129821,4.840612934733749,2.382485441412695,1.4055823332479163,1.9901101190980728
-177.0,-19.37315389193524,-8.938973119087308,10.434180772847965,14.119717355982994,-14.88933873502277,0.696911912490816,4.347762801059026,3.930200642963287,-0.25589611944765367,2.7140809208630734,1.008636726142571,1.017512531092472
-176.0,-0.8991059374724317,-1.4556569572120233,-0.5565510197397188,1.1504955533730588,-0.23934860496531485,-0.97002118910649,0.2665976503510452,-4.011769174846837,-0.5369742830930249,-1.532101526259578,2.400152693691852,-2.4818265245074946
-175.0,19.000486625992203,8.045286491381113,-10.955200134611259,-13.540954460705812,14.98647098136493,-1.4892685501762966,-0.9331386284814094,1.638702801259321,-3.24298809688808,0.5024093722822445,1.073015836340972,0.3928506783601011
-174.0,13.228265837726276,2.424300485447022,-10.80396535227938,-7.83768036979827,12.024961843403284,-4.2178145574527655,-3.0853094560917764,-2.640922308481348,-1.4964401597950157,-4.054091065600615,-3.57928053819593,-2.6177191915776694
-173.0,3.182421801903182,-3.051593047052288,-6.234014848955504,0.005710730721242285,4.720040186422667,-4.589146442575257,-4.826189831187238,-5.548169613131352,-3.2492888863607017,-4.49133901118513,-6.138415193617219,-2.179048494745934
-172.0,0.7429725522663833,-0.9119162851185283,-1.6548888373848514,0.0775179039767604,1.2164421744366902,-1.309252688260097,-1.4906286258703942,0.7618483802187401,2.6876135639995637,-0.5514713796248762,0.6245951788738546,-2.6597107293503677
-171.0,-7.545506287585988,2.713205495208356,10.25871178279445,2.4068831960023753,-8.876958375024651,6.456511475907969,1.6731378120779832,1.478884417297364,2.866245112791806,4.678232737476105,1.4217661915297786,2.2927297176436676
-170.0,-5.697117312444296,2.4988679516421546,8.195985264086543,1.5850133674280849,-6.9918615578435865,5.391642279468886,4.031280121492114,1.5535779851738685,0.8724715965006788,2.7871412673672706,2.9748561686463133,2.0799139794755686
-169.0,-8.083501217859272,-4.726331599596145,3.357169618263149,6.384396700218937,-5.758042224113057,-0.645582459034276,2.447148763198579,0.790390665488119,-1.979166026540489,1.0168557580107604,-1.5582975873497877,2.2095737179877677
-168.0,-6.812674710769647,-7.478512041598543,-0.6658373308289636,7.118601113571017,-3.026332118240471,-4.116268094752764,1.6762558005993828,2.024098883379754,-2.942953423886802,-2.563236804349871,0.49207483228500337,-1.2272504011316059
-167.0,1.151045549465827,0.6766800319464559,-0.4743655175194923,-0.8669775770668293,0.7853019685660406,0.0541553493476421,1.0831294529400077,2.519165569097078,2.5751788479106805,-1.4442339024174728,2.6049178335492744,2.7654071512889677
-166.0,7.299945690137822,3.680631256426625,-3.6193144337113146,-5.445512794267534,5.513723774767297,0.061119366280482534,-5.607358812239885,-2.5540184534620134,0.6643966140234152,0.13726850730047224,0.13648776003963992,-1.9523881337031728
-165.0,9.597535417383568,5.166096021730816,-4.431439395652818,-7.415050874982609,6.991541351058629,0.39799181911096215,-3.3965912884424405,-2.529915833210228,2.842045224010171,2.2185407705862192,0.7692303307018623,-1.3792882704871823
-164.0,14.35925521575315,8.93608728988546,-5.423167925867665,-11.678420147884458,9.86942100447012,1.7883719304082093,0.9640034966239663,0.8716578710266205,-0.3750040188369732,0.5088276325422966,0.07409628954715825,4.689934779598511
-163.0,0.35225828152649363,-1.6758800564769123,-2.028138338003309,0.7121840147645728,1.1694280990820611,-1.897164723549517,1.7135373681975112,-1.9044049537915884,-1.9014803974781116,-2.3723163060191768,-2.7256543081276923,-2.674186984434243
-162.0,-16.194342812688173,-9.45539188004519,6.738950932643101,12.796856243311755,-11.407481245299413,-1.4016897889898567,2.5639188212906108,1.2803621579331508,-0.17870113494977669,1.4164107894416897,-3.0309731256297336,-6.4333629287551135
-161.0,-14.241097841504663,-5.873853140708186,8.367244700796554,10.026609687259453,-11.322337345719465,1.2837551513200889,0.5635919935431375,-1.8976656195850679,-3.490095875189083,-2.766182512109377,-3.880219105310574,-0.15586329153227552
-160.0,0.07166053132752559,-4.72231055394,-4.79397108526749,2.36703560620116,2.416030509235453,-4.797375341067891,-1.0602302398606913,0.514027190984187,-1.4274640253806317,0.05575768172447265,3.980867555700424,2.1384596621075405
-159.0,6.72861670456113,5.503546692302406,-1.2250700122587215,-6.1615710897270795,3.96080396870888,2.18249892777821,-0.5118610775351116,1.2906973732462157,3.0670375193022874,-0.4279132287947469,3.0001133063821586,1.056083774628419
-158.0,11.926244326001937,8.536098540961197,-3.390145785040742,-10.206844358113162,7.720230993685597,2.62127574652334,-5.023581206739438,-0.14065191903113727,0.005053580099793731,-0.740564731794503,-1.511887268351538,0.5366735805469673
-157.0,5.419480813355423,3.5580529536732897,-1.8614278596821516,-4.47195854647661,3.620912243965403,0.8232586668281485,0.2830344895129626,0.5898405737517733,1.3015352927246142,1.411531743051977,2.7951801165811077,3.3538144825427216
-156.0,-8.63122939475453,-3.509619946452694,5.121609448301815,6.082512319760655,-6.9012979817837765,0.7850839944307395,4.7668851774350385,2.0145514447288244,0.6128151367714076,4.643506181894333,2.7399362698980965,1.5212631405259827
-155.0,-15.126840062680616,-4.81059342696069,10.316246635719903,9.979425282098342,-12.753926480566706,2.733269118061603,5.284861565283358,2.0454501779977754,3.821644914288541,4.478517659533697,-1.3152827809977137,-0.5472821252978659
-154.0,-7.121235970271266,-1.5350932709316796,5.5861426993395655,4.261865045763425,-6.315848044682985,2.003849964551006,0.36747335580756735,1.2388578575346836,-0.05531194811479678,-3.888092736498151,-1.141872393982837,1.5213476484199817
-153.0,15.12798631025877,2.316868781476551,-12.811117528782209,-8.705770991736987,13.99956362921515,-5.195116515111771,-4.640635064753428,-5.209980368962806,-3.594265697073343,-3.3308714821788374,-0.7258970978461656,-3.583104308597276
-152.0,10.512705165211463,2.066055167502107,-8.446649997709299,-6.266843821659778,9.425590802646202,-3.2235743221837123,-4.806642895449044,-6.325430095712693,-2.8068390331478454,-3.9898217850896547,-2.160531927955959,-4.926379296433712
-151.0,8.385118709994966,-1.1336142136872898,-9.518732923682188,-3.5964648460092548,8.975037493533199,-5.286882782500792,-1.2623740411350055,1.1482431275141156,-2.1488004597661665,-1.3243537897725033,-4.83601926793641,-1.5638454950496468
-150.0,-4.466835473538592,-1.0404488150767062,3.426386658461917,2.710996701208102,-3.9208031152748375,1.149159209839636,2.664357580334256,3.770240905071089,0.8593320022865636,1.285400833549815,0.28864071812022707,0.5182932350010443
-149.0,-14.27264440830818,2.2229012512941724,16.495545659602307,5.988318214316267,-15.430692551514202,9.39231302978079,2.047786325301172,3.891441756043923,5.384694272324245,5.389486258166657,6.989504401078852,6.268705198820011
-148.0,-2.9406516905176723,0.9598046228218899,3.900456313339472,1.037236921371079,-3.380009301308089,2.4635874586480773,1.7387456569638782,2.325537619120695,0.5721309945424355,2.6662251667518357,3.860730260735091,2.8728558943516904
-147.0,5.5358009490769,-2.099963566542143,-7.635764515619123,-1.668667367030971,6.55570796867377,-4.9115876854417,-0.6399107397667347,-4.302203903763474,-3.398014664266628,-4.140638322976216,-1.9059315584279308,-3.2835175983318043
-146.0,6.7390543197440556,-1.4961420677575692,-8.235196387501638,-2.6512722821466594,7.541168895739228,-4.907906566022769,-3.642466481841885,-5.195339115486616,-3.151655551027691,-3.2429625840137,-7.310232162836783,-5.359343828940544
-145.0,-5.3999657889060675,-3.8719431123910937,1.5280226765150173,4.602890403074527,-3.488093556291422,-1.1351208974553493,-0.04736937451242573,2.696390047345348,1.23418745549283,0.4275956843082205,0.5746112105496812,1.4777154434635604
-144.0,-5.52386493644318,1.3763861454407114,6.9002510818839635,2.03507569045579,-6.241076627709733,4.173712939306238,2.922105807977486,1.2718309207401122,2.979947996400347,0.10851846753225852,-0.32967987051660264,4.241109540158263
-143.0,-7.581961355424781,1.1367311287367317,8.71869248416156,3.256162945409254,-8.188832818455833,4.881001844896316,3.103861398048393,2.133472417641716,2.54510921511317,5.260211344242686,4.342433618710423,0.4540109855748431
-142.0,2.3937941955746695,4.694972483482115,2.301178287907466,-3.5164817023388926,0.07509016237545163,3.52511800601666,-1.140115291971623,2.500484540680174,2.104303892730398,2.6496575392849304,4.875908469153176,2.4439236178279007
-141.0,13.379761151690648,6.274187711671304,-7.105573440019377,-9.802313014959662,10.261445578594127,-0.3946307712213377,-0.11518553385674446,-0.06392602791017277,-2.8751501390357466,-0.42524465239902354,-0.21615854350587638,0.30168595880383653
-140.0,8.607590571267577,-2.68516579166518,-11.292756362932824,-3.015549050628781,9.963451058214227,-7.05252706885874,-2.5677634131392364,-1.515562332167333,-2.99437487557783,-6.848237462083073,-5.489846727419623,-5.471121881499343
-139.0,4.387386507087909,-5.981260988457706,-10.368647495545684,0.8235995715677613,7.3918640226857555,-8.164100869017336,-2.6114658555573174,-4.533587754942793,-2.6127511710680444,-2.5558052549731145,-0.42304971526028323,-3.272424050272513
-138.0,-6.356227523066112,-5.742416754361967,0.6138107687040977,6.079470374898166,-3.4648907461652305,-2.5547336084113135,-1.8296708147476033,-4.046901895520468,-0.6505757728120072,1.5656153679029394,-3.554883051956018,1.7189015384865811
-137.0,-15.000838415997569,0.9195855703991569,15.920423986396688,6.995299883172704,-15.509188327081562,8.432349175062397,3.030180928969955,0.9835904383435847,4.1047503213052625,0.6054612968865936,1.7352830243613009,0.018949005616318848
-136.0,-9.916775868253296,1.5156411647769437,11.432417033030209,4.157236501514353,-10.711911189136766,6.493190381366052,3.7824026170693017,3.682276957353777,0.6804044076231044,3.303922030968483,-0.8069990076021687,-1.4613886382129988
-135.0,-1.9694653490442056,6.412179545970906,8.381644895015112,-2.185615109563754,-5.1240502214373675,7.425696952090758,1.8357802873825952,3.244269497935143,2.0770554290120113,0.9360501501332354,4.175682428574891,3.8807627569359697
-134.0,3.497468111945241,-0.8733634195668785,-4.3708315315120805,-1.2774690480110158,3.914248463660119,-2.661703568167817,-0.3452760152220642,3.1785207685882404,-1.5540804850794885,0.3166867121282584,1.0028628213357105,5.007467593520762
-133.0,12.841865413691282,1.636398417937842,-11.20546699575336,-7.206728464966579,12.007678532978044,-4.815121773398474,0.7884573118719568,3.507065256823645,2.1329435141978728,2.8379701514087863,5.234901482059471,2.7558967562129535
-132.0,16.932925771037496,1.810329614090718,-15.122596156946683,-9.420650610649462,16.090903898921034,-6.680288686179536,-6.60587364089707,-6.587561022989844,-2.693466725632458,-5.578540339039648,-3.4461747475545876,-4.481936182338218
-131.0,12.670445488695545,-4.889361338344871,-17.55980682704035,-3.942090663349958,15.096602185995383,-11.166198549419608,-5.961499226431444,-6.729258506102679,-4.1192772461394105,-4.681012931332867,-9.39121600656392,-6.494613144737144
-130.0,-3.751857885010673,-4.399425639169885,-0.6475677541591836,4.101347551998768,-1.5763985494120183,-2.541863497744232,-0.44429710069995654,-3.185088319356819,-4.124983601066103,-2.608065344635431,-3.659801865277852,-8.422689699049746
-129.0,-20.399732017849214,-1.1547030208955154,19.245028996953682,10.803411633142778,-19.8543751529859,9.028042670291127,4.435006694829755,5.006890993962749,3.615205798745149,4.917211163551828,4.080012215855163,3.2241124431649517
-128.0,-19.6272203578763,0.11556833265315344,19.742788690529434,9.785067763673766,-19.64685455613629,9.991839888077157,7.728762290536292,2.4381097643307177,2.9278496769341005,2.0685147887084163,5.357321004398218,9.985266104198088
-127.0,-7.855505700017917,4.412165758355211,12.267671458373114,1.677532815522036,-10.03158325348472,8.324342687370958,3.475220610397314,1.6909232399032978,2.9198798325037263,4.504106631999234,3.692533489209718,4.98666609199842
-126.0,-6.940097245322715,-0.7682787005981737,6.1718185447245375,3.8953757584118094,-6.61120986985986,2.685221553341214,-0.3325436176372929,2.996802744861814,5.380359969672268,4.285194697264769,4.380824191493823,0.6484906819467402
-125.0,-0.9428191154457162,-1.1524064315782359,-0.20958731613252812,1.0161838736886653,-0.3472668054899968,-0.7010517640112184,0.16077266392377654,1.4267255371775602,-0.5328816907610334,-2.1681593738583294,-1.3582551488764885,-4.0442270498375805
-124.0,28.717038927455807,4.908858377967645,-23.808180549488164,-16.840268834352308,26.280268733952873,-9.476249271158684,-4.533914794768441,-2.9264817063367574,-1.8116304533729797,-4.6754791772434805,-5.7244726070747864,-0.6220419924404044
-123.0,33.84982146273245,12.735721656992059,-21.11409980574037,-23.24024563282942,27.499877626091433,-4.1461897312854115,-6.204413907744177,-1.1019346391720322,-3.717593480443102,-2.240356878186984,-3.3393040401633973,-2.7481258045300665
-122.0,5.152168888427369,-6.433977740452141,-11.586146628879531,0.6126438752961931,8.309592186077934,-8.977663310731742,-2.461909449426997,-3.5178040687852006,-6.997348723289985,-4.453908184285131,-2.4054329062596365,-2.886285190829009
-121.0,-21.159611435450547,-14.36022985268627,6.799381582764242,17.727196809462985,-13.959095727605188,-3.8371885562143113,1.8948991205445884,-3.390507790493029,-0.03346314331483402,0.6502476421965095,-1.3751228494516434,-3.4467031528829883
-120.0,-19.051093557990285,-7.778711179545991,11.272382378444249,13.455269942516566,-15.141047454024351,1.7602785748462368,3.189003124981774,1.7514299040873353,-0.5230295367561637,-0.6914523175226635,1.2507386103208706,0.5389699269767642
-119.0,-7.035734642521458,7.374381345435455,14.410115987956884,-0.13447951514287837,-10.703350940255321,10.900473568318759,-1.3746695482767128,0.6874911277245064,3.7200542429897414,4.7302022244690285,5.44949624809955,5.955867706063202
-118.0,0.41467239013023693,9.055957805080837,8.64128541495061,-4.783544554488275,-4.174973810135951,8.855953048346194,1.7043302683504162,2.3335556697962225,2.4536615757930806,2.4577613630334216,0.7206288383320105,1.7889737659871416
-117.0,6.800339190220971,1.4684402672023573,-5.331898923018587,-4.106327662762212,6.07988955150446,-1.9205874388726878,3.3134023934952594,6.240725819932873,4.227968324199642,3.491743012188385,2.99776177933218,1.9167219725670344
-116.0,-3.966169949477037,-4.705760658809951,-0.7395907093328697,4.285029489845488,-1.6027269066546488,-2.7820883050502796,2.3776033299801442,1.049559128803888,0.850856940209912,-2.469295767422647,-1.5597592580950386,-1.3713999893685083
-115.0,-1.529788514666412,-0.36303946132625287,1.1667490533402134,0.9763490413190419,-1.3398690976092902,0.4327607471425923,-0.6682046530014584,-7.316127542116506,-1.1875399062386491,-0.38748264931971543,-4.746083936028186,-2.445062278732643
-114.0,0.22177068156266166,2.5497737063263486,2.328003024763742,-1.3513481041468627,-1.0452903019415576,2.4830890001319617,-0.022175173100115186,1.0010021510461433,0.17240394686379923,0.6502489955402999,4.112703139029234,2.0005997439823116
-113.0,14.751944493631605,1.0758063502751258,-13.67613814335644,-7.95157205961105,14.222813029519214,-6.3218131670649775,-6.709836050224165,-1.4764718962054295,-4.47434267386251,-3.391466638746838,0.35210401576706263,0.9628028956483443
-112.0,2.4256075711778617,-5.708438590430042,-8.134046161607873,1.6119604445337874,5.290514367241476,-6.932591863939258,-1.9485975260374806,0.7996925456914137,-2.866120393173814,-5.20020083423643,-3.2907229167113448,-3.9482540018727614
-111.0,-4.6066224923929155,-9.966839104266846,-5.360216611873901,7.345022192317651,0.3110121813957214,-7.668907038191472,-0.534305152718535,-4.772579271820805,-4.901218157047345,-2.7721330157218973,-6.378729601646977,-6.1332235153533485
-110.0,2.1640434124916257,5.5984351373891235,3.434391724897501,-3.893116600903002,-0.619794524922088,4.512005681849589,2.0350681119502827,0.17860940188593366,1.7390618022062003,3.1623313034520217,-0.9569009018623846,0.961084946558382
-109.0,3.6668634818517405,19.137979365879843,15.47111588402809,-11.407503193190966,-5.883878809778178,17.296750261878874,3.8994542462535056,3.5552719084046025,7.947212521409208,9.566964205967052,7.535955240777588,7.374686882739062
-108.0,-11.94963738412004,5.8576462447323925,17.80728362885243,3.0446254180182435,-14.856270638479394,11.818662814817628,4.0776350419446405,6.224377768510627,5.97093511833887,3.820923060944631,8.139311707520571,3.990226391292359
-107.0,-9.993588620374489,-13.317088170745407,-3.323499550370874,11.653761834503387,-3.386130099793829,-8.26170716306568,-0.6087640904105134,0.159397887765091,-0.16117058280429397,-1.5333580732704908,-0.6057496731556156,1.3579310739381811
-106.0,-5.257388749205244,-13.618908484352206,-8.36151973514691,9.432422613675277,1.5866083941749785,-11.015069856291776,-0.9972069432970803,-1.9345252447393841,-4.831890078074578,-3.9413806152109894,-2.886150119388849,-3.1732529291712135
-105.0,9.702759547322339,-3.5582273065616725,-13.260986853883988,-3.0851879182921556,11.523826910736725,-8.43629815106366,-4.55671065214201,-0.3179249372932902,-3.621882968212337,-5.686767504818938,-4.315601097609248,-2.291037209252902
-104.0,12.409442897068274,6.308164978961563,-6.1012779181067485,-9.380374060885192,9.225102129719652,0.1566053230518465,0.5753241908336082,-2.446613689791568,0.18686826662769995,-0.5400763795429184,-1.9056489287998999,-3.395338441653279
-103.0,14.66717556383336,10.415783206651804,-4.251392357181629,-12.49263025431508,9.433299786244316,3.059708083112845,-2.4329922874916075,-4.91981232846873,-1.9722330046218655,-2.5771594288891007,-5.612702551189578,-5.781431335967379
-102.0,-3.9123635059886954,3.395395407310213,7.3077589132988745,0.3006732529573455,-5.634756512653631,5.332584197843708,0.3358387653712303,1.1678989527000256,-1.0380235144756005,3.729796795361892,2.788241484397122,2.4918617957957823
-101.0,-16.704440477522727,-9.316356909669755,7.388083567853003,12.969446698554327,-11.99355388104221,-0.9810231293815397,-0.04989906581025538,1.579827634748836,0.4647488482831169,0.966529794444988,0.8680504508608089,2.6823260934676694
-100.0,-16.829107091432682,-1.2578361279315418,15.571270963501226,9.000341547462206,-16.22889060253564,7.217803758651493,4.818282252580261,1.8197847107827552,5.564972008151784,5.781527449408495,6.8473132939864865,7.303868748397461
-99.0,4.8656322495810915,2.5238767752753875,-2.3417554743056233,-3.6594173838222988,3.5727532190578533,0.06887682401360351,1.318979951793501,1.2679643556220377,0.2605095461708289,-2.050552477813813,1.8289046742971893,3.5018972593869746
-98.0,10.057222704287682,1.1979212055073407,-8.8593014987803,-5.669635864031407,9.505625800956727,-3.8611096345943006,-2.844462015975951,-1.1888142301879416,-0.8245418050711774,-2.4173253113449693,0.04045198095982183,-4.36040641838769
-97.0,8.939889674615856,-0.28610685191589685,-9.225996526531759,-4.2874257948664525,9.132015373735264,-4.718612733670329,-0.11154628733899363,0.5678577258978594,-0.35300431263768317,-0.554200710012863,-2.8132764570963564,-4.857328722296272
-96.0,0.3600357087786712,2.2071108593920385,1.8470751506133247,-1.2402483899009575,-0.7701781340730625,1.9742604944636188,0.25151495202594476,1.6943822202404248,1.7471039296654425,3.5857368839840564,-0.8824667256807306,1.8059387402730618
-95.0,-4.4515909868781085,-2.4330470559353783,2.0185439309426814,3.4111932360022434,-3.258998222155861,-0.1908960850915551,-0.7222022214879253,-1.3452381897069288,-1.393965275514133,-0.6186719959907736,-2.04373879884838,0.5580065548700943
-94.0,1.7593312357347899,-0.6276414840510389,-2.3869727197858532,-0.593019760995698,2.0501901972095404,-1.4961366651600483,-1.7537001943666588,-1.4546790440215265,-3.316770409164823,-2.6826597312393328,-0.6142637320606144,-2.4645870231663296
-93.0,2.4848672658882283,1.2524392330924512,-1.232428032795764,-1.8928250781880758,1.8343868543600084,0.021753941886056116,-0.21859633246575194,-0.8546874264022288,-0.6852074059154218,-4.163912096716145,-2.2992204673559917,-2.8614586332558747
-92.0,-4.598278786211428,-1.3180399306599244,3.2802388555515507,3.014629328581947,-3.887634951068191,0.9989193750296557,0.10026759002992475,0.3033754112158975,-0.037284214768914414,1.6723515211867304,-0.6001449550267162,-1.6641896391416133
-91.0,-10.67433314242348,-5.186295975144489,5.488037167279055,7.909044396460593,-8.111266579459265,0.17829233120104737,3.7682136468804126,-1.2357881970050748,0.1185185296727809,-1.713502581856305,2.5667525970747938,2.5194346706462323
-90.0,-0.25304852445735815,1.2054542416681835,1.4585027661256018,-0.4969923485955259,-0.8087304846477963,1.2907931378792974,0.04446899683993144,3.4537424816776987,2.5913340110015763,4.168540714772456,3.13378782832903,7.45745559271715
-89.0,1.1420072946329842,8.256592199591164,7.11458490495823,-4.641188695819275,-3.0176662041520603,7.652207101033792,2.2853593894112993,3.5222896844862013,5.909201986045589,7.981116460254616,4.79964341083831,4.917927280036434
-88.0,11.385351647611415,0.5275012796602794,-10.857850367951078,-5.9773038330483415,11.170771824897024,-5.194797264348425,-1.0940144958652427,-1.9943353253009601,-2.627761251594642,-2.0295112009216014,-0.5554911968712857,-2.0397840925531305
-87.0,7.7210421547438415,-2.3715319884644903,-10.092574143208273,-2.6964543044365312,8.879195126881998,-6.183277011458097,-6.460828021494438,-4.239012213913544,-2.4517280170334588,-4.5564557497245195,-6.328763889314451,-8.230564288232712
-86.0,-10.071151359348232,-3.8726468528301243,6.198504506518145,6.948719385658577,-8.161737684251008,1.2085371392112272,1.250637108861067,-3.0103715492885987,-3.20224061888817,-2.843039570866466,-0.1495769802139839,-5.8091063040016975
-85.0,-4.5144669541626,0.9826212947514634,5.497088248914063,1.8195889337489684,-5.034060507910965,3.202650829907902,1.3821382209168875,4.652632650874551,2.0598426953490487,-0.058543766813839326,-0.6956363198375526,1.5884113604931964
-84.0,1.0349158590426324,-0.18356768585035654,-1.218483544893033,-0.45256498222211805,1.1739074282255784,-0.7413598586672507,0.7131837637371283,1.0162316363665391,-0.9922250427926949,-2.467397010505231,-1.0167623370200851,3.79859294084019
-83.0,6.665576477096403,-0.15609790250294486,-6.821674379599397,-3.28276420748132,6.7079569995448045,-3.451421265909376,0.6279395750688097,-0.41346939372708236,-0.20046260822752415,2.7938122934913214,0.9450301582553595,5.81942885192036
-82.0,-0.7230351100952572,2.8682253413359913,3.5912604514312183,-1.0220175553444573,-2.117804669484758,3.2688594927889363,-0.6380849360882312,1.2630027188688115,2.07637278353596,3.5204215493362,3.4072902709805266,4.100120059632756
-81.0,-0.8638515660476682,-2.5767626843340175,-1.7129111182863186,1.6927630765139265,0.46137547334376583,-2.180640649955825,-1.8257123858886244,-2.886841301312564,-2.0074822486821993,-2.2773093990146043,0.49573136883251356,-6.094331770384254
-80.0,-2.536914883768662,1.9464420639401303,4.483356947708869,0.3470523515291962,-3.553163826781124,3.184061358527413,0.4377246115670218,-4.441105721516485,0.5462158097624084,-0.5422947291848482,-3.358264241183141,-7.813383933759114
-79.0,-3.632087407423902,2.2806862323829504,5.912773639806947,0.6482353688815141,-4.815683438019421,4.149510386317512,1.29458643487626,5.133909593840826,0.771460453836857,2.3353289535332866,1.3182821588263223,1.4038289159942154
-78.0,3.501305557451783,-2.614341237152453,-6.11564679460419,-0.47354747906936806,4.843928962420068,-4.3871745249254515,3.964963550551159,2.895771920892347,1.6586510366284009,0.4101458125175223,1.2786213384997922,4.795584380193004
-77.0,2.6343183625508386,-2.527607590621426,-5.161925953172273,-0.08830331098511768,3.9330859497733615,-3.8646853301954804,-1.0571060325473256,-0.9148660335669655,0.14613404722863277,-0.3228243916625361,-3.0902888951465695,-2.2180242509227437
-76.0,-8.020571648941862,-4.681034742779257,3.3395369061625875,6.388105729557116,-5.7251256183523225,-0.6898078948273412,-3.34382277549554,-0.06565675735276949,-0.7492700415793911,-3.1519770458694567,0.3149252014066326,1.5195265018203477
-75.0,-3.758459759887298,2.562171653159009,6.320631413046264,0.6285524189690918,-5.007936426410673,4.501017630259709,1.1195834315630018,-2.5238163915273857,-1.6438164050108053,-1.5367425939171047,0.636183553639127,1.5001181384650386
-74.0,3.2927029996650337,5.125416518188765,1.8327135185236505,-4.184730322545151,0.6804226835579575,3.4593300116526624,0.7709190669061899,3.5019200682086686,0.8541403489829782,4.714871246849151,3.407973971338403,3.872763677480592
-73.0,9.18174412420633,6.361474310651142,-2.820269813555243,-7.830493103084101,6.028169619386119,1.7497317720101058,-3.237186875226251,-2.463895213258274,1.4663634949654882,1.2802422500900306,1.736897150398959,0.5116237862959069
-72.0,4.800663141606711,-5.340182735208636,-10.1408458768153,0.2871674181378334,7.49722501877917,-7.684820828666146,-0.14784867358450648,-2.993888187372054,-2.6743577329455537,-3.0241027144710455,-4.603648011636757,-7.399721507063382
-71.0,5.768083044490114,-2.9974948985490943,-8.765577943039064,-1.3680979458903917,7.215875506643764,-5.908603165860621,-2.233990790996157,-1.1612339002185204,-2.3979922644157323,-2.6938245814007113,-4.229578978656918,-4.811842439788504
-70.0,-0.71879786582336,-0.9482288550102993,-0.22943098918679006,0.7743152478739737,-0.21338261661628355,-0.6222643890419155,5.037759881079325,2.577703386340757,0.16859989773709516,-0.26036419156010226,0.8617984215439272,2.3264158024971633
-69.0,-13.367926986194238,-1.6487565370453496,11.719170449149008,7.533175613752292,-12.50706908754014,5.072022010299634,0.05066534104130316,2.5831026883439066,4.1430436378708535,3.143417027733138,3.805557815185592,4.872993523018728
-68.0,-12.531089231057571,4.890311406514247,17.421400637571853,3.8534953490595405,-15.012733852601507,11.104528681309013,1.974409469873446,3.5400485154051147,3.053600305801197,3.664730443713249,3.0807423040459074,4.127265496416777
-67.0,-5.950473251811152,0.04178993699177713,5.992263188802872,2.91927793361503,-6.002750058851992,3.036226136894064,1.938415379477259,-2.4120268560943776,0.09944266961173054,-0.38603179491585293,0.13124678537122647,-3.0496698728600826
-66.0,4.1483569242208596,-0.41928165501232384,-4.567638579233268,-1.809664650983703,4.408771644124602,-2.479066096056229,-1.905250421831076,-3.035789029444633,-1.714473043874675,-1.2380060615840036,-0.9139508293771419,-1.1026041373773123
-65.0,9.003953567107448,-2.8428888642195025,-11.846842431327016,-3.0951494021862977,10.398692608902174,-7.330251413538943,-2.4845266929088243,-0.23906678308232654,-3.0833491287088215,-2.6692119747814367,-1.9719038769382016,-0.9402004405665809
-64.0,17.972727710949165,0.37781022142078324,-17.594917489528413,-9.18521892049065,17.756501324504026,-8.588375843691363,-4.117381446681112,-0.06137766309029136,-3.8766418954811295,-3.53557376847382,-3.9781166254425613,-0.6444233476554816
-63.0,7.621157842202664,0.7250934848890375,-6.896064357313624,-4.184793192199869,7.3082967067382665,-3.1342945730279115,1.2018084242757971,-0.02879423423522145,0.214939642030596,-0.8935858136754782,-3.22129949507734,-0.06176477568353406
-62.0,-0.9791401505546151,1.572843102048811,2.5519832526034056,-0.3166518808096499,-1.7965636225368398,2.1040830290107766,-2.1457418846185754,0.5927774760075109,2.498649115356903,3.790795962976362,4.03619448172957,0.15602579452762105
-61.0,-15.947513003376729,-0.42774604784676595,15.519766955529892,8.15531703498692,-15.687265797848188,7.52002194979756,3.1342464666879204,-0.9988537216540762,2.460024893278126,3.559582530470581,6.774946467634212,2.9349235491080212
-60.0,-8.269188853508064,-0.09371497861641911,8.175473874891548,4.214570031571777,-8.25513481665657,4.023129781922863,2.1274149024543796,1.8445652668546346,3.556783861885915,1.2544308705267206,0.799770532513552,-3.0706110152123993
-59.0,-9.153529205529242,-0.2559057658941809,8.897623439634964,4.727579765825147,-9.057853311287435,4.3071875819852865,3.2502446489812606,1.9900925678376198,0.9966699635174616,-0.9589467471044519,-4.582489515216456,-0.22347668689114947
-58.0,5.021566597845646,3.047716487689476,-1.973850110156234,-4.0162336834366315,3.5454072980256197,0.6016767929757931,-0.1415272391819289,-1.2083875465391218,-4.234270375968967,-2.052224969629781,-0.5814531709785489,1.3419395418510456
-57.0,-3.3264296723724494,-8.411963576930876,-5.085533904558451,5.889580278105644,0.8500107112163962,-6.766872228724218,-1.0682313152645677,-3.022878809618606,-2.91043983268297,-3.0011902400174217,-1.6936985817173356,0.37329378799819574
-56.0,5.384807055432889,-0.7432088073029757,-6.128015862735853,-2.3723271916333126,5.80691038624893,-3.4604205553022647,-0.8299829951302282,1.156984419180321,-1.2255487383821055,0.3920345692537006,0.9975589235248263,1.639616589311239
-55.0,16.446631720400436,9.159208750537148,-7.287422969863263,-12.76697595097216,11.839383163408968,0.9033179761440873,-1.3897318546128923,2.4700885038479603,3.8586810843470882,1.8037251547059903,3.0221017507165273,-0.6046557419597673
-54.0,3.079848691702855,-1.2551218615061845,-4.334970553209012,-0.947701513336261,3.6794645548198597,-2.7563060482347375,-2.64868083885707,-1.5367843362829645,-2.312549060555807,-0.013421730504940776,-3.3746980466284633,-4.321581978822257
-53.0,0.028722942583792044,1.6692828793051815,1.6405599367214294,-0.8802627845687079,-0.8349185404657757,1.6875212071565149,-1.0597768769674105,-0.4175272985899025,0.3072635696802148,0.9502644413975749,0.22376400091326998,2.554876036069118
-52.0,-4.0172498692692695,1.3643954222883712,5.381645291557678,1.3741177239166287,-4.651087728745978,3.401056279762349,1.2489508103585547,0.38459663010747963,3.547704294965693,2.030460396382833,2.6463608577069575,1.515455508691069
-51.0,-13.193299481205523,-6.636589410825691,6.55671007037985,9.881313219020099,-9.828048189368827,-0.09388415637263758,0.4715517417239776,-0.747745525183892,0.5716852203016252,-3.073351643872364,-0.33056570545405095,-1.699148474546965
-50.0,-4.5428411063131655,-5.279147431196802,-0.7363063248836479,4.952845317791994,-1.9365884615353641,-3.063835254129452,1.1987383844401165,-0.9623060094322323,-3.5909394958016927,-1.5995079285018952,-3.4659644411952293,-0.7184424263681273
-49.0,3.2154149897209523,3.7618024555155736,0.5463874657945724,-3.527308714236718,1.2989956254276525,2.175786435612627,2.080971693478965,1.5472470667839238,0.579422398494557,0.18277073403699562,1.0143790101450638,0.9099557025063022
-48.0,5.19980614751696,3.2012662931493483,-1.9985398543676804,-4.15938500622843,3.638923417558662,0.6238231423921611,2.975947416525919,1.3858338294064547,-1.048170671468208,1.7098399674070563,0.7339795386921347,1.859985876088933
-47.0,-3.5487261906620535,-1.3771447779710302,2.1715814126909794,2.4295418047975836,-2.904138473773074,0.42246048706722633,-0.558380704448139,-0.3504062639684563,2.154055620414703,1.9782194572972096,2.2221869850516875,0.8493191547998716
-46.0,-2.2909022734946256,6.077583998325908,8.368486271820526,-1.841778398798998,-5.300960150466028,7.252535417435938,-2.3522515509411317,-1.1099899973825225,1.5236283962630992,1.4388270007378914,1.315280114915367,-1.2662328987308342
-45.0,9.996998401580626,-1.5167031758769145,-11.513701577457496,-4.261140396959284,10.77812909443167,-6.560224639747496,-4.678557615362156,-0.018912254026467956,0.025588876097237145,-2.6993993990873513,-0.8964658974048884,-1.592105497992694
-44.0,13.292694865301916,0.8033592196825207,-12.489335645619326,-7.0649993215471225,12.830694596144905,-5.806980869780569,-2.520971810518235,-1.1711628783630255,-3.7688611224040525,-3.3501914140385978,-3.2044530091437866,-2.3973263230890076
-43.0,-6.212613932420252,-5.586161905692876,0.6264520267274598,5.882805099040816,-3.402333839951871,-2.5236047294807866,4.036910321299466,-0.5545931327054083,-2.587745162608397,0.4187440214126159,-3.6007615318224255,-0.7247270326570618
-42.0,-9.227945813377715,-2.2730036402646365,6.954942173113147,5.730484680601908,-8.07136936350412,2.2930352297201853,3.9351489706761704,4.007823523536885,2.1903646255276366,0.6952251536244707,0.7197790005944515,3.9810297338233
-41.0,-9.422251029955639,-0.1953957236256343,9.226855306330053,4.861542900930684,-9.297516753253582,4.540963875235039,-1.0345181029687,-0.2450490166915893,1.5526875999484115,2.075085486292187,5.410697176578926,1.098001000607797
-40.0,-2.3523012000418477,1.9071903754833932,4.259491575525334,0.18983788361840848,-3.347806309612915,3.104400196212773,-0.2798596617676017,-1.9814549789087563,2.353670945002757,1.4054970222440146,0.9011963507959124,-0.1026477586625334
-39.0,5.8421710019739725,2.5595273485767356,-3.2826436533971806,-4.160116214477872,4.609653450313767,-0.34068855639955187,-0.7869774875460114,-3.128710832689723,0.11031438285824602,-0.6465221430031194,0.4780678050248901,0.17358162414341882
-38.0,3.0271267172359644,0.058906903358506124,-2.9682198138774822,-1.5835602888786378,2.9746172059896026,-1.4288745674031986,-1.8021273606156525,0.46708380041868014,-3.7391084107998336,-3.8965640273610718,-4.026998270977389,-3.6804177933199003
-37.0,4.488478523003682,1.789138271801044,-2.69934025120275,-3.1000073239632933,3.5753487625820752,-0.49899826203973596,-2.259465100235806,0.8777992311191036,-0.26742741990703967,1.7405560300133356,-1.1239298932136506,-0.2867931598401028
-36.0,7.144861988404632,1.0164230344881175,-6.128438953916637,-4.117589784245537,6.617945140302088,-2.5106208151895544,4.230558661406224,4.970045460450021,4.299574139690117,2.876224366907727,2.576130237768492,4.266274722364466
-35.0,-2.2133861117012392,-2.7484347336494195,-0.5350486219482757,2.526634369152403,-0.8617982316254538,-1.666498763006326,1.9513566609141466,2.8843400988865353,1.0939093798792956,1.1151269545313391,2.410947086295181,1.2831791998745596
-34.0,-5.252846964042157,-1.7445326452017467,3.508314318840392,3.4687414297328214,-4.330162069821863,0.8610735602194444,0.49477834884374505,-2.9324987401808227,-2.403830817771481,-1.530531936925255,-2.0803559224132475,0.32416438213388127
-33.0,-3.697767438686371,3.481910498725249,7.179677937411688,0.07874139449308304,-5.393500997517727,5.308269831796597,-0.4528641495761504,-3.2726942786556337,-1.321972635287732,-2.4037448035309894,-0.8069904431984224,-2.3583741744933526
-32.0,-5.431346727266938,0.24904505490089146,5.680391782167934,2.6384327415472315,-5.5923683657079195,2.935985876104229,-1.8523800692827095,-4.232728108734812,-2.299911624271244,-0.49698531546274904,0.45973252720029445,-4.991761168595359
-31.0,-4.300439746122748,-6.925617204613824,-2.6251774584909824,5.5764555706605385,-0.8741316441625382,-4.733386640980239,-3.2787261714605043,-1.6196664171194546,-2.6921532378944866,-3.3670843002539925,-2.252290719094765,-2.6217508907459295
-30.0,2.688386690938927,-6.147889997610572,-8.836276688549427,1.7650596596834602,5.807384933694866,-7.456893474202153,1.4387429469475546,2.471180118827421,0.8373635586176492,0.3638335520611823,-1.2175581430398856,2.5684734894788193
-29.0,9.978576847872347,4.834592057575524,-5.143984790296763,-7.457101361247903,7.532431153723952,-0.12321474792381215,-0.4822759165163781,3.445511255026143,3.801497336852048,4.182267294341881,1.0209514400335942,2.6536062903523936
-28.0,8.935795200768387,7.211087893290193,-1.7247073074781647,-8.050915691336263,5.307217934509113,2.6954857467007374,-0.04310068151200053,4.26696278523733,3.7925300457901523,2.9180673929164436,0.9995305766259982,3.761007657647613
-27.0,2.7977266746118747,6.100675521424879,3.302948846812977,-4.429935239005408,-0.19133089044120544,4.734329869371844,0.6545082234062473,0.8539055640716384,1.0128460606889367,1.4957452859069,3.068164554052284,3.1016746164698255
-26.0,-4.3764038932619105,3.731178198342045,8.107582091603847,0.34130146104397485,-6.255415296573684,5.874607607935654,1.655990334987707,0.05677225108576968,0.37069212301381627,1.7667537460136802,4.415992730834119,2.2297641732524323
-25.0,-7.620720820638015,-1.7773536804341965,5.8433671402036405,4.7192483359661095,-6.744069140240431,1.9882962098621855,1.578797781504005,-3.4951153377230924,0.6631209963750488,-2.958658445766545,-0.41521209848900686,-4.08719260040059
-24.0,-13.490136574608268,-10.961441960180236,2.528694614427856,12.169939808910888,-8.023426846368562,-4.183890658764387,0.24777891380714984,-4.492885004949286,-4.954532926714178,-3.3719320331012135,-3.250333649101921,-4.54432615046518
-23.0,-2.706124358225174,-6.328253385071222,-3.6221290268461246,4.464576017288379,0.43854425708786726,-4.94503386191249,1.8873049135571232,-2.2041328761257164,-2.511858252669332,-1.937142234059362,-4.067493947292355,-2.7896787502112814
-22.0,14.286504970876283,-0.8700574141079955,-15.156562384984186,-6.678229920486199,14.772548786999833,-7.98494838011991,-6.187643211049691,0.8358856222941402,-3.4902563872863337,-2.3611130718097195,-4.654219313902653,-2.7462862648451667
-21.0,7.936586450735185,0.22043421325216883,-7.716152237482755,-4.043504653498116,7.788666461906466,-3.798434670553066,-1.776050911292721,0.28981424531232913,-3.406035395763057,-6.1932851457134825,-4.007502303061085,0.8054111672332259
-20.0,-4.6519140390586395,3.819950693629729,8.47186473268867,0.4574617892273043,-6.53117403159596,6.176014115701401,2.069625059387449,4.44331828792237,5.208328387121145,7.382914727902558,4.948400270913453,1.6584284339369373
-19.0,-3.6946956934023705,5.709652376586805,9.404348069989371,-1.037340742461736,-6.528233782170155,7.512358257851007,2.1313051860920043,1.3635933641042994,2.661926433745121,3.8267599323272745,4.458093900166615,-1.355726237546567
-18.0,0.14277489041074465,7.419714655838844,7.276939765428048,-3.8042024665042202,-3.6319463971754242,7.3880613692821475,3.1234617861550342,3.163022369883488,5.8158801976428345,4.53101967156552,6.679601983466096,10.522122857869547
-17.0,-1.263576752100255,-2.655723686018983,-1.392146933919105,1.9412474892705078,0.07375726266019811,-2.0563970335884756,-2.02608892361354,0.17265498613848929,4.508403440906316,2.504169419330646,1.7747210782924507,5.016012648099425
-16.0,4.148415719868954,-1.8817052939134122,-6.030121013782887,-1.0723286646575958,5.098013409111994,-3.902989889364745,-3.3797690173977015,-3.133399049295888,-4.767640650301804,0.37334629847066997,-0.8328772269221818,-1.1702038142181304
-15.0,3.027549645704055,-4.044995226985906,-7.072544872690305,0.48723190962005325,5.061899763420466,-5.578734293501691,-0.16232772128526696,1.7493878485094108,-0.6993599861661837,-3.3358150417616446,-3.2428810225132416,-3.5114194634797187
-14.0,-2.7627877660235143,-2.1556510086181864,0.6071367574052662,2.4302637999597834,-1.6668892242090783,-0.7897456685563058,-1.918471698338008,-3.6935855306152803,-2.317489989578516,-1.9442464291200685,-2.780621747960891,-7.339347304133587
-13.0,-4.271695073137552,-1.3474909523884242,2.924204120749454,2.7715341724973737,-3.5721921272788726,0.7758410516209864,4.936438349168027,-4.482628753118917,-4.381172156476447,-7.604982188547065,-5.638907847456252,-6.481496635703873
-12.0,-2.373411805051432,2.294742313578964,4.668154118630864,0.0721416671989683,-3.5668155375653074,3.470846454175262,-0.17923669428580213,-5.226081973291618,-6.776245885956695,-8.394817483687293,-4.939343004896825,-3.685762808878102
-11.0,5.859136913686594,0.7179583185959093,-5.141178595090214,-3.2597314375777886,5.458355174331443,-2.2206570159939782,-1.0857376204573959,-4.377394265020085,-0.04388827866902356,0.26576976009957454,-2.3707746726892074,3.614912697439046
-10.0,5.455839420788678,2.067539225314948,-3.3883001954734002,-3.7315760353027425,4.45938380379393,-0.5891140999222112,0.6182778134165134,5.634823483143736,5.86582390308709,8.623823492185638,6.932426784252814,7.662746793584767
-9.0,-5.899816019393265,3.81990125447889,9.71971727387225,0.9973596789773915,-7.775897867610709,6.763402439798303,3.388717593758258,13.651520625229336,12.409107107370968,15.06324124811893,17.255897232611165,11.64679515562526
-8.0,1.4634618567644784,-4.194496078654222,-5.657957935418891,1.410118277839381,3.509681378649378,-4.933451329954792,-2.3410762170430246,12.609298712457395,1.2547605708941623,3.767885775000231,0.7535689357617734,0.995523689284358
-7.0,-8.703500623119735,-8.930252985736159,-0.22675236261673692,8.790397432847763,-4.217719845552426,-4.5901660513217655,-0.9161890741293901,-1.1761342305440952,-3.158278618068162,-4.251586561860835,-4.013066419676347,-6.967274492835269
-6.0,-0.19270123082043167,-3.192865225915537,-3.0001639950954204,1.6704463860537997,1.4184085681178564,-3.117302918202012,-0.5696581234430729,-0.6761844033482833,-4.386442752971417,-8.314720555276804,-10.856996624598047,-8.736344994125863
-5.0,3.28870190517632,2.989919545823307,-0.2987823593531749,-3.1622334411365656,1.8053670329244347,1.3114031260105894,1.7013087657961425,-7.241293201340975,-7.740634747249487,-9.429224248447515,-11.209829316774538,-12.05695034739023
-4.0,2.949085109371561,3.698946787707152,0.7498616783355292,-3.3515043902724924,1.0336850533858577,2.2534959828936048,-2.1454482371810033,-18.461275444793014,-3.988292617136033,-7.904962940103988,-5.126613492252476,0.26054924898620513
-3.0,-6.395767532313321,9.40529443533607,15.801061967649279,-1.4598594328359207,-11.079614694218769,12.617930381951094,0.27937726423603976,-12.474534589047872,3.4779321314714564,5.586013326158026,9.559042546539803,11.555125717419187
-2.0,10.862723297329602,12.917107412403956,2.0543841150741984,-11.850704869271674,4.433176704954446,7.490626294346109,-4.976069563086996,-4.008194993156081,5.467505794383635,10.19491263038541,18.643135487634808,18.79523535452035
-1.0,9.01178010165433,0.50065035600575,-8.511129745648681,-4.720490816679722,8.803110375608291,-4.003512737051252,-5.8888318488643465,2.109383876250636,0.6566316127195186,6.807211370330472,8.64067740491915,7.324729523757686
0.0,-5.5479190090154225,-7.242817501176831,-1.694898492161209,6.351177479543247,-1.951343152807011,-4.46307635817962,4.896690795528284,17.329082814004096,6.318555035647533,6.144492857406393,-0.8237930439600811,-5.488999739500208
1.0,-5.848198612236041,-9.507098253115066,-3.6588996408786265,7.633670828469892,-1.11073036567513,-6.567302952952564,6.638357950159394,22.275825016508655,3.7250696204659954,1.9044391305145252,-2.9404872892908696,-7.801274516771139
2.0,-8.999782996217887,-10.329047205421519,-1.3292642092032023,9.699687939995414,-3.8484092426816696,-5.879134693193834,11.123237555434605,13.680883787818683,0.6572802189803029,-7.253030580537075,-15.180049541734414,-15.421277152814122
3.0,-6.6876133698891715,-9.429090115039024,-2.741476745149638,8.015226186470187,-1.9896390936059953,-6.043495597930935,1.660796457852327,-3.521639983221844,-7.953814741330384,-5.624961455297797,-9.876583644278469,-9.632634556011102
4.0,13.119695031219397,2.9419772527556542,-10.177717778463634,-7.994547808931561,11.623934413137093,-3.644735636866005,-5.498914444077036,-8.429740327175146,-5.642445560959015,-6.768796898926322,-3.409622263019469,-0.23059133893471118
5.0,15.437551968409425,9.464012715376956,-5.973539253032678,-12.491291303630984,10.749688498092688,1.7237129552785104,-7.638966075878226,-13.319349430897555,-0.6826337154249011,-6.34520835635491,1.135596523077382,7.975031467182289
6.0,-11.928492573757302,0.9403651025488227,12.868857676305582,5.5362908726461,-12.36244163925465,6.961944181574933,-1.763616398561095,-15.747412817872044,-2.3274438390652166,-6.6127649389698995,-3.0330847662932907,-0.8777609679398335
7.0,-9.995828018938882,-7.490320576091885,2.5055074428464756,8.791141786618951,-6.296473581287575,-2.518090870514972,-1.305510738790781,-10.443604280249282,-14.36717627790289,-11.0339926679586,-9.849058520624508,-11.25536876919115
8.0,-3.5274560202839402,1.5357556410598652,5.063211661343497,0.9715455371268638,-4.260105728738409,3.267082590373011,-6.840002130159694,-2.1780827108295133,-4.4004586515283854,5.330634841770148,6.776744811480696,3.651437594273152
9.0,3.578579028084915,23.231127080730168,19.652548052645205,-13.424224601358013,-8.073652303531366,21.48153632623948,-0.1864216357138515,7.867218329534688,17.78787088473617,25.256479875039886,29.114835502438886,27.359502705213007
10.0,14.575740925397916,11.19621815446323,-3.3795227709343,-12.9035458695318,9.0285901473046,3.865198258655754,4.5934311215804335,17.892178262781375,17.018593490005067,19.159420229873387,18.149486039729208,21.097138049370106
11.0,5.095245371032477,4.796651172546506,-0.29859419848530067,-4.965302770799576,2.6767910625741225,2.2848475078821684,1.9581805106981758,9.572188177884932,13.436410113946938,18.012283268837145,13.796702489285583,12.681814880909403
12.0,-3.4072961316627697,-0.14331930213831257,3.2639768295251717,1.751641391728949,-3.352167534699409,1.6011748002519663,5.707888097331962,6.945505429717372,14.421073623690514,10.47540280304686,7.444279816917112,-1.305775946539935
13.0,-4.4811762059727505,-30.79512184525722,-26.31394563928408,17.68850423736731,10.8978895939761,-28.58353842152685,9.600739926787613,10.717182895009554,-10.989575372926199,-23.350745980970657,-31.345563286709154,-32.76356016477605
14.0,-7.365861253317739,-24.170557205014433,-16.804695951696935,15.815515647577401,4.6937723066025985,-20.505854548069685,4.706021168375777,-10.53800189349587,-26.9068241722064,-38.495689562259145,-42.724657112698566,-40.096904290764456
15.0,-5.608354212808285,-3.2754441566439265,2.3329100561637457,4.410161954192838,-3.927795607384392,-0.47914906669668333,-7.894180652467094,-28.74935134571491,-21.549334189124274,-28.988218018733846,-26.65964660371325,-23.096694195762847
16.0,-4.370496470219999,6.2256340706830615,10.596130540902697,-0.9572299908803729,-7.450914577805061,8.411048443364663,-13.736407196171893,-22.434830676749293,-14.370156226332007,-11.115876121375324,-4.673610245637879,-2.89862238017622
17.0,6.252778083644686,9.35161433602214,3.098836252377289,-7.750227731582255,1.5227788499725499,6.230148211450384,-9.607239725293804,1.5863680933231628,0.7979457034939548,14.412439687180695,20.168637956505833,28.276015453130007
18.0,4.385884445918339,15.01612351573265,10.630239069814348,-9.726080222273636,-3.101167351474566,12.829464824269724,-1.6216686348615035,11.58978088117456,16.996108303423263,27.590947275631727,38.223379478582714,43.12092568451649
19.0,4.701933004667251,19.347013108482987,14.6450801038159,-12.050532120748516,-4.949632958441498,17.0008080916324,13.355123494871043,28.64005749254253,29.855050540776503,35.89244124988426,34.73479019580382,31.98568439805666
20.0,7.475852935695562,8.347031740253373,0.8711788045577924,-7.941596166885101,3.328437836780845,4.61024833377908,8.676980527606515,22.87626416283983,17.14207363871404,18.968552042587348,15.901726329068513,8.324285801280965
21.0,6.506476619082178,-7.04115660011569,-13.547633219197742,0.3095134451429844,9.979661011885648,-10.298173140157445,-0.43914274427949973,-0.8933639732399925,-2.6815633016896196,-9.964305507554963,-18.363512614400598,-29.016069269389114
22.0,-13.345697720295464,-7.789086782335243,5.556610937960471,10.602385537354934,-9.494388435995273,-1.125581701336019,4.51989676134032,-13.836290293315695,-6.123826516026856,-16.26157598093277,-25.53510612773737,-27.913703396442372
23.0,-27.9943517715354,-16.578998066032877,11.415353705502827,22.236633566098583,-19.667768195629606,-2.596912384014659,6.801153552456738,-14.046594246993484,-4.2735545221430336,-14.012010546214857,-18.17224126468516,-17.621738469238732
24.0,6.505938074807901,-20.935308056571333,-27.441246131379167,7.239124174271762,17.00920536213539,-24.130299860442484,-10.036027607818902,-14.670511245893552,-21.971419834067454,-22.07962644447474,-21.58119005014995,-16.652543542733298
25.0,29.90981309819519,-0.9460752257936909,-30.85588832398904,-14.459398741188725,30.335713814543507,-15.927313893655759,-16.063288990220894,-6.037431794587276,-14.656701646799348,-10.151185183370579,-1.398158758756046,3.648878673004401
26.0,4.882119743564942,6.045459946220087,1.1633402026548314,-5.520262780637131,1.8856317768363038,3.5726469157100045,-8.177930950687422,-2.3226045893179874,-4.877042316051684,2.6279895805139724,9.706749526159562,16.54961228148528
27.0,-7.2712956371011614,9.408062162820427,16.679357799921316,-1.0456141820182108,-11.954346069282398,13.085617457422545,3.3878424997817707,8.111782925840897,3.5407183609518684,8.353610752223005,13.829661713295561,17.401844019200134
28.0,2.4550135599537404,14.109609381068145,11.654595821114265,-8.259674442088112,-4.66117910710571,12.84104537272726,5.082210439645208,12.492398336008193,8.992448611471843,13.683757510708444,11.712292134748655,10.76507086341379
29.0,-0.5535634308317818,14.917306565239972,15.470869996071816,-7.161125454529013,-7.995511824436205,15.229320778920068,10.977758026072143,11.971500588903586,18.42215478468206,16.273299177166187,14.27978465972567,4.865689448128133
30.0,-20.19424584530205,0.1265986873999534,20.3208445327022,9.971634501715638,-20.237750961227537,10.18048014758126,8.00823653349494,-1.1665444767312039,13.401639504936018,5.463226538067682,1.109134917079773,-3.358654867453328
31.0,-21.329632635296335,-15.771541671030253,5.558090964266299,18.561105765951837,-13.41730507564946,-5.067521110370139,3.2400939341641086,-6.67874476238634,-1.9481348689624927,-6.7091180753833015,-7.125292911300397,-8.462909013202815
32.0,10.530182457733542,-4.766353302406722,-15.296535760140099,-2.8777712442798586,12.870521285949884,-10.063935543348071,-3.033362163022007,-6.507671340509944,-6.229628795025251,-8.343338882215658,-6.895645834380938,-3.5916923514019405
33.0,12.066697708860085,-5.387055919792674,-17.453753628652684,-3.340097742499595,14.80620279451071,-11.364847577174213,-6.4004535376620115,-1.3827468864426908,-5.111432074864775,-1.8429960114551065,-6.86380317405594,-3.330008556826895
34.0,22.423350017803923,6.5566272900397635,-15.866722727764156,-14.490403105253755,19.120905989186785,-4.668843747632806,-9.040595531929434,-1.9561712942240357,-5.095222548991691,0.6639951985652655,-3.585236324987621,-3.5867974807835994
35.0,3.9330295587255684,0.2085119861014636,-3.7245175726241424,-2.0655476262131405,3.8101836398597833,-1.7649930683177484,-2.517938155191265,6.668802502888204,-4.964052272803507,-3.2723100764193944,-0.41062896694628126,-3.1728362180729026
36.0,-10.083622872260937,-7.11063133092447,2.9729915413364214,8.613728231141298,-6.545149366795161,-2.073964255049731,4.9949084032134605,3.0376067709224923,-1.4439592873392444,-3.431181691891287,0.9581550423837348,3.8594315388471037
37.0,-7.62057811394277,3.415207540655608,11.035785654598337,2.1346235664356805,-9.346673312818128,7.21613004616596,2.497198290341009,-1.8247063485424624,-0.28026767423721943,-0.8377479718632597,1.1160110204965603,1.9720789080810848
38.0,-5.126810949537331,-0.011485231410097718,5.11532571812721,2.538518016713818,-5.06478119695239,2.5330143899936877,0.9005839452952511,-0.8996366185685598,2.041446295162755,0.44664865219355177,1.40778817911767,0.08918594996693585
39.0,-7.3969021390610745,-1.50368359824434,5.89321854081671,4.433202975676787,-6.593961642666022,2.1635396654567396,3.6284013968423166,-0.0504763122998082,1.9013225377163359,3.7734316346031216,5.048138446343842,1.5031926602456203
40.0,6.484890452547419,4.964627070281962,-1.520263382265492,-5.733655576848452,3.9692331420462574,1.7580812851203467,-2.0218451206865655,-1.2263761881915884,4.7102604287836005,2.761604188677179,-0.06357806861599169,4.80379417601508
41.0,7.131845998615113,7.963923572098276,0.8320775734831094,-7.55500830746462,3.1107665027702387,4.426072913842276,-2.317864401209653,0.4037647433431143,5.110493759671973,2.1927514402333834,3.744291223307119,4.725364684436418
42.0,9.827101211827605,-7.298479528623071,-17.12558074045073,-1.2753158016407506,13.431948061923173,-12.186526696845931,-6.832898532004535,-6.957266311691063,-8.988131901795441,-5.0172783840679385,-8.711443530280604,-12.258262849196747
43.0,-2.1059998797434805,-4.101933058585025,-1.9959331788415797,3.1643097393992674,-0.024442910935155382,-3.0214295247755056,1.466526587463417,-3.1744567551487686,-5.659624806796465,-3.611616120926327,-3.9899689082210283,-7.696042586112753
44.0,-3.5321422936722318,1.0866287715360996,4.618771065208316,1.1960649840476905,-4.045959458148218,2.805716633752434,2.6731364469316237,3.542541684204406,1.683297501031825,2.2028143223692,2.458781462135844,5.4308911675660045
45.0,-7.364449815568616,1.0901727615163725,8.454622577084987,3.1035351168169703,-7.877820757560594,4.729340071768136,5.526429218009567,7.299890537329424,6.256764208744088,2.4429905523704396,1.1318862609833316,4.463584739728403
46.0,-6.540223314722825,4.616160980519427,11.156384295242267,1.0028968652376178,-8.890272830196418,7.845266033710525,3.3058370175026077,5.44365356283237,5.2897417440217565,1.0964374177176555,5.189480251892113,5.89426866603919
47.0,-0.8562518060884678,1.1398759955994247,1.9961278016879163,-0.10256857787389519,-1.3830903786727031,1.6060531912636238,2.200705765273366,2.3413289595982785,2.2760175095417674,5.9105895764117315,2.35257588807124,1.9947829040657927
48.0,-4.044316394399356,-3.775264480278904,0.26905191412048524,3.8703194067922344,-2.186914261902444,-1.7151264808880895,-1.753266193807363,-1.52696851168841,-0.178095605167498,1.0277251761833142,2.4005588083816294,0.3317832247665002
49.0,1.5350813954474711,-1.180831541418156,-2.715912936865575,-0.21635793807515769,2.0979498541237973,-1.9093303487309181,-4.926962973819256,-4.3196440886062275,-4.804681543134756,-1.9349339390299205,0.4346528399105448,-2.3426231362465826
50.0,11.853522754966088,-0.1555022751669971,-12.009025030133039,-5.810256376386497,11.902849858317246,-6.119088490955242,-5.554214811426013,-5.81642973510273,-7.6837401557428135,-5.794888311753089,-5.85727534952807,-5.760177229033737
51.0,1.438429493080748,-4.766994916974968,-6.205424410055694,1.6220492886280509,3.868205619853577,-5.518791776391865,-1.1773409692801402,-4.961914519384799,-4.004511243297645,-6.759308957620707,-6.483230400829293,-3.1824251007274023
52.0,5.793273129750949,-7.1176453595396385,-12.91091848929062,0.6952867484681153,9.392396332481225,-9.963774951745764,-0.5076815490457949,-3.630327629642041,-0.5442249755517666,-4.763926699767142,-4.695425104989116,-4.31489660346506
53.0,7.123804736626761,4.6270564636707165,-2.49674827295614,-5.846196151842976,4.765396314396257,1.0399557385418357,1.60702430805022,4.582381486215476,4.301556211831814,4.161243305153225,1.4533789901065708,0.23154064401166996
54.0,0.804514928121896,13.847744494326742,13.043229566204733,-7.379255980771742,-6.091132386992557,13.42113649182452,1.9032525015328647,8.935039127028833,7.1728643538887304,7.996677644681416,6.391618130646124,4.569565610082247
55.0,-14.078279506687796,0.6013784590591529,14.679657965746886,6.761066337546934,-14.433542614004121,7.614704442498044,3.8081991810400244,3.2745838245914385,3.1680645161599426,4.202719108181864,3.0061677763235704,3.8414486721506176
56.0,-6.155562451538637,-1.7155215710728096,4.440040880465844,3.9556373879764766,-5.275714916455625,1.4119724818010955,1.397856565521347,-0.9632832422103528,-4.825860555859198,-1.7176796591951797,1.0151049907245961,1.6696314933326306
57.0,6.623645245319125,-0.6264803359431763,-7.250125581262213,-2.9809619182489806,6.958738543458538,-3.8927939614841254,-3.8977678862395555,-4.8611631489009355,-4.973707199650448,-5.053019854879133,-4.640991092151959,-3.2171049474274707
58.0,-4.6307215367190775,-4.086061734171524,0.5446598025476019,4.294393768370874,-2.564816536220518,-1.8085424017373102,2.5863781462866,-2.4553554542415763,1.387690474958716,-1.8467924687668034,2.666466170671091,3.4194507083653027
59.0,-10.228947066675257,-1.7648996879326964,8.464047378742572,6.008357074860906,-9.40110243048381,3.3070085187563283,3.4929338865593227,2.4406979118529195,7.552342638433233,6.281353430362915,2.3329012721613083,3.0152767520065695
60.0,-3.819238452109741,1.0326369923509289,4.851875444460659,1.401487526810167,-4.31100018625897,2.973754064114412,2.4869191323151805,7.367136429385154,4.344126170116425,5.885093444538398,4.59414053642473,5.7734649057905685
61.0,3.0898938061726406,0.02653607623069045,-3.0633577299419636,-1.5522544573747092,3.0999414188201984,-1.4912490235393534,-2.264980655505088,-1.8755755392510631,0.7902482497002957,0.6902162543598468,2.8633394073748617,-2.8458901653401427
62.0,8.026297007487862,-8.745835321467718,-16.772132328955564,0.36547625318453214,12.340751427220805,-12.813967174990761,-7.242455037175193,-4.785524550228702,-7.2373037439800205,-7.1905717068021895,-7.024992775247485,-9.690298408284171
63.0,18.1176814507849,4.0183961801710115,-14.099285270613862,-11.060104799747224,16.124592823670312,-5.018328362299457,-7.916664137440026,-7.663684271289953,-14.368896875630394,-8.000828553919188,-9.762936510822595,-9.109476239133018
64.0,6.541199838105452,2.7802576737966977,-3.7609421643087266,-4.6482666407360895,5.163077431203103,-0.46732624808423573,2.5301623214187456,-2.1010334331622724,-1.2175339698612326,-4.042599954806661,-4.22186472730406,0.6669489102138622
65.0,-8.259439362571351,4.2619488686096085,12.521388231180955,1.9384575357098575,-10.381071454524395,8.339881435667017,3.666282830297447,3.4004500647811327,5.572377634753726,0.439250025203066,0.8796738787180994,2.2097793771079206
66.0,-9.87198423948085,0.37371316558457357,10.245697405065377,4.773812322813148,-10.049706071610208,5.3435312724007655,5.309580496683295,5.4778014224403595,6.214960916215734,5.929822465685021,6.2609574539294375,5.765978885361926
67.0,-8.288935853061824,-4.073490196270029,4.215445656791701,6.210900905850806,-6.240429734169803,0.11363866489396912,2.568947167856426,3.6211961573400093,7.277996584685229,6.643745519007525,5.70337655068749,5.23884516143412
68.0,2.2875294808802398,4.0006739354955005,1.7131444546151577,-3.1118955913059736,0.2254077331037383,2.829967356733407,-1.0086116847385824,2.215395324031676,0.7689158389937178,2.3575077389823695,3.034605337025541,1.4542464217096613
69.0,5.169699887998342,5.90092085860002,0.7312209706016017,-5.582607533825463,2.243296614214906,3.2966574702352944,-1.3208508934349619,1.2778409901073324,-0.16487492397066916,3.4851123385038703,3.4412294114517996,2.002330671959439
70.0,-1.4254899954753113,-7.00049790189221,-5.5750079064169,4.161843382631971,2.1068649926275613,-6.302820229843264,-1.7483798386727474,-5.491520876125054,-5.591211579576379,-2.959125951666823,-4.095044504216518,-3.381530915210989
71.0,-0.4424465207222954,-0.629764121530362,-0.18731760080799909,0.5580860551920628,-0.16627643401517922,-0.4231351613986698,0.4890101899567867,0.7335135699999356,-0.8233326686406341,-4.952326237538053,-2.8544288390647568,-2.3191225287474952
72.0,3.0672717100811635,-1.8220457477721719,-4.889317457853245,-0.6058439272301959,4.025008051939139,-3.2946404614649074,-3.491536157472627,-6.196080189549425,-7.396371924979241,-7.198927801612768,-6.5279164353183585,-4.225902799839913
73.0,-3.806654844614696,-4.222241435004779,-0.41558659039000956,4.028571325384747,-1.7231867307416442,-2.342349217063826,1.6258674593149065,-3.313217876075286,2.0286869109146033,-1.8883786074798241,-2.883476056524136,0.2915156024422547
74.0,1.1847978562724637,-2.578879540905681,-3.763677397178113,0.7122696108906251,2.4480176112050196,-3.2018205202973653,2.658069897492445,4.356096717855229,4.177969310853965,4.154512716765882,6.051750704348423,-0.23232825455955464
75.0,3.9331012391966853,3.625520420139084,-0.30758081905758694,-3.759554247018144,2.1713251471735115,1.6998374852934324,-0.15555472355866562,5.436534508735608,5.256012163207464,8.133068435053348,5.558435861180396,4.451284960292363
76.0,-5.421869452600308,5.13163138152272,10.553500834123009,0.09239223635873284,-8.019265876986317,7.876792446671242,-1.8064735901938773,-1.4398370932123803,-2.0222185410095856,1.0266473328661565,0.26194147688552416,0.10175924733170483
77.0,-3.3872090444785212,1.91735175732435,5.304560801802836,0.7666816661342879,-4.382237876243097,3.5612901847283456,0.7170456192019964,-0.09198334665260788,-3.7288421192336294,-2.953074617209957,-3.9173576450039778,-1.5613158197497716
78.0,1.4979349872339605,0.24761623227797114,-1.2503187549560049,-0.9164695629802402,1.4123296724856171,-0.5538088553278291,-1.9619322367223315,0.8972503904102234,-1.6341823114382332,-4.392817199276469,-2.0236970023166947,-3.455569822078845
79.0,6.951644088176494,-0.813111384732628,-7.764755472909112,-3.034081461380288,7.394014634651887,-4.262138982265829,1.7723181669366808,-1.5907394967170498,1.4135496020382945,-2.7782171864484604,-3.643178558670381,0.21444915549171462
80.0,6.826610918979286,-1.1209631913981106,-7.947574110377353,-2.898785504349932,7.344028226879998,-4.5029630011524215,0.8781368575464361,0.5193104283521801,0.6780748125904131,2.406626788958792,3.745279595180485,4.318715606412718
81.0,2.1029999696426147,1.8868805675589893,-0.21611940208356373,-1.9653327366156925,1.1968949427607383,0.8751318249930788,0.3735842880407104,1.07982349728481,4.79892557603548,5.677349711793974,3.8240448816473016,2.961457096473316
82.0,-3.9941936352643896,1.2196081281751412,5.213801763439583,1.415056223101542,-4.643140198198258,3.188836471878359,-1.5231619413066584,-0.9602847801323919,0.06341065462122497,0.573834923031028,2.405547858218769,-0.13195575957125982
83.0,-7.935805615386889,-3.4501619766722422,4.48564363871466,5.643152326485559,-6.169504340932898,0.5014210676349647,-2.067060384308132,-4.152595131410706,-3.5194358614018,-2.5091622254658734,-3.2750457532641395,-3.49741770007773
84.0,-12.472396186507371,-5.8741076635132945,6.598288522994062,9.206869867525452,-9.572732466264693,0.3551266497361445,0.33353249921627715,-0.42364632746109243,-2.172451801970924,0.7893986976043785,0.5803385976273425,-0.5198435755762474
85.0,-3.8893453357522585,-2.766720374323369,1.1226249614288992,3.369072203310094,-2.544674852876548,-0.8239893925331755,2.48471806048076,2.527358553151495,-1.3761659961675492,-0.8114366183872265,0.08389939308244121,0.44081402565873073
86.0,4.66501851804394,-0.872378376226492,-5.537396894270387,-1.9258164944530458,5.139381719643932,-3.207247541676921,3.342063773153749,3.512245398977064,0.7343052892962701,-4.631530213314031,-4.267708796302995,-2.5358768226074035
87.0,11.574975289257154,8.69770081861429,-2.8772744706427984,-10.159154121198346,7.263040651137246,2.902065948491371,2.165924365801419,3.0426094343019123,2.8013722562043872,0.3862804360227736,-1.8830304370873086,0.8093597881098807
88.0,7.251418287425767,1.8598155092828987,-5.391602778142846,-4.575139352099375,6.279968642525766,-1.7053991462938742,-5.161388131002132,-5.377629558196034,1.7435026116233414,0.7453703482410377,1.8014563702123745,-0.02534101659363097
89.0,2.083288715615366,2.953706002209021,0.8704172865936299,-2.5388872350121017,0.6456234306514417,1.881069127345434,-3.807999536921124,-2.482719016623551,-1.8276192892028487,3.1744385101586703,3.5102048832173716,1.8672966500426351
90.0,4.905252351542856,1.430769215019378,-3.4744831365235527,-3.114324958089163,4.153233555095328,-1.066171660777544,-3.544001503228781,-0.38282421517066445,-1.7983726855607436,-0.8145266378625355,-0.6978603790808231,-2.735506002011159
91.0,2.13390342904604,0.6168942051722557,-1.5170092238738526,-1.3291235853988823,1.8701558012369777,-0.42738438417559194,1.230039332189567,3.9164449676651913,-0.0010573756790895894,0.8251931382758608,0.31846026137113437,2.235281018548301
92.0,-7.579843287660192,-5.928314971259184,1.6515283164009573,6.712763887854528,-4.648775761948571,-2.123991750154597,4.080010389715042,-3.473223471148127,-2.0103103515932785,-2.7474975353567705,-3.565443284312451,-0.7386130688620883
93.0,-17.316848365413325,-5.202388982628316,12.114459382784919,11.209349093755163,-14.750095969894378,3.4669727267365626,3.8042434893872885,4.137803248749297,5.024783673633886,3.207705359482603,2.1856261599196496,2.8403506937410112
94.0,-11.175842250216881,-0.023867087967658573,11.15197516224915,5.620581954577464,-11.123043287506391,5.576718237757687,5.050226772471855,2.97998779736403,2.4418690052537433,2.029689398708977,6.053129919940418,3.8956532070104113
95.0,3.519032757060163,0.8960817526912721,-2.6229510043689075,-2.192144251899749,3.0286025902416487,-0.9232153712081166,-1.2482168693355014,-0.8018040855650772,0.5920671242067177,0.8822852732429356,0.7786364492372824,-2.87656064972203
96.0,8.333625508914137,-0.07842293887287899,-8.41204844778696,-4.11419359358698,8.404958276822104,-4.216786000765235,-4.825513672928374,-4.600950278510926,-2.1513461716868134,-1.3788373057587708,-3.8924488011533596,-2.616192495502461
97.0,9.215851764392418,1.466260733811526,-7.749591030580779,-5.32619394299691,8.511851167429338,-3.1024122133714407,-5.3124961805934525,-3.580024410814298,-4.2775455142731,-4.4338791580278505,-5.1326299005796105,-4.694116722975134
98.0,12.855230814932813,2.1066713415317406,-10.748559473400965,-7.5406542046266205,11.829509117392657,-4.350242520032699,-1.3243863758451666,-1.4982756800367478,-4.959494410694358,-5.44875350376484,-3.43942518878129,0.5491546564381822
99.0,5.209365427252286,5.134081915194319,-0.07528351205789985,-5.147250401601766,2.590704368482566,2.5080722142240943,-0.46815354470165715,4.346364155279882,0.20166383946138722,-1.146836473263274,-1.0647092129570046,-0.2714487735473799
100.0,-11.853105771900966,-0.22803955397513542,11.625066217925873,6.069805377137538,-11.790769837405456,5.681933174229105,3.401601575031209,4.382040064515747,4.705418087282089,5.5562899071560485,6.00795722182822,3.3553274952004815
101.0,-10.565105296701457,-5.922489932457316,4.642615364244175,8.275282541207098,-7.576691550985088,-0.576480710640364,4.457107547837225,0.05918676181222482,5.250682810347772,7.324643875269556,2.901271627434087,2.1441332225005327
102.0,-5.029663725301645,-2.9220618805495753,2.1076018447520557,3.9272027530062052,-3.540956745709935,-0.4242540413170346,0.8938545997108682,-2.5654716506525217,0.0928272791201663,0.3354642738773572,0.4593679831721209,-1.5382141750396916
103.0,2.213609772731674,-1.0996029599407282,-3.313212732672421,-0.6105020375618739,2.7924269954506,-2.2272551146160615,-0.9600972107062048,-1.1990414697480989,-1.464022325988766,-2.609668836456164,1.8644223994287554,0.8517082816777144
104.0,10.054126359797063,9.16085115766245,-0.893275202134655,-9.58868128217821,5.426339513089414,4.1082244259921055,-0.3574836782044185,0.6995116574574862,0.9715628261819633,1.2104866072399703,2.3576645260166997,4.352834510920617
105.0,-1.0473044996245244,2.244846057888197,3.2921505575126724,-0.5849644221774177,-2.135144067232882,2.817306441921984,-1.0771321499319972,3.0039011570556315,-0.4760191516307619,-1.3236307142739483,0.16646405739177594,0.39914210133036093
106.0,-5.631550107310437,-4.323212270340611,1.308337836969766,4.990758916835653,-3.5105959381654754,-1.540484349631706,-1.6387279230646183,-1.191305672649579,-4.388697799352994,-4.076739041179644,-8.049764008288568,-5.4678197900186705
107.0,-6.470692518842188,-6.949459672444928,-0.47876715360277977,6.7294580479867925,-2.9545537163937334,-3.669928458574247,0.628996941521518,-2.1360000710210576,-2.0424428082501125,-3.1424295982199144,-6.713076310966212,-5.151599139015251
108.0,6.489098465677806,-1.0903188481462611,-7.579417313824076,-2.6678959870993038,6.999690929559183,-4.369804837029865,-1.6077050971974882,-2.4617008964160014,0.3618280145963606,-0.011715074708487982,0.9215180883552492,1.0208633587936524
109.0,4.3969495038382895,3.142407256496739,-1.2545422473414929,-3.8012578734242877,2.7932985750807005,0.9875072188026994,2.428555831351692,2.079680787754749,4.8752631433175,5.515159598959115,8.85025440385758,4.69628786898489
110.0,3.5868548523451045,5.745957049567883,2.159102197222862,-4.6826324448839705,0.7615556477633019,3.916129047330685,1.0094901687812305,0.06562921509215647,2.8369228218572218,3.411710445655121,2.9821866157296455,0.7849305099668764
111.0,1.3000220996628762,1.0499539802552555,-0.2500681194075569,-1.1800377783496228,0.8230196535952004,0.3606492559331951,-1.8591328714531061,-1.9875490801309281,-5.070636770921316,-1.5143152958104342,-1.893862393319603,-2.9135882788427523
112.0,-7.890329063579982,-8.284287353713939,-0.3939582901339378,8.086749249411925,-3.7804438550058186,-4.3041191467831865,-2.8909469812238076,1.814819789804683,-2.47189005600801,-4.068734401340155,-1.970062889924155,0.4146150129395562
113.0,-1.428634857421014,-2.880536749665325,-1.4519018922443272,2.1514169735123287,-0.02466580504492022,-2.136362929882522,0.3690065479907768,3.8598734654152205,-0.8762476497359158,-1.5846879155156675,-3.8973976798116716,-0.8979897089843227
114.0,8.298529064893422,9.822514000239387,1.5239849353459274,-9.07173089417244,3.4228417714031507,5.6197558638187965,1.8377795681258235,0.42721454604336473,5.092233231526646,0.9692113173178485,0.18345995813063998,1.7510096665184531
115.0,3.8667355929069642,6.762833324730527,2.89609773182353,-5.336429700306863,0.4331520125180436,4.851773119968807,1.8565585985310171,-1.7052887114847508,1.9861383488414728,2.406128893515104,2.32635550611661,2.6288018245866
116.0,-4.44244797969113,-3.3886327771963463,1.053815202494777,3.9630404940069317,-2.7307999835442267,-1.145861537588964,1.7106126166617739,-3.470163141718318,0.3056740154963098,1.617071317688477,2.639453175877724,-0.8985943755891113
117.0,-5.019730322015798,-5.211006266472046,-0.1912759444562327,5.156308365435932,-2.40392873551614,-2.678380894555843,-1.1422238037738304,-0.6568237156154662,-2.8152385677268086,-0.11175353418750478,0.10174640499392595,-0.14153535834458597
118.0,-9.266980175476283,-5.082750303623378,4.184229871852917,7.134007569354802,-6.717843955861724,-0.5028847363998543,-0.10339038028149439,1.0527735760640746,-0.9891830505739121,-0.3346732742958324,2.198041602668856,0.30012230729504696
119.0,-6.927991650172222,-4.350761755812822,2.577229894359407,5.676539331717613,-4.7416892422703585,-0.8591159364930796,0.23041631524576567,1.56754995608986,-0.16610431655077518,-0.23070167320197532,-2.3646845080332675,-1.3905318246676952
120.0,4.353865789339345,3.0796434094215828,-1.2742223799177783,-3.7587606517178256,2.8334386259937148,0.8536211710537807,0.31714490664657635,4.205842518801122,2.3007710938912744,-0.04633406550583197,-1.7280978122453874,-1.5551615264504712
121.0,12.811790200975562,8.080165726955098,-4.73162447402049,-10.489744801828342,8.724224735893234,1.7053421647851255,-3.915005314368914,-1.6017647701193733,-1.2896501236258193,-1.9332146718650658,0.4210291569269131,0.887147815312899
122.0,7.044186136478172,0.37246559819326563,-6.6717205382849185,-3.6768534634287633,6.901645954376922,-3.117323266535566,-1.4092752475535664,-3.56801820352642,-0.8816180358932959,-0.06265655240742574,-3.653619281076792,0.2602680172793474
123.0,-0.003743118798116285,-5.114718007816574,-5.110974889018482,2.58648689973692,2.5286341610303036,-5.1576212526380205,2.87587960678169,-3.0429526759418404,0.3313081500752473,-1.3613998289689904,0.46350415071011086,-1.53880203955361
124.0,2.954124640050339,2.918874164147314,-0.03525047590306876,-2.9909259007538194,1.475320268422452,1.4783837887135913,1.9296047196832293,1.9975693243824741,-1.8416254446273395,1.552414890279477,1.4009210218738974,-0.781277062516597
125.0,1.8936265004273256,5.163236296831256,3.269609796403887,-3.5037651683151356,-0.7070059131662849,4.177936418177431,-4.935997463030762,0.8116113115924449,-0.07741687318870011,-0.12649291811950802,0.11909240814408073,2.1434741337856584
126.0,-10.854837267016556,-4.457820163571681,6.397017103444852,7.6856389227463335,-8.57055434320209,1.01445977191444,1.291676748209904,-1.5884549968458463,1.016522026812135,-1.7667583680185193,1.521411840692313,-0.4105387768883939
127.0,-10.33359239388556,-3.534257271430251,6.799335122455317,6.971632022509702,-8.597437432678213,1.6036780610180312,2.1428777743598277,3.424309940589376,2.2338847668050335,3.9947029460532444,1.039031815664138,2.665410263628342
128.0,-5.903158341485689,-4.172506411083628,1.7306519304020567,5.006882509677626,-3.77814722676714,-1.2449633318647777,4.533782060986558,3.226652723113282,0.34999810095386685,0.5119298437778828,0.10126229655015373,-0.11597383998698751
129.0,9.143654841131246,4.616389447363451,-4.527265393767806,-6.901960259909925,6.786647109568687,0.103264836528971,-2.4468207846938625,-1.7775229836615698,0.6577761202018412,-0.48553113447575996,0.43261259846133904,-0.17220004392672789
130.0,12.482922738587158,9.108955507568817,-3.3739672310183777,-10.812279506816113,7.950897510146444,2.850128456195404,0.22277896255725804,-1.2664995132671468,-0.6539269596008235,-2.3506877899372176,-1.2467451948943342,-2.6647822780624897
131.0,4.287130427014407,-0.2644754609975384,-4.551605888011994,-2.026437446510439,4.436273067028029,-2.4241722911699783,-5.161484815081816,-3.2308458003324456,-1.1309636599521578,1.2867103673479134,0.4446784151366292,-0.10901445615023064
132.0,-14.23817488977939,-4.775287201773725,9.462887688005608,9.489125203263825,-11.837056843834489,2.3277878214932026,4.619367734786289,3.663777202817397,3.039193222888798,4.117450367813472,1.271840070024697,3.778352082356127
133.0,-13.313717419530363,-11.860953393858123,1.4527640256722067,12.643915257679415,-7.449838056852674,-5.220311369722534,0.13863135190974663,0.2856082284066923,-3.631508266042843,-2.1617180686385424,-0.8230302795859002,-1.4398740815727264
134.0,2.3957008783987677,-7.626905821969281,-10.022606700368083,2.6672478268051485,6.222110204659574,-8.761769480539705,-3.405290506127728,-3.021650409660317,-6.076775035216905,-6.312379050298139,-6.104488382322899,-4.5357288725702025
135.0,19.099266836391546,8.896368419658078,-10.20289841673353,-14.029245023725595,14.667032126971137,-0.6671794374287425,-3.0207748987708123,-2.315156137296,0.8501596911185918,-1.2776849305663602,-2.174397838705739,-0.18941162274364576
136.0,15.159077035949116,17.18894173628132,2.029864700332112,-16.208997099994683,6.585633511909537,9.598885474108426,0.06094606322204077,0.5470474522336989,6.148998765920999,0.5057975018552582,2.6935126432507013,-0.394123491180388
137.0,-9.683197821198167,4.032397111628059,13.71559493282615,2.787374405724055,-11.671735930770124,8.867937370803489,7.046978701366585,3.9617688718501434,3.643997773636831,5.565693105371517,7.409365042115164,5.443682181604636
138.0,-11.514057122206184,-6.994000957107603,4.520056165098566,9.292123316627201,-8.06093614793102,-1.2384232695387478,2.393865620891744,1.744101519009856,1.4876869221086824,3.3122477064009463,2.612096303560551,3.4708478777194416
139.0,-2.6702969632912232,-2.2291756092724713,0.44112135401879016,2.4858099769411712,-1.5929531077664576,-0.891763123586682,-3.442637191732759,-1.366749289411335,-3.9921518770835904,-1.3287623896036158,-1.533850469543348,-2.1168435726828023
140.0,-0.1284301606569569,-0.9192514338304694,-0.7908212731734244,0.4801087442624654,0.37779733098159385,-0.8508700451505664,-2.3673459699273116,0.03180198286933639,-3.6297249253320816,0.41162961319370683,-2.677804595839091,-0.811384328816931
141.0,-3.677752246677582,-7.894047436702146,-4.216295190024472,5.821087742825339,0.24007190773376696,-6.051543437396701,1.491420800433489,0.3947821238100706,-1.7462252354810506,-2.0662411819624844,-2.477615433775646,-1.3031369164485578
142.0,8.936140752072884,-0.5536805841508183,-9.489821336223642,-4.233362566929719,9.263016274215062,-5.021315696017842,-1.521049979964408,-1.2529282613643213,2.5359218295186583,-1.8708367878562877,-1.3474617061428835,-2.161146525599504
143.0,-3.159663412099067,-2.5848619629473575,0.5748014491516997,2.9113811380604475,-1.898070952400059,-1.010147616710808,-1.1685144370086173,-5.491223307474326,0.8272527479136749,-3.4488653551745143,-1.300580235062165,-3.6779825769455856
144.0,-2.8154789017250597,1.8943929471820162,4.709871848907017,0.42413969378273375,-3.71941786260938,3.2899230564017508,0.7217145696241936,3.4389671707627,-0.4735743554124392,-0.9319803384311454,-1.5031977294887866,-2.1840649244505657
145.0,4.141167115340462,6.2348467045665945,2.0936795892260394,-5.142122916726916,0.9816291854429549,4.144633915127306,1.8961918942353508,2.806117432068394,3.530774689775713,5.777265653907095,7.323024379876987,9.540096299525564
146.0,-0.10207763702213413,6.17456311581068,6.276640752832725,-3.065660961326006,-3.238746394693729,6.278251781105476,2.3236612907904957,0.3161695746259505,-1.1392830044277482,3.5143833970700427,1.349020004864128,4.935760078887533
147.0,-0.4269806595325012,-2.0987441031063225,-1.671763443573885,1.2365246625694097,0.6458597192370858,-1.9159545926263108,-0.8572518873366446,-1.0644899755674964,-2.468235775762857,-2.11089689369766,-3.242988135145518,-6.5405372608773575
148.0,4.892444931304851,-2.757180687293212,-7.649625618598091,-1.0125982762888024,6.292165679223526,-5.157826926919123,-2.136702129712657,0.1788199950313255,-1.8083018637121868,-2.5108970505139965,-0.4077043996759354,-1.6801100551738293
149.0,3.0557030723966294,1.4079353571865565,-1.6477677152100476,-2.2532906157698624,2.3754978835387184,-0.15385661865569267,-3.8185688519274272,1.2948972167420272,4.2506602087398715,0.029932670354565483,-1.3315434115626188,0.4296957981733278
150.0,-6.850326702529026,-4.5690064776584585,2.281320224870635,5.690231778747747,-4.534582516273544,-1.1776664832595887,2.905657854368284,-1.5393854318890223,-0.36795798755829234,-0.8381010054589859,-0.39427349503308107,-1.8527668905830121
151.0,-4.506518377282516,-1.3384024480100343,3.1681159292725547,2.9049685845043216,-3.8743052228681294,0.9599415005399077,4.087766688954569,-2.3111887573374523,-0.36225627193308935,-0.3894087816653687,2.954678589030015,2.5818555684710427
152.0,-0.1086212675762237,2.859173775851861,2.9677950434281506,-1.312288187921855,-1.5645170152139292,2.879418267400637,-2.8330600060036115,-1.3837382007347343,-2.4603486725060417,3.306577564949399,0.8968694587941692,1.5258843796086419
153.0,3.6015767270827035,-0.32083911483194605,-3.9224158419146065,-1.6551184543040947,3.7435754003711956,-2.078195579285187,-0.09005469661991664,2.9731578775188607,-1.586959204083529,-0.5708884130396483,-1.3257810354351816,-0.39911547566913264
154.0,-0.3935758283923281,2.270008964133266,2.663584792525606,-0.953538925358766,-1.4652340015292922,2.429342256659587,-0.4888848241238635,2.6954134871805895,3.4923527681616635,-1.4568815237044612,-0.6736883376625818,-1.444443785263878
155.0,0.5817510409005947,-2.621462134711721,-3.2032131756123445,1.0014259962343537,1.8745584196903113,-2.873881823479514,-0.1813906031900905,-1.8907976035948253,0.3344327319674243,-0.04146268552430721,-2.288381191257219,-1.3286536896430752
156.0,7.118044537842847,-1.4398909705283294,-8.557935508371232,-2.784981268593077,7.812875544045267,-5.042346441231593,-1.221235219394929,-2.603563869024261,-1.4982270858606508,-3.2697652521220695,-2.825276954856073,-2.678665121340548
157.0,0.8786886666617391,3.9437535628906977,3.065064896228903,-2.445016382844072,-1.1280117703888246,3.5369211647327403,-0.2705232332603727,2.3981867444235956,1.491150630595739,2.06912262694968,2.067394595897845,2.6256209121956546
158.0,-9.583912781422532,-0.9537114535830491,8.630201327839455,5.22415550474372,-9.072531960301639,3.790318568920687,3.1617512876803135,0.9159503774920088,1.7113829269909844,2.9874763335651506,3.7811641672331056,3.3096646431311116
159.0,-1.6055402787576774,-0.8702465341186647,0.7352937446390042,1.2614503002762951,-1.142393235381856,-0.03651874437600067,1.1823121829990535,1.5758236616056958,0.248228621843319,1.5430827721207243,4.1301690684325205,1.5892121386405544
160.0,-0.5836494292397051,0.383523331502368,0.9671727607420652,0.11575121559680479,-0.7495307134945365,0.708574515572521,0.37883512708800604,-1.0420055922745282,-2.14390051603346,0.8668659492380378,-0.7094647399586735,0.45178217911045326
161.0,-7.983018759089216,-1.940398461128049,6.04262029796115,4.974026733641763,-7.063615085134153,2.0096702725648514,0.6522900877980878,-0.9234681480948402,0.146105018570593,-0.06444850494614712,1.6653569128978778,-0.46733804800080003
162.0,4.3206100307963435,2.569114410614141,-1.7514956201822183,-3.4307873876495845,3.0687582236604714,0.45107966673787103,-1.1727938040526513,-1.133365558632084,-1.6600633254271808,-2.3062447350875903,-5.088029064900117,-1.8623013484746864
163.0,12.971916249763021,4.711213278070456,-8.260702971692576,-8.821374513152419,10.575474559109587,-1.8066156214687763,-5.060036173034003,-2.7171762137198736,-0.902537978331602,-4.881170058593328,-5.650692633917599,-5.3694743982579
164.0,8.289833229512466,-3.654279870672172,-11.944113100184651,-2.36760982371225,10.158540458138383,-7.827851912307755,-5.791587639749942,-1.7197934476574759,-2.9234151676737437,-6.429390771486866,-4.717007560693398,-5.143707260593197
165.0,-0.19865774571005002,-9.415915064588795,-9.217257318878758,4.766839705424394,4.473082789078212,-9.26511829557372,3.5291597728379047,2.203286668288954,0.7898161692279295,4.015538376791475,3.2072940127551606,2.4546879766447476
166.0,-7.532422186585998,-0.11416131225154924,7.418260874334415,3.8701566722284917,-7.513262220712189,3.6245867521013024,7.700036996622862,3.4098054462457053,2.6452520507226867,5.236941182538339,5.080449643122998,5.248072340817927
167.0,-10.890355129185302,10.147388222144148,21.03774335132938,0.3465274615039169,-15.926674733217741,15.564229673726151,1.0398399150918407,3.0156882331423867,7.114718561762112,6.890532522802529,4.934845627521666,6.779864500952793
168.0,-8.433347571025166,4.037259919687763,12.470607490712826,2.2567641068514632,-10.41862473078688,8.303829423402938,2.6936966763300125,0.6107621974978958,1.3525064231350048,2.7112935442744512,4.584516623894542,3.6022618814995266
169.0,-6.096477884970335,-5.884782730465096,0.2116951545051382,5.9732296577751995,-3.1245419396603173,-2.86479930406957,-1.1565223467873529,-1.7786893373160095,0.15184490907509934,-2.223403539372148,-0.2051737123982147,-0.22623454257381392
170.0,14.0401576977633,-2.554086255647901,-16.59424395341126,-5.760464727763001,15.264502698085867,-9.521829962872031,-4.85087508789644,-3.8114878382256165,-8.494254469537475,-6.564847036000492,-5.0665885566759155,-8.043248389391062
171.0,13.500744658203697,3.533078096365948,-9.967666561837738,-8.537281605235036,11.756797648423998,-3.2411808699196163,-3.833640507477084,0.7443844978998473,-2.0173983598387273,-4.998443223471555,-6.3479038127796485,-4.74107968093538
172.0,8.420522260390051,0.7384585635285472,-7.682063696861425,-4.526798233002385,7.991651211381581,-3.4933956037971994,-2.534960431045617,-2.783035083835317,-4.200431935951211,-3.6130099504783066,-6.2013565633255165,-5.951093369826532
173.0,1.6387384691391036,-2.0186774919970287,-3.657415961136003,0.15629604192493995,2.6642908660185998,-2.8584008101252976,1.7039405175779936,-0.3097461096615347,2.0835652724118106,2.9737416894621918,1.6952691256145185,3.929517852682441
174.0,-7.291019592070492,-0.5242328390286498,6.766786753042,3.86587244414673,-7.0137800054349855,3.100686395618488,3.682431470356707,4.331193972781109,3.3366158766904435,4.830593983224752,6.983025291151654,3.6979720696278906
175.0,-19.198205650709202,-4.206733647218141,14.991472003491207,11.732728619835775,-17.07774191191669,5.448718119081776,4.125357172612579,1.3946625797228966,6.793912459949353,7.138554430703261,7.7114946701066485,8.271587799220027
176.0,-6.575505769537202,1.1510133251597343,7.726519094696982,2.738710968006515,-7.128266022995478,4.491646308954319,0.4850116473736925,-1.7651481204583592,-0.5024871897123808,-2.8444233983908216,-2.707327644131203,-1.7233452471227988
177.0,0.9389899397651624,-0.5752766278828273,-1.5142665676480345,-0.15543898080378082,1.179494666668154,-1.0759739718319223,-3.734777598983274,-3.17794992881335,-3.8407652135128387,-5.862503819761189,-6.553446971387756,-3.9348375850887987
178.0,6.523199219611003,4.930119512046943,-1.5930797075641596,-5.775578866371171,4.100386016200076,1.6301090890073346,-0.8746465155215057,1.2221881514891315,-0.8636057989262556,-0.7782776500618187,-1.3906087483808665,-3.8036837434681843
179.0,13.352860247804688,4.154478911798103,-9.198381336006689,-8.718156233280796,11.249500616537711,-2.568693209239738,-0.9267848068903899,-0.08736149118836894,-0.6732858903783674,2.5765455913802704,1.0738991518783827,0.1443909940465411
180.0,6.7531498094471125,1.690126137247474,-5.063023672199697,-4.258462370294254,5.890152986360922,-1.6620982772067174,2.7733652988441198,3.896446573023383,3.752611799760595,3.04274019012715,7.526263295482847,6.658018302998149
181.0,-11.55869069123038,-6.937906457894785,4.62078423333561,9.217302122436699,-8.10308602221068,-1.138792244299855,2.9818504497289355,4.245375817838484,2.6965429886949184,3.4029115527889617,2.239890933320776,4.68553675494897
182.0,-4.565744513371496,-3.593896170099954,0.9718483432716266,4.132026776281186,-2.703044741652758,-1.2907932363632617,-1.4527030734371937,-0.17680040842500533,-3.935167311217804,-2.1753305574135653,-2.1512444547739493,-2.1447578113105132
183.0,1.0719439936879684,3.8419553554832233,2.7700113617953583,-2.4807513514716972,-0.865786363007683,3.3321816354693485,-2.2835377905929883,-5.62293297242184,-4.681193086185353,-4.753702098342546,-4.224410881922098,-7.8555540100444
184.0,4.554992992303557,-2.958112709128549,-7.513105701432057,-0.7425926459571259,6.010244232619125,-5.278214992508083,-4.109027500599961,-4.942094438480303,-0.6518632375394633,-2.7854396068386014,-6.106704933163435,-4.034624451389513
185.0,3.531129898553905,1.1222340532872148,-2.408895845266728,-2.350592088502394,2.937245434253473,-0.5963945666918653,-0.7114737980624682,-3.8025440609422283,0.6196586192643341,-2.816653762100853,-2.6368626987428474,-1.3009281207335632
186.0,0.12574057430531638,1.0978848386307871,0.9721442643253795,-0.6385008126007947,-0.386316907071812,1.0112163895457231,-0.9738786164603602,1.3303418712780968,1.584638192711618,0.11210382217068615,-0.6673556367506219,1.7864171688659605
187.0,-9.20187593451829,-1.0741896425558233,8.127686291962396,5.107399481004471,-8.635362921910545,3.505481597046024,4.311307122370398,5.1717158068359845,1.8530771793971175,3.4704273904359546,5.521594169660083,4.271009026524376
188.0,5.185517653859853,2.4962322341883696,-2.6892854196715055,-3.7967188714888658,3.8834857698490843,-0.12140165084816079,3.7694044180044224,2.7278726545369354,1.1006357326418301,5.571325253169148,5.465754887199974,3.695939316568763
189.0,-6.953848638854949,-2.356688908119967,4.5971597307350125,4.618085650313016,-5.752024980121558,1.087356804018485,4.315926724561969,3.7859512117371854,0.30414780679263176,3.721491061450257,5.874297358374732,2.261051439499092
190.0,-6.220748300633757,1.8027012138486018,8.023449514482413,2.2503873524831883,-7.09740219282733,4.9499973669845545,-1.9685572680128225,0.7772027072642853,1.1988539024850322,1.5202939912464872,2.615561833688712,2.6052347334601986
191.0,15.999423267426359,11.12374068219334,-4.875682585232956,-13.517933325127917,10.464651916319488,3.1546881119370536,-3.5540855689099398,2.5271840085303836,3.3395913125548193,-0.16179088414534137,-1.3476321232166386,0.4970316463895278
192.0,-2.3358512396245947,-7.604740426778168,-5.268889187153544,4.939055836560251,1.4169494932504376,-6.40757624050669,-3.117878841126691,-7.2593501121474855,-1.7322161362729336,-8.89183612784165,-11.044435037552265,-7.506289322167169
193.0,0.5788604349609059,-12.997437577372377,-13.576298012333275,6.182023337555815,7.02890322994323,-13.254480708055619,-3.9577650142932246,-9.542615259095445,-11.084183257367268,-10.76201437743621,-12.01883695811334,-10.848929029961983
194.0,3.703385604595042,-1.236752908163444,-4.9401385127585,-1.257749551179184,4.351814667204572,-3.129521354779164,-0.2890296182121346,-0.28548627667884574,-2.8488631880727655,0.6453538556426865,-1.131767297278473,-2.4307261709165777
195.0,-3.206151587124931,7.4895130169967565,10.695664604121639,-2.1649211623874676,-6.920484337257205,9.055717548724118,5.544091867170062,5.815182468141549,6.940230175428075,9.566039681686856,12.91489454833333,12.401311706573441
196.0,-6.501889576013447,11.399979395046206,17.901868971059585,-2.393728971549947,-12.247819878391393,14.614885507121178,3.7125566929326004,7.177940936331613,8.18645366729865,11.384184578486384,11.345319846937553,9.998632146111696
197.0,-0.12019068063100713,-2.1787369854734333,-2.0585463048424746,1.2037276469482165,1.007357676465614,-2.0786567407367444,1.6337916280738147,0.8066398111366606,0.6712462399204266,-0.9965523358284596,0.10503054063371131,-1.0931336698530911
198.0,3.169966801880982,-7.297771582753166,-10.467738384634176,2.0378488601767026,6.8649855109159885,-8.925848287032537,-3.516397883829981,-4.785971417561592,-4.784143355326377,-8.766059006952181,-8.123732668934034,-9.70224554417091
199.0,-4.496368597738662,-2.537974408463884,1.9583941892747738,3.48917721195681,-3.2513366420179945,-0.25700519595757765,-3.2142965656476026,1.0956360742316622,-3.479045500131126,-5.442851557879776,-5.874275280453764,-4.840445790597508
