Time(ms),I,II,III,aVR,aVL,aVF,V1,V2,V3,V4,V5,V6
-200.0,-6.574986688541287,-5.243150454589146,1.3318362339521934,5.944251196305838,-3.9314027416584043,-1.9325695000481447,-0.5045414143532135,1.0963656450033819,-7.047107201997655,-4.8059503796299055,-8.676205174128851,2.7966252698216745
-199.0,-3.555118905901017,6.1266827852461105,9.681801691147117,-1.3302429554690183,-6.597749527716198,7.857170853466374,4.094811341869496,4.693088232288717,1.150067139555853,0.853700849760464,-2.0490740545000947,5.916166925473331
-198.0,5.56793120283802,-6.83506415723561,-12.402995360073675,0.6671580873912859,9.010168409078796,-9.57651401482713,3.343959184455761,1.0402909476146243,1.0006687801428926,-4.3609355462326835,0.255415305740587,-0.6303930820314592
-197.0,0.7574097459982767,-6.934893690118168,-7.692303436116486,3.1212824516184505,4.179083659919655,-7.340014669439006,3.44985192932512,-0.6406410120077582,5.195258460122199,-1.178319608954822,4.1602587742780095,-3.953145767154139
-196.0,-3.119001150841922,10.14526493839055,13.26426608923245,-3.5612829120213956,-8.148338078661954,11.684262592303362,1.0867071819800687,-0.24349030305567942,3.3280581738901147,3.4601624562618127,5.725684381035611,5.156405434461006
-195.0,-1.2997456596621932,2.5337569256678236,3.833502585330026,-0.5894474324703827,-2.5924637723154413,3.1635444033241615,-2.588366757284871,-2.39543911607015,3.392041456400052,0.18425772519395123,1.8796893308193177,-0.8971267994069514
-194.0,-0.22117253294757025,-6.341354043126694,-6.120181510179078,3.2263548283960337,2.930162249073154,-6.177078934257919,-0.987957367362764,-1.30024070068079,-4.5364426151450115,-0.14762031167526507,-7.112779445245842,-2.418244124284287
-193.0,1.5586378306921398,-4.535297733052791,-6.093935563744892,1.5088948671313498,3.8089348938360463,-5.348443185534266,-1.8544244325275905,-1.5078368698418767,-7.950333446727408,-0.17215342865357147,-0.42719816187382254,-2.182146315253471
-192.0,7.132376799579846,4.513472928590059,-2.6189038709897607,-5.8037153765673635,4.934439721458442,0.9821483080158435,-4.674468010295039,-1.118448102278749,-1.7946560300308843,1.938743903471193,1.8542643876713059,0.8790764412144598
-191.0,4.1045134325702035,4.986800773094121,0.8822873405239315,-4.524650151325354,1.585036649939086,2.88192068725837,0.06188808767630172,1.4466943437893012,-0.020654511282510724,-3.555875665638742,-2.713447787748632,2.541183097685961
-190.0,-4.670805722210518,-3.4170528390215895,1.253752883188923,3.9915091648393917,-2.9962655301203482,-1.0609413907229501,0.42599192374722605,2.800224009678889,3.8951079408965636,2.8740677188632686,0.18096281867498798,3.366513265198733
-189.0,-3.4523830263983832,0.26711049242156704,3.7194935188199425,1.6270081300061023,-3.5490162696564354,2.012693748422925,3.8364289260648112,0.9395317931063596,2.9238163493910205,-0.6391803102933807,1.926753736912108,-1.0366151692608945
-188.0,-5.003712460921661,6.7947981958973696,11.798510656819026,-0.8522846345654833,-8.370531293025627,9.318111149785102,3.2968356910855743,1.3103328073641238,6.867515864201622,-2.514346280624067,1.5246967626983605,-4.041325216359363
-187.0,-4.840202442469186,-1.420224262152733,3.4199781803164835,3.1020606662352677,-4.1824428104014935,1.0247854012179545,2.898730173243771,-2.1096882769501133,-2.6017174027735313,-1.970768678301092,-0.423244402315035,-1.9325650898974707
-186.0,3.6657661356626083,-4.898038011510511,-8.563804147173085,0.5917384771874596,6.138980476647123,-6.782387167442963,-5.858792446224459,-4.7170240776185635,-4.775600902050935,3.0761941346064416,-0.14504458206314383,2.2212659393041916
-185.0,1.9683038097142456,-7.208244612899014,-9.17654842261326,2.5949318300508573,5.595612922220306,-8.244373478770541,-1.0018828139230083,3.59292677316156,-2.4163769770460446,5.736325585210005,0.6555761360762236,2.0432014382352683
-184.0,2.1838580003227595,-0.3606745622120813,-2.544532562534883,-0.9408613962379166,2.307825819246058,-1.4295112685041618,2.0279736746612187,3.3718842136623315,0.7997868562143475,-1.2233122926776896,-0.6121506604401163,-2.59362848942295
-183.0,1.9390791081724301,6.175569945592659,4.236490837420169,-4.013636431477573,-1.1277075046761067,5.223647874126319,0.3096267477200287,-0.3076964658796566,0.868001728585259,-3.0086869873077298,-6.644469468157358,-1.083767507296316
-182.0,0.27530665880605576,2.767853303516597,2.4925466447105027,-1.483040258028423,-1.0898491073676233,2.6429217687813082,-1.150586076862596,-5.852911870264624,-3.5653038396975965,-7.9731545314245285,-2.823794004233277,1.3556625899971244
-181.0,5.086052725586424,-3.62272215526582,-8.708774880852246,-0.6963575908300776,6.913465001124907,-6.155019478484632,-3.2074891719364644,-1.28001847724467,-2.5149113253820667,1.0549441502257744,6.272616442788468,3.6073879757669154
-180.0,-0.6405638273243004,2.4683308694443324,3.1088946967686386,-0.9588156052493242,-1.9397187730468346,2.8016380528946856,0.017650834158725814,0.943900942292398,2.7674100283924927,5.763965209175334,9.012969339302266,-0.20449561416841333
-179.0,-2.920527352667081,3.638615428016235,6.55914278068335,-0.40500925442207447,-4.726667681352863,5.039784671432304,0.7330848041832473,4.767284495436767,9.498172954756004,4.237387642317759,3.3356197959495195,-0.05551628998440947
-178.0,0.6464029115150685,1.3112073238725679,0.6648044123575869,-0.9481118345506874,0.006262045144183936,1.0174183126843308,2.842842678293855,1.475047217875523,2.9960225561732714,0.97066387153115,-5.994282606459814,-3.6323565586328095
-177.0,-6.276807645092542,-3.32151615188255,2.9552914932100767,4.82583163875667,-4.594859203675394,-0.14286887428098555,-0.26767828405251826,2.392449800557236,0.8244889855873617,1.5694407910769743,-1.925451879449675,2.0723186437520025
-176.0,-6.999956834793522,-3.8643044394937895,3.1356523952998008,5.374328401626327,-5.038007821848522,-0.39325056462739694,2.022855067715358,-2.6692152116209718,-8.407437101516473,-0.453846166842726,-2.193377197158757,4.110293611406226
-175.0,-1.397626372718021,-4.86779940197124,-3.4701730292532074,3.147543890464527,0.9971440725713143,-4.191525158373066,2.5670038092997056,-3.4244340926863517,-7.084622741004592,-6.89372416648442,-8.03875266660798,-6.572512098551295
-174.0,8.815361293420008,2.254842680756177,-6.560518612663867,-5.524878896733248,7.6576023680237855,-2.17319186670512,-3.8124871114738053,-4.612751249155313,-3.780513843881142,-12.300982912156359,-8.425443180901008,-7.727899820382366
-173.0,6.917331882849065,7.273725895407121,0.35639401255799275,-7.0866397341808,3.3346219266766335,3.87164657123104,-5.09032614592873,-2.5110395077051684,0.8005314847278164,1.687925524457654,11.540259363069616,3.0641768342717546
-172.0,3.603782502867152,3.9021721959276716,0.2983896930604504,-3.741251520203309,1.6297511073302342,2.07357562862171,-1.0589161620208483,4.891552868614321,7.953908378477522,6.259849258189927,8.451428019511706,5.835961027552966
-171.0,-4.542172555433055,-7.319797680420097,-2.777625124987091,5.9493414312403345,-0.9073106920209353,-5.080858152087565,5.721480047307181,6.849370598974627,4.57215064778163,6.129596309693687,4.9150431215511174,6.516338105458862
-170.0,-4.069209593527388,-2.7473417320971794,1.321867861430207,3.356756911150102,-2.7247651384023466,-0.6706801665982948,2.5390937050352136,2.5366165190130356,4.734601664919235,12.851243672894391,4.432849644320504,5.450941802752201
-169.0,-2.807089835086562,-6.3028384416265615,-3.4957486065399705,4.591135702902561,0.38991984935171464,-4.859656579402612,0.8671819447678042,-1.8277607694492228,-3.6533170757175624,-0.07045302224233474,-7.408638426626578,-6.49025588746638
-168.0,-1.3300289201760616,2.186512537788147,3.516541457964271,-0.4638892755920767,-2.3792442116940786,2.8125381235572444,-2.669689757226499,-1.0435443240733522,-3.3166589499066816,-8.335316435149755,-6.35131844073722,-6.422255098295862
-167.0,5.002221819673295,14.181805521493661,9.17958370182043,-9.545307332003507,-2.1215395516096107,11.644089810935546,-4.033777970269384,-2.965207398676977,0.21355660546913668,-8.703367757639832,-5.867024830099656,-4.983390502057089
-166.0,4.42955649331732,2.0431571302687797,-2.386399363048468,-3.268287007071529,3.3798594390270766,-0.12546061366578076,-1.4985853003614693,-4.928217145397786,-2.971063541566597,-4.322152968155347,2.256562556260257,2.3896308397340533
-165.0,-0.7039531908208403,-1.2718676478310653,-0.5679144570101691,0.9536530958883196,-0.011584053612328615,-0.9474766257777759,2.278929512446999,-3.0358252690920384,-3.7674137847268496,-0.45854666310614745,0.3010586131327966,0.6841151062616965
-164.0,-4.377734825207878,-5.474688123503062,-1.0969532982951913,4.967866193267592,-1.658284421985341,-3.3079597862646732,-0.7942332707618123,2.7945036711167703,-0.2856574162735124,3.4092088386302257,-0.8853159613646007,0.8281979466977543
-163.0,-4.481993463269018,-6.366082839305011,-1.8840893760360458,5.3856976398452705,-1.3159631591096341,-4.063135966291945,4.102513437936335,5.513286545035616,3.47072060563422,2.791778569848691,2.0227082096212046,2.4133319672099285
-162.0,-0.5302342535231501,0.33216142803020343,0.8623956815533034,0.1411825258644348,-0.7170217536910095,0.5850080368307156,2.269522908261389,3.764664146455017,3.835135813238674,5.904793631073138,7.115171579469933,4.302612611103472
-161.0,3.020600822684027,-1.1493363243323012,-4.1699371470163635,-0.8887874655315067,3.566779667694994,-2.669046492265043,-0.024828496993231086,-0.8471752909016628,-0.9008870494366494,0.21246144587270077,0.4773517664733897,1.0085024586207767
-160.0,4.227260638254548,-1.923243112336373,-6.150503750590931,-1.1777851546904483,5.229078350390697,-4.045882236482726,-3.233682225309412,-2.4417248166343875,-0.6270916429741527,-3.2435097260849486,-0.0064811210355751325,-3.138375171783449
-159.0,4.629714876620507,7.089813894411572,2.4600990177910425,-5.880379155720113,1.1150107392704958,4.763495355857689,-1.5097978382157864,-3.7588787503552883,0.6413077486473902,0.48341626731141973,-0.9729958249895714,-2.5185924650434446
-158.0,-0.13341052358364403,5.2586508645830765,5.392061388166685,-2.5811686395217954,-2.740447970072231,5.308795359337687,-2.7398038237638027,0.3069198778358935,0.6732015086832888,-2.266107073921674,-2.9583005125735706,0.6926146688540968
-157.0,-7.594474035235718,-0.21148714076989128,7.382986894465807,3.882573003502834,-7.54990919796402,3.6409237068740317,1.6262419090954463,1.0623925231538802,1.0122107098157413,1.4669884638829247,-3.892883551833398,0.03620072836949606
-156.0,-9.25649252883236,-5.913450591133222,3.343041937699132,7.559592168394833,-6.283480330876092,-1.3167350501891861,4.1576424212679255,3.6425653559119042,-0.5721339956423996,2.0183373496738475,-2.956984039007348,-4.386150225262087
-155.0,-2.8100026386210644,-3.736131169744472,-0.9261285311234193,3.320269214387552,-0.9237955197969914,-2.29185368399916,-0.2993824609020921,-1.292694083397542,-3.272710471602499,-0.40139579174823065,2.5358855875790933,0.11061313597836298
-154.0,11.583431919556176,3.305344098035208,-8.278087821520991,-7.402633753298577,9.874693080833412,-2.5329381540669766,-0.7745231894991808,-1.1260630185471412,-2.911822588849749,-4.658349998305656,5.487364741030752,3.6203814807587924
-153.0,9.57186331103157,6.523531061225103,-3.048332249806471,-8.009735304956077,6.33954659940951,1.7643560620561756,-1.0303360256798062,-0.44032834687112,2.969288292478341,1.5106110170821048,5.9655358204989515,6.933716721884454
-152.0,1.9217168332321175,-0.6260567725582777,-2.547773605790322,-0.6910318162226265,2.272608562761738,-1.6418043837827048,-0.7847094521780111,0.13984935401806736,2.529305821600887,0.1126299392078679,-1.9083678863798008,-3.5988639915909344
-151.0,-5.174213574860501,-6.539568093277416,-1.3653545184167974,5.811798021543315,-1.9361454225300174,-3.928181862433372,-0.40198807058846475,-2.9600860048477613,-2.7091364069403023,-4.407895126587052,-11.043320999300665,-6.655910157221616
-150.0,-0.8553487060625349,-4.536846834001674,-3.681498127939038,2.649169101782037,1.3899684171468683,-4.080833546471014,1.3248118293200877,1.1944665284522775,1.7310323167385469,1.2782468648852234,-1.9693937295064066,2.0818981949882764
-149.0,-6.486917801844489,-0.4050585726530933,6.081859229191345,3.476465208891259,-6.222318717670181,2.873905855735999,1.964612357266847,3.964274701954116,-0.7614663519916711,5.776275488088586,4.226542765765794,1.277358282480174
-148.0,-0.5711527867243653,3.428672838515617,3.99982562523983,-1.3981541366779662,-2.2994974495911555,3.679784280111942,-0.4841105003058166,2.2584360382910122,2.819478277381373,4.418873679789101,4.375790023532971,0.6198541658099747
-147.0,-3.9894275596814666,6.335187128551304,10.324614688232574,-1.140099552702877,-7.173102634433583,8.30374394178195,-4.006251962255287,-4.522312409111792,-2.9369698933603363,-2.904020207199393,0.4463538669189968,-0.4769997061704574
-146.0,0.373141922696956,7.165270788746065,6.792128866048939,-3.732842553233065,-3.232268538958376,6.958368877452333,-0.5713949126159057,-3.9752928245052033,-3.80531303431534,-3.243035297200035,0.1643031331949698,1.8989234324855733
-145.0,2.10359597913562,-1.8734296088377635,-3.9770255879734773,-0.154315501162559,3.0077156601049384,-2.864814326227445,3.789537368923244,1.3859782338925473,3.6924131689900275,-0.8946522227812221,0.8639757384114785,3.3991010271254134
-144.0,8.0318257366839,-9.204323874669383,-17.23614961135327,0.5475845359090594,12.669751689297941,-13.2408313402199,-0.4045795501556855,2.0999923963231364,2.7701497283007224,-3.5821661647434198,-1.8406452824936417,-3.9889510686567986
-143.0,10.801345620073544,-4.402730680142903,-15.204076300216359,-3.2412501124301447,13.030269209251372,-9.830019851639484,-3.0338341063262564,-0.37113785138613453,-3.198308912028089,2.659553092898016,-2.9637079490166327,-4.816168560691151
-142.0,-7.59888809774705,1.5416212690228481,9.140509366769946,3.05871644228962,-8.346244578800235,5.384638922218792,3.973834034585942,4.564856092711969,1.5898322515075538,1.5128719137075277,-1.4649324262650532,-0.8113960887463625
-141.0,-10.533366940095114,-3.1115178890569295,7.421849051038176,6.844267657109291,-9.03252658229932,2.110607764713419,0.9553934070397776,-0.053383063374311424,-0.2621313804534463,-0.11334614094522544,-1.0101172871096964,-2.6208514937459975
-140.0,-5.4331874408675445,-3.6318660284490614,1.801321412418429,4.547082947638824,-3.5897668381255015,-0.8893866659075034,2.1531487772641116,0.5966435154761869,1.8683081054043909,0.9500721284448975,-0.0754484295360287,0.8935162593685466
-139.0,7.067494795084536,15.965531164669937,8.898036369585363,-11.506185338835166,-0.8830690930170237,12.45215684803919,-3.6892089354965227,-2.1119724677544163,2.05373932395876,4.626913770333058,9.741573460019612,14.910887762172718
-138.0,4.4631447857021005,3.121683689256834,-1.341461096445265,-3.7823836556129247,2.859190970751631,0.8302050612624434,-1.1730391573887875,-2.848616362359448,-2.7759791311050037,-1.1235638835442634,2.942892909903663,3.4559618690222855
-137.0,-4.538921652290476,-4.240376243439048,0.2985454088514621,4.324211309367586,-2.4612298943348137,-1.9492627669029958,-1.6205305229316231,-4.665242421018305,-3.3563755429208237,-4.229343570826162,-2.5568078767991924,-4.776510805256916
-136.0,2.2799181714680254,-3.706570245432137,-5.986488416900135,0.7322632063782448,4.167069636246465,-4.818416930270445,-0.12143437540657487,-2.249273514358061,-4.112438526535261,-3.445625905905433,-2.0151996966279713,-2.044115273643482
-135.0,-1.2967265383278375,-2.3429393042631514,-1.046212765935306,1.8451040727377774,-0.09561309271245833,-1.6580791504614645,2.5939366702303985,6.629770631822608,1.888033932169083,1.6916825700383413,-5.42444614675887,-8.155385408341399
-134.0,4.118897266294022,4.693713064486259,0.5748157981922142,-4.375607036596701,1.718826521253599,2.5999331975604565,-2.593492902121283,4.359017294680526,4.14262976871656,0.7915582461332256,-4.822682998626123,-5.489006602853463
-133.0,-0.4912605950613803,-4.802601528496981,-4.311340933435612,2.6021546954123718,1.933460604838463,-4.586124798247697,-0.2466481350176758,0.015854468322268556,1.274678331761259,-3.7370538668753834,-5.295712988069703,-2.487053917924397
-132.0,-2.276844996573821,-1.0162312457447853,1.2606137508290671,1.6023240762825315,-1.744426418600942,0.09415454668291723,3.332158371760883,-0.24890882974327266,0.02406080278415912,3.0871469828122238,4.067378358952283,1.7239247978867684
-131.0,1.5385453350547982,3.112713350823736,1.5741680157690001,-2.2929895072330484,0.010048929220874303,2.3913440821126972,1.7125954718383154,-3.013599299679931,1.7046511220164722,3.821271857680074,6.546541331589043,6.110998846456024
-130.0,0.9816238214065298,-5.363026532118823,-6.34465035352528,2.2198642062618816,3.616928613044525,-5.89000114150061,-0.857835872690129,0.04581627855727666,-1.947013129692101,1.7554497386995165,8.599346149797736,4.112249082913354
-129.0,-3.9830662721777497,-2.4281387651126956,1.554927507065094,3.2307761811411995,-2.7327517851772822,-0.3998289556168352,0.802205973116701,0.14249180914287818,-1.0232311499646718,-3.959491092072718,2.6050158558937286,10.838219734916681
-128.0,-1.120880643113793,0.6567131994239357,1.7775938425377453,0.1749003643142476,-1.4906813119607198,1.2493979159706181,0.4591601956143403,1.5679921015378095,-1.8669007467471068,-1.6455510914151097,-7.267660339346939,-1.5604501516156524
-127.0,0.4222763107322719,19.801182710045794,19.378906399313536,-10.092752259382657,-9.521739797321047,19.54125855560707,-5.865350898724753,-6.439969429972381,-0.5458806541555643,1.6338095970918185,-0.9379809950421132,-1.8241352958758728
-126.0,-0.618871964955146,1.274452441606286,1.893324406561459,-0.30988117294269824,-1.2246850919872228,1.6138995175196174,-1.998604948745058,0.07039301344172455,-0.1474126930079196,2.8983579351017523,-0.926401929812207,-8.097256636638818
-125.0,0.6904130072659932,-12.963448253987707,-13.653861261253697,6.076606610918503,7.199837877667338,-13.35556741271631,4.147903678980594,5.837153019713728,3.865819906645488,3.4437930049520062,-0.8741493219046266,-3.0688066046435534
-124.0,1.0225636852572206,-7.005596797739321,-8.028160482996578,3.013639942334365,4.551742692370526,-7.48222817840821,0.9846529219444329,2.6019560968681175,2.0700604080766354,-4.950518026434153,-0.9241201430350396,-7.35103744554776
-123.0,4.763367278179869,4.506984390000046,-0.25638288817986243,-4.607477349057765,2.4599036568182537,2.0842112891976194,-1.8435874706169582,-3.0774213266576584,-2.591304833343486,-5.934451196425084,-4.041613756807494,2.31621159598149
-122.0,8.273856179796782,0.6084492709842446,-7.6654069088125665,-4.4063939222064965,8.004498916176908,-3.4883497142366124,0.8906544620452052,0.8878459741259181,0.07404594547850607,-0.4767718277536144,0.23354732819160795,4.119423558637756
-121.0,-4.536223565927369,-6.071602897808665,-1.5353793318813178,5.266864568899988,-1.5358541333531488,-3.7621448300443676,4.077865459813337,1.1731442478622789,1.4806107224529306,3.8863039282771474,0.5138478001832152,1.8407480710320572
-120.0,-14.727918088754395,-0.7944528433063727,13.933465245448012,7.728936231409013,-14.278733565514772,6.531492691555049,0.13053751372578726,-1.4601736906103282,-3.7267200884005423,3.195224922136277,7.552730120253514,4.565083730291347
-119.0,-3.5671713317824008,4.954045582829441,8.52121691461185,-0.6460494750189287,-6.064477020800873,6.697049847298798,-1.2602723987451012,-4.494851652432596,-1.5428143273294417,-2.3291147632206006,-0.5447644962393454,4.426999921578962
-118.0,3.096538940157428,9.49347718241847,6.396938242261081,-6.330243839922186,-1.6678033286666842,7.979494186897934,-2.1289457455869973,-2.0351586130525465,-1.6234015285867094,-2.1916402851719754,-2.160446850098703,-0.8656862150071594
-117.0,5.3524433160569975,4.755884778935862,-0.5965585371210671,-5.018812105550337,2.9552930420772947,2.031441959087579,-4.906038010168927,-0.6081733688285695,0.7061880428469404,2.935728730787559,1.1112501044879668,-3.233289400970323
-116.0,6.82087471772838,-11.396775282463132,-18.217650000191444,2.2339168206672273,12.495155724580947,-14.778557886980831,-1.1366175397666303,4.792123854770631,1.8900758028327491,-0.015112897330547992,-2.9184154790010925,-7.454069963487477
-115.0,-2.0836513549066105,-8.356631471680423,-6.272980116773766,5.234534794066722,2.143156434038742,-7.2848790070390805,6.96027173383378,7.856700058283552,6.4796989496849955,2.491691351197205,4.807950766294998,2.6623487130042767
-114.0,1.1654273150359882,1.749110589001151,0.5836832739651827,-1.4498846222368211,0.33422572205096124,1.2007728697048483,5.660628272179616,2.0452747357344285,3.3919901126969827,1.6325940870167444,0.08290306882671311,1.0044501353687352
-113.0,-0.8957610883747844,5.572474629072589,6.468235717447362,-2.3324323340958166,-3.719880416497582,5.982199403500911,-1.4879282920060013,-4.725126181794955,-3.192746158060114,-4.070603014806086,-6.4578056835665025,-1.2416021521765752
-112.0,1.4647294963831867,-0.08119331097910587,-1.5459228073622944,-0.6811808168698823,1.4681482482772616,-0.8460809851457229,-5.7961934678801885,-7.235963818362141,-5.3181255130033325,-3.730500054855558,-3.87980388169699,-5.594802391108719
-111.0,3.8287194649420773,10.055280528062838,6.226561063120773,-6.922130373539643,-1.15403696887981,8.189857290365287,-4.747839125202593,-3.0836023088839477,-4.7282744157160455,0.8311237204171944,1.908413355814559,6.155321531080576
-110.0,-3.9059147158003547,2.746283863991734,6.652198579792097,0.6103528651544803,-5.308432551404887,4.667868220447123,-3.27402205794602,-0.767175092204951,-2.9362236294359554,-0.2856368733214032,7.151088216371891,7.338728928765801
-109.0,-10.866402146270161,-8.276280190989187,2.5901219552809396,9.531334532456977,-6.675092975666826,-2.8800453828701063,3.9318281866136786,3.714980355024615,6.676084278664426,2.4944856830541284,3.998754851176593,-0.6516247671838116
-108.0,-7.578695346706725,-14.443648488856722,-6.86495314215006,10.973981192052184,-0.3811678571937229,-10.620331618183327,7.650357092576406,3.6709485371324426,2.2050423687610876,4.153711226161728,-3.337145145509913,-4.439772247274242
-107.0,2.692241786508299,-2.2078271826021902,-4.900068969110579,-0.2826972727579351,3.7694477284893315,-3.527218078719198,5.063744448571681,4.484840328484358,2.358512265397272,-0.7770618033978716,-4.235612012246234,-1.2305284135032757
-106.0,8.834923640901426,3.6255412712277946,-5.209382369673717,-6.199541257110128,6.989248438633131,-0.8478067626855696,-0.2847731136207563,2.5416414247725,2.5538743399152875,-1.1899782120761655,0.30947588776209267,-0.9796567021814926
-105.0,9.0640106583259,12.693564645317313,3.629553986991355,-10.856312716380774,2.7541809629589293,8.185685518608576,-1.9551268854933472,-2.288271768322526,-3.3436382413996766,-2.7268445120803313,-1.9039060520486748,-0.6903267125898314
-104.0,5.4850016688793986,8.336467630118463,2.851465961239029,-6.893301668973361,1.3440170042086395,5.62443148493176,-7.625095518587772,-5.508740162598555,-1.8012432435170602,-3.1472884661720975,1.6587146096190255,5.320902435357284
-103.0,-4.999507451151349,-8.340470553692702,-3.340963102541328,6.688000721417854,-0.8105053474870437,-5.8008962032502485,-6.949509743919679,-6.407609180166098,-3.2434801820023322,0.11513775435057494,0.1891970699627068,-2.5571207244274285
-102.0,-6.356741740082377,-6.497066351053563,-0.14032461097110227,6.451340420699967,-3.173829185395382,-3.3487414461412603,2.9557485886403128,2.9961589873508,1.3799452245701984,-0.2088014094001091,0.7054775113182112,-1.9934146057424176
-101.0,-2.6084724717663708,-2.383898081355899,0.22457439041055305,2.45232779162982,-1.4052487166309584,-1.104927265409628,3.1468506533743197,1.1309014621236,-3.8045652101788683,3.359887252463469,-1.0386998142275512,-3.611163224803494
-100.0,0.2605542161356995,7.88817483851453,7.627620622378853,-4.106614051212624,-3.670160949144149,7.731077022778319,2.231199540332344,2.744308783951187,3.3040383513672773,9.602962166226094,4.8767545085406,1.1438931208923226
-99.0,2.2695184662358323,1.2563490565764528,-1.0131694096594321,-1.7851995909731715,1.6601536809187887,0.08709529561807727,3.4424330910303724,0.2661069051859011,1.3276288945354167,-1.3628902848223974,-1.5929033785692202,0.40289670365102026
-98.0,0.2811124181013964,3.6261837009732965,3.3450712828718006,-1.8907053460583214,-1.5056897107475846,3.518755126589611,-1.3132670081115292,0.9377039350826513,3.4886366110751084,-5.786647055270597,-0.49712496864010247,4.466172796626549
-97.0,-2.6957691871298795,-9.496103713409022,-6.800334526279256,6.082189339319218,2.0076909762877126,-8.12566395192039,0.8286962971610934,0.8589525957719407,0.7725714991919077,-3.827209345377929,-3.3210439183888014,5.7653714279378345
-96.0,5.082746658859601,-0.08089505235710437,-5.163641711216764,-2.5171132373292973,5.085371334025865,-2.6060505703934673,-2.3111111634465753,0.24358233024878512,-2.8203405672222046,-8.048712003549364,-2.1916010644101167,-3.3922271253619205
-95.0,3.764718045543996,-2.4903469394168365,-6.255064984960802,-0.5811873001642998,5.055612147964595,-4.3566875863383245,0.18775100973353265,-1.3947449433330121,0.515434590801167,1.658153994488893,2.919269169102807,-2.5114621764935388
-94.0,-12.98293921570818,-2.770220203297441,10.212719012410805,7.843900319160444,-11.628207655290037,3.742753649499484,0.7837333001428783,-1.3401183181111362,-0.7658053578487751,8.79630611018252,2.931826741138071,0.6515080817068633
-93.0,-5.870442984289288,-0.019682783193178233,5.850760201096159,2.9003270989280607,-5.811460910284578,2.8671271992542877,0.2879962472570785,-2.8406078195753537,-3.0627221793202812,7.115335817195276,0.4213104446759288,-1.084808125464876
-92.0,2.2978769281149707,6.010249952095502,3.712373023980513,-4.132456063275595,-0.7376899140756288,4.822054128713491,0.013891106581850166,0.25484688539880285,-1.2093208581489938,-2.270628254008818,-3.311605207589574,-3.0194605559640233
-91.0,13.64026855091279,6.09307200583577,-7.547196545077071,-9.85567871954747,10.639668833234404,-0.6805362994140729,-2.6542606450737685,3.2043096354583147,2.124760037600283,-2.275960346437991,0.2828946247545794,-0.5196838797222235
-90.0,8.045032540257067,8.806638979354148,0.76160643909708,-8.42164438094953,3.6049153442781803,4.7557381271348005,-2.7033918981792553,3.2682261165326434,4.768296629139864,-4.459973535122872,2.7944349938921533,2.8254152540668813
-89.0,-0.47441393641938223,4.01732325891388,4.4917371953333465,-1.7689222016600596,-2.525370685524612,4.227120099052989,-0.9197006596041668,-2.2073150280599183,0.12575377793449727,-2.9835878131558764,-1.4058677283277852,-2.692415745427807
-88.0,-6.984971425629028,-11.11885658018163,-4.133885154552507,9.058157435092705,-1.3955558999049562,-7.5757668745608955,3.5288645791309268,-0.8318606772786824,-3.3200832550944006,1.9750014122690756,-2.203145294888733,-2.2382675118929622
-87.0,-8.185978686475071,-17.504137863170172,-9.318159176695017,12.859475932707223,0.589643667365644,-13.361811840183744,2.806286364359007,-2.3235274882430508,-3.1166230731249804,8.149704987397406,0.7745099654843389,7.238486723550399
-86.0,-3.2259686505958136,-6.5000312027475475,-3.2740625521517543,4.809573585466235,0.04242817928891318,-4.917623009127135,0.6842585636399616,-0.22872940488605764,1.249583918319227,-0.3772942628438849,1.6192477951857802,1.1623830809568383
-85.0,2.8520676049362232,3.687836692316863,0.8357690873805166,-3.2330492977529537,0.9450208660324995,2.2302179171554095,0.6094181888861949,-1.4066524197769912,0.4417435686977223,-3.9758155546734746,-0.5534021414222527,-2.915615030902718
-84.0,4.4300346246443425,14.973003575399312,10.542968950754815,-9.733023248670266,-3.040339788297003,12.725385573533561,-1.230722275848226,3.3470160457994385,1.1865388037833373,-6.189140997495483,-1.9873120319724205,0.5925994687716123
-83.0,-1.1381746953291398,5.654410781748078,6.792585477077087,-2.2031947627474704,-3.9450885274343768,6.268631526996764,-0.8441812044810584,3.140386706318172,2.880141361891113,-5.597624618966433,-0.5194429579534419,0.788181344974072
-82.0,2.0406683232355824,-0.5634686315836941,-2.6041369548192943,-0.758162628563821,2.350306464381469,-1.6182297745694862,-1.0797744729652303,1.1007003172438823,-1.679225316431032,5.409401985652515,0.8484949175798182,-3.134111455606562
-81.0,0.48091397371555455,-0.46430836319648394,-0.945222336911937,-0.026949356554383908,0.6724107220690578,-0.6609377567819958,0.8189919395558065,-2.633772508793489,1.741858657832024,7.090805847871111,2.9784775430993222,2.521838898223929
-80.0,-1.5841585545052574,-1.1488511623253996,0.4353073921800048,1.3463244763066804,-1.039049060506142,-0.3134033905853655,0.4137560889013728,-3.607448591748136,-3.432460396486906,3.0519331380470405,-0.034524712334675134,1.3779296741882052
-79.0,1.3244934167445783,-5.2107118008254485,-6.5352052175699225,1.9204218995141515,3.9900369508717706,-5.9093701508585434,-5.070150815549475,-1.3188818519407992,-2.9438816745311867,1.445431399894285,-1.194106574802137,-6.270567070413112
-78.0,-3.1708838040026412,-3.999669933711186,-0.8287861297085346,3.6393194836150746,-1.1812321249184405,-2.452699967853815,-1.5170092393384285,0.028483034175038613,0.9293657495680032,-1.8826676998826948,-1.1798662944188505,-0.06635444806495272
-77.0,0.5101089184868184,4.8243813221842125,4.314272403697301,-2.6140136448193023,-1.9077982921675256,4.528020904184066,2.413999348120987,3.4700757637805606,4.483635863755747,-0.9763286393322006,6.421082268807426,6.253392398386727
-76.0,0.6180295491750374,-2.430465811504803,-3.048495360680015,0.8806992191730599,1.8271691222998345,-2.7045212629835405,6.1417259684283065,0.7876627795826296,-3.1225739321710733,-6.059712981059549,-3.6257989039376084,-0.9925388667163064
-75.0,3.5973721014132085,-3.209151391616643,-6.806523493030042,-0.22003694564700166,5.19065225722689,-4.973532294509289,4.107000171055169,3.1729815426210055,4.82270828544649,-3.3767686592796786,-6.132876126979566,-1.7758486170769143
-74.0,-4.311270373338405,2.9798224581121437,7.29109283145044,0.6377997809206588,-5.821401144150496,5.171892415211285,-0.5529469193776413,0.9238293956605711,-1.4422745133013315,0.10641827497207457,1.71860264802809,-0.5268097848981511
-73.0,4.89985166156254,8.120750123687817,3.220898462125288,-6.542116157550053,0.8873293173252019,5.633176302194449,-5.811673166892117,-4.964800943760682,-2.421389190657792,2.6992399409836234,-0.20228643453206302,0.28104815982771375
-72.0,0.47963314057742457,-0.15891402701730017,-0.6385471675946062,-0.11837594841049826,0.5180429999803666,-0.4306595713423005,-3.772259495126288,-5.036003525412712,-0.3153192518004899,5.810816188435833,1.5180835678698776,-1.4922978059516887
-71.0,-7.559386004740508,-7.557294542421269,0.00209146231941984,7.595807314440554,-3.7507413549599935,-3.7261799465931285,-2.5215919295082037,1.3990448362079957,-3.3599275923864425,2.440441481137684,3.4787466809166494,0.9533847118704637
-70.0,1.9172899322266863,5.604900036968834,3.687610104742281,-3.805166652297219,-0.8594172527973677,4.620363008082521,1.2018752857174932,-0.34501256039094846,2.3956596752775017,-0.2527429670651151,-0.4899346474057751,3.6198766870833636
-69.0,2.1725103965264863,0.3233569624703543,-1.8491534340560112,-1.213928644546391,1.9569007148891735,-0.7917214521454861,4.625880746881771,6.687876854264663,4.407995657334741,-2.3750130709335995,-0.20505507967676206,1.6092784042690922
-68.0,-1.24875852822773,-6.226579770832342,-4.977821242604557,3.772432975094321,1.8906732563773392,-5.559520190932561,2.257940715787607,4.208901322489849,2.670055492279195,-8.080725342914247,-3.6674935961708077,-4.86978449350488
-67.0,-0.8518837818584108,-1.5042991835680122,-0.6524154017096344,1.134980405591425,-0.07161194496575152,-1.12467839304701,1.4791016857614199,-4.522959403472899,-4.474874746822259,-2.0497589871456916,0.568025100253146,-0.8350406140603541
-66.0,-4.664235658169454,-4.200524013860062,0.463711644309305,4.38912049861423,-2.6134719882881576,-1.8470709226832265,-0.5381767040232475,-5.8763927915560075,-5.358432508389253,2.756521285800962,-0.5611019059625386,0.6942950043468494
-65.0,6.436878035560223,4.635097052077363,-1.8017809834829532,-5.501897033196291,4.147978810271228,1.4283896940291572,-5.331545697379817,0.10140844382837155,-1.603986521377481,6.544643192405342,1.81188155568988,-1.7377671564004382
-64.0,5.027128804119465,7.051148113138575,2.024019309019013,-6.085555413508917,1.4491831668485808,4.542983281334906,-0.3393333352412844,2.700043270396014,4.1045471605718244,5.209648945319524,3.0190396000392394,2.747739594978423
-63.0,-0.24128618826639503,5.173187947105154,5.414474135371476,-2.4341969868393285,-2.804506296828343,5.296912992956497,0.8221956586129526,-0.5937766069322432,5.86503584984449,0.18797142664334654,-0.49414951850342725,0.9333550669294235
-62.0,-1.276624376814925,0.17660548096557172,1.4532298577804763,0.583607457931888,-1.3439561026764546,0.8193318939928056,-0.8559171020701106,1.4846368595935853,1.373404727322018,-3.666517812009612,-0.726159482786494,0.971707194119617
-61.0,-5.175573536703198,-8.427259261395118,-3.251685724691857,6.8393891278954815,-0.9416791411883345,-5.831194210311737,1.5064256257000217,1.754677887808041,-2.6147536973291574,-2.7609106147082274,1.4912112952628502,1.645231021201777
-60.0,-0.13518059348551814,-7.981492626730709,-7.846312033245068,4.023190922296558,3.877231564890585,-7.9792674366715595,3.758590743707155,-1.209032799291398,-5.999858042965358,-7.460997268493625,-5.1569667413908205,-6.849044362265065
-59.0,-1.1025583938845003,-3.437101724734076,-2.3345433308494816,2.2394462803026816,0.5621401079024246,-2.8670501721413366,-1.751344413424885,-1.6545077543240607,-2.1862466217984773,-2.3010320873340104,-7.953963879954984,-4.314689658356964
-58.0,4.480294702584562,9.066298263328413,4.586003560743874,-6.801787488444491,-0.10226952213648055,6.850115420967484,1.4266164300363064,-0.2946653562946062,1.818986920635154,0.6872406215179154,-1.103847934649818,2.0799492735961036
-57.0,-4.480962829653217,3.4080492111902707,7.889012040843402,0.5847184726232921,-6.150675124304751,5.677303601756515,0.5678566175421644,3.825218684373934,6.368180922349457,8.015168898027428,14.247913698706856,8.922244525591307
-56.0,-2.870005074037155,1.3404333923428728,4.210438466379912,0.7286762480666091,-3.501102589956142,2.7296693217623043,-2.753096059955714,-0.24872371797663662,3.424641036389006,7.571967924583859,6.67860316637365,6.753136251861196
-55.0,3.2584412901343587,1.89965444557284,-1.358786844561594,-2.5443465039593103,2.3514145429190405,0.3066312868438774,-3.6926069783607733,2.2489291985472537,1.0262643740058461,2.7728779329983735,2.484360305309159,-1.4311475438673678
-54.0,7.490916391451513,-1.127035916772793,-8.61795230822428,-3.155674171093386,8.019861505319685,-4.9133335205688375,-0.19621805987701824,-3.3409267478286564,-5.407379050214403,0.019224119623239666,-3.747415874513882,-5.471448605039279
-53.0,1.7937304417873854,-3.1326124272581084,-4.926342869045413,0.6098651935168298,3.3236123214122673,-3.9917633545726203,2.2520906381352233,-7.6220506830356145,-8.658221228224823,-9.103527985065826,-11.418608160326173,-10.745733782713891
-52.0,-4.003555449232326,1.189179108356364,5.192734557588754,1.4221430625813611,-4.639631024090846,3.1476827744371056,-1.1549942791534624,-3.94650146181087,-3.3211443715821867,-4.7091317135116215,-4.677726998419406,-3.3032796831454148
-51.0,-9.541162161932041,-3.122700259375934,6.418461902556111,6.346560414152337,-7.949523622504868,1.6792970185099279,2.421661522942473,4.153525740613076,4.047376670702359,-6.1303340951524525,-4.629950296468685,0.04469939644590215
-50.0,2.1915993071168556,3.2744727737058485,1.082873466588985,-2.714472544219513,0.577971873159691,2.204763515092232,1.3744092215965409,8.63555224078516,10.292414921796915,2.8640330743519242,2.3973135794059286,10.527976903841864
-49.0,5.126072214056039,-7.443651244510555,-12.569723458566594,1.1064104679257427,8.867351334856533,-10.065112593502217,0.30288470665644907,3.5486937939527756,2.1431652754725743,3.507908453736018,5.71437736640817,4.3267764160285624
-48.0,7.996940175288547,1.5251712547114311,-6.471768920577105,-4.724152977803542,7.253538276488224,-2.4581677529956734,-0.3446285083827351,1.851969145563348,-2.5666898567420855,3.252874905955485,10.36752888955117,4.424567379139165
-47.0,-5.286892215672641,2.288808387270561,7.575700602943256,1.468627899223724,-6.487143970004469,4.943816000551692,1.3043176607726117,-1.3997505353161201,-1.7029863064417894,5.582940781798452,6.921593540569871,-0.661030017718828
-46.0,-6.8943078777694184,0.11506983856957786,7.009377716339019,3.447984561031955,-6.922192215578393,3.5727025164144726,-0.7587387937485967,-4.699864603181211,-1.2900749900670614,1.0448878579294956,-3.51499850459091,-6.8524473361964064
-45.0,-3.910741301796156,1.1694162436562738,5.080157545452369,1.3564797188822173,-4.5362637076856265,3.137102086571225,-2.4419140647638264,-7.92232210460185,-2.220031105268952,-5.133397515677698,-9.767631799305839,-4.632190615403832
-44.0,2.2939530948476206,4.888661747371974,2.594708652524241,-3.605070424300578,-0.10413321547661081,3.679866612562927,-1.1959830262233737,-1.7854265672233707,-0.9981320828964413,0.604886403900462,-4.869078007857715,-1.7359716900018385
-43.0,8.240958956126661,3.2631508893108414,-4.977808066815916,-5.771964383946169,6.583976024635526,-0.8337340850934153,-1.2637824189231255,2.5015260909850223,0.13398924026678471,-0.8811243207181678,-1.2534601656067457,0.6661379831592564
-42.0,-0.33166174896950995,-5.385559481015115,-5.05389773204568,2.8268620906638326,2.3407234908568606,-5.18869867757161,0.664920874590679,6.55005705809966,1.0833420501825346,-2.255621698439518,2.571340675409036,2.8035571206307606
-41.0,-2.3054239530912835,-3.5985635760262555,-1.2931396229350316,2.9839382077440355,-0.44541170420057785,-2.4082670024477864,3.4079422261067442,3.17503050878698,1.7862177836851458,-0.047672293090765816,5.216615264540173,5.738649126666997
-40.0,0.8161653473064923,-2.093207193873755,-2.9093725411802893,0.655584195639821,1.84421097071878,-2.538403495331674,0.061275537945527425,-0.48746859454991487,0.8410073180491424,-2.2627825965263817,-1.4810038338087526,0.21052948024385065
-39.0,2.460768667127828,-2.8690488050915084,-5.329817472219304,0.20978168370080774,3.873326608566239,-4.135932962294532,-0.8680606786726071,0.5446064419587708,1.5549449818130814,1.2114150228026244,-1.2952482634337679,-4.789815894999206
-38.0,-0.6718510380857321,4.9691942053077,5.6410452433935285,-2.1487364119012935,-3.1842201312634324,5.266126835628079,0.5008088200256505,-6.0074998047356925,-4.336842810115888,0.6892785416561003,1.4954906904098992,-1.2579006123609962
-37.0,-7.0147391923787,8.020599258987081,15.035338451365845,-0.5022158843415421,-10.981305289484883,11.563756481349618,-1.6404028275193039,-4.89102462478313,-1.2581665222708291,3.3771278314590827,1.2113972707107523,-0.11535659444745572
-36.0,-0.3817507457305682,-2.964032733838443,-2.5822819881079004,1.6802269783887802,1.1366640783966586,-2.740580105030996,-1.1729274409573898,1.0342497970030804,1.6866297468578482,2.35430564648259,1.4325391834077505,2.8219480537495496
-35.0,2.528491073593146,-3.350329803185823,-5.878820876779058,0.35033515326740033,4.155420793693461,-4.582690365250779,-0.2147229814963003,4.770557858918245,-0.6363158770525075,-3.660140523548644,-4.520667462630766,-1.9885069479097641
-34.0,4.85754052858462,-2.348229452693989,-7.205769981278671,-1.2235726918259886,5.980498265465981,-4.821593055864696,6.17445168271726,6.433909075309571,6.982836646565744,2.1473412245065173,0.9573655441754498,3.2716250304468604
-33.0,-2.6482076825915155,-2.7100979747610525,-0.06189029216949571,2.7229996507015235,-1.2643659624492205,-1.347606716757591,0.43890465179231164,0.9163386102223998,-1.9289317145045048,-2.248900499544276,-0.1839956766663654,-1.5895314154969735
-32.0,0.29269240002846336,0.7527806516823091,0.4600882516539555,-0.5471404628070443,-0.049272105943884315,0.5703648306814262,-2.235859342258085,-2.6887512647656373,-1.8910140356025964,-0.5945448946343725,1.0887554491097042,-1.207757667611436
-31.0,-0.24108426273754324,1.3018409969307883,1.5429252596683507,-0.548289329370916,-0.8485476319510954,1.3887644304077682,-1.0137174905048845,-4.396050394103521,-3.3965926921351595,-0.6554257275703035,3.444635989427888,2.763026298653431
-30.0,-4.903763872471122,2.88252313515313,7.786287007624121,0.9941158689787182,-6.370342082797707,5.378981463854089,-3.423079186532768,-3.8522920700786116,-2.735061431721028,-4.135109446187572,-4.79128234812576,-3.5931745493763474
-29.0,-0.5512502661544771,4.029610397638191,4.580860663792498,-1.6807950078795106,-2.5836674304017846,4.267383362203033,-0.7030558052417504,-1.813578864704029,0.6934307018763786,-1.0878238956609823,-2.9528253963505855,-2.026922557320283
-28.0,4.375368027203307,-0.6203195459896073,-4.995687573193017,-1.9062267590063982,4.670575553628096,-2.773144053757563,-3.9166823174480334,-0.3668789271181667,3.0247727524970585,5.998832217458395,-1.2192497908113875,-1.2035006354963875
-27.0,4.345768659248481,-0.6890152552228388,-5.0347839144713085,-1.8682527440798056,4.67178480358433,-2.834220544569119,4.374117179562219,4.723153637415585,1.280971088768555,7.893555199174074,5.1499541154859765,8.931701129447578
-26.0,5.263965295036613,0.44707037870006516,-4.816894916336446,-2.828453855352434,5.013203322988187,-2.243059156814551,1.7919645657871963,4.0313008678033135,1.5586905253803827,-0.8709473542816846,3.448514934226048,3.2588968425121645
-25.0,-1.828116631811145,0.35664931817554324,2.184765949986811,0.7526538435104395,-1.96606933670052,1.2853449140089812,2.886520859582724,1.7919251099912756,0.3612718258398181,-3.46053122127146,2.3944253237846604,-3.6790220709659667
-24.0,-6.275068587515167,-4.598377129125471,1.6766914583897936,5.447053105587185,-3.9456205357624605,-1.450424379112831,1.4791215435750793,-0.08602558101880914,0.5389785749317519,-3.3308408431027945,1.1718208983325091,-6.099875755754508
-23.0,-6.765532871711519,-3.5609046340873305,3.2046282376242523,5.171607262769429,-4.96103466816541,-0.16996948371468795,4.225820927095631,0.32312037333791177,0.25060686036923663,-2.6737040477822602,-6.934883461182522,-3.8952163385093175
-22.0,-1.806518271795158,-0.8659287265858857,0.9405895452092867,1.2687658534602393,-1.4291525159054004,0.045076299975612466,-3.187680451581877,-0.3834956364065061,-3.357964221454127,-3.940518883569147,-7.254159137261649,-1.0401643172234838
-21.0,3.202791102355241,-0.7563394854527217,-3.9591305878079566,-1.2047892606614212,3.608364761950323,-2.348887284853798,-5.758157573871404,-1.6913306588063708,-1.8077950887616676,1.69708932869647,-1.2552013462906824,3.2690670109195796
-20.0,2.8314481392920285,0.2888281529416883,-2.5426199863503633,-1.5316133467354196,2.643706893663939,-1.1943256025502997,-2.0808285115193383,-2.852012726651348,0.1419500912396876,5.234009212297,5.217457182351799,6.214355813001924
-19.0,3.04139770275732,3.466516145062086,0.42511844230466034,-3.214292936301498,1.353320555304646,1.9611785546175058,2.4161065843518177,-2.603436147540549,1.551549558412215,0.8524962823882527,4.264324319863272,3.2050072618406356
-18.0,-0.9653725226959935,10.652339609401773,11.617712132097601,-4.872618148889677,-6.315813524448593,11.15642260198496,0.3260686022618482,0.41242868121021337,2.2356245191518704,5.362824784416455,4.735783713281543,2.775907007452365
-17.0,2.3261745603454766,1.2612625622052125,-1.064911998140409,-1.8161285349157659,1.6780595567467562,0.12780433171487937,-3.165081477439563,-4.067075518408199,-2.451635432581551,-2.916722610911659,0.396507009027689,-2.259820579360236
-16.0,-3.2239788048028744,-2.9135285633639154,0.31045024143890354,3.0486776835210927,-1.7033377695829681,-1.3407536099831807,-1.4071997291545886,-3.600535785857208,-4.700795132807325,-4.215192308680503,-0.8065276496528819,-4.275670077917953
-15.0,-2.5295930580095036,-9.01852998729832,-6.488936929288764,5.752043328276352,1.9621963368784543,-7.704057895171719,0.0880807023541792,-0.09760428819412814,-1.5679616944470367,-5.199595003704329,-5.932107780080966,-6.483499043438924
-14.0,2.487250964907502,-8.260122348448206,-10.747373313355599,2.938180409353965,6.591923161249346,-9.524519859980234,-0.749908600327186,5.366133805750658,-1.7772832957408715,-3.8796743578067767,-9.0234286085296,-6.647336501867853
-13.0,6.998460738482562,-0.5174989645280164,-7.515959703010489,-3.1950511698128805,7.219699421143231,-4.033068879952911,7.09885699716243,14.972511118327605,8.456419484419955,3.9998014100507415,-3.644874263770513,1.649372873303772
-12.0,3.4752988522830828,10.215492548524079,6.740193696240988,-6.884839578655489,-1.6052642310672676,8.460823213293837,9.827192806249558,11.767080591022076,11.397334122307448,8.772230693543637,9.63846748866253,8.59902297468679
-11.0,1.2171441752721759,12.589241713814786,11.372097538542523,-6.947606029648611,-5.063342442692951,11.957870337560221,0.6081458933272723,0.6593742249909094,5.324003709833323,10.755628386658344,12.861315823850344,7.3304087691125375
-10.0,-15.661063005698146,5.9770834031433715,21.638146408841365,4.8729219791221,-18.64477537570261,13.853906401163043,-3.7215461351795547,-9.5659005730109,0.7822095720410598,4.3773425585518115,8.208576377820332,5.882686867166257
-9.0,-13.480019441375111,-10.253043677682893,3.2269757636920753,11.895622410067013,-8.352566121540947,-3.4783661447324494,-7.169722009349442,-16.845402748385553,-13.402901445105902,-12.544336752716008,-6.4253594028356655,-6.91549872026548
-8.0,7.50559943618476,-11.884732650304047,-19.39033208648888,2.139323711101177,13.450501348863634,-15.693237599323448,-12.591272110347202,-19.851821871923985,-18.357504758602115,-15.183667082675477,-16.117555241345627,-9.172055875315277
-7.0,2.6449420352696347,-6.1580321619369665,-8.80297419720656,1.7851965654612945,5.732187534452958,-7.467530153503423,-0.3490303992114754,-0.25464170897365435,-0.1107610746834764,-0.31368574004813343,0.8327811159504686,6.789034913983987
-6.0,20.206609360526503,-6.780570451056198,-26.987179811582536,-6.684116395793588,23.612563959137546,-16.87847556890817,-0.07377472939825852,10.64480778596947,-1.2874188137886873,-5.171187942058755,-9.479168975607198,-8.139694582336615
-5.0,0.17738503652442184,10.315962264207576,10.138577227683395,-5.296668114375184,-5.036883441405374,10.227927509678242,13.661127150520562,18.52660899578065,10.42696590969995,8.046407934381081,5.159804034876423,1.566627671235356
-4.0,-15.538747950839786,3.4206643852455336,18.95941233608562,6.087085427335858,-17.22205461122099,11.188577053399088,15.105107097965593,16.176717746929782,11.818374617616946,10.914778121780438,5.822715694070423,0.08898963681144112
-3.0,-9.09414518464299,7.980079755388905,17.074224940032114,0.5053428778940691,-13.133880557368837,12.525570499674753,-3.514387580817626,-11.39680093270228,2.5988892974793565,2.8550495250154597,4.387476000116105,2.4437742122923556
-2.0,13.353882514664287,5.617430045159455,-7.736452469504762,-9.459231608774967,10.574554084024333,-1.0600785598013704,-15.8347229998281,-15.730872697111394,-10.115304188805922,-6.333756045935916,2.632687837616862,-0.766846933410013
-1.0,10.439914494199586,-3.9494842363509024,-14.389398730550633,-3.2185150756748477,12.443982821233124,-9.168765287697028,-5.164463657021491,2.477025555903566,0.9060155028876178,2.8780803257764798,3.832688586432194,5.3650446844278
0.0,-9.481571873218025,-0.801977694359362,8.679594178858286,5.169746549240174,-9.050762750429096,3.9401935325900324,5.5959211416981995,12.82080745195459,11.013851609749047,4.599939499823924,1.191850481845559,4.9268416865092135
1.0,4.999410761628587,-5.503959781967767,-10.503370543596814,0.2032269575069101,7.703597054432837,-8.002570806433939,-6.657771521756639,-4.361117267915905,-8.514023883462908,-13.835571822141148,-15.00509985481887,-11.649735999702386
2.0,3.44147927400013,0.28663796821691534,-3.154841305783452,-1.8330439396878084,3.3302052278682743,-1.434348873541178,-1.793892694967108,-11.596390471180856,-6.449696614112526,-0.18087469638630171,-4.23297085899896,-3.5014398306875414
3.0,-13.757358185884618,5.356926100562264,19.114284286446903,4.152713962373026,-16.482399276745568,12.23339220656644,13.30603393958327,3.4860049968505824,5.020487839052552,13.336998627552566,13.200704133595188,11.13802080398938
4.0,-19.952419978025883,1.5053868568887119,21.457806834915036,9.253955907528194,-20.674259185692414,11.477670444801369,9.671743765709303,0.09963853901373082,3.903827938926277,6.796573985910498,10.884454774977621,7.852007998703471
5.0,-3.3214861496938193,-5.018652699055394,-1.6971665493610892,4.1207424273093345,-0.8624848873719753,-3.3621266663705187,-1.135985916617435,-2.034001214220485,-3.5604782332211595,-7.043831708045723,-3.9821771494454277,-3.1297668908739635
6.0,-0.5035801376893301,-18.24996055876997,-17.746380421080353,9.406226168805532,8.647359995089325,-18.000095193583896,1.0860311349929472,-5.099741279875458,-10.558474447361062,-15.511248376198177,-12.662093037774946,-8.53799145249013
7.0,21.978923740621067,-3.0969480769936975,-25.075871817614615,-9.409445170834024,23.55219811829233,-14.082719956307404,-8.973209674823801,4.519729887589939,-4.641169637212356,-6.679053397126789,-8.815063065956194,-7.534653412908239
8.0,43.327264840856536,10.593347146878013,-32.73391769397861,-26.924465525039423,38.056540131021904,-11.05773595919746,-17.327332772308004,15.6107137404362,9.73152475053528,2.2334134229392526,-3.8167012040958777,-5.069251158909859
9.0,16.97311211079889,4.660575053443079,-12.312537057356042,-10.85405985465868,14.593761020957261,-3.802426561593081,1.2979354192535757,14.593822074639377,6.791398931737565,-0.9241199861154197,-5.858237595097495,-9.398383521825975
10.0,-14.615014799111876,17.118368082039478,31.733382881151165,-1.283131963382024,-23.13859770527336,24.381851834128426,-4.633697685523055,-17.93655187985679,-0.7960510584970404,8.210680660333484,11.16055388429607,9.389503803579387
11.0,-41.70123707432661,4.736979294136359,46.43821636846295,18.455403385087468,-44.105546086168445,25.631311347053824,8.220802619333206,-15.49732140232177,5.27664460730613,15.528329025607572,17.212746178027214,14.810835701493055
12.0,-34.939325169327844,-7.955851562575151,26.983473606752675,21.502959660423834,-30.989213638822687,9.483575355214304,18.822715890428988,0.311223858217863,4.56298121368985,11.656791787288032,15.71647594609215,13.603850692024531
13.0,-3.5189885299565553,1.032108597968401,4.551097127924892,1.2224116213661187,-3.9759833207166206,2.7610008057585804,11.145750394122913,20.11391523869959,4.254279859960581,4.462380572895338,4.427048231111044,4.713163152960744
14.0,4.502882718967905,-4.267410380257892,-8.77029309922597,-0.13673450551641153,6.624666595961601,-6.475846806908653,-6.730848299255776,-4.546588188903323,-8.97523809306716,-12.510443813274879,-12.35197030270517,-0.7831865304523555
15.0,0.8680364766073385,-21.168830034981706,-22.03686651158924,10.212260548945586,11.447362285741518,-21.646877936136683,-4.7469680806366865,-16.1046486267092,-18.31798600698738,-20.450024679816682,-17.904352987873033,-11.238626729352465
16.0,18.129959737272312,-0.35068842737150163,-18.480648164643824,-8.904550804117523,18.305341911894843,-9.390066156980536,-2.863721927114219,0.24459327977801149,-0.27675309578911556,-2.7930546393326576,-3.707704497930912,-7.718780704323633
17.0,45.442601185970304,10.912026152860996,-34.53057503310916,-28.191202753769833,39.98922283127246,-11.79143439085352,-19.708485589950918,-5.625351809514658,2.284252100003064,-3.451633607854826,-5.04308551469104,-12.868402544544846
18.0,34.7320908988863,10.708696346994458,-24.02339455189173,-22.73517322875223,29.37983240015985,-6.644525732155727,-18.710584266361945,-2.5818577939473117,-0.3709363821668301,-2.782260368273045,-1.5514067007239003,-6.627939447332372
19.0,-3.991103462698752,-12.627520836646408,-8.636417373947616,8.291124777576366,2.320960692092846,-10.621111833820247,10.864994034282914,18.28764627675058,1.4167432773507098,-2.3843582681842275,-7.603444055178603,-10.195403727476346
20.0,-46.66583187361599,-1.9165338285938036,44.74929804502216,24.34594976071165,-45.71566899677755,21.34899603248119,26.072050931807404,11.462910315811065,6.5561453930632085,6.733468918329342,1.085978837163025,5.2844651472509225
21.0,-52.10669839795105,5.569209639069206,57.67590803702009,23.237458185714463,-54.907104821861864,31.635933094081715,21.138939681115563,6.920392540727453,13.315668625508444,22.579361204559497,22.831068586682605,28.0669810611448
22.0,-13.40434796383462,9.772742838318118,23.177090802152723,1.77705289237508,-18.313769541762333,16.490890233445924,7.038449408075241,5.836084310903302,9.935492295279314,16.209727722883585,18.33177419389178,21.12326362452302
23.0,24.22491738134172,-2.1694261502067387,-26.394343531548188,-10.99403652645403,25.360098553168722,-14.263383377437993,-23.554174250400962,-13.812506693612114,-10.335853536556645,-8.678205854393005,-0.31927801673159095,0.011202522895443323
24.0,26.54678707674764,-4.372942427154956,-30.91972950390209,-11.057548136649945,28.781294805473955,-17.62574971370831,-25.34831369044002,-22.4986298532102,-17.543785679926515,-19.713301856053935,-14.87664342076391,-17.736882897258113
25.0,19.344613302081406,-2.0724565632154075,-21.417069865296103,-8.609201220990029,20.350220521544383,-11.801317041916562,-16.60513201533775,-18.086951598488508,-10.76766889519844,-14.110275182950218,-12.098329923481502,-15.035572577113022
26.0,6.978925549897827,6.35842952504539,-0.6204960248522191,-6.7221441131912005,3.7706636634609723,2.892710373185242,4.783257798139994,4.940857483457174,7.41465419486749,5.7577842742611836,3.3007182919070104,-1.3319812040675671
27.0,-8.478024909006367,11.032175485781059,19.510200394787066,-1.2536597302053796,-14.021232535033187,15.218491400207263,19.592636490985115,20.680290066547403,14.954004114656945,15.375584271362646,5.834392060234441,7.151449858614265
28.0,-22.32181476736337,-7.098625900987071,15.223188866375532,14.652081456232725,-18.797995630225508,4.092283522872939,24.318000099280496,14.779484382193072,6.286702205156924,6.1486732435936435,-1.613507240322336,4.237884987140042
29.0,-11.221457776859737,-12.79989586582633,-1.5784380889674852,12.027873634924951,-4.76708333366183,-7.153284005640188,12.205256458411048,3.248864144271721,-2.925247925081937,-8.973394291210827,-6.796395594896276,-3.8755913623694647
30.0,-2.6149481467790228,-12.079268665389996,-9.464320518611618,7.361486038703678,3.4797209274072287,-10.728922685701727,-1.0945593207378974,-6.353314485248115,-8.755898757145998,-5.688471490245988,0.8006805320421815,1.2433237764940825
31.0,14.52249210407264,-2.1153464019705615,-16.637838506043344,-6.189962671743642,15.555990791464989,-9.406285165165162,-19.242324905349466,-7.554337586634261,-9.058457557292966,-5.8692007975765685,1.2698845258240663,-4.26266772642768
32.0,15.304302785724053,11.045243232344452,-4.259059553379341,-13.158930747243653,9.755107934944476,3.366556633330455,-11.703171123244804,2.4187473257135004,1.5563219008765774,-3.760726208959317,-4.647134296934893,-7.535018864945817
33.0,-1.1349248176656221,6.492096281478432,7.627021099144511,-2.65752719051833,-4.412572761201581,7.031792707855544,-9.341975304758062,-1.9976987793350265,5.386382969047434,4.892824207691059,0.5244726766077341,3.598513799079434
34.0,-3.7670570054925863,2.144796853452876,5.911853858945908,0.7607285081239819,-4.799809417324193,3.995334540393041,-3.923060261305965,-3.6184671742653514,3.3248494853059207,7.09481990431224,5.431760828064931,4.84241764623703
35.0,-1.451742772943116,4.8098876811523485,6.261630454095974,-1.721461399728458,-3.904508523362673,5.574485716203793,0.12102642950968878,-2.963995325078848,1.5035507557775323,12.291674231522876,11.3537521551368,9.921613515524392
36.0,-7.637771484772772,3.623671527890996,11.261443012664042,2.0508352060674655,-9.426539622923947,7.475553364711333,9.723369208635233,-0.2189869398695541,1.931684538733732,5.0334723165854935,6.478521693674819,10.756836553374029
37.0,1.3647791797751836,2.5555601603193923,1.1907809805441856,-1.9105858854367717,0.10520090180449504,1.9044832751306877,8.141241053265666,-1.0707867336336663,0.3652976388992828,-7.362202504065857,-6.742795166930687,-5.650728497769034
38.0,4.131455431871407,-6.999676441419048,-11.131131873290762,1.4083898659651268,7.649014160259918,-9.109129924012985,4.69465498934578,3.5666095704906304,-6.852632827970189,-13.940206083043636,-12.162364972809947,-14.819324854300083
39.0,0.43424009953498827,-7.561151172503169,-7.995391272038618,3.5384744967500796,4.236595239820842,-7.813315576621507,3.6243847772573003,7.836688977607487,3.357089211581124,-7.174453044841845,-7.819614718232916,-8.631119056397175
40.0,-8.265818237940142,-9.362990462666042,-1.0971722247263669,8.78763817318946,-3.6337091057640425,-5.1746858315651325,-3.773179255465395,1.4703447167704233,-1.546736469795055,-0.28061917882574683,-2.9518203454233847,-1.0888931925842131
41.0,1.861687562625502,3.9689528361954025,2.10726527356968,-2.8668635088994083,-0.16274731521075847,3.0265295647742887,-2.911924504023295,1.7804718847939465,-2.1963504730086303,7.278069915828502,8.464440755055968,8.317686016937392
42.0,4.021764209857889,0.07776339953378253,-3.9440008103240762,-2.0841574473825952,4.031166833216466,-1.9360081064102563,-0.11533912342971409,-2.9328268423046735,-1.9524589415618196,4.922333348078821,4.1006582864533,4.0067057367392085
43.0,-0.6183951525670257,9.007952227275066,9.62634737984234,-4.153996915468282,-5.144844864481359,9.317227421290063,-1.104984774005155,-7.896660373063005,0.7341580956231429,4.553103649784767,5.611794647885178,6.077322543177593
44.0,0.6530916364910551,2.1674910848095985,1.5143994483188337,-1.4507462953390342,-0.3692028679764783,1.8368952955126696,1.2397315230684667,-3.194685131334733,4.928510217840321,1.6251114246856169,3.7980144498520363,-0.7203877263170471
45.0,5.628636205474388,3.293737115066669,-2.334899090407535,-4.424505390728709,3.9657927631248078,0.4645280541960868,-7.609017745258543,1.8902789064260914,4.2219400792788075,0.22949160311147865,0.24372753282965132,-0.8136856759185518
46.0,-2.904539537840287,-6.464917402888519,-3.5603778650481344,4.71979187072867,0.30893672529027394,-5.042940934463676,-4.334188990780391,1.6082278997770465,-0.9141250839359794,-5.370866681581379,-4.954433822244127,-5.397460021929159
47.0,-10.079977614090597,-8.183861363700526,1.8961162503900841,9.08555211527015,-6.013864000182838,-3.1120109151168434,4.685867198037222,3.5579763142494034,-4.686707874228738,-3.853772140178404,-6.5459770938894035,-1.2396228069574011
48.0,2.103804880803353,3.6169548175710755,1.5131499367676273,-2.911066880223406,0.26057587348124445,2.582705086094287,3.809708955919519,1.2601352034770712,-3.2825185007835542,-1.5200521750636717,-5.753141235403076,-0.9194756153450248
49.0,8.205776913629563,8.042500456753412,-0.16327645687631714,-8.101640803211694,4.2201176516015195,3.94813557007269,2.9178645852992107,1.4059769014082784,2.5744510556042584,0.40448464984005517,2.51434509225479,0.4017425021313735
50.0,5.542241709412185,-0.6081299501369579,-6.150371659549291,-2.4500422491914056,5.876638455285482,-3.373700084307469,1.786794318351956,-0.47218722193907925,2.184963403888431,4.83808320680626,4.410993779112211,0.5313349025784421
51.0,-1.623488593173624,-2.4166469426974135,-0.7931583495238779,2.0333549280071797,-0.38540268971962144,-1.5967949252585065,-1.8130323575274336,-3.455793493289476,-1.810937193726149,-0.9739120585935486,1.7186791969632091,-0.7369543768759401
52.0,-9.001526443809457,-1.0428697503765265,7.958656693432943,5.034773723167682,-8.525144347390508,3.3935188686838353,-2.6248565500738232,-4.188623182262193,-1.520548617578559,-3.778911195009874,0.49603576688219997,5.96040685481099
53.0,-3.1107032888369126,-0.8919732199264325,2.2187300689105296,2.016552892965283,-2.624353582050345,0.6854947719703608,-2.877639254175167,-0.7959906867409652,-0.4276296644371038,-2.359694465140271,-1.1746750261826069,0.8865797172459031
54.0,1.0223732166299362,2.9624047600850485,1.9400315434551982,-2.050527205660065,-0.49033856655981833,2.480545276512224,0.5104810130947128,4.708719228300646,2.089473859267488,4.681931283062308,1.9314954477921027,-0.517004250057115
55.0,-2.252017472219981,-4.094107003985522,-1.8420895317654364,3.2006821314784615,-0.2315436077526185,-3.0122798239015602,4.008705643256276,2.3970877176286214,1.0444795790308812,4.904285277905201,3.5960829922402926,-2.7846991531756498
56.0,5.345691207436266,-2.4765176630197567,-7.822208870455919,-1.4783648651348433,6.559396547982911,-5.112332648416022,1.3064382085418402,3.8070504679627204,-0.5208173086427952,4.913864290532988,-1.7192056971770253,-1.8801015371411711
57.0,-0.3222562963718736,-7.751406292627929,-7.429149996256012,4.078351423348636,3.6072186197025062,-7.553757660516542,3.402097039850357,1.0072895869285432,3.588428295755927,-1.290632363917482,-1.4273509864849885,-2.9597805334594254
58.0,4.416026650686514,13.98483645975032,9.568809809063765,-9.15415502741898,-2.602855515509667,11.731583375102675,-4.728951670797397,-7.453059179461683,0.13872107533966324,-5.356276899581539,1.0322030361415875,3.213562277827277
59.0,4.054168336610018,13.227255408085659,9.173087071475548,-8.67099610004541,-2.508224509454809,11.150642567377519,-4.905349656797237,-3.610444671849066,-1.9314995624203561,-2.8785051785916855,-1.991305523233101,3.5929769573957544
60.0,-2.238199293365719,0.8626205238665152,3.1008198172321517,0.6568003273020859,-2.6967719124528386,2.0072553239972457,-1.9925336157260607,-0.3445448525958197,-0.9096950411778093,-1.6780850293231868,-4.203385530257779,-1.1519507654880612
61.0,-8.9406577761732,-18.285028005333814,-9.344370229160647,13.578686514900141,0.1760812225532744,-13.790171442485969,3.220978419660705,1.4955225447181177,-4.8109323490366505,-6.179388948530114,-6.461979093255807,-5.893129292745147
62.0,-0.2574825995611496,-14.325302820672839,-14.0678202211117,7.331611008768747,6.960010523050993,-14.168857997923915,3.073468901918889,2.928021605470989,-3.7505241035912467,-2.224112744940108,-3.6166225657538993,-2.3088463042765306
63.0,4.697283312587153,2.6585459575978962,-2.038737354989231,-3.6415767137244623,3.3451806892105505,0.26646165872473304,1.4595834916953536,5.124357445578443,1.3006948091729145,8.556021961648574,10.33658993967292,5.957925669074497
64.0,8.273785086822635,13.870504798990831,5.596719712168266,-11.116446894911283,1.3150987371567096,9.779711799438395,-2.074346462516906,0.009058877422057687,6.163570716127155,5.244532270939079,10.561807217070017,1.836135482383641
65.0,-3.0870583386427084,6.9257704745695055,10.012828813212282,-1.8840989417594596,-6.575820654246448,8.448269858996934,-0.14282961923923854,-4.871594447975212,5.219522029945271,1.6565542883382678,3.8342962812345656,2.4011542607434953
66.0,-3.491048025174751,-0.5720999890882501,2.918948036086533,1.991255873475601,-3.1556958956764283,1.1621584490345072,-0.06722478126269837,-1.2387163968292758,0.33825622187551696,0.059262171343638315,-1.7991548295892583,1.368374180221783
67.0,-6.337787383942463,-1.8854274986728108,4.452359885269617,4.154301964737907,-5.427936663096814,1.2780121347842819,2.4661289086742575,0.6570449981831645,-1.6845495666221177,0.6089586834506937,-5.909466332741877,1.8423441354838095
68.0,-8.109002789222556,-4.130121183629566,3.9788816055928864,6.086997846669333,-6.000025221824456,-0.08003369566445984,-2.1821858848639586,-0.7895655762029916,-3.323572037370926,-1.7081932271658786,-6.063803518218562,-5.608099279075446
69.0,-0.7784513592742149,-2.4284559849193506,-1.6500046256452348,1.650459212988771,0.40117795124359756,-2.0467108320722898,0.9380050527304429,0.6995565594586115,-1.9020559556650034,-1.0681998343063244,-4.389327204178117,-5.136812902280635
70.0,8.42417500335284,1.7338540804204983,-6.690320922932361,-5.113930641808165,7.603812640429676,-2.491089191807852,1.5594096425747201,1.7717902313035232,1.3686767692128226,-2.0909103874352772,1.613210261138363,-1.5136881413992325
71.0,7.511583061074804,-0.8852056621402147,-8.39678872321495,-3.355470583066078,7.925895822165902,-4.5806119549909345,-2.4704362180922526,-0.5418751129472801,0.1427310340078576,-3.5703428621108633,5.160384010243635,1.6931180172991327
72.0,8.599549383646588,-1.519747023509221,-10.119296407155717,-3.513865262239474,9.3355185131505,-5.841823091998471,-7.349570536228401,-3.389730960353156,-6.30693354682411,-4.29077049776893,-2.0740815689074483,-2.8832162978622233
73.0,1.640626126541472,4.401239005856034,2.760612879314656,-3.006215383899832,-0.5799026492291608,3.5569151276710853,2.3065412323969223,2.933904093211625,2.8871868489902237,1.149196960495987,0.3063692065169441,7.18870462032416
74.0,-5.266965914370923,-1.0696057379911927,4.1973601763797745,3.1733304164778073,-4.670292120041102,1.6186300454545446,4.820366463918237,-0.02892136383761912,2.26724507193875,0.7692698241921567,1.389156384748828,7.132231629044528
75.0,-6.479963724841259,0.11381277498434927,6.5937764998256,3.182166877326687,-6.552020929965523,3.3302333318592234,2.060837323569438,1.558605563979283,-0.49727658847509204,3.197225371144565,-0.09013531147363607,-4.859575650393138
76.0,-8.39008099773029,-0.7739644229849256,7.616116574745321,4.579904899111169,-8.018103224694801,3.3969313575817988,3.378242761635315,3.298542191689352,6.516956342718408,9.679243001023396,1.9852482070260897,-1.240491528048286
77.0,0.43567796916837853,-2.1368735974050117,-2.5725515665734306,0.851797005807386,1.4873508495671626,-2.3813718767931618,-2.169622858543198,-2.235781319802619,0.8027916304027349,3.8997348466515556,1.3321450698163033,-2.3726614993941713
78.0,3.245396143147757,-1.272450394651658,-4.5178465377994375,-0.9786947938132546,3.9396149043478603,-2.8475025394252795,-3.0638449797915817,-4.4273134556034055,-2.072737891738266,-4.535593456275018,-1.6247181324111442,-3.4564188933787827
79.0,0.44317298589476906,-0.7544906668652108,-1.1976636527599678,0.17144756297498542,0.7932579810937233,-1.0127074281467285,-2.026622008142704,-1.9061952185560043,-4.983049282838797,-6.282771417708459,4.213569180717332,1.8337160069652274
80.0,0.03685805668133746,8.51686580788325,8.480007751201962,-4.332170223150106,-4.257357811173298,8.535232677417326,0.04323971594781817,0.8020089591656419,-2.7005384236910346,-4.124792570885685,-2.249549221188961,5.233006051610523
81.0,0.574263184815782,4.33180484239979,3.757541657584081,-2.423529743917195,-1.5587322565179433,4.077591849422196,-0.24437403986525585,0.30664093620890986,2.707310213752228,-2.820572932718738,-4.528185992583493,2.391940834733342
82.0,3.7128096030300606,-0.38155421678817514,-4.094363819818194,-1.7108779768957605,3.9264542601715675,-2.2852951954338296,1.9480534944574317,2.087657313249271,1.179251304712217,4.966442880236259,0.6882686735827366,-0.7412652509861606
83.0,4.712234413250421,-7.3738468874005605,-12.08608130065096,1.366300133218388,8.335252632518065,-9.775860521901176,-0.3773780459432665,3.32608076036884,-0.7965976470381201,1.8050599639779699,-3.254711310981821,-5.938100348058883
84.0,1.8715734481502828,-8.030830750080055,-9.902404198230345,3.115256353877192,5.897968963893316,-8.929132613565908,2.2039939761134155,2.404057819675155,-0.2943350492988883,-2.395348595200262,-3.0982329738924346,-5.300316149788121
85.0,-2.9496459091872724,-1.2586360133411794,1.6910098958460233,2.1379127827008357,-2.3073880540968315,0.26131965797756784,-2.1905506989662222,-3.780562599142929,-0.776061447225408,-1.3655080534019175,-0.9584163160550248,-3.0327276018756812
86.0,-1.7569620458992756,6.227070702454439,7.9840327483536155,-2.2841587891504993,-4.849298579634333,7.081820268435776,-0.823698549034278,-1.1384496282788843,1.6162723523757305,3.7853331210946073,6.713177857637569,5.324952308461141
87.0,0.7707496357009309,4.592303400733579,3.821553765032557,-2.7368881814485624,-1.4908654231796445,4.193903085461746,0.15834018233821756,-1.5599508321080082,2.65902064179355,5.140903168272674,7.937821312429513,11.201728262679854
88.0,-12.27832753851689,0.7201865582729283,12.998514096789755,5.795210557479644,-12.667071275725572,6.856037554190609,3.4399035536975155,-0.10871927327356268,0.05983817943923175,-0.47738887748730185,2.9643186845572016,5.186623762754221
89.0,-11.760325280750203,-5.440101260644532,6.3202240201057025,8.610292001635749,-9.054873064894075,0.4436781219444357,0.08605675501529364,-1.899675381818826,-0.54757341792533,-3.7748630161009307,-4.130296691740339,-7.478491279973419
90.0,7.737945316990385,-2.2529186703039574,-9.990863987294246,-2.734791970317372,8.85891579558319,-6.115493562896488,-2.8330769179825355,2.283935176097656,-2.847352185778218,-6.801412472406357,-9.507531131534831,-8.226495420828112
91.0,14.054637678470938,2.5395217721291337,-11.515115906341702,-8.286276877515872,12.781555542195427,-4.483423170846746,1.4699451993524715,2.6662216228224356,0.9110506709090349,1.9367359858269406,-0.10582529230123328,-4.184252424571593
92.0,7.635219020304828,4.554391561881018,-3.080827458423766,-6.075490059862982,5.3499816233079995,0.7345482599620325,0.2253758644011527,-0.021760074888963254,-0.9990440814824493,5.877502661723133,3.6912018632300225,3.499276561467239
93.0,5.294872211729481,7.2025279644766504,1.907655752747127,-6.217487653936593,1.6759757982634715,4.542818516862925,-3.858990027526515,-2.3453768150715453,0.45990701584187405,3.9757490945389575,4.204386244967265,4.754097775202637
94.0,-2.063353628607663,0.29913840704674877,2.36249203565435,0.8463423863480937,-2.163016771872415,1.3070310455710143,-1.2478328780621268,-1.512651389221094,-0.15798930689851826,-2.742584057951001,-3.969158337109916,6.712582911724814
95.0,-13.647266775391063,-9.191858781461892,4.455407993929164,11.391724130606455,-9.089620024347624,-2.3238447461584943,2.3139301255203275,4.476331903762501,2.8847410071132615,-3.6590621567964425,-0.3690318757322435,-0.3285725504066388
96.0,-7.281812210786033,-7.925286733278712,-0.6434745224926095,7.577254285086425,-3.2838786334175856,-4.326180026132465,1.7509693550331447,1.1266272483706432,-1.7112333411255498,-2.5494107588336807,-2.808140981381055,-5.685410340718919
97.0,6.567882740274866,-2.9339861142062467,-9.501868854481017,-1.769771702926489,8.070197636545373,-6.183858133830673,2.448551481656964,-0.8898066473089716,-2.3149058397198465,-4.16119581157078,-1.8091769774678301,-7.943810969308761
98.0,-0.6015780374189544,6.207917891195989,6.8094959286150285,-2.845110666812367,-3.7443383255948097,6.544529045616205,-0.002985851266960937,-2.4845681065817025,0.6230245374334996,3.959646480884497,5.81236093854444,1.0337358342442968
99.0,-2.099315017351868,5.057085935922284,7.156400953274195,-1.4543440653983146,-4.659078338334147,6.068927853344919,-3.926643232664617,-5.1919774013474225,0.1795301675482115,1.7896449246922193,0.8019312286241607,3.48695157612746
100.0,3.0860048881927824,3.2551839960051687,0.169179107812377,-3.156718189891972,1.4358080111407892,1.6806286096638559,0.844696167425337,2.4104297515849646,3.3640278801812045,5.214938964905215,-0.009934017466955103,3.978363679424783
101.0,3.6218585321871717,-1.4878362585029894,-5.109694790690242,-1.0594939861307133,4.429926330452635,-3.246569420277974,1.7036617503384004,1.3363614178850431,-2.33338737572254,-1.7786734349920899,-2.1325766421186865,2.285809844216343
102.0,-0.003092814097969576,-3.0835330515541335,-3.080440237456288,1.5499791713894309,1.5302756912617066,-3.1066821539404925,0.3632019569053208,1.7597660503068964,-0.46396630192534327,-1.709942274399873,0.5555390119842702,0.8395573325258177
103.0,0.36714428590217274,1.862442556880585,1.4952982709782567,-1.1038573542422798,-0.568851465142802,1.652076967888151,-4.559701213707917,1.298475822743415,0.8372655843868124,0.6605969679425079,2.5438796068377627,-2.5385941340895797
104.0,-4.6433272706642015,-1.6739812083511383,2.9693460623129306,3.0987096992029985,-3.8104351208765657,0.6940360526210854,0.606758445194427,1.9402014841715904,1.8126588598958295,0.672041023068283,0.20308864010995697,-5.108868255173869
105.0,-3.6229355627933852,-4.098783842634287,-0.4758482798409722,3.8891710771898333,-1.5797758734290872,-2.327235669426398,3.957650930582077,-0.8177516041985964,-0.9747760013994282,0.8957420450165219,-1.2581711896259602,-1.9457825691727635
106.0,1.8274832485668036,-0.6428488412820572,-2.4703320898488452,-0.6334670526471633,2.13845029604541,-1.524923389945719,-1.1452554287516548,-0.8635529232273008,0.24971917925408915,-2.34401221308219,-1.4388287006850862,2.6237150504176983
107.0,8.506207687440929,3.567845703663804,-4.9383619837770585,-5.99189580165951,6.706695095134707,-0.7368250321251936,-1.6210199637170102,-4.4833780143504915,-5.213408970754804,-3.4950041251403094,-2.4959717734159037,2.4123903697144886
108.0,4.3253971939662765,6.544447938554073,2.219050744587883,-5.385290850013563,1.1115999882842995,4.408734006375105,1.1248337420712797,-1.1019457549514908,0.604263686343061,-2.139231647007179,2.33879726600317,4.444153493417302
109.0,-6.272792146457262,3.3011765857701736,9.573968732227515,1.4571760848824278,-7.947050764387461,6.468875393653018,0.7984607384776787,1.6455690245165715,3.2293716228220872,6.4882939068935865,0.780549602847465,-0.052098709630340245
110.0,-6.085267367337268,-5.535417409656736,0.5498499576806024,5.77778025045448,-3.342839792268924,-2.454075596651592,1.1902329650927843,2.9198424934284444,3.7450530647783333,0.10124868549534627,-0.11298010124274516,-3.9488916276540866
111.0,0.41945493348567364,-5.823427106612957,-6.2428820400986265,2.6616828173531073,3.3844246251842542,-6.065421549402002,-2.2259592611189083,-0.5511194432363502,-1.2539991638893841,1.7136790703441052,-3.5037084754115213,-2.72053819129474
112.0,0.9747039879946346,-2.48618530312163,-3.460889291116299,0.7843964861410964,2.1926735657530645,-3.000627808744951,-0.20776067937424159,2.439609206593071,-1.719176582422791,-1.0933110661001808,-0.5776572284342967,-2.716011224251856
113.0,3.297599373679712,-5.747408639769759,-9.04500801344953,1.2442026037586462,6.146194944670554,-7.422656756002847,0.6712247669891431,-1.3862205017491516,-2.639164325175942,-2.5372732547900174,1.9951292892905719,1.9977911349555761
114.0,-1.1821390129744271,7.501060111564113,8.683199124538486,-3.146759495576204,-4.9588751118491725,8.061734964000811,-4.026899591639021,-2.713988825440369,-0.40520795194636783,-3.754874068349093,3.5709114562501165,3.4069845670435748
115.0,-5.936828919283551,8.71782785988397,14.654656779167489,-1.3803071089447134,-10.245867433432176,11.727821176354729,3.19899303724282,0.1377378642927336,-0.6456366452327883,-1.7421830970251673,0.05358291025112938,1.9378514120294419
116.0,3.272909366244411,-0.17169905268653807,-3.4446084189309785,-1.5388691750681212,3.4041454754931992,-1.7735548332004516,2.025202958389934,1.0730951775298032,1.0503007861910838,1.3259584305735381,-1.0797388830543528,-0.43712498173927905
117.0,5.741902087796513,-1.239295784554307,-6.981197872350797,-2.313866580821762,6.321766883973284,-4.080588115401208,0.37776793907394945,-1.9732336338438694,2.6230734828668454,6.233626775112537,0.8192160421511829,-3.721305696686157
118.0,3.2314224986201996,1.3895523822234392,-1.8418701163966906,-2.2885472856377684,2.488670701246121,-0.2771512785158232,-1.3703480551971463,4.915402674823575,4.883034806608969,7.442478413837543,-0.7660488050665759,1.1497294997758316
119.0,1.723372357032651,-2.5010128065391566,-4.224385163571734,0.41642604430044666,2.995357904956551,-3.3341393077528583,-2.850572825114621,-1.7683832907379826,-4.75104322710442,-1.2193794518587113,0.38388911246655044,3.088724643992883
120.0,-7.504836911424265,-6.906198342710091,0.5986385687142093,7.159187124799574,-4.039407874740112,-3.2015869671955843,0.2587579402553364,-3.4089171274083365,-3.2167349067191573,-4.115297919202167,-0.15409872199432328,-0.8413024102978564
121.0,-9.745772998205554,-5.640023330339327,4.105749667866178,7.72922402951283,-6.920876215437891,-0.7333886530404017,4.300069706399518,3.125318881727013,1.535729743104528,-3.7155673218741936,-1.4583447986224858,-0.2595590898947679
122.0,-1.7182779583750314,2.638292681953896,4.356570640328833,-0.4989732397758173,-3.036880853838454,3.4549887731778597,4.464453895934725,3.6507737062223544,6.1331471690694475,-2.984899057782769,-0.38066536539306145,-1.8957889513667545
123.0,7.126969766856709,10.003855549726337,2.876885782869538,-8.522017939491993,2.1251793067788602,6.478914283742542,-6.069983909309054,-3.9659816365383533,-3.193855175245912,1.0965905925524737,1.317355905715458,-1.146194533516387
124.0,8.283247073920398,-0.686549600205824,-8.969796674126272,-3.829615817342439,8.630285309352773,-4.8662395765591535,-3.2739085471261005,-3.5980402353777468,-5.917567433423611,-1.7127319884618437,-0.6663998965880507,-1.2634944752993305
125.0,5.6408189045956405,1.931989783035809,-3.7088291215598073,-3.7345881198947133,4.685686360959082,-0.8456316640498769,-1.6406978642635541,1.6983091302851199,1.1953713283528442,0.2542441806627709,-3.6715571736025714,0.4374250223436944
126.0,-3.3312548554734147,-1.1120360704165702,2.219218785056911,2.198503518961852,-2.8335412448415997,0.5980112632289523,2.208269215496356,1.0128439402068659,-0.027865557966767818,-2.41620456152834,-5.69142242858328,-1.428079758092353
127.0,-6.367525070722273,-2.3462991410080085,4.0212259297143635,4.335995088768319,-5.163053659358775,0.803430370093067,1.7192312544133568,-0.39000599303834926,0.4887645800437448,3.299643394236046,6.452260817092646,4.067409863003594
128.0,-1.526908513085035,3.9971707817630335,5.524079294848142,-1.2561837719086135,-3.4832711470888658,4.724787496034996,0.5776351242195255,1.026701282033616,2.6141164834819035,6.121241379548082,8.423909156178425,7.143864961196457
129.0,-5.639434686684018,-3.4468195610592463,2.192615125624777,4.598134479208095,-3.9429107412313886,-0.6668601062257771,1.066900677143698,-0.27713177249946275,1.1735204684062164,1.6275783855691075,1.4246202888078958,-2.44539060307973
130.0,-4.319332238434113,-8.875401704964906,-4.556069466530845,6.568872064302321,0.09868046343901704,-6.681747711723647,2.566789035234662,1.3248434141154435,-0.6431556397533611,-1.901635163518781,-1.7641048545109332,-3.8735168374368945
131.0,7.093652988111374,1.5454205710069693,-5.548232417104508,-4.353866956943376,6.305126070977843,-1.9717759861899937,-1.9093363042602718,-0.08058537167066437,0.48450675555800593,-0.09808031641091475,-4.708125377586123,-4.651400580037722
132.0,5.594352828355909,4.168880919169434,-1.4254719091865748,-4.843028774213321,3.57299999375766,1.3992650644836893,-4.688063252360008,-1.1301586460144872,-0.9152876310094414,-0.2658177434294329,-4.545236253419309,-3.8062207841532394
133.0,5.564371390607785,3.1843272521776322,-2.3800441384301667,-4.340819680982772,3.953180925058181,0.35200778108531705,0.7745737925569114,0.6479716058098652,2.2883836460355935,-3.370818182847258,2.3161733767824266,3.754474260055745
134.0,0.016571701367237957,1.392723008441386,1.3761513070741922,-0.7539924583663691,-0.7048835449064172,1.416999673072504,5.516930799895049,0.7873359566540882,-0.236314814526842,1.04956740500876,2.4659871883475724,6.090578806551386
135.0,-1.065822124390277,-0.6066437167019041,0.45917840768845686,0.8620030184303074,-0.7949718792231293,-0.11417719367287393,-0.6680365015829732,-0.046580434887950925,-4.6102267677932245,-3.114354329670391,-1.1492989057640464,1.3970192408045694
136.0,-8.414522487093173,-1.6400516714532654,6.77447081564,5.049192992705135,-7.555155709847727,2.611562789723322,-4.924963758861736,-3.061078858228792,-0.650697712488985,-1.883267594336896,-0.36436990562950333,3.022914725351917
137.0,-3.9794269643148246,1.842857212308033,5.822284176622921,1.006851135212934,-4.866341720013475,3.8031087337041933,0.1717102459821711,0.04575460971885503,-1.7644573644182562,0.562146216349403,2.451708778400785,-3.274061480072742
138.0,4.084435672691738,-0.2919946647096633,-4.376430337401372,-1.8840733657127857,4.184557388506832,-2.3608582904436535,-1.063346772119609,-0.18101000154900565,2.0647120028588177,1.5222217825877533,1.297428119238356,-4.801610748603923
139.0,2.031939696405453,-1.8936403365121495,-3.925580032917602,-0.061857492808957804,3.0133522955698315,-2.8572601625442315,0.026661598289491883,-1.1118091657583409,2.054604376558839,2.323345821317605,-5.002824983165574,-2.5312898287446592
140.0,-1.1460435901415775,1.3951526339597642,2.5411962241013386,-0.1204617948652168,-1.883419194215353,1.9395142655035702,1.7811392997841735,3.491288038725952,4.606969004176713,4.094269864145212,-1.3758355461942842,-2.500949721124878
141.0,1.2577286103865668,-3.007148729844502,-4.264877340231089,0.8784728357115248,2.805940620238558,-3.590222473495946,4.650346581256097,0.8203810811623136,-0.8140383571254479,-1.2507091287905925,0.22584353544263747,0.9625972021025273
142.0,-0.8465561965716706,-3.9524643754191446,-3.105908178847513,2.406336276535751,1.1010909275911298,-3.567686110682556,-0.2565773219598779,1.9327439508310176,-6.6175015327170845,0.7445052882994713,0.8176744238513337,2.4888244029186044
143.0,-2.8700265138911054,2.006573722900402,4.876600236791447,0.4445687636595521,-3.89778510540165,3.3974002739454336,-1.0934431750333098,-1.727217715954186,2.7064929883498827,-3.879037193169801,4.115119632672294,6.149232578770858
144.0,5.165774895948159,0.33854067882646777,-4.82723421712176,-2.7315907214913078,5.052766017270402,-2.2143706914669843,0.6546952648304014,-0.614109455145196,2.7873995592811944,-3.005999151150925,0.7949120103906901,3.4682063316079095
145.0,5.609896164927765,4.26857092318255,-1.3413252417452535,-4.989497199170149,3.452935771477724,1.4911426671164218,-4.13376313959442,-2.2437702113542186,-3.278703877979067,0.2920348842233156,0.11180064674790037,-2.895171726809235
146.0,-6.052228462605666,3.3658903143015935,9.418118776907262,1.2998806514364887,-7.759605279606123,6.419557354286,-1.473918595234947,-1.783980407983091,0.8297550182070004,5.205071017944144,1.1737296960895132,-1.2643415531657523
147.0,-3.6676275219354855,1.5483906166279522,5.216018138563494,1.100723152992912,-4.468562725162257,3.3329829876631294,0.49696628273349885,1.4779927213951296,0.48487747270838716,1.2963138816037743,0.7234630460752234,-3.3202348629974248
148.0,1.9460917068668684,-4.291138885084574,-6.237230591951347,1.2181896268853196,4.14184944836041,-5.231978868988989,0.3853322576531249,3.6769337423418764,1.206845888878632,-2.13714728467023,-4.998727761603767,-4.461553811705189
149.0,-0.2348581829143252,-3.788724954686186,-3.553866771771754,1.9826154667123497,1.7089528320973018,-3.715840174146533,4.295439747907582,-0.5023309903966324,-4.523864544185723,-1.3532380183151302,-3.133675837772941,2.851070879602971
150.0,-3.6362275134308537,1.766584361054169,5.402811874485065,0.9090652796678766,-4.54855926771476,3.6193048833870116,0.8766967698816304,-1.155818496249307,2.4381788537009266,-0.785264292331556,-0.5804947005866328,3.1915098371056927
151.0,2.9458422731526186,-0.683476948666675,-3.6293192218193164,-1.0755092692090167,3.2592707662526426,-2.2018613210826827,-0.6194603847240769,-1.2073215097483,0.47394505109300045,-1.380127689164427,0.4154722676941629,0.8259935398390645
152.0,2.5057499036083364,-0.1071249383509807,-2.6128748419594117,-1.2209658143979496,2.531757908434183,-1.3291151402840216,-6.126001483963504,0.5963364374571308,0.8609636585544603,-2.092951895952571,2.5714472505516204,-3.3693589451979764
153.0,4.744278631116003,-1.3864341092933483,-6.130712740409448,-1.7008545110015851,5.410781294574531,-3.7301270577761416,-1.1979096921198626,-0.7281146081699452,-0.3287594675082639,1.6798688404544029,1.8009177666098655,0.2695504895860309
154.0,-2.730296073370738,-0.2050686905110144,2.5252273828596534,1.443729103330453,-2.574356137982024,1.1082722254249466,3.718369820361446,-0.06524014963041473,-1.0328401840167334,2.758798507300061,0.3151066050305378,2.368643101863108
155.0,-3.2497836662933115,3.263287127413854,6.51307079370714,0.04479317738723368,-4.825855503041118,4.915052132488299,1.052330804780605,-1.800335594305336,-1.9262194967738286,2.2823898918996512,-0.3731385408969625,-1.1712089534578274
156.0,2.638463126959609,1.2072288469905605,-1.431234279969026,-1.9536038546250616,2.014201309290304,-0.08392518154920126,1.7416981692731959,4.514698872208119,-0.031185239533392917,0.11711903935207191,-0.6660534796879294,-2.329229161305917
157.0,-5.00798044015165,-2.727301341943626,2.2806790982080365,3.9128178000120735,-3.663179284633507,-0.2722569152255858,2.877320058319602,-0.0004895945624880937,2.868494725816759,-0.5901469108703798,1.5367673653765748,2.4388889225840664
158.0,-0.5283805556910539,5.095294676314696,5.623675232005762,-2.31825453403384,-3.094937426852701,5.390500866028346,-2.6672244477484526,-0.2578049315289131,4.1201801416600565,-0.22561645017110932,3.2414896971512555,2.259200727938627
159.0,-0.39599171895110147,-1.7563963280528183,-1.3604046091017052,1.0422509227004166,0.4610316054251621,-1.5275338486959995,-3.605398434135329,-0.8681708168647103,-2.7817864515645097,0.024785618346773175,1.6125603366781895,2.4294330509652466
160.0,0.12497116534525143,-3.8552819187216643,-3.9802530840668613,1.9129006975617107,2.0277827743566483,-3.9673136664965707,0.14342072416003804,-0.380537001571837,-0.5544395737919816,-0.15465255280626988,-5.446570234937536,-1.7864835340949852
161.0,4.563570774506268,-2.1153013152296074,-6.678872089735789,-1.2507151330790163,5.671749148659924,-4.44896763994274,0.7352700341924032,-0.30934625280528827,-3.2762163645205336,-2.500311315192653,-7.702982311106338,-5.6438737012659095
162.0,2.112477684144532,1.5065364053871224,-0.6059412787573435,-1.7526835423796636,1.4082345913509537,0.47582551350818747,1.3767221434985057,0.1561053575718892,1.554612646821743,-2.302127106459205,2.2738333166320075,0.8098120029618419
163.0,-1.9620032034237065,0.42100296332186776,2.3830061667455347,0.7517350591375727,-2.2010863453510146,1.4289174140944114,-0.19947104592365195,-1.621666887559707,0.828292924485921,-0.5020518851026406,-0.8405196585850554,-2.3165282917486336
164.0,-0.3655507351865346,6.714583243541893,7.080133978728319,-3.193271957250273,-3.74810508845342,6.929113972564609,-2.3183643435715635,-0.06981422578669075,-0.6724599274906898,2.5014682520180633,4.370171133956292,2.4655115824761125
165.0,3.3991107266493925,-0.03333321597523131,-3.432443942624781,-1.7056927370945736,3.3945673556903877,-1.6938460406199667,-0.8456187360878216,0.59422118411737,-1.5643388499895834,-0.13163120996102373,3.7130271804928396,2.6576803382058922
166.0,-1.3319775066075978,-1.989190829960512,-0.6572133233530331,1.6299895238818602,-0.2768691477738069,-1.3557773729245213,2.6954877790233227,1.56068401355679,1.5687962361271208,1.0493162139986678,3.030276140555167,0.5211417346826406
167.0,-4.785452618478403,-8.516419810243699,-3.730967191765294,6.689001109052253,-0.5451357203320917,-6.152347159852393,0.5661653590709379,-0.10920665214407888,-1.689721782977159,-2.634780757941284,-5.813153405036429,0.05754217578723564
168.0,-4.951171527715842,-1.963602044701506,2.987569483014416,3.4849824665036073,-3.990311268952999,0.4820846735044475,2.8532610213437097,0.42174172573484664,1.292555983646618,5.630026871066373,-0.5138996559572533,1.1575181835500625
169.0,3.4888507374791407,2.414240776726812,-1.0746099607521857,-2.9332063684888032,2.2546985429016777,0.633763720063207,0.3010002607346902,0.30721518817907595,1.034939077267663,2.436992945880934,2.4917145261997202,1.2366508965033862
170.0,2.9363807582941495,6.041622530653234,3.1052417723591956,-4.4778925399085825,-0.040388532313070935,4.607570866261419,-3.493322748610522,-1.0420092087670507,0.20768966839992176,0.6612043455440773,1.4489683935210427,-4.175656317850596
171.0,2.479804512845799,1.5965625325543078,-0.8832419802914308,-2.1108429144086323,1.6396996081948818,0.38345040046376466,-2.846825870131261,-0.49244115939059496,3.0845930971705835,-2.2582030998606175,-3.7450614950375862,-2.259856756558227
172.0,-2.2881361747872777,0.1038101385349619,2.3919463133222143,1.0955313064955248,-2.307578564312408,1.2715745991534444,-0.14790284002475462,0.8381715857707406,1.4641652149107247,-3.9761896305297437,-2.3886137360956883,-4.109523694178556
173.0,1.1700198014234804,6.05691630083082,4.88689649940726,-3.6101471720921054,-1.8265247139407046,5.497842304172866,-0.6437611523618376,-1.5808051176566327,-2.6321260027875435,-4.012380391959628,2.7277580434845268,2.1696430811081227
174.0,4.518493715987557,-0.34998982425519715,-4.8684835402428055,-2.0777342869692035,4.649973829014343,-2.655784518063768,2.778149469609527,1.9793463316876472,-5.5715074138845555,1.7873866313771354,1.6504179147926852,8.501770833769571
175.0,-3.5822729337802786,-11.573665899498357,-7.9913929657181395,7.591130672728303,2.24565831863155,-9.743028137364808,4.9241009446204345,-0.8652316680211631,-1.1565908112124803,-2.236110640392469,-5.0021050234762265,0.8811544949492722
176.0,-6.952849418062513,-7.233106648338117,-0.2802572302756574,7.115455471109924,-3.3676547071921905,-3.7908443398727476,0.19021148962094392,-0.04823349939029113,0.6828720757561382,-1.536444500514336,-2.0831881322320465,0.25744623712420855
177.0,5.468175699464228,3.8217330585545257,-1.6464426409097788,-4.612432510422924,3.530540104150002,1.0543639651253716,-5.790960821889166,-1.9842959196217507,0.41433805098654153,2.9164845533508608,3.352406028807594,-3.8782481834785214
178.0,0.15817119185118778,3.575994175188444,3.417822983337191,-1.9051768582180773,-1.5763962193023164,3.4604640320517,-0.5050483473612268,-0.3202698901500702,2.242648016289631,7.319195485971999,6.89393344158249,-2.1676741116247147
179.0,-3.3565909651337966,2.982707748546454,6.33929871368021,0.1527414306438022,-4.875253747213139,4.698281555116143,1.8162696747867657,2.9026953743241455,3.957974319794052,5.375638818558528,1.9088542930772228,-1.78485430428422
180.0,-2.0522503413979845,1.4282160442589498,3.480466385656941,0.27647250260466083,-2.798175748451827,2.4878088625515096,-1.0073696837493331,1.9259247533422856,2.125025310796362,-2.3361066805622506,-2.684406296046662,-2.4408471408809027
181.0,3.049714971836969,2.0261235648062925,-1.0235914070305983,-2.500511496750239,2.0783901743504636,0.5345764789538974,1.5332471640930108,1.9098241976488382,-0.3979046146781726,-3.9590063821764394,-4.995878780690195,-1.3400171751489813
182.0,-0.03917209480222117,-0.4779682991220485,-0.4387962043197198,0.28792717807390555,0.15905269863191607,-0.49970289033229487,-1.5674384133916577,-2.599795578659822,-4.1358849877168025,-5.177947855385863,-4.958525465414981,6.3229558557252705
183.0,8.15721418516654,1.159178108915248,-6.998036076251236,-4.636462909909297,7.614990199376695,-2.875038990710623,2.172303293119147,-4.436158352775143,-4.489370570499728,-4.152978998355743,1.6366026916951144,5.417012340028368
184.0,4.427801557283159,2.3502188462290867,-2.0775827110541525,-3.4510367385332628,3.2931096412721845,0.10899388752766193,-0.30474380659058087,-1.0632547507542327,-0.7254696134253757,3.0349933780832172,7.438866733392311,2.95035759891356
185.0,-7.005583202744187,-10.158346818398194,-3.1527636156541536,8.597353211728526,-1.9588011478554537,-6.678580894897124,-1.326579754741378,-1.0237348967095945,2.3448119373663183,1.0076125776544549,-0.5082819871747071,-3.4092786788707987
186.0,-5.045898296796004,0.4603756638304688,5.506273960626345,2.3102045472932784,-5.301471308902083,2.96023079645997,-2.4469440070617923,3.8655449225422123,1.250018971398922,2.5421149169916477,-3.3363097583898425,-7.363134323753259
187.0,-5.433087910568998,-1.0650931814163274,4.367994729152641,3.270494670510792,-4.9200213273699545,1.6240741478896243,2.0654645590968617,4.373144378087586,6.04304559493316,3.1870510052940286,1.427069245581543,-3.189258842117467
188.0,0.2162334283109142,0.612373107896556,0.39613967958573015,-0.38920007585492844,-0.027662292183822323,0.5487609616859195,1.739418344631322,0.37444840414400904,-2.4613626816501886,-1.2578987293210013,-1.075065711456611,2.1657201117673495
189.0,1.1836881639627275,1.3877040303886354,0.2040158664260835,-1.337883818048113,0.4726148189015275,0.8330050620550917,2.981363694968922,-0.10190402569888768,-1.032758014573689,-2.541094793881358,0.3165660152791237,4.120151787436737
190.0,1.6929765033058084,3.9273234425007315,2.2343469391950608,-2.863940995676269,-0.29223107378928503,3.11159988071445,-0.3217225932135831,-4.2484970695271675,-4.287747283383349,-2.3275586307957816,-1.7594055869520027,0.8872450084791317
191.0,3.02311375267992,-1.7817431175697758,-4.804856870249657,-0.5995058385547041,3.8858810362123157,-3.346367707025138,-1.175236925101084,-1.0955888589000802,0.6044652478974082,4.23046888063799,4.80526126455762,2.6763819534062687
192.0,3.456349100122344,3.9418300770129573,0.4854809768905559,-3.6815468173412955,1.5294138198593155,2.2350139841043193,-3.594160073257182,1.4548164569222053,3.5889003136481943,3.0532776687157037,1.537229312814813,-3.9784607135410766
193.0,7.062431344239424,3.3588577964446182,-3.7035735477948655,-5.193897201297466,5.343744418441595,-0.2339092709275923,-4.862734654158202,-4.254067808889934,-0.5330828756521702,-1.450772009556017,-2.622165242825602,-1.1359532713950728
194.0,3.440206307126745,-3.9283771656929733,-7.368583472819801,0.26466970899713027,5.443214977504521,-5.635215285019934,-0.4174474921039846,0.6285797836649956,-0.9351282521101113,-4.7226521765256955,-7.521222501781362,-2.636236975823733
195.0,-10.72238855600039,-7.720927065641146,3.001461490359185,9.250757283615167,-6.819606382642603,-2.3493088577663572,4.2177549467433195,3.8529924033791776,-3.5588071970155952,-4.986027019239891,-1.201961579003799,-1.0784017086140003
196.0,-9.656285814909356,1.2899763264419257,10.946262141351227,4.145017555923034,-10.331089734119073,6.127977124919705,5.517862464697464,1.7671791717670753,3.96458521696714,1.9314465741512925,2.0113031220607622,8.93937235493895
197.0,-6.3726101323000375,0.23714150102410453,6.609751633324099,3.041500067280205,-6.513229529307413,3.4357174084266098,3.1998304165905926,1.569189208334825,0.6028977755785876,3.8964764728200056,6.34499011973092,0.1755347876071207
198.0,-0.1325191103141803,-6.9609737805943155,-6.828454670280182,3.5303539970322664,3.3328326687292376,-6.877435777251469,-0.3007446465209298,0.18426601497439338,0.706759143050986,5.0558406992801554,3.4953474409065004,-4.766007137465189
199.0,11.995692159224678,8.910161119811239,-3.0855310394134854,-10.46304734410346,7.530256376610116,2.935677436023949,-0.507084154959316,-0.5293764559486053,-0.6600461594065277,1.1201747586312218,1.510628624136194,0.44796552845610216
