Time(ms),I,II,III,aVR,aVL,aVF,V1,V2,V3,V4,V5,V6
-200.0,17.38525001312569,-2.351779775904303,-19.737029789029943,-7.484925749466259,18.54491153742486,-11.081014040714937,-2.7293076337153366,8.36316876579474,7.774549334064503,5.170576982206731,8.707984327177247,3.1737753282384262
-199.0,-2.851718806956571,8.683466969800214,11.53518577675663,-2.873100623078424,-7.1351821575643966,10.144987625474112,-5.47388600121494,-4.009377082953928,0.09160828957777278,0.38580471551001105,2.611824327979485,2.0633117637868814
-198.0,-14.09050340217606,7.270845279628231,21.361348681803992,3.383500577181842,-17.749239176609162,14.347358361791454,-0.4862051919585948,-7.777830162831253,-4.979569207016321,-3.2860303978586156,-8.147372478617644,-3.8460940302196476
-197.0,-0.27102775916601196,10.663390404330471,10.934418163496261,-5.217480267457681,-5.5484512599064555,10.749099437054747,-4.152623218638854,0.8550685067476369,-1.4563520180425815,-1.2364327788912353,-3.6764639693676937,-3.2847393682625103
-196.0,13.044862545472057,1.4281089901341257,-11.616753555338107,-7.2596563769317894,12.305989570788974,-5.066152959476604,-1.3337771649908383,5.468738462505561,0.5257594656684541,0.8895778472898705,1.5816286418283603,0.22082213684406726
-195.0,1.493860949248031,-17.740018382158688,-19.23387933140669,8.090935526715048,10.338221368977589,-18.458736014057937,5.0282450058183406,-2.1025143564895385,-4.961552447490806,-1.1266753580466258,-0.6055041664170668,-3.6212234787385045
-194.0,4.056260941933129,-2.707594623016112,-6.763855564949157,-0.6416702447890894,5.382195506216643,-4.785820745824472,5.186909724905711,-3.4199133924442577,-0.6774706503175651,0.17306329601834802,4.1385014573689665,8.608259528128297
-193.0,3.3460081254335066,16.120710553533197,12.77470242809988,-9.71586504708181,-4.745686064151038,14.398665214005788,0.8227839591709434,1.4324602650865257,2.8822999690637174,3.959660573638413,4.791891295795341,8.277184290489073
-192.0,-1.5608625018722315,-3.8250591227341495,-2.2641966208617834,2.698099237100891,0.39536206941885554,-3.0124694644977277,-1.340729737289072,6.557935953214269,6.952986790391874,2.4909803854068677,2.5471312610110166,4.251448907251126
-191.0,-11.006385403127616,-8.785324604780268,2.221060798347468,9.8944263635443,-6.572813848596686,-3.2453377948115256,-7.275868567941553,1.3747396662981588,1.824075454143458,3.239368529463283,-0.41125693223355564,-6.09441217881835
-190.0,-16.930225737887437,-17.601266401437844,-0.6710406635503383,17.264569357899635,-8.090066166233537,-9.092499653480726,6.884963713376534,-4.687779541869588,-2.9112746188387764,-6.022178368079693,-11.057618010475355,-16.883473612827004
-189.0,4.970460169546195,10.081127799321091,5.1106676297748415,-7.521009893977671,-0.1098322820839841,7.568760528356378,-1.171670949611253,2.126937661489842,4.3736940944990526,-4.31909666577883,-3.6709103700705024,2.1436570135796122
-188.0,9.749854753782747,19.0425678193427,9.292713065559767,-14.382527972197607,0.18816354851314776,14.147591955120504,-2.2415710901454338,0.48061256937929386,1.0163633178249103,4.542311350144138,5.063522314598431,1.5938277434634136
-187.0,0.4039492935670319,-0.10288279298221781,-0.506832086549472,-0.12844162752880273,0.4134065800446107,-0.3205902034198225,-0.18141334008784726,-8.503658072022802,-11.23208200733197,-4.3678579359961285,0.48970617376786807,-1.0326021073880631
-186.0,1.6268977353903278,-9.692167315336249,-11.319065050726625,3.9810599573222065,6.507435889919057,-10.520690936643376,1.1037431573484915,-3.8206807821049553,-6.972041788768534,-3.3618842230598327,2.9348224540363566,2.6993774341737895
-185.0,16.87352791206294,3.431949436696959,-13.44157847536587,-10.203704491713708,15.18987858647991,-5.022326901247314,-2.011121672183551,5.090347845362843,-0.3615966894534006,1.2595206286077683,3.7458648967739707,6.478439043433886
-184.0,-2.570973907389365,8.840802851664215,11.411776759053902,-3.11003150480493,-6.959975485139117,10.183689491423078,-2.70837819419574,3.9174799368627706,5.4123079303308534,3.7459608133142845,-1.9330264438260403,4.720343356899797
-183.0,-9.50739646613142,-4.228654586356477,5.278741879775245,6.889060077996344,-7.439636782774191,0.5004424375538754,3.0467539914699775,1.7885641957966754,7.62719740219632,4.722179889022077,-1.519260935587778,-0.2781796831451353
-182.0,-12.934137240713207,-11.806910506830885,1.1272267338824777,12.389664537346052,-6.996196586290494,-5.286960025878891,5.279796348413888,1.1757021141746273,3.3619660635027726,3.9946097001011465,-2.6322443983438166,-4.019127882511762
-181.0,6.20486184757184,3.6915507232960625,-2.513311124275898,-4.927125652645003,4.318038573638834,0.5643101243623132,-4.13178632503082,-1.3682091030901704,-1.9267394335569943,-4.616935224939589,-0.951602181500319,-3.8738030025486156
-180.0,6.881684408931726,6.126018855793577,-0.7556655531383321,-6.476902046741248,3.7811338764760984,2.663155355693568,-1.6948304249410195,-3.610688184467759,-3.7243670217658478,-6.1687537449020535,-2.92874213882439,-4.500918800209006
-179.0,4.727492717914684,7.737206277454655,3.0097135595398066,-6.275861303622229,0.9034477009101503,5.354928212999261,-1.5389377382023253,2.2757509013512136,0.15985038298453613,-1.3383329272729831,3.729898963523266,0.29896914291181087
-178.0,-6.706342296462384,-17.80801214272134,-11.101669846258975,12.222188403502802,2.2450296863173436,-14.470153211440618,5.6652070632705485,1.9937304786171581,0.4874920656966335,2.3512729379846116,4.735688543562209,2.2796376399892693
-177.0,-18.145788176774946,-18.039112933459943,0.10667524331506772,18.064436453715857,-9.155874320866843,-8.900562925759663,3.452659593849232,-2.4000788137760427,-0.788565127175386,1.4661379343930923,-0.3944567382813948,-0.6918916802427189
-176.0,-0.8443010368109909,5.27707320906808,6.121374245879187,-2.161000082678914,-3.5124641120840225,5.686751018942242,-1.6361291074498574,1.7532673878411666,-1.7566349188250312,2.5271816646469274,0.4143327089249685,6.268089331455115
-175.0,27.82111872495205,24.401009200321976,-3.4201095246300217,-26.131984216841406,15.667543683211989,10.476415533407208,-1.8857753418042074,3.9340035759134233,6.469180831765847,6.4851351485172275,5.163117481752032,8.847671472296955
-174.0,7.619670031031385,10.781454969992163,3.1617849389607757,-9.142044678232821,2.192819577890173,6.953339146279661,-6.256881730834094,-2.254987832864198,-0.36753792190126,-0.11302480362877798,-5.126961851018946,-5.363510056442256
-173.0,-18.20431775818487,-6.210708336901128,11.993609421283688,12.186489829788647,-15.140592252533509,2.944843623369594,-0.16045501759855973,-11.082346171772162,-7.228482830503133,-10.577911264745303,-11.186643787129919,-8.86631239024407
-172.0,-16.62341691259165,-9.918618779340921,6.704798133250633,13.247722376270293,-11.63216509764857,-1.6416546857157022,1.5682244837832877,-4.23358020045529,-3.8311811377528806,-7.172646486482424,-1.6377896302130672,-5.025302200370041
-171.0,5.73401602627748,-3.9257921646397334,-9.659808190917321,-0.9311706490885676,7.725587968080669,-6.837909206455548,2.985316092085423,1.879642489943147,-2.065889357246913,0.8386812626237541,3.995282222581762,1.874839729750013
-170.0,15.893512263806244,-0.4230092580742033,-16.316521521880485,-7.688487602313793,16.133288917471088,-8.345474120850621,0.596952120782742,11.17034663771815,2.1853831957767285,4.14158518398092,6.588321825690181,2.848353561410377
-169.0,11.073266033628911,6.297377906161285,-4.775888127467595,-8.722609154207156,7.876467517317835,0.7788136851274237,0.8270178010318665,9.648865270687253,12.794253153947375,7.550277910358537,6.819206189464875,6.876247701358558
-168.0,-5.223319847251961,2.2096275677480524,7.4329474150001635,1.5437240919446629,-6.29335734987494,4.837724642567702,-1.3940685752099715,-1.3048863560824806,1.5723042578066337,2.2563742242527054,-0.8699614518910401,-1.706278182051241
-167.0,-0.364923313843998,1.3973479232495372,1.762271237093671,-0.560903987582466,-1.103036670657374,1.5993883947629985,-1.9430827573579605,-3.9851565529229114,-1.1493529134802913,1.042031594054426,-4.528312432936564,-3.574936959733549
-166.0,-3.559220525332402,4.864699476335303,8.423920001667776,-0.619082001511118,-6.027197918268921,6.591802583095858,-0.9580671240157049,-1.7134024508632164,-0.2949175997886746,1.2544241118772725,0.7055328549573581,1.9044747701264495
-165.0,-22.478307081661296,-11.763674408243471,10.714632673417807,17.156697709530334,-16.550799149699984,-0.4903800837154444,1.3708847529486459,-12.587774272517178,-11.515530459086763,-10.60474652146979,-12.241204322676047,-3.5258871164203986
-164.0,-8.688688975934237,-23.337192735141688,-14.648503759207538,15.973819634482837,3.026862485101516,-19.030926159605368,5.571191521135773,-1.710745196250059,-3.3944605853553247,-2.8582106456046272,1.401815842524318,3.9527178953876847
-163.0,11.375245079225586,2.992316165507737,-8.382928913717942,-7.218029189543183,9.847629164091941,-2.651633051325912,2.2060950204306793,8.40860087133833,4.309974827041472,2.8163418638054023,9.107947575753636,2.728955255927743
-162.0,22.48403264213918,18.30848613283499,-4.17554650930423,-20.346828404465924,13.298202016340817,7.029703569959855,-7.559248631968202,7.41403679256843,5.568626458197658,4.402414432859029,4.430723537664663,0.21367285985475232
-161.0,3.4654027628813147,11.552445841512844,8.087043078631535,-7.533871945123742,-2.342415436685984,9.855491199430235,-1.428320098869107,-0.8744388138615609,1.6536492558243965,-3.171423914013216,-3.3576755396281697,-4.48817178759243
-160.0,-3.8333159300900217,7.3262509219868654,11.15956685207691,-1.7679227947752478,-7.448616519962462,9.190574926908265,-0.587459084280864,-2.426771356815752,0.17992509561807912,5.724075967710597,1.5393873429873821,-1.350464878110645
-159.0,-9.532133674534581,-8.664061856089022,0.8680718184455771,9.15781689407062,-5.150713690731765,-3.8815611227736726,1.2081866267617767,-3.215458984283092,-2.6680745988815344,0.8382390779809956,-2.3147131653766797,2.6639035000170086
-158.0,-11.943136523473996,-6.126814812415278,5.81632171105872,9.017058798295471,-8.907010288533769,-0.14666222801698936,0.7168843405796052,-6.477268740162417,-7.251528170515819,-11.911568366767316,-10.842511706668155,-4.874099907981975
-157.0,4.309996578689361,10.412449323688826,6.102452744999448,-7.379698773455061,-0.9217953452378915,8.262600690724483,-1.065958415194186,-0.2421513960865913,1.7545646309073728,2.396502642281801,4.780416956966852,-0.22148265607325673
-156.0,16.02058911426942,-3.7131748697451323,-19.73376398401461,-6.174807124979903,17.852024757983283,-11.716325723052641,2.0416236995954535,7.677492734834219,7.899207744937866,4.913247485172468,6.23791284057429,2.142432831274447
-155.0,8.68840307474041,-15.513991879691263,-24.20239495443174,3.4654925763218687,16.497636722374022,-19.844257069602552,3.027057118079516,8.878185667879684,2.6094561560132297,1.3691115951079642,-2.1172324868433843,-3.9843251716667467
-154.0,-6.806090145413967,-9.278886559050761,-2.4727964136368126,8.009153428407798,-2.1960839649336172,-5.852372357032395,1.3473131453544869,-0.9832687678559919,-0.7526132196865674,4.704089568525024,6.4700047132928304,7.303933948793608
-153.0,-10.007632874691264,11.617168330900403,21.62480120559172,-0.7686195094839725,-15.849383149932168,16.575266195384696,-4.073356589658703,-3.171136854092274,0.18747560004247643,3.0020998393201204,2.396105161779074,12.116818428309205
-152.0,-15.195064761645957,-1.6631775754875049,13.53188718615855,8.37605500509265,-14.321532180913454,5.895905638805374,2.817932621337807,-7.858281540164418,-7.201006194494666,-10.87191238043628,-11.680006297615343,-5.243842894759254
-151.0,-5.171972262405958,-3.833225343075376,1.3387469193306796,4.5178804435091875,-3.216426401362936,-1.2030587509944795,-1.905313918081611,-0.3530358129046762,-4.97081449889252,-5.008318198364991,-5.075047183540093,-10.936406328305635
-150.0,11.431000697978867,-0.9357496673643237,-12.366750365343112,-5.241082435474339,11.856574749285162,-6.684954119155857,-1.3126438942256096,3.3118671472768764,1.4865608584295007,2.1244546860627396,4.994873529439523,-2.000141465673684
-149.0,19.894842960218504,26.590780224168867,6.6959372639504,-23.24174525739256,6.633317228062869,16.687693146260564,-5.23718680451159,-0.12834871398723124,3.378086756281465,3.7945300339043353,7.1860298796886655,2.5198805333587617
-148.0,12.646705901395825,23.757877798176413,11.111171896780617,-18.202304522624626,0.7195553493521878,17.399509981684396,-3.3749035356130097,-1.618211343327737,2.007716736434329,0.6712036255699658,0.5875021994632794,1.9752838887023156
-147.0,-10.348718236881615,-17.88751534662205,-7.538797109740407,14.121710272736864,-1.378525626268969,-12.668790227976592,6.342410119777866,2.1687573170697245,4.9120962822779495,1.7697714229284989,-0.4110177061179361,1.4289942807835372
-146.0,-20.701771153609325,-32.98549379268229,-12.283722639072936,26.854806712612284,-4.265317250072734,-22.66710017775062,7.235050856058448,-0.1585508963740665,1.1228824855494253,3.0440068440703474,-4.5295565700783955,0.09710879569420694
-145.0,-9.186113036832388,-10.173925259960065,-0.9878122231276576,9.701205638805998,-4.078914740760424,-5.5325457853319815,1.7269688540080868,-4.3601686588524124,-4.684262755605506,-7.179152944079222,-8.917162800559755,-7.218478928619938
-144.0,7.546611292558711,10.095900435608636,2.5492891430498963,-8.868310545600721,2.5200473307312246,6.292658486407117,-4.707364153060464,1.8193098042225573,-2.4823551317308516,1.8800544932045011,3.190081167986039,4.7993625552444685
-143.0,16.376078424924398,11.514648683226982,-4.861429741697479,-13.983206285265688,10.64531921739374,3.2939707094638258,-3.684725000268103,7.752335362354399,-0.3515935605621259,2.535985320640652,9.60092354300592,1.5107099950225704
-142.0,-6.736536151413691,-1.7484621252640604,4.988074026149553,4.290036436812773,-5.827444775581421,1.659328110930991,0.7905018538888471,0.601657863087496,3.233870860238166,0.5117647515422971,3.512671996932208,1.965374426169982
-141.0,-6.6801948512921445,-1.9152163392479933,4.764978512044105,4.348587007009386,-5.7573917638402055,1.3758719837659266,4.165281569536705,-4.9243780918133595,-2.5600205566715575,-4.391735649091396,-2.186027814791326,-2.075902361541659
-140.0,7.87653653722497,7.577999635793629,-0.29853690143131306,-7.755280937607974,4.0597898938223835,3.6584953615539018,1.3485549562768993,-2.706784422134596,-4.853818814535718,-2.6807840753703096,-5.7844116981426374,-3.2439187156008362
-139.0,12.631792691012196,14.016746747385728,1.3849540563736613,-13.355610399804883,5.598619676458647,7.710120575897934,-10.331854586237936,3.5067661314187846,8.631828301660391,4.97415365865416,-2.325267293930405,5.681650133859814
-138.0,-6.833941201276317,-5.022723869150832,1.8112173321256757,5.89139122757452,-4.349070013002715,-1.602063720908765,1.0550464862392372,-4.505213718011421,0.8126494589241076,2.1786634056246177,0.5920496944876983,1.7690775926561915
-137.0,-11.408145434965482,-14.08522324539728,-2.677077810431614,12.782074510321001,-4.318584392170629,-8.37784357579213,5.461579469523837,-2.8506572242701727,-2.088371690654528,1.6427281054834846,5.221564708549376,2.650570004972804
-136.0,0.7809753182202481,-16.524736962792044,-17.305712281012166,7.9016331786817675,9.083185547606302,-16.907485342528215,0.35843719287790377,5.925962513753683,-4.489700673637765,-6.67819677707114,-4.39826470063058,-9.813471304709571
-135.0,1.3348527879441172,9.086830565762739,7.751977777818624,-5.184772282309054,-3.175912639076028,8.434408212488806,-1.7152037541012548,3.1479710831290815,-0.8804048356216856,-1.4214532002347808,-1.42111331492205,-5.695617128903044
-134.0,1.685338159426618,18.474575138732312,16.789236979305585,-10.133969355452082,-7.604180985138159,17.654116831755946,-2.5977617819213155,-2.297450766557807,0.9546913171675107,1.9686750090164638,3.382164685268358,7.444411088044533
-133.0,-1.9224937870509744,-0.9450481702746814,0.9774456167761318,1.4592205742340818,-1.5065387667969068,-0.035865246882544,6.285241501846846,1.2779768720827094,6.62594163838077,6.492020218535794,6.275122138664525,3.2986041103846424
-132.0,-5.9861054078139375,-14.602590221775127,-8.616484813961351,10.24316084294809,1.3355543867422672,-11.661182965551767,2.6407183081714973,0.0496719345432276,-0.8304122594332004,-3.4511579003672916,-4.748077569485286,-4.084920868486602
-131.0,-3.72617028075338,-2.5585825624324077,1.1675877183208705,3.1728083623266334,-2.4249658566633503,-0.6714239367884138,-0.4686254961382528,-6.649695918464226,-0.14014756512671211,-1.5783871804861889,-5.034374385267605,-3.777064614053359
-130.0,14.20315359014462,18.04539680613542,3.842243215990813,-16.09076402643109,5.207893528544084,10.96362379645355,-8.02606050580407,0.525102548417697,-0.6585432330865821,2.047248401064092,2.2441201800383572,10.154862543592557
-129.0,15.464224489620658,6.544585586423152,-8.919638903197326,-11.04687603328227,12.149953971428907,-1.1705320249875326,-1.3119396727203814,3.3337103605918186,-4.534892921518256,-3.1486579057935424,4.147629783821591,3.284631097164801
-128.0,-3.4792108704107685,-3.648855825237318,-0.16964495482626507,3.602200755077514,-1.606148085301843,-1.8917309823505275,-3.626405484021925,2.030608895987105,0.9003980724354421,0.4981247598588072,-1.7846304793082413,-7.9736660173521114
-127.0,-10.041674892155639,-13.87299310260138,-3.831318210445513,11.9172057761913,-3.123170864325365,-8.830563758215627,6.816328001655146,4.193274722719047,3.9326585618782652,2.416664596869802,-1.1673965841367389,0.4136506348172486
-126.0,-6.09185058113405,-15.886781502407096,-9.794930921272947,11.026582778889296,1.8432335685653314,-12.89182011824405,7.356640867863677,0.2058191171977286,2.4298584410429465,4.012075444064322,1.2105853733361163,-6.239369280386329
-125.0,-8.761767203287564,-2.184720984734068,6.577046218553413,5.4285691902823805,-7.672791957201861,2.229983466941621,-0.03467790478255495,-7.18688314884885,-7.151268575838651,-6.345815703786792,-3.322676993353967,5.850081526253688
-124.0,-6.948004748993765,3.402827281949672,10.350832030943225,1.802039308946076,-8.653866271147141,6.835742006576019,-0.0785125216350987,-5.9326497221162455,-4.930071391671926,-6.697571040493327,-6.890375275686784,-4.075413211850276
-123.0,6.351910393379697,13.348210093546777,6.996299700166834,-9.825867525334075,-0.33340158153946575,10.13189347584705,-7.2314730895574755,0.9213613101793197,2.950506080652774,5.225559474814856,10.574594989862558,8.949504435355674
-122.0,12.714771303707897,23.216798839482838,10.502027535774733,-18.025170506251698,1.084396989086998,16.89582913821076,-8.86116628012796,1.071384876542143,1.396310231222417,4.0184084495990025,2.9118541418451622,-5.9203015764799645
-121.0,7.193214798455542,0.5467566990574575,-6.646458099398179,-3.85389797518648,6.964337770562185,-3.0168107482569795,-0.34570060634002386,5.607088251794415,4.330204220010379,0.8785704386927713,-1.7304772646689868,2.8906175940486487
-120.0,0.8704017674747009,-16.806001741020705,-17.67640350849543,7.983070436500771,9.306618969103372,-17.21156771276454,10.528732613342557,6.511772821047087,5.139402168866019,0.02809143032426875,2.692406714950762,0.05931290098159808
-119.0,-1.0710748806795953,0.5116762654056437,1.5827511460853145,0.29702020931522544,-1.3809608069502035,0.995497556912385,4.555570121672393,0.7321079469900877,-0.4340406907497216,1.9979204167894598,-3.4216895722818337,2.168116175447363
-118.0,-1.1604628141259257,6.921878017925456,8.082340832051505,-2.8587066443729325,-4.601682395261003,7.52751385579233,1.3945836662727542,-7.935105055302221,-4.593745574176657,-5.756795829362232,-9.12615350054617,-9.484227914415666
-117.0,3.4960756875152326,2.3668701130382486,-1.1292055744769025,-2.9816671426133903,2.3307531683517775,0.5646108903204063,-3.8838207419642177,-3.3238153123123264,-0.9386029315551179,-1.3400767866678254,-1.9761316331308598,-1.1093323360022698
-116.0,-17.55662275123485,-17.572680849046385,-0.016058097811499028,17.52195104591619,-8.829895590088526,-8.770222472724523,-2.649100257836676,0.9767257730553891,-0.9989441610927945,0.32858854571783347,9.436334057919321,7.410472116004314
-115.0,-8.948247071559004,-27.79722223915943,-18.84897516760043,18.416370999966173,4.972139422004305,-23.298987769306166,-1.531079033136718,3.428237860470425,-2.6240499901115952,1.0946976457028468,4.202706213427495,2.4801149086321237
-114.0,4.547460913349308,-1.7789928463736677,-6.32645375972297,-1.333656708336676,5.461879700134254,-4.028372794862767,-1.2792510302712006,4.7862816583796,-1.174883162188416,1.1097927494707385,0.8132954031695498,1.4768694065782613
-113.0,3.429063979486645,15.347621413989327,11.918557434502674,-9.41098899483592,-4.217277591220507,13.579177285855762,4.8125583529253895,-3.9156023856173845,1.8145684915127005,1.9241431625724,0.2884584775756167,-2.509859822376873
-112.0,5.295265325378307,31.6592600844826,26.36399475910435,-18.496597434448148,-10.584664838598536,29.03727749052855,1.7140850726314167,-6.645901458856822,2.300191825620317,-0.6367354571992483,-7.570847146572133,-1.9919917288845705
-111.0,12.613496676915865,17.900089250795858,5.2865925738800446,-15.275638403545006,3.6907780068532414,11.54161784846816,-2.2339795599893026,3.614530931354475,5.68426495238862,3.232135291472243,-0.22708350499073182,-0.4695205753021452
-110.0,2.538851444466454,-7.788023201620687,-10.326874646087123,2.6032393352637033,6.378385645546466,-9.028208996815277,-3.7932206536271,-0.2571622998379537,-2.632532401353672,-1.8320468858986403,-0.8625303548917678,-6.363564708647206
-109.0,-9.544907086854323,-11.42688203963925,-1.8819749527849075,10.538098064685759,-3.8112596136579375,-6.622173377850184,-1.8411484399068945,-6.643233021229408,-7.573823002380411,-7.757673592793985,-0.8633607728294538,1.4536197285737793
-108.0,-8.836171454737935,-14.342981477511074,-5.506810022773193,11.634437430982516,-1.6482655140808156,-9.889460662591521,-0.74898141068227,2.5679581269611385,1.2385210842360581,1.4298773246543246,2.911532674047522,6.585389742778225
-107.0,-6.01134772366705,-15.350229290322478,-9.33888156665553,10.638085395461689,1.677697413690104,-12.38569484866513,6.652652381652492,10.128660905044185,3.0054656099012917,1.5542396378490853,0.3907574659001196,0.11300920309357831
-106.0,19.362045017861156,3.685782537706878,-15.676262480154325,-11.576031566256066,17.53215410319369,-6.036371922680811,3.015179299363534,6.264586364394888,3.0669146132661327,-1.2513501978647121,-1.183353797173415,-3.362607604428745
-105.0,9.38307124023188,10.343256408861283,0.960185168629418,-9.845297571225492,4.224438026264254,5.686730287938278,1.3500662504259524,1.9511006828183841,3.9370874512981215,8.847475905048782,8.29476488401479,6.00114878897598
-104.0,-7.59128770488032,5.768264047163752,13.359551752044156,0.9228199634692187,-10.541351527724117,9.515613424169429,-2.8305494730924767,-6.866351952163551,-1.546720267184228,2.0142992125591737,1.4768074219046887,2.6218720998239906
-103.0,-21.23011953056248,-5.851836127318768,15.378283403243824,13.54933792383995,-18.292631176117904,4.788771646802792,-3.6765547582713247,-11.589341227054163,-5.202227294314774,-2.5866461291262945,-4.719285351126191,-2.047684216402034
-102.0,-12.28973015121904,4.587782277560591,16.877512428779724,3.860597476849341,-14.574567035856052,10.754737554974865,-4.549768018517517,-8.537147238322714,-10.776875311265579,-9.440648069111493,-9.054259404384982,-9.367177294838271
-101.0,7.728697387723184,6.0301822551278494,-1.6985151325953183,-6.864955606792458,4.719461248087354,2.1871035090711857,-2.682495826752345,1.9741612748562107,2.4665215377983074,-1.6513010424149823,-0.09020271916023326,-2.421040589091983
-100.0,26.210549840908556,4.324167506365524,-21.8863823345431,-15.24613891540106,24.051491036643583,-8.757918181272709,3.8306321970449417,8.820709332643398,7.813868993988434,3.853165746271785,2.1583751171479992,3.05487778729936
-99.0,8.671727564789846,-2.533176939111062,-11.204904503900952,-3.1203908831893177,9.93993732830986,-6.9207737628481265,9.257088301011176,9.96109414025429,6.483511435989895,1.79570427397343,5.0579031992910775,6.9721303276974345
-98.0,-10.019598377556658,-9.298910178028004,0.7206881995286452,9.612419654366802,-5.367801316653625,-4.336232013244897,0.5360091572946146,3.177511465388087,1.4494895889859918,2.9884693145510455,-0.9270471093403341,0.3039485414607421
-97.0,-8.741043807923692,-12.95306470081801,-4.212020892894309,10.880296239514081,-2.259123139386313,-8.54626628974172,-1.3570266589568825,-0.46271292298301736,-0.5513667070309166,1.2778578089611847,2.4523851084407173,-3.310411764100619
-96.0,-3.527257849908401,3.16421907919628,6.691476929104727,0.21335226547688535,-5.0988136132224255,4.968708912012863,-4.47160537924843,-7.437964215228539,-5.575377561088557,-1.6469349707699656,0.13298558624794699,-4.922743798723019
-95.0,-8.190378254703637,-6.587592155018525,1.602786099685118,7.417511243554877,-4.957897654650909,-2.5254057666542646,3.467599855744246,-9.240208791396393,-9.079807546292889,-6.6450882595113,-8.283650771768023,-2.9451037420693327
-94.0,11.27108045956044,22.512027708901655,11.240947249341172,-16.946006710041694,0.0406588276845854,16.849093582146786,-8.183427141247249,3.1048284952410032,2.2371358324176844,5.927835514123636,4.861462782280372,10.824145359849163
-93.0,0.04104321518669085,5.511675747711814,5.470632532525071,-2.756313727631368,-2.6802578973884668,5.548943918351146,1.5067358993514963,1.7312447101389674,5.622784979110852,0.37480074284089004,1.9286491412914848,6.250412137382797
-92.0,8.362182582501381,2.8505233139496795,-5.511659268551802,-5.589708558415628,6.901735898621592,-1.3446941132290822,-1.887996389443785,4.485914775565796,1.7336033289246537,-1.1969597087455208,0.21902227919227923,-4.438321278748322
-91.0,-2.0070621973983083,1.897279301557936,3.9043414989561542,-0.008831789006139568,-2.904041568001296,2.892988885233731,4.815801253808532,-1.3861583618457443,-0.6328399281643426,-1.3560382656507186,2.147959905266198,-0.7662054730582888
-90.0,-2.372451768394694,-11.646524279673168,-9.27407251127855,7.025564369149316,3.429713572335406,-10.463513303068005,2.670580716006605,0.02836460898441784,0.8351152204601076,1.0420929581632459,-0.512581308372541,-3.122624878221976
-89.0,-6.994745029239322,-17.45940500957738,-10.464659980338034,12.24732127667975,1.7168622169764978,-13.963331652118386,1.1198353996916461,1.5825158668741337,-2.207838215178241,0.1650240939360772,-5.045655811377737,-7.367625211941342
-88.0,-1.5619429942390024,-3.0471801756450185,-1.4852371814059113,2.3316333990650087,-0.05655766849992183,-2.2687249522790562,-0.392230079516537,-0.9558390856082879,1.7770871565816848,-0.5814894916296887,-0.017230736117544998,1.370746359163471
-87.0,3.627297911812475,11.698457175200703,8.071159263388374,-7.627932970889116,-2.242491512782757,9.878226616305962,-3.143694278989216,-0.6842205791291076,-0.337448366508383,-0.08758382723710084,-2.252104543222612,2.4036970079163904
-86.0,-3.4706565660608932,1.643202089995257,5.113858656056246,0.8764610888908955,-4.237099461345474,3.3659663972966456,-3.564393261801118,-3.777605340776191,-5.209413040503904,-5.1143001626973845,-4.96030117200414,-1.4903041018173058
-85.0,1.3431358781747447,8.791415114935882,7.448279236761074,-5.101537675571486,-3.0782755568619606,8.17943186323314,0.5405700887388631,0.7775364795557207,3.36005782701307,6.481948886238172,6.127736577843386,4.749473355530432
-84.0,7.433441090113409,2.6341516785036294,-4.799289411609912,-5.069545997538627,6.169106442307514,-1.1076270111823039,3.903252066039184,4.006776223719477,1.0167458486076304,2.672870377735634,8.222011395855578,2.6191761145758776
-83.0,-5.487369150310909,-11.131524494173402,-5.644155343862645,8.347315442388055,0.053701334254363964,-8.416987334952882,5.167512460537423,0.07269450450380543,-0.47718309611548304,-0.5565408190921779,2.204494756244152,-1.7548067982066797
-82.0,-1.1131389368293336,-6.407147382203755,-5.294008445374455,3.7915945251577763,2.067590923202656,-5.881329927437383,-1.7273137987117395,0.27504797730561925,2.0068029563724874,-2.3266730148757357,-2.5457525156887137,1.3527722314922963
-81.0,7.884776919246484,4.846209460276394,-3.038567458970013,-6.417605159944999,5.439762091959019,0.9527645397763287,-5.575846128547022,-0.9507291141932879,-0.007973716100736605,-0.22056785433056736,-2.6557302451023252,2.192071900039785
-80.0,7.732303258301801,19.02725521919358,11.294951960891824,-13.354126148615649,-1.7256601169348498,15.212778999856468,-3.1799524485465476,-0.4653251326557164,2.2909752847161027,0.3946984671280316,-2.0550045783286928,0.2473982301679334
-79.0,-1.7707358719928372,5.88355029353904,7.654286165531858,-2.0272807309037826,-4.739436150863774,6.744780375556556,-0.26460390094691255,-0.6967179396612464,-2.6871265754195655,-3.29972560098348,-4.9185256180639225,-6.851856726063314
-78.0,-13.393653729528166,-17.331237751673246,-3.937584022145222,15.39822174631578,-4.7612676231377975,-10.657325519642077,1.837799231940718,-3.620036619002276,-9.19027788955089,-7.4624477739128485,-7.152084785267142,-12.258533738514728
-77.0,-10.918830842446088,-20.111617500040747,-9.192786657594796,15.479353682891007,-0.8254575204226642,-14.6770114392604,4.767925044278973,1.6706268792971615,2.774636900181655,8.730208165297434,9.264824203886212,6.6221672242438405
-76.0,1.4931077056818411,6.63654529723375,5.143437591551823,-4.096152660450571,-1.7960203165017155,5.860026364917157,-0.1093221977316956,4.879506489156376,7.239300874962549,9.402007789177866,10.437053442635968,12.604173175464132
-75.0,1.7344372684396683,1.927643223289994,0.19320595485033015,-1.8623481209139137,0.7133373260822296,1.1020662141986546,4.098005023794736,-2.263774272969445,0.21244201108928795,-5.209432049888485,-5.552523976584069,-0.41556389537298344
-74.0,10.159842200681126,15.146536379134224,4.986694178453189,-12.61030914653056,2.602114396401321,10.101263383621522,-3.6494182581336974,0.3932724159956893,3.833970969509127,-0.03150633733154029,0.8221797722417359,4.391056305520339
-73.0,16.805841648867407,-2.753455157713404,-19.559296806580665,-7.069378459035254,18.194532336889765,-11.205258729943958,-1.553536104070478,2.663887820608578,-4.378074068097446,-2.5615178863698573,-3.2069707893305313,-3.12925957007186
-72.0,-8.720976296224535,-7.868695038508698,0.8522812577160304,8.323156726589783,-4.775744928256313,-3.479756672399327,-4.016920958836164,-5.2329545068124,-9.440319493785003,-6.814575419368095,-5.617091936525652,-13.020704309823188
-71.0,-7.214051077556705,5.748901897541488,12.962952975098332,0.7562552474905346,-10.076510510999945,9.386170044614989,2.307666625281072,0.14298991777334003,4.913306923317827,4.406244665429767,5.2779863928109965,-0.8943181836210465
-70.0,-3.3894942097845107,0.23140901827845162,3.620903228062941,1.6018283792300685,-3.5692902169059675,1.8813400189044032,1.90216961609862,1.948736463183237,3.152891653954675,2.653587064473182,2.119550483217667,-0.03859711371921537
-69.0,-0.3718011551718323,-3.009375320079932,-2.63757416490823,1.7155966775811233,1.1510147357475065,-2.78581615478836,-0.32669427900266035,0.7237307464620305,2.6373433027215314,0.3740526750514017,-0.38594998105858824,5.989767064849592
-68.0,-0.5640595108485456,-0.11484122479210557,0.4492182860563061,0.28918321748108844,-0.48502341528924,0.12824362056582972,-4.486369230780921,-0.4228257290775188,-0.9448166410043428,-1.9821361298664617,-0.7635776037393952,3.6955536755331018
-67.0,1.0383534128728176,3.5090909232716547,2.4707375103987435,-2.321204620189728,-0.6918803516833798,2.9508462809953793,-0.5492640904733879,-2.925982313276628,-3.5165813918719655,-1.7495511993882016,-1.6414783341890464,3.863337524106589
-66.0,1.3219725747778401,-1.1433692562790685,-2.465341831056893,-0.056827732523449415,1.919138225468033,-1.7666311982290344,5.827794798634605,1.0559008193873127,1.7424260538008967,2.8721331378299517,-1.8808395974370118,1.5835729803029448
-65.0,-0.27124796414237906,3.4367377464352957,3.7079857105777285,-1.6287897154284001,-2.043553263853207,3.607504074629089,4.046269472662975,1.3447433513449532,1.1346817326286798,3.9562079735778495,4.033395898692906,-1.6128568861681043
-64.0,-2.2809530442158814,-8.137287586305128,-5.856334542089214,5.242685659061422,1.7318414368047765,-7.042331923285469,-0.5359464858799328,0.09189610810270776,-4.706783240642393,-2.588915022102511,-3.81697606933371,-9.626669264140741
-63.0,7.252806509750728,-2.694000361506272,-9.94680687125705,-2.242858463736926,8.62120425741028,-6.287687241044086,-3.2389042088491116,1.35739330328166,-0.17395014045238288,-3.548960481147905,0.20123269051089232,-3.1292701063584376
-62.0,4.241333160529066,8.605842379396897,4.36450921886771,-6.3816437892805356,-0.0390798923229303,6.5186704716354935,-1.4844954547689597,2.1517377635677684,5.455404314425653,3.852962738052597,6.451636500934697,5.5507930223802155
-61.0,-7.937967630469418,0.38015328800430037,8.318120918473587,3.7486477462398535,-8.100145580223508,4.305178256403732,-2.816866192068185,-2.7680353521978818,-0.1131872585252951,-1.43812605311187,1.8781443956686554,0.5586306693111687
-60.0,-3.4771484073899273,-0.8661350902693501,2.6110133171204897,2.1467883884801937,-3.0064481223254234,0.8293545510788038,-3.8505283011432154,-1.8935782344195158,-0.5362862608508744,0.5550774979204958,-1.3725169269529591,5.164570090138945
-59.0,1.829241009675067,-5.657326532810126,-7.486567542485203,1.8913316539938219,4.6289479770438655,-6.536425937276238,4.365654875518343,-1.830832945952872,1.7999107343513943,-2.4647254198291897,-4.515448438938751,-1.3278098401494196
-58.0,5.931932233984312,-1.512293144011052,-7.44422537799532,-2.234506126909311,6.670397160008315,-4.443913747320522,3.478711286205475,1.889870002821621,-4.380029685945808,1.0267368669460013,-3.8355424033735765,-3.663134051794252
-57.0,-1.6599368722991872,-1.3321235248514505,0.3278133474478291,1.5448384788653127,-1.0046149207405182,-0.5482899816906754,3.914909007129064,0.8592815039958513,-1.9971166864040113,-2.657201922592467,-1.7867473888893304,-4.58606328877277
-56.0,1.3535805199138404,7.695297929830637,6.341717409916896,-4.560813096317353,-2.5044555304648393,7.049523255839034,-5.3015852792627935,0.022520053550952435,-0.2437263944957685,-1.0401113038671896,-2.8245349241909348,-1.3289852086750538
-55.0,-6.4239097435710715,4.154335785231124,10.578245528802277,1.1719389671950209,-8.51796261838232,7.317670463176186,3.9324279149085832,0.5776065261566866,2.856316457478588,2.2778749139561567,3.980085499289143,5.252103591350182
-54.0,-9.971065305590015,-5.857000898548314,4.114064407041747,7.948824227409969,-6.992293408088892,-0.8413209946229339,-0.17696605379074704,0.8378181774365661,3.1769024405546356,4.587969739301359,7.903344455827744,7.198487049759508
-53.0,0.8287593750923388,-4.626077613090757,-5.4548369881830565,1.8555603580722182,3.099739169596276,-5.009801678164353,-3.036976385241488,-0.8334875670883204,-2.3823951180304075,1.0907655159315526,4.94801737275677,-0.5749738442762791
-52.0,12.703057916675588,19.884107059165114,7.181049142489542,-16.254692445679925,2.7855742551405616,13.563254070287204,-10.511583362077737,-2.748383903104109,1.0283537139616965,2.342596311995322,2.1561168212449164,1.6536681695710247
-51.0,7.1497493347090515,4.453801224115853,-2.69594811059319,-5.837414754599353,4.939548603246406,0.8292676253231557,1.6300338196081783,0.5593892970686984,-0.6031086547693602,-2.665812716970482,-3.821399081612188,-3.444986893155342
-50.0,0.9247702434573672,-27.51881699261166,-28.443587236068982,13.265433545308404,14.698726014301016,-28.034589547639424,9.623137000289564,1.7841831696288142,-6.047185945413284,-12.000659098218215,-15.057362800155376,-11.385129698114405
-49.0,-4.871025228014142,-9.726708260576327,-4.855683032562133,7.270729067575662,-0.06837189723388803,-7.271085630038241,5.456613655077982,1.4804081455177247,3.5516863098301177,2.298065712642668,0.12888012484143196,1.057944746491371
-48.0,-3.1274196936875014,7.499184009733465,10.626603703420974,-2.1322369323560793,-6.851174741714499,9.077987678300815,-0.5995778249787076,0.5350011058320145,7.219790872598315,7.047129357961533,2.163016407971594,3.3224220767559407
-47.0,-0.3061648747961101,5.355283949255244,5.661448824051321,-2.4681178799559493,-2.9480994455779186,5.520883258761138,-3.9406233856499946,-0.06315547250170819,0.4429267717617882,3.67229654445346,5.4124812463492225,5.315927165280938
-46.0,-4.352356625737563,-1.5736738437349356,2.778682782002514,2.942878743528756,-3.599097285570184,0.6165263278583089,-2.1707556028522905,3.2729651404872397,-4.089408760465735,-0.6569566367097166,5.876339456734819,1.793302167363516
-45.0,-1.2344896143223216,10.326115072634812,11.560604686956971,-4.565399048563723,-6.424298775961705,10.963291146407862,-1.9653299765789005,-6.588992551284226,-4.047762136158308,-4.534732532679637,-1.534035499825242,-0.7212330503696016
-44.0,3.1129609871334423,21.343906343561567,18.23094535642795,-12.250116695400628,-7.5043290086927,19.737763496340403,-2.0234257367483366,-5.810068874279852,-2.6006916538634606,-1.4117325551424111,-2.9508543699877183,-2.4406051420124735
-43.0,-2.0206335753269338,-7.133689168085313,-5.113055592758488,4.5504657603626795,1.5200992853253532,-6.084067582719402,2.2975328244640822,-1.2382055707433832,0.13148523037065918,0.29478114392850285,-0.511916215542914,-1.0068552678266516
-42.0,1.510276886440217,-19.28103805603881,-20.791314942479055,8.930426299340127,11.118487212347292,-20.066762034469615,3.360904666449861,7.422265065752033,3.6793179763354673,1.153754153232763,0.6360694710452803,2.2751462884455753
-41.0,3.404096008897085,-11.152151349565068,-14.556247358462112,3.8332210094696477,9.017638401567538,-12.87914584737857,-0.9068469247781077,6.290598909664528,1.996094636485989,1.701887920763501,-1.2690616350281807,-2.2236955952600996
-40.0,2.7673604130637477,-2.2799413969911093,-5.0473018100548135,-0.21081145029529758,3.934975450518145,-3.608204119872667,-4.327123469833379,0.8162425663445942,2.93943074532934,-1.255999622731087,-2.3484537246649535,-1.5634105285744857
-39.0,-0.24010725299076485,4.4793391077090465,4.7194463606998465,-2.0882023976536876,-2.5395084116000395,4.574015835246342,2.1924483884102934,-0.6816659320946495,-1.9546329489049596,-1.5020517953546624,1.0719980851497801,-2.79501094975375
-38.0,-6.496800740319507,7.707467919400645,14.204268659720158,-0.6503922369712629,-10.337190410263304,10.926093669457687,3.138507594008122,-8.527565170713736,-4.12322020831264,-0.4886420416002271,-2.1188513380181035,0.022981582059114047
-37.0,-0.6974095865308421,11.774508810826735,12.471918397357555,-5.5000707267476,-6.572924526712204,12.167215770101848,-1.1991826246170993,-3.191045786689392,2.700196849836967,4.58190733660773,-0.15635836111919743,8.539933664829057
-36.0,3.076705113382505,-1.7145215617843235,-4.791226675166902,-0.716385135150817,3.948376973344823,-3.2914992210679763,4.486188672879857,4.674998529117693,4.160300336022681,2.002696237898682,8.545671056185334,5.229004191580415
-35.0,6.521618901245428,-8.847571315382538,-15.36919021662807,1.2089857089210705,10.965969302865695,-12.070011079411291,0.2025851830805982,3.7303353921722344,-4.676933170788864,-2.1103227783690532,1.626101068841964,-1.8544124617077808
-34.0,-5.832421775655113,2.106758300776903,7.939180076431926,1.8282152327098646,-6.935928219382184,5.061798533138275,-4.7778518300401,-0.13070604127213326,-3.3104122106383596,-3.4184711977729,2.453339813825647,-6.950453322865395
-33.0,-0.9478484440113553,2.7538985570535144,3.701747001064813,-0.9445782005610548,-2.288063690445587,3.18987190833871,-6.581586781159824,-3.2116971694589584,0.7119733163695658,-3.5155850095288383,-5.201170814514453,-8.419854503416582
-32.0,3.8120652268995014,6.3827303296805855,2.570665102781096,-5.0711246388433775,0.585311137302947,4.44124852442252,-4.625410517417208,1.2930864598546963,0.616966420931901,0.6781141764957324,-12.17427882945278,-0.7013664092739025
-31.0,-2.337837040097134,-0.5987214040261767,1.7391156360710345,1.482153336216194,-2.0695655900144985,0.5371226974788733,4.762716807367115,-1.93222495307243,3.8890277040970562,4.138975371900733,-2.941272583337823,7.911158629814453
-30.0,-12.704188637792745,-15.777039768360288,-3.072851130567443,14.243778938691399,-4.76616798715541,-9.377115048872938,11.614549279490873,0.20607803142057934,0.5233015065279947,5.322931093132702,6.742290844223261,6.331207708038736
-29.0,6.087716402152989,-15.049697120827393,-21.137413522980296,4.477971470869813,13.661757020166398,-18.043565852658705,4.1015278927140955,6.975437868193832,0.9115579930072922,-0.3609304931667632,6.658154412759795,0.20608432161466084
-28.0,7.890406611197433,5.330906523092587,-2.559500088104781,-6.61364868250171,5.193425303237701,1.359177135750139,-1.904298686879084,-5.806140439750662,-3.722284608726006,-7.659430552423384,4.129117585502313,-3.764824547509275
-27.0,4.119081777156657,12.513399560488164,8.394317783331555,-8.312908360792434,-2.172139025959565,10.42928697944842,-4.253311888172927,-2.9218073401726574,-4.477224592810143,-2.095421002417743,1.2896640087707056,0.3067163938877919
-26.0,-0.5466519730703099,18.743687505606566,19.29033947867691,-9.08406900286337,-9.956100623763753,18.993418318553744,-7.44538973879494,-1.7222097346005294,-1.4213104454645091,-0.9270516862757212,-0.6861909123529555,-1.144658714392588
-25.0,-3.6514589837667266,3.1581823352614276,6.809641319028158,0.2743522485322334,-5.191380245844599,5.038302136655988,-2.967877972366294,6.01273256482666,2.4799502418653545,0.9635763422217345,-9.307681477916303,-6.401846389409158
-24.0,-1.4235326847544791,-5.083535549541375,-3.66000286478692,3.2149596544801136,1.1575983151918638,-4.399201848433282,-2.4016387671741164,2.2888650820375984,6.162325242937751,4.819779229833475,-2.8992659533800182,-0.3606868821565363
-23.0,-7.397236426430954,-14.921439657054535,-7.524203230623651,11.130128359538535,0.02677021496594456,-11.177043153257646,8.152474140394869,2.3644708398920344,6.828096654423174,8.584285561196094,3.0998539572792123,3.761288951541946
-22.0,-2.4272390642869253,-15.447188192910195,-13.019949128623326,8.913347645900444,5.342723604564858,-14.274068691030664,5.7399866637397015,-1.9224654120047417,2.6193497701245,4.475886256690874,-1.3200878562402703,-0.20207068723368904
-21.0,6.190147950947363,-0.08436879970093614,-6.274516750648299,-2.996145986697254,6.204122895808433,-3.2281804777209757,-4.570211909372737,3.004709595465523,-3.0929989235794304,-4.175035045975614,1.8139669428437812,7.147017953264957
-20.0,4.103074001770743,7.075115201351672,2.9720411995810263,-5.611291207061797,0.5391478761985136,5.046609270186989,0.4566909594788671,-0.8041665884412872,-7.382847959739946,-10.208090113825321,3.604840979298314,2.596415468409086
-19.0,3.962579309458431,17.000549542335083,13.037970232876818,-10.425782066266637,-4.487454326226688,15.038641855162517,-4.347851023154394,-12.094759888992995,-13.985934962784935,-9.010788384040783,1.497668498181779,-5.616783983934819
-18.0,8.444630874236848,19.876792463171526,11.43216158893486,-14.184187174072832,-1.5287683704492085,15.674834630340134,2.4655352135494577,-12.84932715112753,-4.0558425814118255,-2.954321879850293,2.040041595352481,-0.12445213606181271
-17.0,-1.4628377646367468,1.2165226377315195,2.6793604023684026,0.09949850807458382,-2.1156998798769147,1.9736568427045285,13.397923665146182,-3.215067313054923,4.764846983527815,0.5343238416297289,0.940980598041403,-0.7418353750060018
-16.0,-4.604169003887285,-16.42997995874734,-11.825810954859985,10.493111409656937,3.6348904977463232,-14.173110042853155,8.397682466117015,12.680994553663993,10.546492386467282,4.685449243789103,-6.362300054224858,-2.5817483737465636
-15.0,-15.931095925749252,-12.839487292425641,3.0916086333236885,14.439110585322668,-9.494707108478082,-4.833095774760871,-11.152216645049808,19.201336649964382,10.740782412632793,12.282315122513573,1.011889910545178,5.253885030617237
-14.0,-24.119420068662738,-34.30488657385108,-10.185466505188245,29.18521885857347,-6.952640557115391,-22.279171769867258,-31.77660409006139,31.968356261104912,4.393868251167433,11.018200831984501,-9.55183636209033,-9.568263461529288
-13.0,-0.366140277755691,-31.274203172226557,-30.90806289447082,15.790065784382634,15.288870520669908,-31.12622567203018,-14.34635128616489,-29.23305814497651,-29.078299225830197,-20.95961557284202,-12.69726224654422,-9.650604886919645
-12.0,38.80073606862797,63.85665307165522,25.055917003027147,-51.28434128528677,6.89850870606425,44.494225914739765,25.635082665319395,-32.37501755142839,0.8153962824777778,5.783964789015441,23.65602624017695,17.662609053899587
-11.0,23.669295753783192,32.79089471039947,9.121598956616085,-28.19098517613052,7.231239576124382,20.90744321502298,22.21708869137278,0.5692580609020652,19.42673503754182,8.48569650463234,13.913176956840866,2.1007433351651725
-10.0,-13.974885557922365,-11.958463747594804,2.016421810327275,12.921166120605143,-8.029485677488577,-4.94790521938809,11.932767383409153,20.07868619283544,23.30230310765227,2.352256324697441,-5.648535699002249,-1.033625899188444
-9.0,-13.231253025554647,-4.959680817845985,8.271572207708378,9.04410587259325,-10.780019850947603,1.6765840028985486,-2.5689122797386164,15.353598829433665,12.173232043948648,3.3680174609114046,-1.3416811389816594,1.5379647766975766
-8.0,6.290380598286344,4.238744391611593,-2.0516362066748224,-5.241980246412352,4.222018848861586,1.1176803012902354,-8.598763633374762,8.007705714995964,-15.163491408982924,-5.633053865327899,-7.960411925830263,-0.11603794740911977
-7.0,12.309657388155667,2.1711357209869924,-10.138521667168508,-7.220408829291111,11.272230517805937,-3.9507924931416065,-16.047148910867506,-7.150458265459367,-38.9773687220308,-11.981355313075762,-9.171385279719427,-3.742143923356149
-6.0,-18.075887065823235,-12.084634890234929,5.991252175588741,15.100605425599696,-12.06922480697776,-3.081181922552048,-16.195209680188274,-26.5399312675458,-31.952103989499566,-17.201370580539095,-3.4003684269753047,-2.8587543572420304
-5.0,-24.06451502010973,-19.710524769030993,4.3539902510792565,21.910958457907917,-14.250138510012283,-7.702365018228989,-0.3672782135798389,-22.520424223949178,0.4471223778828124,-11.446001781790212,-0.07722719055972424,-4.1532148417568635
-4.0,-10.164325196795094,-6.896470901383918,3.26785429541175,8.479662597315944,-6.681608698387411,-1.8318506112170994,10.503712379223744,6.525323420218557,32.927099757013316,21.708222334900274,15.00078197325696,5.296959222212381
-3.0,10.613545917130246,3.491758186436972,-7.121787730693075,-7.020418689459842,8.823526789032332,-1.8308960085077801,12.421637281239416,23.58296610154333,33.981320426289095,30.89112787316278,15.54326242407075,10.233693220795097
-2.0,10.286735873654703,13.400203783690952,3.1134679100357667,-11.887783183978865,3.6256593701929045,8.238679818284679,15.617404068400708,-11.390845338511113,-16.301072061038646,-14.150809585775288,-20.342149596027067,4.893393179871804
-1.0,20.021319713360864,10.833031196560542,-9.188288516801435,-15.393349645422152,14.651938735471294,0.8789546829972785,-0.9056582418974761,4.076577409016861,-9.784011337811961,-13.595396777212962,-1.4810224812469324,-7.467928811801703
0.0,7.407383639404941,-8.166018006793717,-15.573401646200002,0.3313190352838671,11.46852878497325,-11.816707732498896,-7.572723594910856,25.88434296942439,10.843198921150313,12.263685315040949,9.049890215816397,-14.357286218080647
1.0,-4.773347091325469,-9.88671564324444,-5.113368551919577,7.356546481337644,0.15656895613477084,-7.527862594872326,-10.227102206820707,12.607011166113256,5.92054807805182,0.3649522294977712,5.720825642514116,-10.148572301043387
2.0,5.505563050655613,-5.366861324367122,-10.872424375022188,-0.04656237750921832,8.179821481934175,-8.148321524347189,-9.168410356245161,-0.7672723008184184,-8.475675068010624,-16.675538858584098,-23.878067249060553,-11.672861764324743
3.0,-3.0223465017439706,1.4009875659150017,4.423334067660755,0.831622909764743,-3.7334186670715495,2.882655058125968,-0.7085190268156687,-9.38049461277995,2.6914220666931463,1.1349534571943938,-28.870582789614947,12.187933163472566
4.0,-2.289751096055401,13.72805254427055,16.01780364032779,-5.7763093401385985,-9.170970598004887,14.92011226179612,5.480215096619644,-7.684130469617719,12.980012409206662,8.317380740099116,9.899161077435933,8.729099116001382
5.0,-17.199185604390255,23.92781478884085,41.1270003932319,-3.339813767113429,-29.18977439861834,32.49184395413461,4.077924291145612,-17.463126391680035,-3.9980352409232784,17.851501040893496,36.21249561047549,21.365846678027804
6.0,-10.958294302389362,10.737927734517903,21.696222036906565,0.13901566899200013,-16.284279745388297,16.254436503410066,0.567813990417922,-20.222856985684597,-18.91613537102794,11.52881356420584,32.24308147466497,19.221306656080632
7.0,-7.4131649299835,-6.128278222027168,1.2848867079544348,6.725505125011454,-4.311890562466255,-2.469895368520183,1.4258642320411554,-5.650572081900732,-13.494504406407486,-15.291544045431861,3.7999656565174416,5.188807792480809
8.0,2.8891560299049353,-20.30184627733695,-23.191002307243693,8.744101473498267,13.075911595327547,-21.72240953872047,-3.5923889455737306,-3.0935290786066876,-21.16255915987786,-21.266364013839613,-10.436156274195696,-2.2311456206658935
9.0,4.140124386121366,-19.89356425394878,-24.0336886400709,7.839140701786992,14.046646694818238,-21.944601176821244,8.632820908458894,11.10066159781154,6.725985357128389,-4.2022002404691605,1.905852510929897,-16.332343068923038
10.0,-2.957210764729206,-11.237313437732494,-8.280102673002723,7.062537638471575,2.625986124804653,-9.742226183267803,16.580283682727732,20.530918370670772,28.248823311728287,-3.310250247473091,-28.112885413997635,-26.154088189783252
11.0,23.793821519098024,14.527283302274267,-9.266538216822148,-19.11368602591058,16.4997466744644,2.5683282847788917,-17.660261817994368,27.512187579021088,28.449400584721594,25.909325502863588,-16.158881633865757,-10.479691653685848
12.0,30.52077509409528,10.512164548021971,-20.008610546071267,-20.4664499768952,25.31718968324304,-4.728788332776146,-19.960141033139802,16.854738576506254,0.5528895795797624,1.270029335023473,-33.44679545048339,-18.080878230587395
13.0,11.777102912717027,-15.731621583670318,-27.50872449638539,1.951681839449046,19.62002783385089,-21.59623735922983,-3.346037553475025,5.951336682225248,-2.6239357526639786,-21.6641874407996,-39.912329503981134,-27.02179107161017
14.0,-12.87374485755266,-23.555914649425045,-10.682169791871587,18.19145701637326,-1.1153857634814521,-17.089872738048662,16.727894884108647,-4.209398704976369,7.017181385263651,-1.6079376453923007,21.833427418271313,10.248860970814782
15.0,-31.698050677675823,3.2248057610820453,34.92285643875704,14.213390568162543,-33.247401335993615,19.029121097280402,14.72069738905926,-33.541644469308594,-21.6491206576706,-11.74671594929898,33.33916154534877,29.10139102368723
16.0,-22.488763738115203,30.9884286712279,53.47719240934056,-4.19689932961462,-37.99416339059155,42.19178799413259,0.9421081670663405,-35.480260011891914,-25.720870532199857,3.3320827954165653,47.69954561297915,36.1198672387896
17.0,-24.63786059205159,34.74181542127371,59.37967601332264,-5.082886675697104,-42.01575917403043,47.10069115891004,-4.730129901138689,-33.77871039845243,-25.799365443371425,9.649825191266425,55.01310953274383,49.87651730611552
18.0,-2.193285141655463,9.934520279064099,12.127805420717744,-3.9079758288386937,-7.165219952534465,11.07210606477068,-11.771973928883826,-4.977708603321833,-14.552886666723534,7.478905620355182,6.597732382371278,13.277944346447859
19.0,32.4766110199292,0.48709471102011115,-31.98951630890893,-16.44651261793946,32.22731570587182,-15.788684888504667,-8.183208748765164,38.00436453576301,31.281136700056198,36.429544929541485,-13.9185090381628,-17.464083106322178
20.0,31.468896674300275,-18.721094343064706,-50.189991017362985,-6.342467364307151,40.81849042669863,-34.492765674968325,-4.560835388533599,49.235113401922106,49.48043952627742,21.321760236930714,-37.76186198210804,-45.24276678677666
21.0,31.48931075670135,-15.018467969024186,-46.5077787257232,-8.283428569952246,38.978707155580636,-30.72101715102893,-2.328213139835855,29.10726038954753,27.00546517227687,-6.1004719655315345,-37.40423653687182,-21.792330261682515
22.0,-25.801595245880517,-25.689988652928214,0.11160659295388342,25.779011490051197,-12.908638664262288,-12.74605260158329,9.664243512944712,-13.895133744313146,-13.60433404027839,-38.94190658079461,-37.812099839558506,-28.956625705131817
23.0,-22.594113846507895,-22.587866515314808,0.006247331193267591,22.628687695535383,-11.341673686911053,-11.325077504704565,15.133593275190066,-21.887907012266293,-24.96172995325609,-31.963284654884234,-12.414510772619424,-19.43871026423916
24.0,-13.511372858468873,-13.187126685840077,0.3242461726281629,13.31286308965253,-6.888680811740469,-6.464273348553601,15.511133829070722,-14.852820073392436,-10.20967073512842,-3.695599683136031,17.764124367162562,8.732917687670247
25.0,-2.118388243658824,26.105646840533414,28.22403508419163,-12.026852542696876,-15.14591034798445,27.133466225816786,3.6803992809502364,-14.574994383655707,-9.597519833087624,0.3562633382310785,24.67947250615583,32.50765739333917
26.0,7.250318608065273,33.77620909778044,26.52589048971512,-20.545691137407154,-9.690034523395784,30.200011577695772,-8.533826943072057,0.04745084392205179,-4.091395550265148,1.4800977889712925,22.291915578314658,34.68666453240676
27.0,4.40027205722544,26.18254300508056,21.782270947855178,-15.246462059164235,-8.658626361884972,24.033088892627312,-22.715283934996332,-0.20312279560969104,-12.952134664768248,1.3524179321240979,11.831270898622883,13.59659683146284
28.0,8.432803798491864,11.091015167859169,2.658211369367308,-9.719616762810826,2.8501694866023035,6.848000821716745,-21.893609429756104,-0.5457578512617456,-1.2886102546650866,8.064122118250495,1.996494223640628,0.5720221943295805
29.0,-1.3326582658850903,-1.0246649402116477,0.3079933256732881,1.1392241622620887,-0.7680411645310885,-0.3845528040910382,1.619931056316556,4.667601407370768,13.562946809132093,21.913434654473793,-2.1104591046301673,-19.048362514177644
30.0,2.693435789823948,-36.67159856969809,-39.365034359522355,17.025601001821638,21.012533240340556,-38.04602700758832,15.506662772002171,12.8574455534863,20.760853092498806,17.906432818711654,-6.106616942574611,-16.50737748903601
31.0,-3.108186844954184,-42.4372913124684,-39.32910446751474,22.727929573416056,18.100391542045397,-40.835969091342626,15.346617994263152,12.963102801535893,18.722386183725092,11.823228641438217,2.036037221510714,-4.139718990688621
32.0,3.5509300561211816,-16.99892031247401,-20.549850368595543,6.755401818542607,12.042154544815723,-18.81186744975214,8.681964806147638,10.507882975249242,3.522725640011977,-7.577235025597165,-12.01858901818091,-6.523627350898073
33.0,-9.266639272074997,21.52280409995761,30.78944337203255,-6.177913997662004,-20.03995244271946,26.189941804793737,1.6708264722102433,-15.25926468553099,-20.47372978820888,-24.603791858534503,-13.647592524956028,-0.7462924829460089
34.0,-5.9681700650936484,31.34904478545301,37.317214850546804,-12.663616572010362,-21.584562159084015,34.358938864186136,-7.791905659037935,-13.55486847462078,-18.62117729913863,-18.342973812664958,2.843887798912137,9.521867372892059
35.0,4.144140579634917,27.161159797929496,23.017019218294724,-15.626966448169497,-9.469183627319671,25.02861434807335,-8.147494155420652,-6.15773694536548,-3.4942348927263716,-8.433373326326922,1.219855870749547,4.2692340397378405
36.0,1.3713350897667556,7.559121430288741,6.1877863405221625,-4.518021162729422,-2.453995133057397,6.885749881616576,-2.899387482041111,-6.1850158890864675,-1.474208076694067,-1.3434861838941972,2.2712211578130956,3.0732553171180514
37.0,7.774882069431373,-8.37653613857091,-16.1514182080021,0.32841164586258653,11.985154973221116,-12.255034106087395,-9.016608793801817,1.376766144246306,2.7911706854663385,15.081842195046205,9.032122010637835,7.760813353980165
38.0,0.8615119954666213,-22.578892894837836,-23.440404890304357,10.888469275103745,12.166712053241271,-23.00053749566547,1.8655011854693808,7.5874614183846925,5.319913649784412,9.636445075959244,3.412756627537112,-1.0736601092254623
39.0,-13.421875186280062,-21.38741504063448,-7.965539854354375,17.435779328861095,-2.712369528484788,-14.663207437197007,9.761862954045705,5.411563329274845,10.269540562925311,12.657732932999835,-1.7499516872163559,-7.197360492703437
40.0,2.663890017742583,-1.164087797891975,-3.827977815634492,-0.7984826794853443,3.2679314337496894,-2.553540299880394,2.8286724498475664,3.415507034562733,2.7854457413190934,1.6081870552914426,0.7913372630728693,-0.6841258782130835
41.0,12.358688842350553,9.675696629362282,-2.6829922129881245,-11.069804336886264,7.474542287538831,3.5284508850954386,0.8830627696964841,6.650067095774181,-0.8468220473051069,-4.000674486807372,-0.3968151162441589,-1.668532425670803
42.0,10.087892574651072,2.7764057458628812,-7.311486828788062,-6.412464930187971,8.743797030374985,-2.2233619752563785,-1.5996488551896109,11.685082820092164,5.695681963399343,-6.573218601101078,-2.8119332452291648,-8.600403454765985
43.0,-9.565085936944897,7.440758681336886,17.00584461828168,1.0749927069342373,-13.310416209239753,12.1998551902945,0.6414613459384169,-9.683776403270276,-2.7368205111729966,-9.056662590042038,-0.9618295026828299,1.9347800323696287
44.0,-17.244633123149875,4.2741489830584865,21.518782106208082,6.493470404375316,-19.401121415796414,12.88095835734447,1.7070085496640304,-17.073492434177034,-17.11746414611635,-10.907567854669363,-7.610879060166338,3.32492392463756
45.0,2.617935656978581,3.8754113523092957,1.2574756953304398,-3.23864861313149,0.6616978009060421,2.554053204333403,-1.5126231827277705,-7.3125642744188255,-6.875146607025608,1.508158743337468,-1.3183917390589746,-1.3154581916869654
46.0,-1.2010991588033808,-0.7869813271349306,0.41411783166821503,1.006909256158172,-0.8286886184553444,-0.2010106107344647,-0.8351785325073293,-1.869717123685561,8.51769306224476,13.613649695418973,6.913285086754158,12.515161040501425
47.0,0.00834237553673045,-6.5396815399695285,-6.548023915506507,3.287209148413056,3.3321397824248966,-6.486299490323512,-2.955833023684228,12.71329591327396,10.512125688761417,12.588008780096132,6.689365110522877,8.916706078161464
48.0,7.644848449052647,-4.39181714417259,-12.036665593225305,-1.6739492667337175,9.892051258246003,-8.244463770634114,-4.061930180506853,8.869842961418364,0.8810306007423918,-3.9434204473703627,-3.507781226102405,-10.289026742235848
49.0,16.21567853953953,1.1676121240007111,-15.048066415538802,-8.652698635884429,15.604072682443256,-6.979227348344362,-1.7863071780448359,0.3085956422898537,-2.1060449931344722,-5.025810152554095,-0.4369591473985687,-13.085082473417947
50.0,-2.502656182626694,-4.390236010291196,-1.8875798276643359,3.40951409609896,-0.33329918229914046,-3.1050634475174004,6.19974269397933,-4.507525222464963,-3.6869826880471743,-6.123201736590241,-4.220377291094237,-9.31020637183974
51.0,-13.018909640997636,3.4599953875622953,16.478905028560156,4.739578630759929,-14.771001240580397,10.002152677422664,1.2484749068219458,-3.256242111992109,0.8421938443058699,1.6553148014233843,3.8749039646690573,10.566155179255905
52.0,-10.789869001993184,-0.9066358155940581,9.883233186399297,5.879144743448299,-10.354327932230536,4.446457787901206,-1.485343906908985,-11.76120373737116,-7.049115392254087,-1.0356625322446305,1.6343207236702029,10.303649306270009
53.0,2.6627074656821206,0.12937600458066623,-2.533331461101442,-1.3759639092944562,2.663122265612314,-1.1564532527595466,3.67711147276717,2.106557739145476,-2.1993387225303183,-5.20680386655549,-5.364381294393142,1.3817200824824214
54.0,0.21799525209430148,10.413349553257017,10.19535430116266,-5.30654615167879,-4.999047872280718,10.281941137646383,0.8268942339850509,10.91161898166749,7.138702047775895,2.553862717343054,3.2565189110543677,-0.49846194712596414
55.0,3.931075213090444,5.145712455895543,1.2146372428049403,-4.538086638185378,1.3497083992062087,3.167948962895648,0.8443617521205116,11.525150903896783,6.91112205952587,8.820007432940729,4.956400208137538,2.188230483461037
56.0,8.694960744015212,-4.775131855014845,-13.47009259903018,-1.9650063184552473,11.074009947005901,-9.127934694094646,-2.6840721772699156,1.2849139370264981,3.0828726916933227,-1.8704402932350312,-4.063385012072235,-10.940143398405805
57.0,12.809909881908025,-10.512648765276031,-23.322558647184113,-1.1554564412517205,18.055686392484827,-16.921122733650876,-4.373642694507588,-7.911742590867576,-1.3215575058030675,1.8247533382443017,-8.492198544448218,-6.837417510897128
58.0,-0.942091831708717,-6.845092053376918,-5.9030002216681385,3.8881904448053697,2.466074536685981,-6.381527604976899,2.8528087842062395,-5.648797434849277,-2.3297420917140816,4.358161240129468,3.8776566869390203,3.2102761683514753
59.0,-13.054899358768257,-7.768975353893265,5.285924004875087,10.410262517439167,-9.11113786050296,-1.1795195435702106,2.173046842710523,-6.502170767941588,-9.726851563001087,-9.916237561729114,1.5846893219590352,-0.3084390376022681
60.0,-16.66586086076575,2.1833085826496594,18.84916944341551,7.244753445590865,-17.78270963360508,10.486327314017164,-1.1551476577680575,-1.5469082265152592,-0.9688299433479193,-3.574142507078094,2.1043790328983834,7.71210317574707
61.0,-2.961295715583005,26.15621788392232,29.11751359950536,-11.58811253636826,-16.070371543147857,27.591974539225646,-5.581915296980187,4.331268370361833,5.217620737300146,5.742735266197651,4.421345521194073,15.674813810384748
62.0,2.7962449140474277,9.88322468839861,7.08697977435113,-6.324243724211866,-2.1029872580671345,8.504701331758085,-0.8905784172796252,0.9728166518448278,0.2383767970691668,-3.21006738227062,-2.742106074163988,-2.373728289922914
63.0,10.33604232413557,-10.186380806898423,-20.522423131034067,-0.1318290488436178,15.3881215699881,-15.345797479860401,2.9618031955111417,5.692078834590281,-0.6339243327037556,-0.4786056629496401,-6.14502050844613,-11.059530598070625
64.0,10.656691043782804,-9.718431965177745,-20.37512300896066,-0.4408811919966782,15.549662207769103,-15.043965972183678,3.4688478516734715,-1.3671863340962211,-2.5958785581087986,3.0064814281837173,4.14713996652189,-12.175229359282948
65.0,4.084527644206152,-4.3530875420924415,-8.437615186298654,0.16952397532364172,6.291964320384036,-6.392439453366153,0.903563531877305,0.2531042233790477,1.3326315210660145,3.3287306751236416,1.6226742602010449,-3.5057368832355964
66.0,-4.298112035028387,-2.5304248456334877,1.7676871893949073,3.3784523454191753,-3.0823467689776107,-0.37336916137812715,1.4400130519966063,-1.0048241024021674,5.492331302797885,-0.7833610023321329,-0.02672905643286158,7.457213897136714
67.0,-7.1199596505565275,-2.1198879553304693,5.0000716952261595,4.592406358651385,-6.109339271041868,1.4558172773938007,-0.3838333235241849,-1.21854524856303,2.91788317293189,1.5936353236509526,-0.03232907993258649,7.770887148499288
68.0,-0.056523260609388615,1.8021417291457147,1.8586649897552112,-0.8131736904809674,-0.9258016664783497,1.8534148554408345,-0.3241764892484631,1.4007630138582072,-2.2552691267896767,-7.686069769233168,-3.040268448503865,-1.1501164734248324
69.0,-2.9756802090594943,9.2547419086401,12.230422117699684,-3.151085820348531,-7.566453377760478,10.690997777836001,-3.163696368546578,0.9242766442413733,-1.3046233044830409,-0.6896550424758208,-3.2819232179445064,0.5053977512856913
70.0,5.311403282681722,10.55085843817411,5.23945515549242,-7.937212763664013,0.07915921364401513,7.84339624690605,-4.415102964170916,0.20448540152944972,-5.616851610281778,0.668044190987457,3.1666525725762,2.186135486367103
71.0,-7.104337638640171,-10.579024053193567,-3.4746864145534015,8.83780408117278,-1.8436931659438527,-7.003518827041675,3.8255894206844467,-4.744819843944741,-0.6681532523337528,4.264855988438606,1.0237630308314407,-4.180062480894847
72.0,-3.022278928772183,-12.316826832309605,-9.294547903537504,7.663958260204482,3.1118813502024816,-10.786933891342159,2.367505853852225,3.2448730403770334,3.522710890658201,5.653688408518806,5.186944757923088,-0.4842460183880215
73.0,5.073497935878935,1.631038462293911,-3.4424594735851324,-3.36328301384909,4.234491264367648,-0.8893949027754315,-1.0887390555730398,3.194939566413491,1.0491658188816912,2.383943666931033,-0.7499886561556401,4.034524033103634
74.0,-5.623438406487069,13.874035859650572,19.497474266137573,-4.1443131379066385,-12.587539677752499,16.703990577831828,-1.7974072936452994,-9.350764973227793,-4.001152988164348,-9.697431423711038,-10.018668756207116,-1.4677219511920543
75.0,7.4701258443604885,1.838281521406393,-5.6318443229541035,-4.603374798502751,6.595633068165461,-1.8718502750748236,-1.3617482211568295,-0.9544557761872339,-1.1578374336861847,-6.378706841001298,3.87191250784813,-1.325701497010646
76.0,11.419689315689919,-4.895555048718926,-16.315244364408784,-3.298172004953228,13.903559754340582,-10.649209153943753,3.847659933715632,5.580265118684148,8.023555123785883,1.7178661674193716,1.1483410219168984,2.2700762962534076
77.0,2.3255329638361872,-1.549201250102778,-3.874734213938913,-0.351940649374067,3.0493657359760986,-2.745104642139448,1.3890676577872703,3.8409037502222008,-0.5149835096715467,2.0688069150313595,1.602144773951415,-4.292512294679941
78.0,-2.436388909690337,-5.704018225407754,-3.2676293157174,4.102003549285548,0.43728062048878724,-4.431668223844702,1.0377364684899726,4.978741429342364,1.9734238971435618,7.100409195392939,3.1521278564542112,-3.9815326878111144
79.0,-9.527653914502547,-1.6957549812758381,7.831898933226695,5.561965740342098,-8.662263905784823,3.04788211735459,-1.5059666509283256,-3.997994547851407,0.010614489916791814,6.688687490110912,3.2974677990378463,0.4926920763692464
80.0,-8.908166818484892,0.33714372907352785,9.245310547558422,4.234183497577556,-9.061655025647058,4.770607602742155,-1.781675397045609,-1.780406432514706,-6.486650929059152,-4.911075651372951,-6.3047055875846585,1.809425684568625
81.0,-6.841436056089166,-1.1968251387640656,5.6446109173250845,4.0460715221454615,-6.308244878365058,2.198668075083399,-0.41029037299316484,-4.96044417740792,-3.210069014301111,-8.309681261518552,-9.80478400422009,-6.390244729144692
82.0,-2.2633152542222295,1.539836669126333,3.803151923348543,0.38957239078534,-3.0210722022964442,2.7178498974442684,1.7720025418552727,-0.08433033096563358,2.3332965624964865,-1.9517790669977337,1.8666082180102892,5.515484298127573
83.0,10.777917032167151,9.436154032942316,-1.3417629992248494,-10.076705646802106,6.070657913178773,4.085703487768624,-0.007678787287014988,-0.09597705535420124,3.061625586711537,4.167760864188036,8.261765899305313,13.54467412377611
84.0,15.88353530789708,5.642457332196837,-10.241077975700229,-10.807548095547647,13.072167715382456,-2.346547119241018,-5.534469592585428,3.164989183963346,1.3425093970673045,2.2195634043210957,6.669880101394732,21.859091573159475
85.0,9.182363409397034,17.75517717323115,8.572813763834176,-13.430144649369058,0.3146856641853901,13.190252473756502,-7.108134894127572,-1.4020695218149508,-4.607323924335214,-2.7161987822747222,-1.2820705083055302,-14.028385533176044
86.0,-4.05956594376653,-8.601271925316626,-4.541705981549996,6.294152629850702,0.2526058507429769,-6.627180626044283,2.5961157204771714,-4.280164328530729,-8.075765764138598,-5.940108502194265,-16.512535832135345,-32.84538407632263
87.0,-21.72438835806801,-28.188633920353467,-6.464245562285413,24.922515193696693,-7.693753258204942,-17.30455254062731,13.151892890216391,2.631828787657895,9.161726621874665,6.213570656670809,6.920002973411388,-6.387768509191382
88.0,-4.901899204983293,-15.79063428744004,-10.888735082456787,10.391113108648128,3.0139316841124435,-13.317195796644034,7.101100597841867,7.1872054782098145,7.11984400687737,4.780731988333238,2.861448424127401,5.901999498318458
89.0,8.003212846790502,1.0969520940998025,-6.906260752690836,-4.507387251199116,7.482189075924997,-2.8802637741879837,-1.2358352886982664,4.271311466024117,3.3666240633355233,-0.1109617070540303,3.11386900137129,8.630760465331726
90.0,0.05122574290424087,21.348786914809644,21.29756117190526,-10.740021621053806,-10.588223717784699,21.27136433176599,-6.661661010502781,-4.614832459538677,-3.8001392227952033,-2.7546507866073977,-0.7272329501413743,15.413643886363214
91.0,5.6427714201898445,16.728464944546488,11.085693524356525,-11.230480381487066,-2.7585895467627246,13.936562003796531,-6.668441723587934,-5.5961952269107575,-8.17117538336835,-3.31870323752765,-2.5827418027654203,7.614555567373641
92.0,5.607802103066984,-7.633607414719508,-13.241409517786533,1.0424335495298411,9.391941286513708,-10.484669809869438,0.5006218300846417,3.061874024721008,3.1852714807383053,10.369993667655958,4.855778353954367,-2.5532386088701937
93.0,-6.0256568891832245,-24.450956792733106,-18.42529990354984,15.265568473558236,6.247285297256707,-21.40496557287281,3.025057564461563,3.4653220428945906,4.014337758792938,3.6441425526176197,0.4071169961527945,-11.064642445544568
94.0,-10.32272593037022,2.933930070468337,13.25665600083868,3.644067921479028,-11.822623077032873,8.129658753139825,-0.5418400150997482,-3.490970801603374,-0.5829758212465574,-5.869901708226306,-1.5851718564037995,-3.3334371341336686
95.0,3.4269695221276475,35.03691880246397,31.6099492803364,-19.198406392537038,-14.128088477146637,33.280145586387526,-10.820490219091083,-8.21262008930338,-9.610810809547829,-13.616969710144852,-7.776600283988744,-3.132314269654408
96.0,12.459958643293646,14.748360693825408,2.288402050531638,-13.562174636769862,5.123761372666367,8.555132071415812,-4.001572293847365,-1.7556283276955544,-7.350328381837095,-13.99682084072525,-9.241558081035437,-12.081393655889457
97.0,0.1864628947826592,-21.08860421286499,-21.27506710764785,10.424345748785019,10.765430870327913,-21.221972866438968,11.421960400848441,-0.840843964029909,0.7445731823860653,1.1206378924562985,1.512227998280626,0.9351905468713415
98.0,-14.824290745010098,-33.812245967192304,-18.987955222182528,24.30085220876055,2.114652638763956,-26.43733715850005,17.113592037306915,5.220564855026498,12.916968559762891,19.12177400411272,12.710801654799305,17.308642775192624
99.0,-1.1308419353179264,-5.963045947513532,-4.832204012195881,3.535992752379668,1.804189656853596,-5.351815277888944,0.42759375602873284,8.161909769235745,7.112648680862377,15.054683232343212,7.712034911658986,9.955164702271597
100.0,20.98207657537378,38.60330056684899,17.621223991475105,-29.80122130840546,1.6341422227069962,28.163642926675532,-10.355313179408999,10.601322166375198,6.310459405961838,10.964882791839084,7.274687117395999,3.6454842795173272
101.0,0.14836579369684344,4.086204775898972,3.937838982202077,-2.127482604435162,-1.861462845269903,3.9906380806830857,-1.0041137874435968,-3.195814881684168,-0.37685620590585733,-5.062832729262855,-5.6660446330448835,-3.990347889039084
102.0,-14.20530142658609,-13.736549776830028,0.4687516497560349,14.034606051022655,-7.380583580269407,-6.6503114540705415,-4.375056819875444,-9.419943895474661,-5.498087713402736,-12.827820043250565,-7.016923328804676,-4.678852629144469
103.0,-15.765874090369925,-31.059309950798216,-15.293435860428206,23.390693944285175,-0.19707345975596624,-23.19019617689679,-4.004497581337461,-7.214997393129839,-20.454917283188497,-23.403990353116644,-11.924997165385264,-16.495779917142436
104.0,16.424056624125463,13.491538968668037,-2.932517655457341,-14.987334876867472,9.724067662713544,5.265322851201176,-5.954795766698616,4.548304919357252,1.2939352404777544,-0.4041920289069143,0.6697851639052965,-3.778794178887928
105.0,6.861388632910401,20.08569691248932,13.224308279579047,-13.43196589808109,-3.205370884096471,16.638102686716046,8.926490818069993,-3.5204080353505653,6.547932642417887,7.895726794854566,2.5541345759580754,0.7025374212524325
106.0,-11.430302958224662,2.0708383020638887,13.501141260288744,4.635414410326119,-12.47948885039658,7.84435346025061,9.358409782647108,-2.523329648575262,0.5774819446206871,6.639313147831598,0.8434941358552503,7.049724095155721
107.0,2.78346540365287,2.611706357665825,-0.17175904598671643,-2.6695293261464217,1.4730385019008687,1.1971847141329972,-4.9331152923537696,5.624557092330459,8.664260433239491,10.97948096537247,8.473057827404357,14.34913555753187
108.0,4.179100942743617,-0.47694393804335466,-4.6560448807866575,-1.8284313319546972,4.419196143777995,-2.5892632645512963,-3.9511923788680647,2.0889094448579324,1.1750720945795434,1.6501566825105485,5.170671698678826,5.260007844934977
109.0,8.594604802853098,-12.963154353547935,-21.557759156400877,2.1239483236346226,15.079621758050175,-17.20178708219621,1.545803308727991,0.7041980667074434,-9.92566991245013,-10.622065710842762,-6.670309672535951,-8.645317313770033
110.0,-7.814733626593273,-0.606564864497166,7.208168762096017,4.226313117409344,-7.510875824958243,3.285095405540236,2.216524369808767,-2.405872518048259,2.7388612860227446,-7.87241262838928,-6.129386638881122,-10.402711967074143
111.0,-6.590549107774479,-2.208195012051185,4.382354095722887,4.413988648340359,-5.492534840941206,1.075568823515301,2.786557876776243,1.3843110505737672,5.04834986065336,5.927023922493573,0.4934724231078649,-0.661990375488072
112.0,2.62236131525144,8.326895825033944,5.704534509781959,-5.459323526453893,-1.5557746408959927,7.006190138975409,-1.4580334235943242,0.38867125260253577,0.8374695015172683,7.937550208832016,-0.3317499044327714,2.6639455810787895
113.0,2.3920565993477094,-2.566481176987914,-4.958537776336053,0.1045855546313133,3.6523280621774816,-3.7736775492514543,-1.0377519529621775,7.096915781554637,-1.6398751115095496,4.036187839038486,2.1480044001621166,4.385595668522337
114.0,1.4559601607227786,10.150734105488722,8.694773944765709,-5.861958616422786,-3.5696461442166525,9.406021866276854,-7.551393298912506,-3.701155224111681,-0.4901557714958027,4.235783695282193,12.326619000804218,9.132552602698595
115.0,-8.561074089280593,-12.425788816892293,-3.8647147276116356,10.516283962405982,-2.301282730604788,-8.091837633097718,2.651373388963956,-6.629667710315527,-1.8022182357389163,-8.854046420792331,6.070290201281642,-0.9046022137765379
116.0,5.9061646183809895,-6.947151223512293,-12.853315841892943,0.5454915712178385,9.347738662211205,-9.9355215748201,0.8831865302486858,-3.301773656134683,-4.946902560527659,-16.256613310718638,-9.706525082570694,-12.270985066732102
117.0,8.042693224959347,23.05686181358466,15.01416858862598,-15.60208446121871,-3.5166123029933147,19.06962883037677,-5.185295506143127,-1.2482726860729771,-5.019915333290092,-8.803170925080295,-19.593428435685084,-12.394568502343954
118.0,-1.1537693436846492,-0.7147840391759974,0.43898530450933215,0.9616662427148235,-0.8264969867559928,-0.18957932260092303,9.222020968280955,5.576341808530045,7.540113293629789,12.037523867751474,-2.801747472655655,2.865495720923648
119.0,-12.779155174111207,-19.747553614516434,-6.968398440404931,16.291530701643044,-2.857459039408744,-13.334574816020607,6.916011845630184,1.501245749793175,3.7286986130813156,11.41607784056755,5.157446730221034,12.65676844993983
120.0,-2.282367427408408,-17.383168310211474,-15.100800882803156,9.78305160511869,6.375995839154305,-16.218665234500016,-0.41763009572975873,2.321501349624788,-1.4430394708230563,2.6301485017414734,3.70514159308936,7.056854000154302
121.0,5.777250732673968,9.72040575025072,3.943155017576336,-7.718911801803889,0.959016683851801,6.857937125315427,-5.801133258515082,6.48662593733226,8.499217189265284,12.065511371687714,23.73536679581255,12.198077754559797
122.0,5.6763749493556155,15.00617578050865,9.32980083115265,-10.310775835629247,-1.867407995581511,12.119858399601407,-4.675320989366343,-4.6011564488997205,-1.457314422450847,-4.845503911207178,2.0064839444023743,-9.740335076527966
123.0,4.908563964029239,17.977826729551282,13.069262765521893,-11.491582613006125,-4.045833380556644,15.480054451339873,-6.007372774065017,-9.791972918875707,-11.063716315950723,-19.757350058220577,-19.427321416183783,-18.053097450661177
124.0,-3.0878886245368364,-1.8587896445946184,1.2290989799423224,2.50264539451985,-2.126693862817296,-0.2759459803876645,1.0286222478176543,0.2750390424243836,-0.05653975583270743,-4.275817338536896,-5.816690068956308,-2.6264804525715757
125.0,-3.225388151198886,-2.5549066153002187,0.6704815358989347,2.83904010162133,-1.996547680865284,-0.9014205803835204,1.570590700891765,-1.032062537124619,2.2211715254358446,4.484075487246037,3.476845681652624,6.182920312163047
126.0,-5.494317842703701,-21.122729684748748,-15.6284118420448,13.334783578546135,5.018047650189441,-18.41378500063029,9.754036375436046,5.177684031667385,-6.615674606030866,-0.003690621005089545,-4.659117246493238,-4.574582918909083
127.0,-1.7557552475315474,-0.8397441393007146,0.9160111082307942,1.3240931686420012,-1.3049232101584782,0.07613604521740314,2.248299907086163,4.575554940048755,7.021135983853354,12.092330394955843,4.462796627731598,9.387482226855363
128.0,5.0894453480052375,6.485947959450334,1.3965026114447774,-5.837599240890977,1.8804593605821762,3.8959246689619844,-2.2568029658584137,0.35403026571452045,8.391130901028362,3.806860792101296,3.174951921405471,6.006173822227796
129.0,8.523584038063056,-0.9263205342779219,-9.44990457234139,-3.7646907154530025,9.02533425408924,-5.160381849976702,-6.241491944225584,-0.18193823065979337,-6.99336257179561,-9.151225783815711,-1.0398686450656291,2.562736522652732
130.0,-4.467592636711941,-6.580717517617522,-2.113124880905774,5.564843752167043,-1.2121025987852585,-4.403307827653348,0.7818346809062815,0.6446600421316042,2.0006948572743832,-2.7242289845672554,2.062145483006707,-1.246654128180631
131.0,-4.0023397819253566,4.237149811655142,8.239489593580497,-0.14900643862854468,-6.151051249819011,6.257548740990543,1.9785826809160636,-3.544562351613528,-1.6078238821971853,1.227973073269415,1.7380551668375226,-7.8474792814574466
132.0,-4.481767281875028,5.519897828804975,10.001665110680264,-0.546871428854588,-7.268729488114047,7.780679019370302,-0.7924710427855609,-4.059631675725566,2.215916068843343,3.7358730006098195,5.535903671849793,-2.700568463304694
133.0,-1.58166794032299,1.3852835840423543,2.96695152436585,0.14833856240649945,-2.2214778945919753,2.2009496121923853,-0.06382875956070233,-7.095530662739124,-2.6902337538063477,2.5717002714110566,-1.1007695398439221,-0.7293664784154821
134.0,7.486961477631028,2.734203330815375,-4.752758146815303,-5.145192269970961,6.0932483791633425,-0.9763506110306444,-1.8696287731509182,0.7290918018747283,-8.203924253809236,-6.49042733597001,-13.679512107116924,-3.088792615126557
135.0,1.2659651204152071,8.732394385567176,7.4664292651520485,-5.043820909693293,-3.04996582538067,8.062406267957053,0.1539049072231643,12.501198297824557,3.9993732435527165,-3.84588631209256,-2.929793367507428,2.913685183544105
136.0,-10.237875958868997,-7.335423136879001,2.9024528219898382,8.809548808908739,-6.601040465264994,-2.246794500018695,7.328808240399294,9.605069032704664,12.379627775944412,10.446494921061557,13.48846709942655,15.759221237539743
137.0,4.721623175765723,-10.582047046618985,-15.30367022238498,2.9444167205151284,9.979412258042458,-12.970680631123527,-3.0928377129515416,-1.552876624425373,-2.2784422649401748,-0.5711990772121895,-1.0370928732417095,0.9493871033036729
138.0,18.0885931173476,-3.0008682801219777,-21.089461397469805,-7.532557257040858,19.632650721670846,-11.996489352792025,-5.140493411923602,-11.537271113912821,-8.835866817017362,-9.600534693537234,-6.20436605940604,-12.083277129398741
139.0,2.2808287011509187,4.233055032370193,1.9522263312192525,-3.241079855102338,0.1280406774310734,3.05667858729963,-2.0848568234690172,-5.007583392145438,-2.32755924723487,0.40711547472870935,-2.9135392186577276,-9.727692411670509
140.0,-17.948708619061538,-0.9885644386222505,16.960144180439322,9.495934617848492,-17.412250485939254,8.021233950937381,2.492616605990269,-2.8992781681499107,2.1781688379983404,6.88924026231175,2.9022954904298026,-0.6217223637889084
141.0,-9.392246517113442,1.9923897256280936,11.384636242741598,3.6642106777636685,-10.424769310817513,6.717579318513643,4.583362529053151,2.0170370800092288,3.8451608749939226,1.8871875439599517,4.276494884902197,3.3939518274645573
142.0,2.7392823863280285,0.1686449692211509,-2.5706374171068322,-1.4732668152077197,2.697621713856698,-1.2541395852627613,2.2733169812712184,7.62503684229786,4.122435779344837,2.290793502190895,7.768317264188083,9.565636294640097
143.0,4.482939814020447,9.279906174580917,4.796966360560421,-6.887038492720212,-0.19354952748201493,7.064578538635465,-5.032792901281144,1.9956687525647983,-4.905607349391067,-10.476690031666426,-5.770399864010689,-2.8946224686997644
144.0,3.9838038046411426,-1.3150255744905692,-5.29882937913192,-1.3312497434101314,4.681929067167579,-3.354936903542924,-0.9690541322268809,-2.5754841450241797,-1.2744265964418426,-6.672635287677355,-8.658203515259457,0.22210451567372402
145.0,7.109467555465818,-4.993188216463981,-12.10265577192993,-1.0517805883635718,9.565265173937004,-8.509467075776787,-2.5339289215741143,-0.2963488900239568,-1.7617016727694321,3.6657301294057927,-0.4122596898673532,1.554749467331048
146.0,3.4770642743215214,-4.488939075920513,-7.966003350242078,0.5107870174073674,5.677832796293741,-6.180049857496905,2.6631254839455685,-0.7027803709699585,-2.627136541571125,6.831052308454865,3.743984966214683,3.038418752510626
147.0,-10.41155291575797,-1.1012000962984096,9.310352819459691,5.756631420296488,-9.827752946955286,4.081018294201023,4.795476759999546,4.412671219529918,5.760606923280127,11.340868390958109,7.017870408080208,3.9278727705638588
148.0,3.206257384723869,15.4632699853653,12.257012600641634,-9.34038065379286,-4.491804697926237,13.840812519543714,-6.064906240989387,1.2773740828101459,-3.097017938604362,-2.390788652954306,-3.486919748023842,-7.127691125258934
149.0,-4.2562009017793,-3.122232874268584,1.1339680275108068,3.6778561630259006,-2.6586033480842013,-1.0141282083545482,-4.705846278988533,-2.805316352829618,1.365095768511321,-5.3243564788999045,-6.350615604617797,-4.941584950558033
150.0,-17.599016687405197,-13.257886725470954,4.341129961934191,15.490910300968029,-11.00777951836713,-4.483642899951192,10.68499929248696,4.102379148018186,12.231388815070424,-2.0390384264811914,6.243803228237566,1.362050214058593
151.0,-1.784078164811414,-11.833616931382394,-10.049538766571017,6.788435646304407,4.099481428356517,-10.896008969132868,10.185315102437073,-6.426166612331647,9.535778088592748,2.6047138914902512,8.725671201358606,1.6210629534329473
152.0,2.883879746835623,14.212326648418276,11.328446901582632,-8.572124090744476,-4.17425364868167,12.729515085561115,0.8134956272393814,-12.105828504560009,-6.744195195702237,-2.13319888028691,-2.1229060073302457,-3.2522928450162087
153.0,32.65859067274471,5.85995783328216,-26.798632839462556,-19.286430987960955,29.69748448167287,-10.43632507692324,-14.595477982799274,-0.8044864761367183,-25.80554942625396,-11.71462954119017,-10.126224273455293,-4.496529898226891
154.0,0.36722471216620356,1.8934783862128528,1.5262536740466475,-1.1596135538867305,-0.6136433869018081,1.7420339957484656,-9.195550120456822,3.5601659280724074,-11.030562711107123,1.809898537795093,-4.916876643511445,3.6962172099208384
155.0,-6.569553721109992,0.8002371262931431,7.3697908474031415,2.934027453042643,-6.92898745823663,4.119624841376546,-4.447190860572544,7.653433438548233,6.22629600986269,5.817444711546298,-0.050710714177401695,7.608416546253715
156.0,-0.945444626913039,1.9515652955707938,2.897009922483808,-0.45113077363251364,-1.961794863536113,2.3835894798242054,2.1052302681473374,11.837692751814984,14.710154116310434,2.5972616427266484,1.2325428392509117,2.003882851162559
157.0,-3.220486638738553,-5.293009593449941,-2.0725229547114425,4.234936679231446,-0.5347769410078413,-3.7217151281359753,4.56618765208855,0.2635194674336878,4.969353418444593,-4.423072214711768,-0.9443087919351738,-1.5981422801510297
158.0,-3.6771555425100217,-4.793926507784618,-1.1167709652746742,4.219877922181581,-1.2355895207036776,-2.995987784186572,8.806951378522843,-4.720310025171371,3.9520020957113022,1.4287210281111915,7.934925595406133,-2.5470800808954603
159.0,-9.51964819113668,4.083038451882103,13.602686643018707,2.7080224415948964,-11.586419085038413,8.87582904582466,9.797176470718977,-1.4802032159031775,10.372099949146742,13.528534629688155,11.941202909644264,3.5142303233301266
160.0,-0.9233123708726936,-3.0350349579026976,-2.1117225870301466,1.9718013667556895,0.5789939639438249,-2.5474444902845694,1.5377523882882564,-1.9167488471719478,-6.914766856557462,1.9018126125169923,-4.339521163650127,-8.276708931239202
161.0,-1.708350312246204,-18.139208791200815,-16.43085847895474,9.91599787634135,7.354290587489469,-17.265750854367607,2.5624139722123385,-0.4488071873066639,-5.825173266256929,-3.697628571614741,-4.57478813811079,-5.105868551040237
162.0,-1.7714189940317875,4.528676726118172,6.300095720149898,-1.389941418113353,-4.038685804823643,5.429363414086683,-7.149655727031547,-9.766059845780251,-8.693709521403855,-9.092643110643326,-9.263777679961247,4.4569712535383115
163.0,-0.46574855733190823,20.95809912370408,21.42384768103598,-10.18441527362773,-10.948971230903744,21.126286671727513,-13.795173890229796,-5.203561660803251,-4.8038679071222194,-6.354456361931174,-1.4049994581158138,3.580157921066328
164.0,25.39781483307994,14.535534314153416,-10.862280518926495,-19.990235792232614,18.119902438710145,1.8531884692610339,-13.906480071298358,3.594129934824612,0.18358840553393208,-6.073442904816924,2.187080476663654,8.58379018667002
165.0,12.179570097358562,8.335257886122244,-3.844312211236261,-10.287339712693903,7.992920234520132,2.267150356476681,-3.028513745558823,5.610485469992588,4.5269032443342265,2.49067748717563,1.7472018677939656,-2.84221150735525
166.0,4.150451093780184,-18.34665578130795,-22.497106875088164,7.14152104119044,13.374038859660239,-20.393763555261007,10.809742751796241,11.500894188778108,3.463606154564065,3.5058582976566415,2.421735110878641,-6.901532691831036
167.0,-22.9852303023646,-28.351062594717344,-5.365832292352833,25.628782400460477,-8.767571701168935,-16.90274572780485,17.63952597563328,3.6530511869319726,2.2939927199475765,9.632799169670463,-0.9143386420859145,-3.6614386577557676
168.0,-30.420945145948078,0.011329541642142615,30.432274687590024,15.241712641217264,-30.46901028194176,15.182540750914729,12.265868177347418,-3.3811677942745435,10.301117999199098,14.757569674684898,10.361007301908877,8.785534302089104
169.0,-5.607164213203525,14.537063663400378,20.14422787660367,-4.507672368581828,-12.921390409790602,17.383183207352456,-2.9464311473040024,-7.494204274651349,-8.930156574276321,-6.3957952625151275,-0.6284974723401913,2.1809968755915397
170.0,10.003781366634271,10.984757553376877,0.9809761867424438,-10.457529265837763,4.543315273894567,6.026289123924711,-11.449845927410129,-8.123898704696385,-6.63850665822171,-11.995046710382121,-10.05785017416978,-6.829028639368417
171.0,20.126748967612258,-11.819124659516032,-31.945873627128314,-4.193614356831354,26.068902180209268,-21.918929452794405,-7.394885535988033,3.903596765853303,0.06479326641866656,-8.64405094189975,-9.430797718311634,-8.938305321646995
172.0,17.48556844536957,0.5728658768255559,-16.91270256854392,-8.98683348941466,17.155379841766624,-8.209062674556154,-1.71213641878537,3.038924895718839,3.3788887268802896,2.5963010169810765,4.507542205241143,5.669749395490788
173.0,-1.0107675392179285,2.8591778300065807,3.8699453692247126,-0.9564415405824844,-2.4799044629298184,3.400347271622503,1.0348756605855822,2.398474643707598,8.019855255072773,8.556623617927388,7.7687282889084255,8.634566611531664
174.0,-9.124374533533588,-5.117550081583634,4.006824451950181,7.17149508529514,-6.52044011731236,-0.5239270014427087,6.665528439759614,4.0518684968299254,-0.8516479067981284,3.145193985638725,3.2486826889939575,0.2283427699211007
175.0,-6.824303052678765,6.31685157107516,13.141154623754112,0.22851202220856415,-9.93048532956227,9.677369681399501,-3.286904796826936,-4.728701858480705,-5.4226513662168125,-3.6555773957849853,-0.5885657499111407,0.6255016732329994
176.0,0.3264866101484234,-0.9681151369400902,-1.2946017470884001,0.2969017358702031,0.7907795661234083,-1.1080419644463975,-0.9171113766190648,0.8448800706176871,-2.887375091096642,3.0194185568363565,5.603110693322311,0.025718782239297286
177.0,-5.218158056780681,7.263187291890125,12.481345348670809,-1.0470003287380032,-8.865232763226174,9.892723752881642,-0.6565065014173237,-6.402151410196712,-5.6411589433148235,-5.293263214829875,-9.54059842579006,-6.705352101250338
178.0,-9.135862438836973,11.192189511033458,20.328051949870332,-0.9759510635722921,-14.747660893945366,15.700274549297808,-0.02669731856249835,-6.822789067370275,-3.079151952877715,-8.47318908815677,-6.412753336710773,-4.760237963030896
179.0,12.347685359948471,15.504029517576443,3.156344157627821,-13.955226845346871,4.574148022739996,9.349076579933454,-5.6648025151893275,1.8345176187314591,5.981253986972991,1.0529109522263398,-1.1505849199293605,3.9720163781010887
180.0,11.03166523763448,-18.56757080387323,-29.59923604150776,3.8143110463092866,20.36172670539171,-24.063063038613407,2.059087804281358,8.76545204544915,1.3615038791594483,1.9413812824864127,-4.653171670634597,-4.0733508698234555
181.0,-0.4938554336378589,-47.64084254027143,-47.146987106633496,24.03195593484813,23.280054410394044,-47.37122033357272,12.98002685890801,10.370443352753497,12.27932007723667,12.398277381137696,9.687351844521348,3.748971489295202
182.0,-17.904276133865114,-13.498671083379481,4.405605050485818,15.74173789570023,-11.136720618595323,-4.521581300168894,7.163499304612934,6.6087522926471465,2.445555546760759,6.276084904095343,8.063665618184904,5.6029134890572125
183.0,-10.450731570721244,20.902716634992164,31.35344820571363,-5.267769683941807,-20.894583668970874,26.075426414925502,-0.3890132452367525,-3.5886640268791394,-0.24849629114352886,-1.750291725839359,3.167897885193363,2.1313515312853952
184.0,6.217107378447593,22.6751137111967,16.458006332749328,-14.491126140417343,-5.117845942137743,19.51353100088221,-12.097047730822021,-14.008521015715793,-9.83902404349083,-6.951909598089768,-0.23829382530132337,1.6078640665150463
185.0,13.519457268860455,31.53051240529464,18.0110551364343,-22.493749363935336,-2.241314182725919,24.795235036905954,-10.09120261702533,-11.870878718063544,-4.920094125990429,-5.578046905589031,-2.2739133630731345,-0.36839646338130905
186.0,15.027720247063211,11.781872591997933,-3.2458476550652673,-13.374536622842635,9.149076719173731,4.291720117050179,-6.017713018730026,-4.687691867617851,-6.804059737862942,-6.201752970327755,-7.812171338010219,-3.6791129603531596
187.0,10.008504562255522,-17.099871639070994,-27.10837620132655,3.576821419166203,18.582069248006757,-22.079179258655007,1.145588042847546,14.123554741927343,-6.751021876735435,-4.402251063777756,-7.244808457305591,-7.54119877607101
188.0,-21.08839580090747,-21.78402820069383,-0.695632399786394,21.390869284815622,-10.23976793303008,-11.211018984338988,15.73293395655706,8.740079546869548,14.647809468050717,11.553794404686295,5.295351049280806,3.6649990956327843
189.0,-16.092329295219965,-24.40814436237803,-8.315815067158056,20.286217195316354,-3.922313655323686,-16.40595084510614,9.203051773609415,3.8514842212258964,14.148144815526356,8.8011921536608,4.338603064844088,-4.227355238838102
190.0,5.574095723380109,-0.556053473600981,-6.130149196981035,-2.550031810364377,5.902141532214827,-3.3804558261555098,-6.094989630208655,1.9905462038146662,-5.734947474826259,-5.2604168465708305,-3.2471863647539294,-4.2724443197542925
191.0,1.6135819849907722,10.7538494558721,9.140267470881426,-6.224291375944896,-3.7907987431369317,9.993964444647956,-4.076175882046476,-9.759220554986321,-2.324340416948998,-5.146660812399187,-2.1542314432593894,5.559944447311008
192.0,0.15809195850454838,15.274823031594222,15.116731073089774,-7.678801540488959,-7.508328954418675,15.166869825484603,-4.770847526850167,-9.395342541409004,-3.338409933175665,-0.6844993080672426,0.9450265172121051,5.873230413165208
193.0,2.2862444963475657,8.110122944905676,5.823878448558177,-5.161006944973341,-1.7217045818900227,7.01638400165678,-1.754252051260083,0.950924509595219,0.7102531843749227,9.09006161978706,8.419158014096803,10.416339842679495
194.0,-2.149034968730521,-5.533267714866303,-3.384232746135753,3.8001486817328534,0.6624438448490958,-4.492000567519426,3.7993909111079196,5.322928489576533,-2.0030310314242596,1.4778506868422125,3.4099670981104335,-0.41922988821568774
195.0,-7.776375207107681,-16.597644454646115,-8.821269247538435,12.22683862034377,0.48718304790662437,-12.749238948386763,7.914138377129073,4.748260425947685,-5.869429292015118,-8.986150015822025,-6.156321028383495,-14.167846321955519
196.0,11.790362653503614,9.942901345631661,-1.8474613078719928,-10.902280264977971,6.78282149461994,4.0789268567363495,-1.1895729950088798,2.787543837554136,3.3618320150342025,-2.682949733193453,-7.511208238591504,-3.6590555353721657
197.0,12.722350678967656,19.21852989821913,6.496179219251406,-15.923801296688424,3.154587451995627,12.881257595824625,-11.085293349704942,-2.412219385896897,2.0213985511396997,0.0028369322027117505,0.568772715815034,2.898818482679049
198.0,6.408848634606386,7.1126856030249765,0.703836968418531,-6.7901505992059885,2.813002749665515,3.9267863490520574,-4.954937221236532,-3.4400136835554305,2.2153693373342453,2.8239544058266812,6.976336762342708,3.25864179983739
199.0,-12.607421570806965,-26.140706453033413,-13.53328488222645,19.345906549434428,0.4985755290198084,-19.899798144523867,6.109383951966366,-4.617238562736947,3.947171958165255,3.549065713379765,2.2639612144215313,-0.8235478894401995
