Time(ms),I,II,III,aVR,aVL,aVF,V1,V2,V3,V4,V5,V6
-200.0,7.261857710990851,3.320537335871635,-3.9413203751192465,-5.2644759446758504,5.6252464405391684,-0.25426408717623616,-2.9645581337319853,-3.537677234914518,5.11562896852867,9.919383378297265,8.851210687657233,4.175898568063798
-199.0,-5.575283153083163,-3.05941670797611,2.515866445107082,4.270582414162801,-4.023750660633492,-0.2980826992743584,-1.2131499148096738,-1.842750561193764,0.19383244877257022,4.778271945284477,3.2971558080839785,-0.20971745176819123
-198.0,-8.769109590138825,-6.177357074974841,2.5917525151640817,7.510948683048229,-5.656277499869513,-1.7427278280512644,3.2044840402842794,1.0998144975332786,-7.436788132496661,-8.79943254908532,-6.307517539116171,-5.725123968340954
-197.0,7.099418618129187,8.620125961337596,1.5207073432085356,-7.816971679018675,2.7398590773325866,5.040807229643315,-1.0678249496852936,2.071551402439626,1.7756944026055121,-0.4090166121245451,-1.4824078584687097,-1.1242398322618985
-196.0,-4.911436437330174,-4.55958731596764,0.35184912136266466,4.70269019912376,-2.596953728046903,-2.1337435996110266,-0.5015942407450291,-1.7034292367255752,-0.019622632308059496,-0.24457709944117,1.5686251260032913,5.758020528535832
-195.0,-7.3256509863749555,-7.967078864387533,-0.6414278780125673,7.6134760871259255,-3.382783643895479,-4.256104759509838,3.676009890597555,-1.5857693970446949,-2.3588246714567576,-1.9731859265050116,-2.515199258408135,-0.9491940212459158
-194.0,5.958732705886769,8.311381018889389,2.3526483130024785,-7.093203772870026,1.7623714917122877,5.2993351674400255,-1.440308034680435,0.6737210607990914,0.49325590143133535,0.767596488244124,0.5716765673607052,1.9818357761187984
-193.0,0.9601929619854168,1.4526551891114585,0.49246222712579535,-1.251173871681769,0.2686884664646634,0.9362187801646629,1.131590310326477,2.5958574905971314,-2.101385945930117,-2.394962210675849,-2.99457155753512,-4.638264818777554
-192.0,2.186981878329093,2.6429888337737175,0.4560069554444326,-2.3916606437608623,0.8951303901034533,1.5871624652364489,-1.8566320132830267,-4.999547685155051,1.9855271939903452,2.350802081005403,0.8733647219815586,0.35520895553240384
-191.0,-0.3635410260887624,-8.794304757538931,-8.430763731450199,4.590489507617999,4.057976787793621,-8.57975167753628,1.9632052078381421,1.8237319738425972,4.677295364564439,0.42772683833877934,0.9433164629699891,-0.2040952244781773
-190.0,3.077374913341589,1.542247048614386,-1.535127864727118,-2.3090029105253578,2.2481090329724984,-0.04647866354337982,-3.182543090154912,2.561369031322537,-2.1246537004411943,-1.5405825685796817,-2.1115090744999705,-3.8378008384288993
-189.0,-8.661779010638838,5.336970709491771,13.998749720130764,1.6554967809806436,-11.31087263661085,9.693883252044268,-0.010984962488639338,-4.3511775330869416,-0.9607202754541312,1.4019272108715324,2.383758237397341,6.499149258790322
-188.0,-0.06083231049794602,-1.4872767569758567,-1.4264444464778698,0.7641805919134685,0.7038811419718805,-1.4320860913897433,0.5939565376504756,2.1430015928220145,-0.1897604186907068,1.0506906456283491,1.9985597445089751,0.7700804156162757
-187.0,9.374827463893652,-0.7970211553033767,-10.171848619197052,-4.295873379416185,9.72001047375361,-5.53856100953267,0.0475227598226744,4.8457730387894165,0.6798560345923972,2.4181130266968136,1.0442900137262687,-1.646603867361635
-186.0,2.1299310982217845,-0.7267203921007048,-2.8566514903226157,-0.6995276125390959,2.5249825599547457,-1.7665876944574193,-3.4316049061210823,-3.859424168982674,0.7996257641757805,2.16816950362285,-0.3038639902598127,3.7813932233424303
-185.0,-6.533098962203622,-0.8354063298465102,5.697692632357062,3.7006856176038987,-6.076674551757931,2.4570354560942533,6.3531666736423515,-0.2661639657326691,-1.8058626105819893,-4.030508004781641,-1.4475134561737266,-4.391360957220791
-184.0,0.5557742135514285,2.0861203883990616,1.53034617484772,-1.2869099853380348,-0.5209344761096752,1.7565596904957506,0.49240153652027985,-0.3280743153286184,-0.26580558314501446,-1.0160567641196971,-2.2596267202990754,-1.5405755277058024
-183.0,0.1502801599113084,-0.6431765628277432,-0.7934567227388389,0.2195552923026523,0.4425940264673338,-0.6891840687476336,-2.7827849683027317,-0.21214554691179777,-0.09283720859278516,-3.576167463933886,1.5503121318890392,-2.3002133388384856
-182.0,-4.772462108734464,-6.331004538123104,-1.5585424293884709,5.539537583384121,-1.556035332320434,-3.990758284477411,0.7924173191597244,0.7713927154662431,1.1405038341877312,-0.4369232803815457,-2.46557174530914,-5.319138200746167
-181.0,2.319421829997399,5.468902475167836,3.149480645170436,-3.8975124851765526,-0.4445171046630884,4.347684647395315,-1.9041626493147241,1.6365936810475714,-0.8663166213167652,1.1527438994860781,2.030559123551898,9.926634412192971
-180.0,-3.4737742804753644,-0.05570066146295871,3.4180736190122545,1.7630560101960933,-3.4795722058110146,1.727361721391364,1.6725686912045623,-4.496046297121319,-2.532057154240417,1.7707486397178431,0.287757315443001,5.337957918375557
-179.0,9.689904029522832,6.185222035331351,-3.504681994191698,-7.944316870267922,6.636946912962731,1.3162839146898373,-1.2529381300062559,6.632821641998804,7.250671515169967,5.734254738664423,2.190590902520204,1.916593796413169
-178.0,-5.0416361285368,-2.356051484414361,2.6855846441223323,3.6822615450739713,-3.829271275198342,0.14854032040129772,-0.8828605724580111,-6.75517783638008,-3.9424146699706464,-1.3804160806893888,-1.6924630480769367,-3.9745083470125246
-177.0,2.2777366448019145,0.27545439395372395,-2.0022822508481273,-1.2261620537838473,2.0916470219492034,-0.8744958185387612,1.1194172160078406,-1.616822423046653,1.1724950431034002,-0.16197815988432623,3.704391836059929,-4.67697609692173
-176.0,2.562557705912617,-4.162559286796746,-6.725116992709203,0.7608529273241429,4.6724482351285515,-5.4535217950634625,0.4148888798665768,5.113918811126175,-1.5890453904728734,-5.978989978056875,-5.153083413843504,-6.059713064688966
-175.0,-3.7870825770269443,-5.816746099223949,-2.029663522196904,4.833553354461433,-0.9280818308043661,-3.9353199848815814,-0.12677681565731624,3.386757044643738,-2.7241982298063556,-2.4256911329587276,-3.0795277922564805,-3.919249478090344
-174.0,-10.642723251709938,0.7322749157549997,11.37499816746491,4.982470266483412,-10.976186534854802,6.114890602746758,3.092204817796728,-4.836901798315251,-0.9338345565771252,2.984542720640195,-0.556051021927819,9.846279317040704
-173.0,4.727201608617608,3.9746794264958782,-0.7525221821218375,-4.403743498616214,2.7780081717007796,1.5866765532609253,-1.6622225117790115,-1.9963717285779636,5.669402256946707,5.917030606451537,9.490130442634289,5.6439654902466385
-172.0,12.330113933731814,4.932161165777505,-7.397952767954433,-8.604550196223844,9.830433228031051,-1.26424941041128,-3.3099492857942723,3.651933240134021,-0.32548690781906386,-0.4735204641220583,-4.113216312516764,-1.800171286963658
-171.0,1.4048122492452633,2.349750971228731,0.9449387219834458,-1.928057447530381,0.20405766715063667,1.6889128936190998,-0.9938293317741196,1.6963570491284292,0.42631968785527435,-2.8594908456788124,0.06885688799544301,3.2899075081522047
-170.0,-3.1439229081395235,-5.3415187478349955,-2.1975958396954094,4.272052214062732,-0.4914528246951039,-3.810807293361725,4.44601419731817,-0.8399366802130134,1.8551428538353887,1.5986552304853152,1.7533779837034473,-7.280737176020304
-169.0,-5.16144624968028,2.2083735223848975,7.369819772065327,1.5069349980823366,-6.198577163271453,4.8242983494432,0.22903368249609146,-2.4140574610735235,-3.0108585767243183,-3.646211930820877,-0.5079396245109976,-2.0768514551375565
-168.0,-9.324585420381679,-5.077392461861481,4.247192958520298,7.153481544516124,-6.792951257916597,-0.38098250221746666,-1.8458041085144075,0.36643548131395054,-3.3399967936564985,-0.6033602829868774,-3.5761240120030644,-0.933987822980811
-167.0,2.2877228735050865,1.404505300719181,-0.8832175727858986,-1.8141210647796902,1.5800109615295588,0.21529280354844965,-0.6979542458565178,-2.316318792286528,-0.4937692616854643,0.728617935393248,-0.7709841223665224,3.394853577952421
-166.0,10.773950526688841,2.5409553379017393,-8.23299518878718,-6.624765180365652,9.495712997305215,-2.892442507398649,-1.2528647306169214,2.7432635484412167,0.32529404813921103,0.7211218685238183,0.16409557884880344,2.5523294654138624
-165.0,-7.967179442938747,-5.333637037054487,2.6335424058841714,6.604950619129851,-5.314508087401207,-1.3194003734199238,3.81412926199042,-2.1395693984020943,0.06695602653767707,-2.291427679415148,-1.9240136792499856,-3.0641218830734136
-164.0,6.6038511232651755,5.731612422171972,-0.872238701093226,-6.21266084132402,3.7143352040829303,2.4582786031498145,-4.52522378013966,-0.2667177636620463,5.217317853224184,5.654319243005183,5.336669354273368,2.4142377100562182
-163.0,-1.0328178550444278,-0.7042629133266045,0.32855494171787325,0.9029195249357871,-0.6363661667034028,-0.1612194919959462,5.361030725658574,4.849555272444441,0.8864457590936667,0.5076709631795779,1.2182040704377122,0.36921644993044467
-162.0,1.7308827466734273,-2.8845167539808982,-4.6153995006542505,0.6118272679414982,3.129487158829839,-3.8034820532939158,2.3895863921108886,0.5980419017111995,-0.7544744753904906,1.3000810850854811,-0.3352840671660222,-2.3011839049717873
-161.0,-3.2434462086494826,-3.6375614667815275,-0.39411525813198883,3.475981124813246,-1.3948060461525094,-1.991108079587942,-1.4939954883810216,-2.774571545373781,-2.826220443840669,-2.8650803927371897,2.026417358557201,-0.8971030747510986
-160.0,6.819489203583007,6.720268738286851,-0.09922046529610784,-6.813337102707948,3.4894747545126434,3.2572547263497773,-9.98066038935752,-0.15378047677303996,-0.3538683749501639,-3.075954865738132,-2.388232841561596,-0.6403342773710832
-159.0,-1.3504473309053058,9.406582452960423,10.757029783865747,-4.072700133503064,-6.096611816289411,10.109542586025938,0.3420397067944254,-0.2962189405292611,-2.071205546312698,-1.0530820296945353,-2.7892151956838536,3.9257400270499883
-158.0,-11.171257923497949,-5.295286566720958,5.875971356776995,8.26554451247221,-8.478022311496659,0.3217970390048599,6.265421137937135,-1.8128314381808732,1.2873852353368824,-2.6523163896738735,-4.1122012426521355,-3.723156280109331
-157.0,-5.380376325406933,-8.613312200734715,-3.23293587532779,6.948962991270946,-1.0957816602435257,-5.8870626406663,2.7594342405694157,0.0984252295257192,1.0719756225710826,1.12948220715302,-0.03977519573353616,2.103433911978767
-156.0,3.056984979754818,-7.471999444390773,-10.5289844241456,2.2388542764340587,6.780625956090366,-9.038716034260549,-0.13235715663966285,2.46176984597749,-0.5062558828422227,5.03599280059053,3.009306027261327,-1.619043361959949
-155.0,11.528506261062251,6.782765078171893,-4.74574118289037,-9.12103854627654,8.130991939964009,0.9835878859953198,-1.4559182646062465,-0.009482763638210656,3.586214434357502,5.635704627095346,6.877647888738188,1.860069679644789
-154.0,1.6512092092216761,7.477245681945556,5.826036472723884,-4.524039872473283,-2.0915813963657346,6.618410229563195,0.5878359436013331,-3.160228772526337,-3.4899163726667766,-2.9799221656640613,0.1653326426883135,0.09727950434574054
-153.0,1.8900230650497574,0.06102274525577833,-1.8290003197939535,-1.0080400386587334,1.853644083064424,-0.8380201592202048,-2.9442145550526146,5.451583986282292,1.5071023119676048,1.1356454381270762,-0.6452676834408804,3.65538417944481
-152.0,-2.729974979660888,-1.3024226544613187,1.4275523251996267,1.9875317869541276,-2.0884508547193397,0.10859482099396955,-1.4237930355357022,-3.2476531066530594,0.04372667091747953,-3.5054198255665927,-2.866802531845353,-3.0698409187094793
-151.0,-5.109832088305518,-2.5649809916606303,2.544851096644975,3.808163049223218,-3.7624968986665115,-0.04236883767164146,2.465898515008167,-0.47456025635725596,-0.8755507201465952,-0.9290729383433534,-1.95668388245482,0.6852810333058379
-150.0,-0.7081340123624424,4.47428158097156,5.182415593334058,-1.8393412786393646,-2.962636534125449,4.79697550434391,-3.5136314361162553,0.7225299002377347,-0.15159640710568806,-4.13367035524865,-0.22482936610204995,-1.0201010259318393
-149.0,-5.576420299504749,-7.146107957113635,-1.5696876576088736,6.316350748385047,-2.023197798729119,-4.309602504525253,5.86508822328072,0.7649963241879153,-1.9274631559867856,-8.282060772259936,-6.277174598406044,-6.7010076806583285
-148.0,4.7235165059384805,2.008630441340216,-2.7148860645983195,-3.343725020115621,3.697279631934167,-0.38367275660775046,-1.6054759280739135,-4.231480921301205,-1.2588904949963415,6.773647630212507,0.6669612694592527,0.031374474393701224
-147.0,7.8774923910826065,2.0762546740323287,-5.801237717050366,-4.964566241747044,6.893470739078895,-1.8164419329182908,-0.9717727054417933,4.50073264832148,5.767162977975558,8.300360919161577,6.620669139676181,2.9300626402789387
-146.0,2.647321412801905,-3.105010839773192,-5.752332252575176,0.23501028497625454,4.170912397152065,-4.466216147768628,-1.64458714604818,2.897194749437658,0.3997962715793397,6.584861774226887,4.293309154987435,4.70138248535198
-145.0,-10.560309289940438,-2.857054472103423,7.70325481783695,6.713636805197794,-9.166928807225407,2.378258697169661,6.185022429454109,0.19182345251028776,-3.694518210268778,-3.5454389758572686,0.7361991965071981,1.8794403957654713
-144.0,-4.856833244555895,3.971239959162925,8.828073203718862,0.4508118768431366,-6.806748079307944,6.425035704944212,-0.9776722801970053,-3.685828407932119,-1.3977672514123987,-4.12422167817748,-1.6541697029133293,0.4185320702247777
-143.0,5.795275730754401,6.1580987851931654,0.3628230544388886,-5.963315892830656,2.7433452301143126,3.277939187181659,-3.582621318040996,-5.123635407248448,2.762121678458082,-2.515641354241454,-3.5074523066182244,-1.9673187415419466
-142.0,-8.218901066825332,-6.8058522494402505,1.4130488173852287,7.4522228865116995,-4.875467093196318,-2.6843975543620258,-0.1726896908869573,-4.063024270775034,-0.18179302221537946,-2.0071288461371317,-3.922203039043219,-3.4152366328985684
-141.0,14.39684452516623,2.612087762262735,-11.784756762903367,-8.48265786547439,13.104393532880731,-4.5763347353580155,-2.246360665035908,6.142482616767699,0.3129584625534237,-0.9638598879327211,1.1038225028081614,-0.7408529675753246
-140.0,3.7359315810077662,2.0232758459251228,-1.7126557350826124,-2.8572010624938597,2.7355048723858797,0.166759007077236,0.8856886120547997,6.414015071370288,1.867037527457738,1.1181911388341004,2.3865216311323056,1.4219288850951426
-139.0,-3.7070156402023287,-6.232656516641533,-2.5256408764392484,4.912331806822143,-0.5782914576589118,-4.442423113455342,1.8648764578088182,2.3184306851414775,-4.656371497814566,2.787376659892624,2.6222631501463582,0.007880213432361505
-138.0,-2.40731629316911,1.9449825722982785,4.352298865467217,0.2514512555137607,-3.363402444431895,3.169486451434446,-3.4453879723903325,-2.166077197619486,1.5651292903728515,1.9407535171571553,-1.418435246426182,-0.149580862965497
-137.0,-0.5197505640697573,7.170929551968429,7.690680116038023,-3.3038731867819595,-4.083555764625416,7.457243675545942,0.39216489612313304,-2.233576123469363,-1.925814959313533,-0.044978108296320984,1.426971884321118,3.2721390538130786
-136.0,-3.64624927609393,-2.4422575951618746,1.2039916809318578,3.071273896803764,-2.4774977213334664,-0.6664135055692118,5.379037793541261,-5.321469325093998,0.8444546366442063,-1.0726530575188895,-0.745750684051974,-1.132650137083752
-135.0,-4.82516341541896,-10.71421423651804,-5.889050821099202,7.727174419226614,0.4825429388996554,-8.266164080038507,2.3468906327347963,-0.5406002146909037,4.064717570835192,-3.5538098552102877,-4.756677604719833,-4.049368714122922
-134.0,2.4807043149212102,4.448701155549094,1.9679968406279462,-3.41690601643981,0.28683303600024523,3.2465299505005136,1.7657344739197243,2.8405917347901752,1.2031996032822834,-0.23656672612605134,0.4254278641292468,0.08554852646784572
-133.0,2.085707392383534,1.1017952562826971,-0.9839121361005556,-1.6135012473639032,1.5654118575986984,0.01973455164523992,-3.749787571403619,1.2330551457437084,-3.3391378260805515,3.7448743311749824,2.144807009523216,2.445494405591533
-132.0,5.4276111418838235,-0.050719692974484865,-5.478330834857975,-2.7002806022313903,5.483817619585503,-2.8034957199843435,-5.027814565588022,2.6540131561848637,-2.691402813398551,1.895243759438401,1.4561612453848922,-0.9283985438344029
-131.0,-2.5316023767426454,4.357586276466732,6.8891886532095095,-0.9223374560331643,-4.7572279740280266,5.662874231300316,-1.1547591106558084,-2.477511348523551,0.42113684824940933,-1.0230007265514285,-0.6825207590953193,-0.8985417162752998
-130.0,6.300859563359017,1.8318943635086378,-4.468965199850459,-4.07926258209469,5.418664240773351,-1.3577933977204086,-5.340725189847297,2.566597009231213,5.064573983299498,-0.4316017330952143,2.6539506791715604,2.63477941874652
-129.0,-5.267258763004598,-1.5026217716783459,3.7646369913260695,3.3635758325822502,-4.559061553685738,1.1714563067154455,7.018493045995259,-2.4893885923299526,-1.4297813347165826,-2.8774789545193977,-2.9133509754429086,1.3519189267414558
-128.0,-8.955360563959042,-1.137658263250107,7.817702300708688,5.092783090285683,-8.349941640943513,3.3824107042186675,5.095842868047212,-5.609054434260134,-5.8275806606259755,-0.9125352580809867,-1.3734945008960753,0.18176638015776647
-127.0,3.0535226209227178,-0.04040164313815664,-3.0939242640610543,-1.4713895992812271,3.030735052468584,-1.601341335210467,0.8754685627196537,2.5897915606833757,0.5884107122739954,0.3226678647203798,1.1455031365401604,2.543219609952592
-126.0,3.177149554137604,-7.614881102393765,-10.792030656531418,2.1663281945023143,7.017288984831856,-9.236390172058675,-0.5845922493978413,4.232985250231427,3.550501885526549,1.1871340096513991,2.4650402170501065,1.5108042733311722
-125.0,7.8048422380761595,-5.540635796554998,-13.34547803463106,-1.1115244564985995,10.602623316523754,-9.39788317882126,-1.944325858263255,4.23357009594654,6.711374942728929,4.483046259122788,5.261411201103931,-1.2577862176689045
-124.0,-3.4951064253905413,2.6108189896448195,6.105925415035543,0.460665453796544,-4.858616287879207,4.322204059579095,-1.6778318399928815,-0.5850465554676558,-3.3365128587166923,-1.777109496119318,-6.114182192928258,-14.288520618387295
-123.0,-2.066009502631961,17.2573803896625,19.323389892294653,-7.654749694550525,-10.681363938680013,18.250752560542225,-4.82707021485211,-7.89214594223167,-5.8351218348813,-4.086765046193509,-8.662299164127608,-4.193022973970832
-122.0,-1.531629782477204,8.074285030980274,9.605914813457566,-3.24785959090323,-5.5618616561513905,8.87678977659763,-0.7325452088870164,-3.6245430796970286,-1.2268534153398303,2.373093972836121,3.3984740835297704,9.69925665779938
-121.0,-1.1064508631377952,-12.682267649847901,-11.575816786710096,6.923591254045475,5.237420650076937,-12.091797217945652,5.442802251931909,4.516367819909036,2.919585912322675,3.5039885122216243,5.326208891200133,7.565817131815515
-120.0,-5.358446664044223,-10.6583385278945,-5.299891863850333,7.965973836064281,-0.027554211995545863,-8.01604274131784,5.071456261002087,2.634189934189749,-0.21742929045153514,-7.411140513161126,-2.9026516268173306,-0.38939416470932464
-119.0,5.532816111513338,1.4196146661472087,-4.113201445366216,-3.4321809005304944,4.826977362664628,-1.2968660694766436,-2.2043149532513997,1.902639540595042,1.6596783555092407,-0.5981797749080586,1.0940773214165396,-4.645885349678283
-118.0,6.351652794826799,4.944000257707968,-1.407652537118909,-5.675102502017249,3.8883248492766795,1.7489653642289618,-2.339590563485213,1.0087431049136417,1.7823627093797494,4.001606555233908,-1.6254278125738166,0.4813122882076961
-117.0,-8.120582265852303,-3.668002389236063,4.452579876616183,5.87322116313803,-6.27223516540547,0.38133121713798995,1.3701004974380737,-2.5255256431551256,-1.0029859592131167,2.974319476047679,2.1916812600208893,3.1608272923661502
-116.0,-0.11094252119176029,0.71917834087577,0.8301208620675038,-0.24242208485846173,-0.5299977607939339,0.7679064747413255,1.1602829295942239,-2.700510918449498,-3.0305713224137034,0.26190685201333963,2.30939851934659,-2.147974090695906
-115.0,9.452562098267128,9.379148831760805,-0.07341326650632873,-9.431804830689197,4.7850893518587085,4.644835269625506,-7.075759278766421,1.6208682591166876,2.6273561039318953,2.156838534990276,4.742145897387783,3.1042093608644836
-114.0,-7.280089273863721,-0.12296527550315561,7.157123998360579,3.683573416410314,-7.196473398266623,3.502537443726365,0.014205566941277947,-3.201178984963792,-2.173068738119279,-5.575758157861007,-1.7524915830316772,-1.9594389941223047
-113.0,-3.151226687629676,-1.1480011498465816,2.0032255377831287,2.1271658594870293,-2.557639070946238,0.40322252023174077,0.5440794641843358,-1.8584934163496445,-1.4340156545350569,-0.5206448071812622,-4.404038088633755,0.6727556749902233
-112.0,9.748746429190007,0.944667964703132,-8.804078464486818,-5.374653428219068,9.213162166547106,-3.885856394513457,-0.8254438352290117,2.2188899383269747,2.500624447131506,-0.9621876983364788,-2.2915006034323033,-0.22609529700769726
-111.0,0.22561114024450357,-5.783921082400951,-6.00953222264539,2.825416254088635,3.1291021762870077,-5.861690242447344,2.776280931478579,5.468632327364923,-0.5560707065148801,0.9528810699006207,-2.2703144699456463,2.3307900095321967
-110.0,-4.677814164431981,-12.336912208905346,-7.659098044473326,8.551714461598813,1.500196314113943,-9.968886407558852,9.055883066811026,4.432082102018859,0.9292240135384208,-3.6756232467556558,-3.8852438293422926,-5.404483717634529
-109.0,-7.569379657225105,-4.34051270442589,3.2288669527992284,5.921929998404881,-5.388065497941981,-0.6086040932689898,4.149744300960011,-1.676932581215378,1.7704114757855893,1.251029308110246,1.8057805288498847,-8.032229683490213
-108.0,0.4812330094937991,15.970844074727635,15.489611065233825,-8.255029563268508,-7.487652914417498,15.67616969571178,-9.653139960467412,-2.740766520365998,0.4291952920150647,7.033830841286514,7.092694819313153,2.0404728996328325
-107.0,1.6209247223614025,1.267632660649734,-0.3532920617116986,-1.3895286047228619,1.0123227546957394,0.4815971853386456,-0.977494045791726,-3.1147669594299323,0.702661288552989,1.4399300992649673,3.830392951722093,0.8105418992042117
-106.0,4.26978032950214,0.4224596487958845,-3.847320680706267,-2.366177597565005,4.015094285716969,-1.687603494696365,-3.002757100634116,-3.232781677210921,-1.5108510331927685,-2.852714036772956,-1.2306828730614083,4.810004593177581
-105.0,4.93140762299349,8.815533679520428,3.8841260565269256,-6.89218296599354,0.48951892599624625,6.375853981646092,-5.290499700017808,-2.760707176768998,-4.835215246955523,0.14406674744508252,0.05009049356747089,9.194237790940212
-104.0,-2.06240029225738,-0.9640331008414764,1.0983671914158832,1.4927971709513046,-1.5289034195740079,0.016700102146016027,2.345606502921666,1.2549541977744016,-3.1254289444045744,-3.1984679449182334,-5.6021689797958345,3.319339151707053
-103.0,-2.233115957014109,-2.97732951666762,-0.7442135596534993,2.580852581000121,-0.768202936270808,-1.8291076760698046,1.6422646941592292,6.293522598973343,2.8408986673471057,-2.177842540532772,-4.251018532998623,-8.057829258764302
-102.0,4.016634282664354,6.673066708372518,2.6564324257082355,-5.295008434233621,0.6566181848048982,4.621820789862316,0.9946011670546846,-1.469254399615493,4.265886712089454,2.7562442662573523,5.049298087306079,-3.788820494285189
-101.0,-2.0334646939596768,-9.679864968142244,-7.646400274182437,5.903060040929718,2.859497956039562,-8.6232041879051,4.363724032331762,3.09348744582359,0.6559598569898806,-2.3359284824420907,2.6075865740915614,-1.8872258785845712
-100.0,-7.924632940443189,-15.302824616479827,-7.378191676036464,11.579946882783165,-0.3026917954937026,-11.297757946009327,2.947165732235658,-0.7127735041729288,-1.4676799561587663,0.5778890017089838,2.7818058980675655,3.363114822954391
-99.0,-0.44019777208630684,-10.875165484583306,-10.434967712496842,5.624379140112849,5.04231469913255,-10.690848484109168,1.0488355525302837,1.0348706840809465,3.4653115654609117,5.019146625012614,-1.1111509692842696,-2.1173684735133365
-98.0,2.1206466433819062,11.182151130122591,9.061504486740693,-6.6044609212036285,-3.5084587867977945,10.082853909444587,1.0532260617215181,-0.6693105181463277,1.6790737775215354,1.4854421791437311,-5.871418346977507,-0.27062462076804317
-97.0,4.959832104238156,11.758055290532987,6.798223186294686,-8.389380057370317,-0.9606545880721575,9.311652258161232,-5.920595134376088,-0.7092010833908613,-1.0670585531517889,-1.6467058635969056,-0.7342940723372147,3.4849685980939498
-96.0,5.5830956083639,9.4439344439123,3.860838835548156,-7.543536487226406,0.8963931716529219,6.599568572533509,-8.35758197305928,-2.143885712906478,-8.273379843655098,-6.938038909254805,-3.615124536168713,-7.107833910380356
-95.0,-7.920974775829543,0.945618573521319,8.866593349350683,3.535549291415,-8.358630430276081,4.925929706397376,1.482626407193548,-2.793336481821732,-2.9375152631044505,-1.2460354921259693,2.247950731373883,0.8286109444752094
-94.0,-1.824464059780113,0.4979262651115385,2.3223903248916393,0.6304303162626291,-2.1150398825118644,1.42820463425452,1.8033897878152145,-2.3976729226400013,3.1897877544608524,6.153669142640979,11.727167536622796,7.337841756996555
-93.0,3.8616618262064675,3.36921624483405,-0.49244558137229766,-3.5722008839911514,2.217967587324714,1.4607301532138228,3.3678242459509473,4.749041031658032,2.8992289145271775,1.1578588173724988,-2.990455179082386,-1.1961346300601763
-92.0,1.106017749664763,-7.287468324743285,-8.393486074407935,3.0521523401306645,4.7167620103804,-7.807963666144579,0.13919788766809926,-0.7323924437760816,1.5303693552196749,-0.5725102226176526,-2.5325584882667957,2.010452254686803
-91.0,-4.832220097597687,-14.43330348469944,-9.60108338710171,9.669606316710468,2.3564302674615463,-12.049602829483295,4.514235521874142,2.365059980515846,3.729826935653683,-0.8786256981347662,-2.014111709185985,1.150436125726186
-90.0,4.650903698928589,-14.59054187719402,-19.241445576122615,4.924247500159277,12.001135263620554,-16.934341526179836,4.55096588360657,6.580898542786813,0.6312383388421372,0.6355200701619383,-0.6195697570336121,-3.287386306109349
-89.0,-2.0699546073103647,-0.5216624934903029,1.5482921138200707,1.324895683668803,-1.8302847148101193,0.5059036142740441,-4.780800942629495,-2.9489741942663223,-1.8673699295711994,2.1465480584399215,-0.9351400999980457,-4.3847316861095464
-88.0,0.30315445456763235,17.967878553257943,17.664724098690375,-9.110882217898746,-8.701575210008249,17.814580069612077,-6.606286641526404,-2.5366728478168548,0.24989827955997712,-1.0353716019432746,5.392396422884843,1.6483004252548499
-87.0,0.951320526858296,13.739611887568918,12.788291360710744,-7.404017678784271,-5.862904824623169,13.262388517984679,1.057721074883819,-2.35812728776092,-2.9211533501564824,-3.2624446004566363,-1.7626104014448014,0.6401259309103099
-86.0,-1.047796517502722,11.276345076987706,12.324141594490518,-5.0977222739296515,-6.714445286642247,11.794717167496241,-6.53735272546849,-3.2917451801216844,-9.19063887321474,-5.009221731552137,-3.2182491128518826,-4.558429364817968
-85.0,-0.19260318437680704,4.108452205798258,4.301055390175147,-1.9431411032952552,-2.283201218796427,4.193498500283063,4.149670198781242,-4.122518179207585,2.0570929596474143,2.0718695923057626,-0.33299255640474645,5.846746131196598
-84.0,-7.132570043172876,-16.286142928531042,-9.15357288535808,11.725391448381515,1.0434094781912162,-12.657598782898901,5.859372114904772,1.322559215718384,4.187471059519446,4.62820319012684,-1.3790811422426723,4.829595589531458
-83.0,-1.6788322047313307,-17.294861105258025,-15.616028900526704,9.429221303316698,6.9921318521912745,-16.475429732569957,1.1642308068681984,5.7961691453909285,1.138409816036539,1.1195981102816885,-2.1777831647476606,-5.676579598224078
-82.0,21.704405240657415,-1.158715419969214,-22.863120660626716,-10.242670668556077,22.221326355179045,-12.032837893349603,-2.462264040834862,8.176126874674651,6.938358428497943,1.003580339607988,5.160661343928488,-3.858934334740769
-81.0,-4.315010475674653,-3.3256241369294126,0.9893863387451116,3.8626666621391017,-2.6389861706299023,-1.1130350836392289,2.8615688086676645,0.8260407992045846,1.234890649537082,-2.7793883956496543,0.4902576050302483,0.4059238019471514
-80.0,-12.030205454969455,0.9694581216949285,12.999663576664304,5.507453225238912,-12.49945662017448,6.957577937057979,3.4321678987672817,-3.7827227364129987,-2.8447768544998335,-0.42569405365355273,4.5937045272075565,6.930407755760152
-79.0,-1.2741842065788083,15.939006292857979,17.213190499436816,-7.3430385335557125,-9.220642132515412,16.54309792635229,-8.316151906451632,-5.78114111753549,-3.728410125322843,2.9906369604047836,0.7094925942828317,-0.7879327748560989
-78.0,5.4831757911146966,5.5256930369858175,0.04251724587119021,-5.50648646788924,2.754589841683652,2.7426633070408712,-3.6903621577883103,-1.3662623232529638,-2.6164869200271514,-0.386020264487809,-1.5510302186302538,1.6471729029932416
-77.0,-1.7622937851840021,-2.9223379390274165,-1.1600441538433426,2.3432860458502183,-0.33366034375672804,-2.0129610742706854,3.348658464802868,0.3176020235104491,0.25695592543011125,-1.200640457515176,-1.853135531273451,-1.6202792448158172
-76.0,2.9886342501926255,-2.130976704945969,-5.119610955138593,-0.43098558304700774,4.0310609031747315,-3.604209705816714,4.277625772726925,2.5409980525340674,2.6576558360755844,-0.7850334686041472,-5.217267497264789,-2.1066926361448144
-75.0,5.217184882277133,0.13413446150250197,-5.083050420774686,-2.6862812883353895,5.131693678987091,-2.456473797339221,-5.4547065682541565,-1.2060620216449989,0.253952086297472,-2.7200379897984974,-4.313437524663792,-3.993137949765146
-74.0,-10.422994655119414,0.18796438756692568,10.61095904268619,5.095050216683955,-10.536274882062646,5.418963907936839,-0.3935804096177407,-1.651557656487668,-1.6201664577750128,-0.2294132461728004,1.6983328448269743,-0.5750114757592435
-73.0,-4.856554133047839,-10.403722186386691,-5.547168053339041,7.6737008522745835,0.39944671278268085,-7.9511025219629365,6.127396599354944,1.5029440230128734,-5.421545824600451,-3.8382993125640734,0.2732008870250633,-4.075775105983106
-72.0,-0.13650550797587369,-0.9355707053551026,-0.7990651973793979,0.5682991317289146,0.2990960258134666,-0.9160946031036183,1.7388754181223667,-2.6803819476712327,5.030757500825434,6.3272342261232755,9.02908851021571,8.683065018523532
-71.0,13.295729688114319,8.014718790862226,-5.281010897252189,-10.7100622470675,9.327423800755104,1.3219932993950891,-2.4735514897480466,7.212512808711462,0.8678454241922275,3.319580036019739,5.590199480422243,5.665903387919654
-70.0,3.4727863096169314,7.2860823680430835,3.813296058426172,-5.36033553059082,-0.13695444179991378,5.584522245616247,-2.9542735411464704,2.449521133534158,2.640400986129039,3.9487467711458306,0.5739894632406002,0.5875252758596701
-69.0,-10.792235246516121,-6.901686618788741,3.890548627727563,8.864601353341525,-7.390024433016545,-1.550990221502452,0.8237459999162935,-4.821995915266237,1.9474517586748372,-1.4693446539185913,-9.098857616449914,-1.275147563190846
-68.0,1.3426695851192996,-3.230840976520154,-4.573510561639205,0.8842649288595132,2.908981219140996,-3.870889047347943,-3.3157643524605698,1.6867479842007271,2.2783431300060086,-4.400582490608392,-8.186606826366713,-5.940221175284417
-67.0,5.700237514460953,-1.945292352168378,-7.645529866629122,-1.855275389018109,6.704583988926488,-4.76447589141174,3.581470383705292,-0.38746905520429165,-4.262193186727686,-7.007644233538857,-2.4833879807155324,-7.217850480795814
-66.0,-2.0555833079524715,4.166105067394999,6.221688375347551,-1.0286528736900893,-4.102653708332307,5.227562370065735,0.7254084927812101,-6.322516998606823,-4.703549136801466,-0.05907182960877,4.356996103673122,1.4503568268750762
-65.0,-3.760218078310991,2.121649724683879,5.881867802994774,0.8505330621537199,-4.857868817501828,3.962382538456488,1.5799984996119167,0.8814917994352136,1.6672930102940717,5.660514287224318,11.304746218993873,5.090553866180861
-64.0,0.32948802188744164,-4.653757297603976,-4.983245319491663,2.118588746584231,2.704926024212012,-4.85068545230124,-2.861487980741434,2.5084273571327738,-1.890483323360015,3.7330522966386614,-0.10868261692574066,3.919379194976512
-63.0,-2.2202815673526213,0.7659976418905861,2.9862792092429014,0.6861888531962097,-2.6274587196170462,1.9292067517284992,1.9041243464135555,-0.19151526481273073,-1.6961524120924114,0.520788444631139,-1.209110879394893,0.89301986075081
-62.0,0.6570675883346231,10.687151310450933,10.030083722116123,-5.633251095650936,-4.706645422749847,10.336807156355903,-4.231081616640194,-1.1167895201312479,0.6683915060344399,-1.2952799193092719,-2.653196990870821,1.4497828183772719
-61.0,-2.657419689947141,-7.283187373448006,-4.625767683500917,5.009111102809097,0.9651395434413123,-5.9760057815629635,1.8012015285361311,4.21016999675661,1.624999872601675,-5.43938522879036,-2.969026460983132,-3.016281182767425
-60.0,3.0037107808829036,2.0636198694973142,-0.9400909113855649,-2.5739184259723316,2.0294756579974935,0.5373162775776819,1.3087640735566644,1.486783380142224,5.213595680084145,-2.554529768503016,-3.6915399258218504,-6.712209419721304
-59.0,3.2531755381328455,-0.9576340825930652,-4.210809620725866,-1.1875830944863592,3.7058153132305076,-2.534460323889234,-2.122973563820387,-7.332104054964391,-2.3509941534175067,-2.423707551263857,-0.4651740620993954,-1.1584845816219578
-58.0,0.8684509151067796,-7.430185936526673,-8.298636851633391,3.3218571318927963,4.550397761285975,-7.897412843778033,1.557695317560234,0.3591597727946576,2.188962264499416,7.142853472910451,4.644875420113507,5.635102562223107
-57.0,4.210967841713145,-2.156262365844026,-6.3672302075571094,-0.9823080297857869,5.3269115461988275,-4.21762691614218,1.907339175912988,8.166313756972858,3.1425675927146868,6.1270175053044476,1.163581818002354,0.31569936238920615
-56.0,-4.972914705927453,-7.106886132194763,-2.1339714262672347,6.011968400864929,-1.3891373639254652,-4.6534565511538375,7.076138611666213,0.006136517869377078,2.186823278116549,7.289822258413573,5.393471700572919,4.756847895214904
-55.0,0.826756385192164,13.08561724839818,12.258860863206111,-6.9775297382122545,-5.770677165924902,12.72235701758185,-7.441951576512059,-1.788436201847796,-9.005326757075977,-5.603558347287336,0.0863397189776649,0.272900820584592
-54.0,3.864431391342373,10.741444078324026,6.877012686981758,-7.318083890453285,-1.486355202962697,8.78632639402133,-6.063217717494137,0.40452449029913407,-4.4794574647253045,-7.7130960753402915,-1.9705614866121697,-6.975279022753832
-53.0,-6.721174088311125,4.030372527774705,10.751546616085887,1.334875147720811,-8.717977474999547,7.373348442988548,-1.8341180954628227,-11.355271933991169,-2.3795524621959716,-9.158303358179104,-7.6878940480908105,-2.2697089872343774
-52.0,-8.705927373683231,-6.341808780061033,2.3641185936223117,7.594125891678333,-5.593790935288927,-2.0028638757857347,4.069538355644383,-2.6182297361536397,0.7199542281751926,-0.9192165582155889,-3.4896109275375755,2.9344381565505344
-51.0,0.47885362253047337,-5.984913471516762,-6.463767094047164,2.7431752421679656,3.496324438861241,-6.236665207168767,4.142402015280835,10.04361921886494,7.213868885875301,8.46233743435306,3.803792171794532,-0.1541178332697023
-50.0,1.4951359112027167,-9.409433795581913,-10.904569706784592,3.9420670855492776,6.233083965221947,-10.168708751906717,1.4187217509003416,0.6983192148038206,-1.4307992776985312,3.5217769248636985,1.378485848799763,0.5566783307337725
-49.0,9.267499162741293,-5.041046921588733,-14.308546084330018,-2.1371949475018095,11.752815262678268,-9.606974182396282,2.9084084631703053,5.60126720510495,6.004124825931461,4.074423257452526,4.407696805516506,4.89063416626744
-48.0,9.42894703772628,8.650406668876881,-0.7785403688494394,-9.075010281986506,5.157675558471707,3.9267692449554534,-5.933308868061803,-2.202543040002707,0.02654817788477093,-0.8767629765799634,1.9765407531546706,-2.8019256433586204
-47.0,-3.1841829417887793,8.190649464948653,11.374832406737372,-2.4715800044312406,-7.296450852511811,9.77617124793031,-2.2332799758737147,-1.0762380825638933,-0.2664336028512889,-3.9411967998693047,-2.573117304009447,-1.04792114185736
-46.0,-5.953810105096958,0.5720190509828909,6.525829156079765,2.7127664496861232,-6.253784825076464,3.544662817175273,-0.8930256403505712,-1.3018456746818208,-0.7132333373102961,-0.07136951446166684,-1.4254198902787223,-1.4675866560014275
-45.0,-7.969579423005273,-0.7722598374826579,7.197319585522711,4.386818072101951,-7.600545070545284,3.2087584020648734,3.8988933073903476,-4.238342925413901,-6.119725310941847,-2.481795716624056,-0.6435643036844623,-1.9627881800418692
-44.0,-0.7677669121784456,-0.15755959816150342,0.6102073140171385,0.47704342734478633,-0.7146486098509444,0.2200319300770599,-2.2904938740109886,0.8655462838136865,-1.855190739483287,2.8622437339635387,0.10167999150090656,2.26722988679309
-43.0,11.33062908933248,2.151757220051627,-9.178871869280663,-6.8032533988593835,10.296466525299245,-3.52563150278006,1.2497640050525727,4.859413824293128,-0.4465713107146563,-1.87222215223763,0.06880050909889346,3.90034513208294
-42.0,-3.803083398946793,-14.323918020735151,-10.52083462178831,9.084858356511258,3.311543002694382,-12.442624446217305,1.8045267051379166,-6.168574962441882,3.1734025289783503,0.11641194341850203,0.6488770646305481,-1.2591022267930798
-41.0,-3.887369992063344,1.669902223078429,5.55727221514176,1.1354413515221928,-4.696282399278248,3.663205649429359,1.3978889704038298,-0.24100810837656195,0.358234432809303,-1.97146315340178,-4.397511750023866,-2.791176759879777
-40.0,0.617124704297215,10.61561721905429,9.99849251475704,-5.66372666745292,-4.662715555548247,10.270163905689278,-1.9347307271705945,1.3211376172949707,0.3644763216548679,1.2758028525588796,1.727036612350552,-0.05351140102490204
-39.0,5.1806965813873465,0.7548806332589697,-4.425815948128383,-2.9330906969025055,4.8403712022524195,-1.798963938494654,-3.226238838048434,6.763318529016678,5.119970861916503,5.532834582870676,5.229925062015879,5.095259790978394
-38.0,-4.632521867315827,-12.021441136067372,-7.388919268751585,8.284782707074875,1.3501931561164455,-9.671314290451562,3.6593216226752125,0.3994775340862211,-1.9178157547278998,-5.126890191670876,-4.487696543291376,-6.487765304751134
-37.0,-2.8473908185660166,2.3544664363227463,5.2018572548887265,0.2838109350271645,-4.039048812183971,3.7327788551964605,1.500464634432437,-2.7638934068175125,-3.1762864746886805,0.49614814832347043,-0.539109136320329,-5.0827400975736685
-36.0,10.558511376918698,20.702467488814683,10.143956111896019,-15.592833716508018,0.2016133292647586,15.378493735765275,-9.962544803725358,-3.592942995853789,1.4325593454997634,7.529791025579946,12.169365956664418,12.10362158067348
-35.0,-0.4341625610130815,1.3264788622139951,1.7606414232272147,-0.48691807085724736,-1.1024766454552488,1.5786499921549826,0.5648570113381983,-3.7704276298445203,-1.4560001148105268,-1.7194884075587664,-2.968162822604892,2.6202992632518507
-34.0,-7.351974216677235,-22.09157247698698,-14.739598260309597,14.68178981264984,3.6803757521156557,-18.379256362383455,10.30839895820857,3.722915384074607,-0.9363802981158077,-10.480838592695491,-14.104548217609445,-9.437914991257752
-33.0,-1.2397531977827536,-12.73360950642116,-11.49385630863844,7.026978173937786,5.098348441776185,-12.154407554306683,2.325899508841671,3.9063310229017536,-1.484993014309672,-4.13732685426157,-5.8713380470223235,-5.727344861745148
-32.0,5.5415455082616045,7.226858514979869,1.6853130067180704,-6.420291285590398,1.9601597442218333,4.418229949353621,-2.8828383080458706,1.349514476710263,3.8061976949766105,4.712429366358446,7.559396332353704,8.242567130143629
-31.0,-8.045877118741988,10.338681858732667,18.384558977474438,-1.1009756438792244,-13.19903847059599,14.406780998839329,-2.2879625001822723,-5.367750628548581,0.11934010042353727,6.992009879178165,10.226482684370225,4.844946516059425
-30.0,2.5893526161144047,10.785606576503591,8.196253960389079,-6.64001100469881,-2.7970291099624225,9.541574402503358,-2.473572945405742,0.2898618181942003,0.8091088384740558,3.2691193405833103,1.83388949861299,-2.341624208117857
-29.0,0.47522937388673914,-6.820367598402746,-7.295596972289455,3.1410167307695396,3.8900126222867284,-7.080390887689354,1.9295222425999383,3.701831944971729,1.5759668729999536,1.9132316259169995,0.15982603272708884,-1.6402162424243967
-28.0,9.365403076989775,-2.053790143358895,-11.419193220348598,-3.6912613073956804,10.402292877089772,-6.754461819189866,-4.909974192297824,-0.40155719322831085,-2.320289897685901,-4.335854192334477,-5.9885871044463865,-0.189384348844005
-27.0,2.671235694745372,3.3210191376163616,0.6497834428710396,-3.0392670668567066,1.0305708889734255,1.9693859195357328,0.2684646888809984,-2.570857801338968,-2.9259508044890823,-4.338962984106843,-4.310397722831688,-4.1507321086212405
-26.0,-7.950405903807358,2.3736193120997795,10.32402521590711,2.814025460183929,-9.185430314560438,6.332020518715346,2.3521741099415685,-4.639149200235536,-2.0812560789199708,-2.850022137409283,-0.08525578497356623,-0.06867417049265034
-25.0,-2.8416087288278935,3.4109255365243443,6.252534265352178,-0.2685272294231016,-4.586824104747125,4.812352155764753,-0.6710391786708421,2.2731513473072047,2.4080470119987325,-0.08186481713808247,1.7182182496318434,3.8332103984837427
-24.0,-8.85906011077828,-23.69171591354089,-14.832655802762673,16.28547005988536,3.0305268210810365,-19.20545924262905,9.055455362120924,3.328040094752391,-2.391979968407724,-3.3985631442437643,-3.6094447530168656,-3.876511352747891
-23.0,3.7946001552185957,-6.678458208320715,-10.473058363539346,1.4513399870991455,7.100105461575119,-8.598917550600863,3.210589223708676,6.014884824426586,8.075544219593647,7.467185548830686,3.5622287266204444,1.5392506440528058
-22.0,4.687615227449132,13.181023041392319,8.493407813943143,-8.92013947053968,-1.8584892958951786,10.893744133282057,-8.026243644262324,-4.475670122233557,0.9251337647694462,6.300024764062325,4.13601332123167,6.189026051989416
-21.0,3.497724399510445,9.039812474810404,5.542088075299888,-6.246199624306664,-1.0573507374167894,7.2709460825585115,-5.355124189797885,-1.2731912674637873,-3.641431042988629,-0.574155938902134,3.097108178831657,1.7359353042726167
-20.0,1.040476301839063,11.41993795329605,10.379461651456857,-6.277307097376573,-4.626017530473314,10.88142765619056,0.6899772912917093,-1.2420431508033303,-2.2011536726629157,-4.1221800753895845,-1.915026138443364,-3.394837891739433
-19.0,-2.55924243457584,-6.990318441016851,-4.431076006441084,4.734613071985341,0.979675179629643,-5.729542534353394,2.998384800874752,-2.640588796990674,-2.153398764811152,-6.703245694543687,-8.124524546942784,-7.056674981554693
-18.0,8.377070113411426,-3.214452798988104,-11.591522912399512,-2.539639182388843,9.948657567969704,-7.42564084957618,-3.0263403345477524,2.3728071351224367,2.8288976676345703,2.9730246512920884,3.692266870610815,0.459170417752528
-17.0,-5.892405975131919,-4.427923509772841,1.4644824653591644,5.1222120846633,-3.71705590414072,-1.4321985795523888,-0.5143747413330593,2.2626645226512636,2.1917171057212554,5.124440859503,1.4793587294500175,2.6522577114310955
-16.0,1.4115637122929177,1.540764826102886,0.12920111381011368,-1.4390166248859622,0.5968682328356281,0.7981485578302121,1.7381145583913589,0.7629622631494346,2.748625694147586,4.950815103653725,3.6261968713011954,2.813184542828308
-15.0,-11.013109575951656,-8.593241455822625,2.4198681201291166,9.835622929843344,-6.689345329368679,-3.051031382482229,6.530216560057313,-3.2977938542976983,-6.391360280999704,-7.717142904795939,-3.1363214226279146,-1.696005282088882
-14.0,3.6713154095476197,5.996490755291282,2.3251753457437556,-4.884456814333495,0.6936406217556246,4.115006059157225,-2.6404547667955476,3.0526767333023477,0.22436699258307202,-4.444235091425288,-2.6999371875721994,1.1376317472423139
-13.0,-3.0875035031983575,0.32779282245772334,3.4152963256560755,1.4050599761628335,-3.234279524099279,1.906482227322902,-0.09103911870673326,-0.4828717256250663,-3.2063210100372466,-3.192662603426121,-4.19665333793964,-0.1580352543913976
-12.0,6.907977467118092,6.995859989179808,0.08788252206169522,-6.928376186385846,3.4281633124269693,3.5833524248760336,-5.206407639685071,-5.123200507018806,0.33342079544669934,4.692800559681487,2.2129306276002896,2.4770282984829715
-11.0,1.497573604178414,-2.092627523139938,-3.5902011273184615,0.24157777155749205,2.5670883409425205,-2.869262561966713,0.47435688085329364,-2.3611059518012736,1.5065283528328899,3.273210918531619,1.2636597229592246,-4.111324572853827
-10.0,-7.627789143026748,-8.89128015312999,-1.2634910101033787,8.282014009964673,-3.2303057906474004,-5.095483407930267,6.571503223044173,4.755822188759937,4.575923161704717,0.9264665443967615,4.540758791230647,-4.161642923964208
-9.0,6.303232856545938,10.074815625641996,3.771582769095925,-8.166713851664635,1.2250539625143835,6.912619241421825,-4.929862502881276,1.67080796224434,5.6862886978690215,7.1790778545221094,7.1838825247702225,8.427633376575692
-8.0,1.490262536118975,-3.452233735739471,-4.942496271858542,0.9246146788141472,3.259892973041026,-4.20441473018138,2.176547473398955,6.3573728363461415,-1.2999178334468884,-1.6721541454381454,-3.7982427644166314,-2.2295614421455836
-7.0,-0.03975174861271208,-7.633154993236384,-7.593403244623705,3.8594582521329093,3.744493516063672,-7.621326006282398,3.01475969633083,-0.3872320688489894,-4.614307463446179,-12.542229150168659,-10.066372148703461,-6.2106052027942855
-6.0,9.682124017232667,4.5316350935564245,-5.150488923676212,-7.082425061559922,7.463295798956817,-0.24365940596679714,-2.5276101809383364,4.034565288036399,-1.3603976746740973,-0.9274560267774561,-2.1317387376586288,1.3662893995237426
-5.0,-11.61783270551384,-6.440899931812932,5.176932773701016,9.056026197614882,-8.429921786269897,-0.6525009451177824,-0.66499741532374,-8.720435540880217,-2.067840122337874,1.155485402526352,0.4146301792731717,-0.9122776131153525
-4.0,-11.305435442851266,11.004781648890415,22.310217091741844,0.10073558944132976,-16.762559335830215,16.628541465452283,-2.1953631281406025,-12.554907322662029,-0.8551466120340766,7.072283684521002,6.837810981377986,9.664103585108336
-3.0,3.690975846502926,7.904230407570702,4.213254561067908,-5.766246973678831,-0.2946958811926761,6.022172264412093,-2.3402787701413654,1.716203205910026,-1.8381331007478927,1.3215289256517777,0.34197866702122637,1.2664339554030781
-2.0,1.5822521836875294,1.0911074520085147,-0.49114473167897854,-1.3824624561129848,1.0046534303721222,0.3368142152511582,-1.6890775886366467,-2.2840649603009675,-0.5248184655537516,1.5487718004614293,3.3390316865699767,-4.201478573658647
-1.0,8.322707631874072,-11.139640909325918,-19.462348541200072,1.4428141505468943,13.94262427690985,-15.266522305959317,2.1511225356772177,12.30299376039737,3.459000074420676,-0.9245799542321703,-1.4463963567784677,-4.585908298908345
0.0,17.72850091330067,1.9507773333976965,-15.77772357990309,-9.881914594585865,16.729476823520137,-6.878668450700353,-0.048014097033624914,11.516462077970122,9.648049810514808,1.288823619608688,0.2106833455229158,1.9123848826766237
1.0,-10.882196520529234,0.04903007518145386,10.931226595710482,5.457120308331184,-10.924643014967018,5.448044752535979,0.016463301250754236,-9.448740337126603,-7.194205839963266,-6.865316486242474,0.9099302145698991,7.814981613228996
2.0,-20.083090932427584,-6.948146579142556,13.13494435328476,13.484144384976148,-16.543455470015832,3.0533205905380676,7.95785836996662,-5.905191395052507,-3.876357653716507,-4.726015583382759,-3.503213393207843,-0.938449889674597
3.0,-2.207344781840902,-9.47591315254282,-7.2685683707020345,5.897987100827148,2.51913472786996,-8.411022891609187,3.6739415930897397,6.334689284152264,2.15231012592984,-0.9006291097316796,-7.71338955230287,-12.140630267744637
4.0,4.621377436304293,5.782770287886251,1.161392851581915,-5.214715601014926,1.715337395076776,3.512625825160579,-1.727706705318416,-4.045382695282743,2.5908526828345257,7.890144957072811,3.3115874612528984,-6.116861937390496
5.0,1.7900082377471942,14.793916555082664,13.003908317335739,-8.296908962669939,-5.630444984712988,13.93978949246436,-7.030313318471061,-5.716339644543762,1.674747719189566,4.752386805592321,2.3950855906198405,8.879010082278693
6.0,8.691563415397107,2.318615982993279,-6.372947432403743,-5.5073119793830365,7.495259772388183,-1.9859075326178157,-1.9900676349293995,6.05362632436747,1.8228552883771842,-0.09759049616542903,1.289636798019652,2.7706059498418414
7.0,10.534539684775067,-11.932367695062718,-22.466907379837924,0.6924622237238465,16.527160586519166,-17.236968537906257,5.467292846570472,7.599006427521676,-9.250674274558754,-6.887785270766315,-1.8544386943256352,0.004725060637289502
8.0,-2.2659874129176725,-4.032960645975569,-1.7669732330580539,3.131750726537664,-0.2362651215174898,-2.9379492862183945,-5.279597630770107,-0.07286652800365245,-5.577145733657284,-11.000637006931225,-5.425264194339997,-3.678540167735195
9.0,-5.240705659053502,4.349777033283513,9.590482692337146,0.4116134331830068,-7.409709068131967,6.930367040845494,-0.8082348809941324,-3.3314842626306564,8.874289800356115,9.065582931301082,5.999965759025912,6.189532564009833
10.0,0.2508677548246343,5.882076736841926,5.631208982017267,-3.03853422084454,-2.683649968913277,5.793069936234989,0.9165062661389866,2.475835198955613,13.071243493782879,18.417651992363297,12.598371448800426,5.838662522887428
11.0,-14.840215112847188,0.04988415195247987,14.89009926479938,7.409983929969058,-14.850224483916621,7.503935372866037,0.7096066788796942,-6.734505348671242,-1.3574548653877105,-1.7227007104151228,-1.5117727378168935,-3.6381307940117944
12.0,-0.7630178945111599,1.73651564747821,2.499533541989171,-0.47740510676020254,-1.6026924999540002,2.1503817591855,-2.2101441728808586,-11.913767304556549,-9.964694584770386,-6.696991705293404,-6.321778860698723,-9.05125525190177
13.0,3.9284400057213253,-2.737100561570515,-6.6655405672910035,-0.5824958331816192,5.261764417184756,-4.748080997406873,2.866844118279871,0.487545150864922,-11.085800838730272,-11.51628949620533,-8.05156106669742,-3.407421133810418
14.0,-3.0874038076557717,-4.392179110473634,-1.3047753028166547,3.7650987463706604,-0.9142128075320288,-2.8946524901234483,2.2252721839346608,0.5344854287778142,-2.034075406716145,-4.503956116342498,0.15212893838529684,8.144502854235501
15.0,4.0845969108043185,13.302251479967925,9.217654569164079,-8.729674281909176,-2.58216400775096,11.293396521197046,0.2863435806755754,2.525309305740975,-0.12659201140382942,-2.739577080911487,4.743801700510044,13.411022215794574
16.0,6.127552802346161,10.549400165788024,4.421847363442033,-8.356809624257616,0.8391585191017459,7.519359255100436,-8.77331735372757,7.414904378228485,1.7109323896041189,6.217412054807526,4.758276650105502,6.160602956317485
17.0,13.781100588768341,-19.463993334877866,-33.245093923646365,2.837723196287832,23.4976724832357,-26.321955622707875,5.683922889809495,18.534788693712468,19.873139017571255,11.322463455745345,-1.6883055090190062,-17.52359537737876
18.0,0.4534819567415802,-17.86186012444947,-18.31534208119199,8.70914505642888,9.444735839242782,-18.137897982854316,8.28503225875355,6.142706750542882,16.518170259256593,10.03901029220939,-6.314959873447149,-16.173291362955826
19.0,-9.139129282377802,-4.379956305269468,4.759172977107138,6.7665275511962,-6.891372038094208,0.1354160834190261,3.0727545533098066,-6.913643568893472,-9.062211524476172,-6.452321980942199,-2.1028041012002303,-1.7355030841524597
20.0,-8.144442116985411,-1.0224072689180232,7.122034848066447,4.58685649830236,-7.656134752101567,3.0690088579592336,-0.9142685461069358,-11.454140181363606,-14.117306845666505,-8.583893573313272,-3.0878911863699634,-1.2055140699503142
21.0,0.9846189488456218,-2.191997129054033,-3.176616077899869,0.6003055974540203,2.055164249277631,-2.66884325188313,-8.340466312951692,-6.811496062649065,-4.735886984684539,-8.935151766537507,-6.221829811690921,-2.2438487379592438
22.0,-9.234539717257636,7.409082429865516,16.643622147123967,0.9020941431881206,-12.969326827589747,12.041770612474043,-3.8302313769689835,-9.588047495451494,-10.094103185393813,-5.907739129092255,0.5022700485198275,11.277648123227749
23.0,-10.22989259008561,32.337575844146215,42.56746843423253,-11.069622491976414,-26.436644925839584,37.47258536762976,-5.989589525444763,-10.23096170266552,-11.60193628498563,6.775680243557764,20.05389116888553,24.913188045529136
24.0,10.377611055788343,28.09202468970247,17.714413633914123,-19.173344953175857,-3.637346761163508,22.931980140178933,-0.8214046266153155,-1.7096490853683028,2.4829364713154627,8.54366347075889,17.80853339214508,15.396604289500331
25.0,8.077675083765655,-8.476238312934623,-16.553913396701,0.18426693166013397,12.337382588040391,-12.554408339378368,2.5493611216578236,10.350587673814546,21.34996331702537,7.890618761094541,-6.436002865308709,-13.07276338232512
26.0,26.158208574192816,-5.782926834493177,-31.94113540868694,-10.197948853848882,29.06476673634827,-18.89144094450004,-3.218373069707301,26.48238694226605,27.44955994968675,22.633687061463746,7.292125151801713,-7.12575268144386
27.0,7.116336760925472,-18.581877346761097,-25.698214107687004,5.7273912287307835,16.420931004745732,-22.162499952200324,2.664689314097546,5.684330037445296,1.7125129386152125,-4.322007476020833,-11.781588145500713,-5.4667699600428605
28.0,-16.671696772217803,-42.14269511356913,-25.470998341350935,29.404659319237812,4.338939767133871,-33.74762381848601,15.883883387734912,-0.6073126816733683,-23.28063510929388,-35.47697139584614,-29.630357900709868,-24.33588662123315
29.0,-32.91266854209861,-18.275074202789817,14.637594339309677,25.59049024471029,-23.747595018496785,-1.839155599569004,13.531434542412555,-7.7156043564123244,-17.686828460946252,-15.089478224819134,-13.586293204884655,-8.07787933625713
30.0,-13.54955150040235,7.149211606998023,20.69876310740118,3.191849168382678,-17.083940513808678,13.899963492301595,1.0182021152855334,-15.501566707980325,-10.22363775940784,-4.876743172732851,5.400523590833286,4.754353923613713
31.0,6.437404773662838,24.311621119968216,17.874216346305797,-15.391044481902584,-5.743700834154684,21.142711542015597,-13.205508330618052,-4.321926184993151,6.004188926611755,8.875727485691604,9.253775965457217,10.205152913472102
32.0,17.03006479741641,38.940979041452835,21.91091424403629,-27.933101332480994,-2.454532463027083,30.391903252553618,-15.632392455668608,-3.2351594700849713,8.644833865909783,14.264752566894865,17.06853407023833,17.203771549492778
33.0,15.896537744677262,17.12884162106938,1.2323038763916365,-16.548467364254588,7.325294500167063,9.220692929690603,-7.440423780233132,6.046760216043415,13.728552908886126,17.996911549123958,13.645207814668513,7.641055622979184
34.0,21.961223314169718,-10.798515149528042,-32.759738463698355,-5.545880527105927,27.35645486335009,-21.821717073604493,-2.133114172982249,12.091467338978934,12.32152601990053,9.443994215447027,2.999023945386348,-2.2480242596592435
35.0,2.1820332077858673,-25.64853816076655,-27.830571368552814,11.685317453735586,15.001298413084118,-26.70689404857018,-0.18957561894467378,-0.023675238432303125,5.067676077944885,4.668385115635216,-5.116697080895437,-7.648557832194033
36.0,-16.589494833118582,-18.4263599961541,-1.836865163035645,17.53701118519775,-7.384515657074278,-10.180875823402204,10.975641979033139,4.147972806880212,-13.6184012433405,-7.903321700107165,-5.0817279065522625,-5.72227480687986
37.0,-17.85517412263141,0.34898953676119504,18.20416365939269,8.782800635115912,-17.96288087662597,9.303318711159895,12.800151044660282,-2.8727583827072634,-9.558420412980077,-15.792183952957036,-6.480819079832747,1.58519490935568
38.0,-21.38430095179004,6.8724582860288725,28.25675923781907,7.208958423419974,-24.83571440953955,17.58937433815584,10.477778770741104,-14.274008682809278,-18.729299674474536,-20.069904694508992,-8.157031212430985,-0.034544830894611245
39.0,-6.76766734953558,13.196624716085482,19.964292065621187,-3.1799512112141644,-13.383535132352137,16.525634362784633,-9.44998510684984,-7.764958786163038,-1.1610932502423479,-1.9776837535112577,0.3067543756981008,0.15746073137757488
40.0,20.15091100728702,11.206338981473829,-8.944572025813184,-15.71973969638631,14.528421962072597,1.1552158902204752,-13.653471452498563,8.322595970678375,9.2186518016268,7.033850570705035,4.105229227349155,4.5066386604307835
41.0,17.26732882919282,-11.145933931171314,-28.413262760364233,-3.09802588845646,22.819472331122093,-19.754000978906358,-1.6262771792670918,7.435628955664461,5.502491342290103,2.6770271833736032,-6.053782508016349,-6.791995414011582
42.0,10.979899006152372,0.2221461041815851,-10.757752901970914,-5.554550550709053,10.925385274852212,-5.241001983276474,0.4872012185013279,3.204665746780127,8.36567522295611,7.4569980053379386,-0.9282138717412365,-6.786356478419262
43.0,-9.368811713789166,-7.34758899429459,2.0212227194944585,8.411188281972368,-5.718301449844892,-2.715146740740196,5.697344853724444,-0.15432159588518513,4.433682164860294,9.00399405553292,7.102134180987557,-0.7959639552147886
44.0,-13.02571019078407,-7.247649093586094,5.778061097197888,10.11813156251678,-9.425751861741809,-0.7100498677554181,7.936607566937473,-2.113520956124462,-1.4827007173836675,0.8008521858924551,5.554696411204898,7.609882111636482
45.0,2.1868955132594152,0.3293865236079596,-1.8575089896514934,-1.2705728909590093,2.077177518309157,-0.8219955190919124,-1.688757516065433,4.716255044442518,0.45500643561305454,2.063522670471025,5.6783530498692905,8.151978182022829
46.0,0.27349769478679065,0.323418239401827,0.049920544615039475,-0.30810177817851636,0.08878255280590786,0.20297238304095533,0.4672111602385036,-0.63834648404211,-1.9680770651181327,-3.638227869070548,-1.3349529187859335,1.077969657998711
47.0,0.8570185687289786,9.338954291069376,8.481935722340433,-5.10989274806961,-3.834144972232009,8.923709350272004,-8.973693290291756,-7.641416612108424,-5.736432717610491,-6.672235601539503,-7.6583663486442894,-7.495875582012172
48.0,4.779144944961065,5.13283527174814,0.35369032678712564,-4.975630667433872,2.1927262550120075,2.756885826875477,-5.2063210633331165,-3.671253120563902,-3.916113748872884,-2.3461489541515714,-0.8713272295419081,-0.9059656422160263
49.0,6.374348697472209,7.814542425519092,1.440193728046948,-7.047381982323387,2.527643735223673,4.645591580018685,-4.803942679958757,1.964456261673706,-0.5309495652114045,2.9963034664743873,0.17109789265704478,0.759562040608706
50.0,-7.714725560942805,-3.0292532106595083,4.685472350283368,5.326375884504194,-6.216691122412791,0.8544432374153241,8.431086764796463,-0.7982848344696256,-2.33098153623496,-3.369142325262444,-2.3545349699258917,1.005347708452366
51.0,-4.52286677527062,-5.459932561031879,-0.9370657857612028,5.011690304072371,-1.808663487790528,-3.241382651308562,8.108794212613926,2.0098973024588704,4.190171372450782,1.2667707648802817,2.075763822938086,1.447537797293594
52.0,-0.21577353814078704,-1.3743750200307776,-1.158601481889956,0.8062044914105231,0.4550805559706119,-1.3010278503904287,-0.5284290556919053,7.732886514510863,8.234469979979657,1.7303110287470922,1.7361560590138,1.3642347177368657
53.0,0.1266223155454238,-4.5465345948410665,-4.673156910386501,2.2171051111153557,2.459806791668059,-4.560603068512485,2.2338973469082086,-1.8147704815576136,5.099624415097654,2.264967777469091,0.4757150426586201,-2.3042442414236284
54.0,-4.839570954110721,-14.38119843199606,-9.541627477885362,9.618753150810265,2.327606563404978,-11.990106295236401,0.8932080699753305,-4.6604253351622384,-12.225545640871879,-4.2646886306037555,-3.4176964896480335,-8.547233937050304
55.0,9.078322135328982,-0.4181523847971489,-9.496474520126169,-4.3165796021084635,9.257740141290087,-4.988919694611347,-4.564784424906917,5.621461610263962,2.1342116592924336,2.4356150007028914,1.1468008201177562,0.9643578201298459
56.0,9.071031403501523,12.302626041149345,3.231594637647787,-10.744981626032745,2.8832960294416243,7.809154443566149,-6.107061304504121,0.19580610816404315,0.7638370564510295,3.545740094921689,-0.45252435192552287,5.556186544673243
57.0,-8.042424707206465,9.782311419340246,17.824736126546682,-0.8421476460437898,-12.897004576656796,13.840198101834403,-3.286911813961156,-9.286204787800427,-4.306797616448008,-3.168309934200928,0.3333794721599743,2.2334996486782055
58.0,-14.327997448956568,3.803363845867156,18.13136129482372,5.217512634885839,-16.196496499251992,10.921263491269425,9.362986909909392,-3.514358977881141,-3.158624027315293,-2.5980988203991764,2.8446483978830925,3.466753024430333
59.0,7.170180519996587,2.995981631674052,-4.1741988883225325,-5.044379041904325,5.704819700527812,-0.5582164676327803,-1.121317990878655,2.24820800823558,4.691719457589596,-0.1144774401006241,3.7714591036238674,5.154557939134286
60.0,7.582587385080317,-8.304184135470784,-15.886771520551108,0.403027280220979,11.690180975951083,-12.142656359487008,-2.2787981967678683,11.415945181153596,6.3600628668728305,1.712007635386148,-6.309636755559211,-9.675989470461822
61.0,6.215540160459364,-0.7824774423449057,-6.998017602804302,-2.7505056866037547,6.564579322319616,-3.855975708189246,1.7295047252550335,-2.468663977070709,-2.193459281715976,1.1788332124231728,-1.3026527715714233,-3.4411940740323246
62.0,0.8113257140924053,2.30804693381521,1.4967212197227546,-1.5920142116205342,-0.30479791228553843,1.861779563179999,-7.351795715271461,-3.7493781450767307,2.180488346332672,4.1902209608821765,1.7275579236395815,-2.275366814004869
63.0,-13.09319069751183,-16.422439632216502,-3.329248934704708,14.80489308189283,-4.8447401183877155,-9.833829999002296,5.242331287969115,3.404333608840938,-8.754765173823019,-5.036049222096464,-1.1724487822691536,-0.06695158910475318
64.0,-3.6916088015727127,-10.36711571066962,-6.675506909096905,6.997234896716941,1.4476490708471959,-8.476796544689554,8.447749888671032,1.065384682324955,2.490422604357472,-1.8690286374299114,-3.0485218795234243,-2.044489243415975
65.0,1.1556056390863407,9.900031412183315,8.744425773097012,-5.482749581287271,-3.842646174497872,9.287932098800198,1.6009758632083977,-3.3950408358451223,5.996231243860059,3.358533976221811,10.940588242039375,13.73873665364475
66.0,3.196020980145618,15.446848908498211,12.250827928352658,-9.357471467868724,-4.500297905521423,13.811471186972772,-2.912660820518127,-2.3415223257873543,-1.4472500628813156,0.5255510624198159,1.7599839682352765,4.667698916182842
67.0,-4.686167538212794,2.411133372746482,7.097300910959339,1.09900104630949,-5.865824852216111,4.711567101009976,-6.502255195027204,-3.662955392672008,-6.199043298340936,-5.770748915451458,-11.66957763498742,-11.809282896807376
68.0,9.604591425555016,5.5145820598709765,-4.090009365683989,-7.520957519174406,6.875029380177434,0.7429014535405623,-5.047923663404411,3.4333865035209827,-0.5781321203255156,-0.1794064895122387,-6.628613607981578,-2.392911231322767
69.0,9.266480849823688,-2.86456640723492,-12.131047257058581,-3.1620127932450672,10.73071623859723,-7.470423276119023,-2.293364714357931,2.680878443396482,3.7212545356228928,5.538817755688429,6.219402593916755,3.6334187064630923
70.0,-1.1988999856908311,-4.3735115796657595,-3.1746115939749346,2.7493479957413602,0.9458795417185888,-3.7459290168070405,3.020714518702297,4.3444467582719986,0.2693645835801395,0.15129671591227511,5.585585159515604,-0.9919120854762076
71.0,-11.104962711945374,-10.705539567543216,0.39942314440211746,10.874072621992966,-5.79081912621603,-5.120087318274746,4.636608544745625,-1.974177087998985,-0.8797616300661772,0.14900500724232213,3.231766212131805,-0.2546982953679343
72.0,-5.170330359937499,-0.6845307907367753,4.485799569200658,2.9828142892887435,-4.866061067479196,1.8622274003275034,9.416152377826734,-5.488481888067752,1.0335442080289667,-0.007021458381277018,0.9307560594179662,4.611335882497905
73.0,-0.40563123870166873,5.603207669124045,6.008838907825654,-2.6134231964837893,-3.168425151455282,5.775133376005016,-4.166229563491948,-0.8451154081844576,2.93807272873819,3.7098342170277245,3.1643737207656195,3.0857020735385934
74.0,4.09523936763356,-2.857576449857304,-6.952815817490901,-0.6254316697622171,5.559624387086163,-4.9304630861536,-4.355240187750399,1.4876695265137512,1.7405397459664462,-3.3109223819294664,-7.37746150496553,-8.353514677230454
75.0,-4.110953498612487,-5.17819016417305,-1.0672366655605496,4.643634373010658,-1.4890432884200249,-3.14513041769777,0.9007044170757168,4.1877519885467995,-1.4764311051445715,-5.8221334769704765,-11.267591717505937,-9.211436961356812
76.0,5.659928838593349,4.966189319830368,-0.6937395187629325,-5.312028963366878,3.1299238688152893,2.1929228291303424,0.3703708768748042,2.271771831328114,-10.289452868549882,-8.895486293790055,-2.9161033034436956,2.0842091815817034
77.0,11.52841006915632,15.359402591172554,3.8309925220162837,-13.445219399073707,3.8033575947269287,9.650582479923234,-3.5664437424461175,-4.450014591043084,5.614693039773433,12.728987814526905,9.356094698514998,9.055052205962841
78.0,-5.1908007102164655,-6.434474470847485,-1.2436737606310138,5.8049409161001035,-1.9359779661083665,-3.8648182242250853,-1.8742997043093341,0.6539454044027906,-1.6654627835886018,1.8425761276746684,4.460293581110918,3.959705913608199
79.0,-8.651280786712839,-2.8952478997810824,5.7560328869317035,5.756242316531078,-7.1597101706959965,1.4013817182487298,1.6420850785835506,-3.2210984779265974,3.755845612747186,3.60244645592308,8.83448780822506,2.8290387793910625
80.0,1.7007259956445573,0.6409018114560383,-1.059824184188604,-1.1197038716352559,1.3530886877360184,-0.24257797545348392,1.6210744909243489,3.0742802589874394,0.9310452984942139,-1.418332443381309,-2.2362241276155155,1.3076810928885858
81.0,-5.753231189663976,-7.392828841675382,-1.6395976520114728,6.535279227603429,-2.076348659845196,-4.475157491208949,5.843485095468756,-4.670765645514956,-3.636443082513118,-4.961300157565253,-8.904792875347873,-5.500914088725025
82.0,2.591729925832174,4.571269958140999,1.9795400323087908,-3.5485296930662993,0.2930083360542754,3.2334981352155894,-3.9227353656555373,0.7320398934076191,1.2334965608324437,-2.3394724980647257,-4.757731320053192,-5.8885531373913
83.0,10.092662976603545,-2.0372287916688414,-12.129891768272401,-4.078344329605035,11.102374017192052,-7.049549578175863,-2.6650339296548746,5.64421132878154,2.8581062017765246,0.28666056318956157,0.6817836939505355,-5.281249018236854
84.0,-1.683376320089704,-4.892767986670148,-3.2093916665804603,3.3150264671370864,0.8339704036991149,-4.01785202239201,2.2863612130670337,4.194061141678664,1.7404893227894416,3.0275442274166826,3.6543942403980294,-2.4835310457966346
85.0,-0.6736754531872068,0.8310726193444417,1.5047480725316429,-0.04938807343720325,-1.0995165711673074,1.1235585032444049,1.3796565435390318,-3.4661952546566672,-3.918998393425272,2.5799273361289847,3.223162404718,5.996279623290241
86.0,-5.0423015217574365,15.525262388067388,20.567563909824827,-5.2858135806374165,-12.821558288788001,18.08301308332789,-5.786368824366209,-4.946928560875572,1.3062493520854899,1.2874746406607276,7.769964291488667,13.923535818862092
87.0,-1.7836542351434335,-0.8894587598832668,0.8941954752601831,1.3775965149938083,-1.3650722577438827,-0.037960270633465854,1.6711785664156067,0.2413667235620478,2.045942046664808,1.2729357049553933,-2.2304589282359046,4.197611389164957
88.0,2.1969829442024533,-3.4384811528441803,-5.635464097046594,0.589773022318084,3.879041717245404,-4.4984450233301745,3.2094968213247763,-0.7908118330633919,-5.521592206397165,-3.4501556903935744,-9.138369786794135,-9.288770091361112
89.0,3.4317860351505836,-9.385560418992208,-12.817346454142763,2.9514883332849275,8.156221414316406,-11.143983539483886,0.28792748821719294,2.407743279357459,-3.5409406502298175,-7.806314911350267,-5.204952846652311,-7.79634568046373
90.0,2.4861039810874175,0.5359998502287402,-1.950104130858688,-1.4541970826325503,2.243812002192384,-0.6752726745696034,-2.8873717987644163,-2.2619806245273706,0.9838247538200475,-1.8035765360132523,1.0571459921510338,1.0026776336803627
91.0,-9.042699670360333,-5.983162706266106,3.059536964094166,7.491966317183637,-6.025375305044232,-1.5141070137532064,3.3003766566083623,2.4185315627517934,3.711014358138622,-1.4306246414353603,0.515564885566572,-7.361585276439641
92.0,-6.443531693089597,5.706343783096951,12.149875476186459,0.3458863648006649,-9.343320888692249,8.950162400542695,-4.216975585778886,1.9223789757123368,1.2703775945586413,8.001627727933537,3.597532077133832,4.56938279876337
93.0,4.14648466852,7.241562153262203,3.095077484742122,-5.642106216842826,0.5691051357427894,5.188531480295596,7.683397304918601,0.9336077917319566,1.2407089443813937,5.443470947054035,4.472199103798857,6.512869119320706
94.0,16.57327216205465,7.368134624053138,-9.205137538001562,-12.00334486260913,12.867136802524758,-0.8968225692914782,-5.498305728404105,-2.1827431885620836,2.4636767592409097,4.8084817223147125,3.8804947446624283,6.006608512567959
95.0,2.32572291776572,-5.170821528606169,-7.4965444463719075,1.383507554338708,4.900983332832859,-6.307741008936613,-2.4956902835010797,-1.9546613112397622,1.344215712072888,-2.6132464961734794,1.2655232537550403,-1.8885156015149884
96.0,-8.158948011163728,-7.227112386109756,0.9318356250539681,7.727080197412674,-4.547886935160555,-3.1949047465563902,2.010478010588044,-0.8613110390911092,-3.1114062048406774,-5.142254002416627,-10.37028670508563,-5.819241720291889
97.0,-4.0151011647957455,-1.3849812766465721,2.6301198881491716,2.7304145703530645,-3.323376116928636,0.5803589916296215,-5.1334143073830605,0.009498032033377846,-3.525091791094833,-2.153018547871878,0.9476024799705804,1.4913701408765605
98.0,-3.229785813176966,-1.1308701487543065,2.098915664422676,2.13097574877976,-2.6694072738543535,0.5239331221745656,5.328913174234624,3.661647320517825,-1.354876292001085,-0.3368050375778129,0.903843615819858,-1.448812797406011
99.0,-7.183617095828977,2.9343833514829036,10.118000447311925,2.155631985182538,-8.664851220250364,6.488794614948232,5.118012608570655,-0.12497048098595998,0.39810329047288606,0.038702512354862106,1.09913521271108,1.2810101147481632
100.0,2.559821998314626,1.0040344902618756,-1.5557875080526804,-1.7476533883702268,2.111060681273714,-0.23447533266926435,0.33936740900001805,2.872011082305698,2.1593970939013727,-2.2330954710736144,-0.026061509607615607,-2.8503014111051344
101.0,8.977686371506707,1.5937747873079358,-7.383911584198697,-5.3267770836680555,8.143859177930368,-2.8542172963964747,-3.4659575812052177,-4.5408716324388525,1.2943091076687832,2.3831037156028945,-0.2701203403242405,0.8139369541826428
102.0,5.940250443386556,-0.8649529679208916,-6.805203411307388,-2.576546157201493,6.405244257449397,-3.8735252894496917,-4.856660381165864,-2.2339184702410444,-5.167178821643608,-2.966893291160489,-3.1082852385528392,-1.3643812363127843
103.0,-1.2380301839915662,2.411473054769369,3.6495032387609525,-0.5468746723051152,-2.4956544823902505,2.991753607263761,1.1729414733622276,-0.5936209442038222,4.0487118919279785,4.7261163789694915,2.9075902830208107,-0.23951768715578103
104.0,-7.5482690223091415,-2.929012444203468,4.61925657810562,5.27634405745923,-6.058222213962671,0.8851318617729432,0.7245338178491759,-0.6952222851750641,-0.3477480801164601,-0.5793626431124883,-0.17256162405680886,4.638028479104217
105.0,1.695890231618752,5.373889440665026,3.6779992090461757,-3.5792893134022097,-0.9626018262279481,4.487377755509661,-2.1775253012894726,5.295602394572414,2.306902409270245,2.9943012456988845,4.015718870717068,5.5373291317488915
106.0,1.5502202047762415,-8.223718388904993,-9.77393859368136,3.2893927652119164,5.6181110303068404,-8.958530424859191,2.193702072942546,2.6651783857537685,1.604185569937053,-1.0356997615011243,0.09888449015002254,-3.573667717865378
107.0,-1.8537535291575455,-4.385586714219778,-2.5318331850623546,3.1503123302000753,0.38222387262024216,-3.418770455617347,7.900614290056906,-2.6231391668842927,-3.771792059147493,-2.653940149447536,-7.094370380862828,-9.978047545993597
108.0,-5.870313138646382,4.807914862241872,10.678228000888181,0.5646158851164336,-8.300929312904714,7.702973173970776,-1.362672081423539,-1.7515378675371298,1.107076828408304,0.9934570354417316,-1.5381983553086611,1.967441925812519
109.0,3.317342268017943,6.537708277346224,3.220366009328302,-4.887656443985112,0.02977090226575063,4.836585301620428,-7.363182790483292,-1.6044623004336258,-1.479755572582108,0.640965520969812,3.1437703334665743,5.857094696032576
110.0,4.6471977621538505,1.2160392211965672,-3.4311585409571816,-2.9616330349253124,4.026276264745923,-1.0741358781917758,-0.40342462414192637,0.7880982317887391,-2.7671533565835085,-1.391484100928042,4.69184772993667,3.0365367127611993
111.0,3.3578479662994027,5.329784454286828,1.9719364879875425,-4.364779350936833,0.7616768047715585,3.603374690976125,-0.18630121468938898,-0.9454690911667997,0.8616495404810323,-2.1727732600145577,-1.9124631447475533,-3.531995387091453
112.0,-4.66583582503158,-17.45482265045503,-12.788986825423368,11.046355161522285,4.050956702381418,-15.090672111911259,5.166296178220502,0.9372878362900969,5.956821804946405,1.689515715934385,-1.3593175380795006,-4.201104239233351
113.0,-4.2235386932495205,-0.5625241718161513,3.661014521433374,2.3826429142037244,-3.9571077884583077,1.5833328642531548,-5.341273660253046,4.803132301411057,-3.5665676538282023,-1.5797417910707932,1.9926557064078738,5.914425875209583
114.0,8.230047890606578,6.935032414984612,-1.2950154756220118,-7.592763648531923,4.740315184107222,2.859276411272171,0.813047279680126,-2.2477669846214576,-1.5098546870278469,3.223020550069714,1.3648064970659237,-1.2099471473392494
115.0,-4.952874543684029,0.10942391302485444,5.062298456708825,2.488088240235931,-5.039070131193636,2.5519811710161893,2.9659328219341736,-2.9173478827884844,1.6836151967062045,-0.21085349293503008,-2.8615924008308027,-4.754227387469905
116.0,-0.49777555751855695,2.5635434043844167,3.061318961902915,-1.048167367234962,-1.7413931372722804,2.782082823108497,2.6716234111105974,3.121186911055815,2.1008783353278466,1.549274820270081,0.46486305899437763,0.3341155414687309
117.0,-3.5042567424307802,-3.3879358907629387,0.11632085166779182,3.4286748686574944,-1.7788446077823163,-1.6666143493700196,5.29966224646508,0.2610928557249509,0.9914849600537147,1.324318116730862,-2.8384693697685672,1.2019795476803876
118.0,2.9245927965245095,0.1362299187044138,-2.7883628778200933,-1.5482061307133812,2.806565990581057,-1.2829943467398714,-10.580357705185904,-4.536828065917427,-1.771960674828207,-2.7275471569133334,-2.459759911212177,0.9791533366292288
119.0,2.316132508984471,0.5031256698155616,-1.8130068391688603,-1.42569777522363,2.0954532057892563,-0.6986246348987499,-4.078787603973405,-1.0952811432779903,-8.084241107905243,-4.2799738882255385,-0.3127414769578069,0.5326394371121164
120.0,3.482988816770461,5.434551907530096,1.9515630907597092,-4.392718900798103,0.8024970113913308,3.7193837449078075,0.37450551459444004,0.46689453918562773,5.693831658530041,3.2715510407421773,8.907765716009724,5.789391034753467
121.0,1.4028177716883363,2.616629590265987,1.2138118185777087,-2.018675336253162,0.0604543768074115,1.934567010681595,0.7483467433791449,5.065674913587256,2.423688092929373,2.3297159618099372,3.4566184603805206,0.19236296863483648
122.0,-7.826997829218651,-7.840272410105316,-0.013274580886676879,7.826987077498086,-3.9331819881056442,-3.9110652151529632,7.5392853953621035,1.1772948712911124,2.1052859298673625,-0.5310961927121796,-2.020116943981723,-5.089287507235345
123.0,-15.158861095158558,-10.19064367672044,4.96821741843805,12.66722726006303,-10.084133846820762,-2.59566259867293,11.832938769332268,-3.6725370006537315,-6.074991873924931,-6.266265955442471,-9.507089367017763,-4.045763342433989
124.0,18.724349148919654,13.752974951390836,-4.971374197528913,-16.251080823124354,11.908816259443562,4.329758348979403,-13.168597540158395,-0.9082567827654986,2.191999655355446,2.0500568211321957,2.323904597351609,3.7158659030349925
125.0,12.01306405738517,3.1490643141053702,-8.863999743279885,-7.601735614337654,10.420638011992558,-2.8370831064473148,-7.666653841276652,3.520537118508961,-0.8042528975326434,0.7885999092191098,-4.053395469009017,-5.379936832213894
126.0,-8.287122562569392,-10.48340002298579,-2.1962774604164137,9.355111432467751,-3.0656064382264727,-6.317864808817029,-1.097043727892137,0.6967738910793443,-0.9684568196143111,2.5834497742880695,1.0733121534476375,-2.3895302009138946
127.0,-1.5429201613618455,1.5777469339009174,3.1206670952628066,0.023343988519529013,-2.35549622346882,2.2921063603688756,2.5601219969448827,-2.438604314087148,5.110950786243722,3.064956926407742,7.386320640953134,7.671020803366688
128.0,-8.421647092633377,0.9297667975463613,9.351413890179815,3.7828705039197725,-8.835435056937877,5.160118636269759,8.947934975597358,-3.1606130489948057,1.478343137788081,-1.6257695236205263,2.6110219050666594,4.674909494213978
129.0,-7.528964464058731,-2.6136747359362955,4.915289728122487,5.1092599358561515,-6.175075597937399,1.167220927878088,2.162670149253947,2.142285745170722,-5.591736217315312,-5.8914829933677835,-2.422758362997184,0.16859458885712852
130.0,11.260884200826219,10.268018459340318,-0.992865741485859,-10.800490471484682,6.090975622398965,4.6508638580726345,-6.525374983602758,-1.547251031097553,-2.821771360376762,1.750441341537151,-4.516664338830401,-3.2789095265881723
131.0,4.0198901916148575,4.684627519747874,0.6647373281330468,-4.382143749929407,1.6373004731058245,2.6855449574147787,-2.4611309616766777,2.645459728021315,2.716891840389209,5.3848544515485175,0.16858645416279217,-0.13061111365621114
132.0,0.9288396677984911,-5.944773645798987,-6.8736133135974775,2.4830905734639006,3.8569959535179588,-6.399743402692721,1.9172672170221352,0.7375619256803438,0.7988976952872842,2.4790616206930394,4.9096435898615685,1.33273722403209
133.0,-4.313738465648766,-15.12937086575261,-10.815632400103876,9.698857096741069,3.28332078832279,-13.042067981883534,4.359234514919642,-0.3516095024665301,2.3034657710993995,-3.3365380330216405,-3.9726506996952176,-6.588869482689443
134.0,5.421136192275288,-4.550751819258166,-9.971888011533514,-0.38028519673322947,7.730214160232978,-7.250979323184804,-3.1541437211036216,1.1868808133426767,2.5278095002745617,-6.786742515179501,-2.101676430155822,-2.05479728440532
135.0,-9.954913954148449,10.462939908365303,20.4178538625137,-0.203169677088622,-15.146871658208616,15.453815209193007,-1.553100174933272,-3.9208077875491005,-1.7560248342750095,1.7480018187928046,6.274025376850977,3.0002794983127856
136.0,-3.445439456068927,7.3125596314397505,10.757999087508665,-1.9676120688017829,-7.131054185973931,9.054109101778604,4.209293937240569,0.07261419598891039,-8.127532788215069,-1.4805261804123069,-3.6169048462744575,1.3121696028334449
137.0,13.05905530155837,9.598993105822068,-3.4600621957362536,-11.370251269799565,8.242360198690953,3.095893414536965,-5.674448634040591,6.41133270146152,6.987718774429862,6.387201356010113,1.5610756545263933,2.9711727573792337
138.0,3.4609768528894818,1.3970655652800947,-2.063911287609329,-2.398357935055889,2.7568808986929514,-0.3769332139903083,-5.105764088079465,-4.5220301681979045,-4.751035707407831,-0.9167484442521427,-3.9312916901096226,-2.45769545443112
139.0,-5.693987634375846,-8.556229978139392,-2.862242343763528,7.072167521052152,-1.4130240032657837,-5.66559240814416,5.51310507471595,-2.81215286378776,-0.49686966534135957,-4.6220430153056995,-0.697291739264865,3.3521162512787885
140.0,-1.4721514049940572,-10.179382926021322,-8.707231521027321,5.850469901967353,3.62364439121576,-9.472122262989153,6.0346668726049995,2.0093690848321404,4.185959310499258,4.093416045919499,1.6521776154682204,0.020780831910025832
141.0,-0.4564822577400176,-0.6966784520259788,-0.24019619428606376,0.605085883102249,-0.10461404326177148,-0.49420244370379063,-4.3921633108853015,0.9492934241319277,3.84180898926269,-2.041417223354326,-0.39565668482349214,-2.181236049292915
142.0,-11.63496003750517,-4.8284302014199465,6.806529836085149,8.268831429725193,-9.224901092725185,0.9629536116540436,4.387524445071396,-2.053241574732397,-6.5991268101849325,-2.417199903290245,1.3800641050479148,1.274428531031925
143.0,3.5606559826135435,7.388957938372745,3.8283019557591897,-5.504522250376835,-0.14881671805523844,5.658356456201597,-0.9486381928944574,3.3558064334481985,4.047503048743636,4.110753692210665,3.7858890423120615,2.2832502554741207
144.0,7.415952661287585,-3.2043804671978346,-10.620333128485374,-2.1229590475096147,8.991899966799286,-6.866926343029782,0.7409706589171738,-0.12020059452384646,0.5705900868195433,4.2334050327989,0.6591138100308392,-5.049646403255591
145.0,3.302412937616892,6.932825175214234,3.6304122375974015,-5.124383664569311,-0.12034233190781318,5.2437437249038155,-4.516908560957537,1.149955675263148,0.06628044226938112,-0.13924092497606355,-3.0526782982874434,-6.156209837660672
146.0,8.67069709379367,9.878532971665368,1.2078358778717184,-9.275082951022798,3.7707129614963106,5.501192808091211,-4.985913089605491,-3.3732955757408893,-2.419434806033511,-1.9499292529155112,0.8493812278756216,3.324360287473971
147.0,-8.640922504535885,-0.9257167787067271,7.715205725829115,4.784438402093606,-8.216686281541335,3.4281478873441587,1.7629514608448713,-1.7318889854557356,-2.41145403818871,-3.561314957721631,1.8446312326859962,5.821223047060962
148.0,-8.051747072002296,-12.24610334067854,-4.1943562686763265,10.147727249891698,-1.9619680032058104,-8.189294205016152,5.530291934088466,0.7261398586443863,-0.40442666160124285,-2.6606550428302755,-5.135109705899248,0.9061643328059876
149.0,5.8897038675350055,4.754203820511458,-1.1355000470236465,-5.327623339513047,3.5660798723220513,1.7600387532157074,-2.922225949121184,4.205854616903567,1.3033713025031983,-2.192711651013858,-3.795353735558315,-3.512222021868589
150.0,0.2932184016945504,-0.4623262975728428,-0.7555446992674553,0.07420064102163582,0.5073445368560561,-0.5798965830999332,0.896419976092956,0.29663288445217195,3.278630772055629,3.9810831948556267,0.8760976663797386,2.4304108872320684
151.0,-5.276869138960278,-7.1357085100065465,-1.8588393710462832,6.271164836265896,-1.7199470489495057,-4.546088595453346,4.2143679859352075,-3.1308846108521453,-2.3241342214778395,2.2988443708462056,1.723601649382614,-0.0013775353769473198
152.0,-0.038163243742787456,-1.2121113013354354,-1.1739480575926233,0.6092376198957443,0.5591515087736776,-1.1607746452942929,-0.9932637068874144,-0.3241895734013315,0.9091225060268782,0.2673695502785032,3.2401418710006413,-0.7517106105792402
153.0,-1.4459942349295911,-1.0696059109808547,0.37638832394878685,1.2406837675054803,-0.9225152296252852,-0.3107944011442484,1.4089733031516194,-0.5324017550672481,0.8386633092313448,1.5724987101575096,4.654386759276884,-0.2591859277331623
154.0,11.113807249400935,10.024383267535782,-1.0894239818650824,-10.587822341218823,6.161830865436592,4.428647311679337,-7.0891407099065065,3.349177669508886,3.8594674125492854,1.5814917673054842,-0.5287046677124274,-0.7136855009896667
155.0,-1.8056271497872451,0.7024230640292046,2.508050213816502,0.5298189455287909,-2.186188421443967,1.6486544816836528,1.2562888053660384,-1.4625162658118596,-6.960252469347152,-6.201883431677581,-4.388938434194942,-4.2872566582621365
156.0,-3.418990031288345,3.221766584804577,6.640756616092952,0.1506372203444315,-5.071979477423522,4.897612439504828,-0.9438930134352056,-0.11757499684742737,-0.1715250888464035,0.7861102671345503,0.218679782580272,2.425099535224181
157.0,1.791992362317049,6.314212060235512,4.522219697918466,-4.086409337883692,-1.3411737307052443,5.383689782326816,-1.2932108772891693,-3.911362036125557,2.014233251150687,3.9862568091107278,-0.20924182766694388,2.7815259919440267
158.0,-1.9275771676185587,-7.161403159937908,-5.233825992319354,4.582423140383249,1.666320684172235,-6.156710132833171,2.1643117376539127,-1.5620975058923583,-4.020419045136196,-5.53644149059425,-6.0239378660807565,-3.1250762705387274
159.0,-5.929023325732404,-6.380599852266606,-0.45157652653423597,6.106445501348428,-2.732973149882385,-3.458721695885811,2.5001210626193577,2.384523154588557,0.6983409706433806,-0.48838427644117455,1.7309667630767058,-0.5107691429290315
160.0,3.9790473591850763,-2.251523288054674,-6.230570647239805,-0.8401457404692869,5.106824316290749,-4.209772586479164,2.347646370524634,5.223222114473098,2.485247104488644,2.747210607142968,5.491445463052176,7.234713766260752
161.0,-0.37444262557182406,-11.51446792722288,-11.140025301651141,5.962688678513043,5.384260929774688,-11.29961677883922,2.529218082857986,5.0824949962755746,5.931156523399461,2.3149595699705143,1.6139605206222867,1.6823314729738608
162.0,4.122064306796291,-0.25815714242267074,-4.380221449219041,-1.9173733534773931,4.254179421061961,-2.2933601741184586,-1.461548192139452,-0.26115397710619237,7.44469905085714,4.379041645562141,1.3847079839682328,-2.0320576385100617
163.0,3.2917642566655747,6.209475354290395,2.9177110976247644,-4.816551724712736,0.19273146009609707,4.510721549951181,-4.906423997488646,-4.334362322105588,-10.911803493025381,-6.797775335704015,-4.752522393744937,-9.043786133704538
164.0,-4.081509008088641,18.532981906124316,22.614490914212944,-7.212702963444997,-13.417654666875398,20.52244902626058,-0.3718403914334161,-6.136761308809094,-3.0647106373805895,1.6123372804473082,-0.3645471041579209,5.853667415686814
165.0,0.28609603579328424,7.215753647359277,6.929657611566027,-3.7356997521375552,-3.308135650297655,7.102976514931477,-2.0679556054959907,-3.398719618738811,-9.111998008628689,-4.986502348781462,-3.7397435447349032,-7.791886591305193
166.0,-5.865611676079599,-10.10795877951597,-4.242347103436335,8.005900841487433,-0.7914145010726927,-7.141152272358078,0.8568559924304766,-0.6471422328314227,-0.09322298151510955,-0.8189176825662967,2.7359103322755445,5.862997652154462
167.0,4.373780985513858,-3.162050824367369,-7.535831809881197,-0.5819037243265317,5.9840845706341055,-5.310851802001717,-1.7364971795076756,5.193864209312488,10.083772957927732,5.456109899005916,3.778144344638162,0.9929121465089943
168.0,-2.0392561089692673,1.0909441131713393,3.130200222140628,0.4240212917680788,-2.544597725034878,2.0733715774660126,4.043844909495047,4.854502654713615,10.245098963010589,6.946361915577877,4.610786211570689,7.017485748353895
169.0,-1.143173567831219,-10.02019140391711,-8.877017836085878,5.61360137441607,3.8389497042815313,-9.484152979540129,1.8633170858955324,-1.706210122567374,1.0357990636495025,-5.101837404230254,-5.535091488640072,-8.369002144714527
170.0,2.065989810027065,-2.1899975307789825,-4.255987340806053,0.016479428638124904,3.140854025110509,-3.1807669834503267,-2.4489563128204908,-1.6207936311094202,-8.442088179731817,-0.934278020709611,-4.994247869114999,-3.3304258572101024
171.0,-0.833375427896685,0.9597396794533026,1.7931151073499652,-0.030443415622401188,-1.3303554050231212,1.3363412064093705,4.001117503379641,1.147572956739952,-8.706912963551067,-5.599168016019243,-0.23081059795648828,4.533850035510676
172.0,9.08052705105736,7.990661793953322,-1.0898652571040741,-8.582901797399394,5.065947210392396,3.4839804909526606,-2.013417874706631,4.402100804227189,2.0873163526360115,-0.763150484806788,3.7929934942658865,0.8688715119417287
173.0,-0.21715499644274816,0.7030487574559254,0.9202037538986261,-0.2123288318264258,-0.5936265792797544,0.7616691539679499,-0.39356286302009447,0.9149221026829484,1.0880106302521537,1.7134177839654345,0.2580853348669008,1.499995897502418
174.0,-9.228959857401197,-3.6298572622867438,5.5991025951144096,6.460566721177312,-7.366585052532283,1.0108552037846774,-0.031063549037670946,-7.342386624153039,3.403522497999378,4.8668087868854615,2.759544309850436,0.8059584112490903
175.0,1.7257925746959062,3.357369098938176,1.6315765242422362,-2.508524316487512,0.0904372482336182,2.521676089343173,-0.853078118825461,-1.4098493678776864,4.49737043045794,4.432584689590206,2.380298025641223,2.508651608480366
176.0,-4.197270960586939,-0.9844620353184843,3.2128089252684258,2.5475224193520565,-3.7407274122040812,1.1459651448605914,-3.7690659442510426,-5.971979702718025,-4.5044148275228615,-3.3875119172675188,-7.474002329072543,-9.362969385798575
177.0,-0.2990291111871184,-4.781862639237967,-4.482833528050888,2.498649869512617,2.138246028059185,-4.672318432793777,2.953119039124755,8.167363623648788,0.12530476579880256,-4.78639474116661,-4.6420634033967305,-3.150087890659731
178.0,2.9502722072056846,4.895239288049535,1.9449670808438229,-3.8858829238090715,0.47516452479298654,3.387495011255248,2.2796146305509235,4.446175082707056,-0.10520934342389932,-2.812005275466179,5.523599842905144,2.7632803636580894
179.0,5.478674392134696,3.900222801264681,-1.5784515908700238,-4.7329508001435014,3.505132356078367,1.2127808104641058,-1.0665775918999638,-4.640492860732037,-0.19399649766009652,3.146684078240303,1.2623922483340644,2.8116440305758807
180.0,-2.5475248551546605,-2.640652291213316,-0.09312743605863272,2.627095101668891,-1.249316728042035,-1.3907430402172924,-2.2404043385327492,1.5270951057714723,-1.9944840574456526,2.0942140795188413,4.645948310041396,3.566616776134256
181.0,2.507944575925873,-5.899778201922029,-8.407722777847857,1.7272988705963566,5.43379806047861,-7.1772292094751595,3.192842082542187,3.5851740079437304,3.1561213116477838,3.7182019303955087,-0.6611185777108923,0.08615041849690241
182.0,-1.9093297628756396,2.694022099443818,4.603351862319498,-0.43984498607338063,-3.205834119922293,3.6242553803124262,0.7731785266228343,-7.256326056365165,0.9348501285684333,2.0472943660591927,0.6090191635633802,3.8831751166592703
183.0,2.215865856235132,2.6114446170749814,0.39557876083987265,-2.3809559156449414,0.9558891644769085,1.5574079913907752,-7.630569210253191,0.596147898026806,-0.0815150541366968,-2.8616359591114415,-3.875097363233048,0.017206654095650045
184.0,-3.522495135871827,0.5600414524160582,4.082536588287883,1.5162344477127436,-3.8391240970447136,2.2980074141087994,2.261778936110451,4.515094531738798,-1.9002322732698989,-7.603038437157045,-5.644991896185483,-7.48910369067703
185.0,-0.5502538161275035,1.5863619017606105,2.1366157178880854,-0.5597416849740228,-1.381362794386321,1.9207167977542066,4.6317872582817,-0.6417545046613178,2.0051072231730975,0.6887602556842478,2.9792563792659292,-2.958459701787233
186.0,-6.160524574266198,-14.178799144085886,-8.018274569819738,10.128914771721558,0.9710435653422106,-11.1135122662477,7.157716242147494,-0.2933847225190408,-6.9847963074658965,-4.31279604861435,-2.741449821041096,-2.8206237126142417
187.0,-4.748443072374051,8.19112864463576,12.939571717009773,-1.683572216558944,-8.876861767510789,10.553188581756498,-7.710358495096113,-4.683808559808576,-1.3289066058474561,3.882104134643887,3.8862141971505553,6.320044804357721
188.0,11.196657286754915,12.214385082384057,1.0177277956291357,-11.747052360464147,5.140661542310062,6.602448673472497,-3.744754846359995,2.153093058451282,7.504800679345599,11.901250905599074,8.055666313777307,4.258143364624668
189.0,6.332127838609272,-9.89526236056195,-16.22739019917119,1.8192495216163014,11.257959174676682,-13.081936986348856,3.8317814362253895,-0.6353397608090013,-0.8881040983473336,-0.9462493654356887,-5.744271376764374,-5.358231077449387
190.0,5.101280193371826,2.071894160624945,-3.0293860327468423,-3.5463504682037033,4.048595712124653,-0.5112256277079985,-3.5018342778317906,-0.06370909748920706,2.277861438141009,-7.0210398211015885,-2.1575673098222135,2.2673685695644203
191.0,-8.003315266651231,-6.601220899945564,1.4020943667056902,7.268584555052963,-4.715925703193274,-2.567464682524315,-2.7949707838489726,8.103070616033932,2.9384910167682854,-2.9255120651263233,-4.441184078634735,-3.118736733287035
192.0,-7.654184937092271,-3.9008657186453792,3.7533192184468804,5.75004175977706,-5.715416361377082,-0.054670629873273605,7.334393130827942,-4.930099740468637,-4.098085084041878,2.2776251732457213,4.3057411880428536,2.5940627431386343
193.0,1.3569040404053023,3.9998114454016074,2.642907404996246,-2.621217902532169,-0.5763906305539868,3.3316831438983225,-0.4756704732666095,0.7955948383029137,-1.7601025309712917,4.844357710244998,8.562133882744217,12.86824717426313
194.0,-0.5704716997008457,2.266814013228862,2.837285712929624,-0.8660932450633606,-1.7184823742234372,2.5593020512670863,-0.6729417378030433,-3.5709657761842353,-0.9158163298877182,-5.516174320407523,-6.966513537403105,-13.604917230174692
195.0,1.5123893944776365,10.028122807987707,8.515733413509961,-5.787967797848121,-3.520691939603944,9.281370235824209,-0.19472894607613012,-1.2486870599193367,-1.1562462787321,-1.1657050543296477,1.484604990587009,2.5923987499255956
196.0,-0.9237766973492032,1.553924607975766,2.477701305324909,-0.3361982618558865,-1.7259685892501928,2.0307951598919294,0.296783135394982,-0.8043501316352119,-0.01985307539761466,0.48021834381798933,-5.9978233019933,-7.353058955895443
197.0,1.407650619274337,-10.734011915149756,-12.141662534424043,4.636185759251713,6.820688811098222,-11.495027869002012,1.4358381883349824,3.523201245383957,1.9371278690216402,2.768373295248481,-0.6040292825829687,-0.960113040396843
198.0,12.194022832626047,10.58445234079778,-1.6095704918281442,-11.343758622948934,6.861311559908168,4.436259362560414,-2.17707967270702,5.459846082716117,3.5604721510803725,2.2046005597030534,6.561024533018796,5.419508320871191
199.0,-4.351029258311633,-2.7530445322052604,1.5979847261064375,3.592897611172667,-2.942910188097725,-0.5448588722927414,-2.2386027715914274,-2.655916514968059,-0.965114260529214,0.23473913972359317,2.089758623212418,3.2138281069397423
