Time(ms),I,II,III,aVR,aVL,aVF,V1,V2,V3,V4,V5,V6
-200.0,3.2167861615666924,-0.07707955354668383,-3.29386571511336,-1.6155842854727989,3.2982715064224477,-1.6854146510186987,-3.0792010954895614,0.5970718662078488,-2.047536778153896,0.7619696490576944,-0.027837835908800845,0.5198081777169024
-199.0,0.6342192115751872,-1.5048248560777089,-2.139044067652882,0.4636362695295617,1.3489007896399683,-1.8207016051957794,0.35531526898638166,-0.07825954531548973,2.078587097177148,0.6371478615324717,2.2293550007684653,2.3562354974550077
-198.0,-1.6387763511017428,0.6325503908620449,2.2713267419637977,0.4463570835232711,-1.912462807466494,1.4517535968009065,1.0172300484229722,3.741392844624526,3.727840791761324,1.1107454247960744,-0.0109660495030377,1.8383823824745245
-197.0,-1.0996464827481713,1.324415273267146,2.42406175601532,-0.09658052595614874,-1.7935675049907247,1.8698517961700818,-0.26974332996804573,-0.2853387778273271,0.8390387011848746,0.48893029089870477,0.4570177616059051,0.4888336420370216
-196.0,2.2776906421617262,0.29663315059107026,-1.981057491570674,-1.2752283018448052,2.103800434505316,-0.8534238686089543,-3.2558070194075386,-1.906789602320247,-3.306388103132629,-1.356807219106119,-1.297390838077968,-1.6037563809103617
-195.0,-3.3921411979335794,-1.0411278666607402,2.3510133312728083,2.2287539922676123,-2.812064296420767,0.7134068987822172,5.523564553287536,-0.03491534536726193,2.0234972450224067,-0.15240483535717608,-1.8801903997927885,-1.9720162181071161
-194.0,-2.8954161572649255,-0.4304472400647631,2.4649689172001423,1.6798288554490026,-2.694429788696813,0.9861657523666867,-1.181537681803309,-2.829732465933971,-4.609542906051941,0.9814155154659128,0.49147414411992485,-3.928448078621791
-193.0,-1.7907829475906467,-0.8088609693847889,0.9819219782058496,1.3251021774735092,-1.3981988993835779,0.04358460401907524,1.2406923277782982,1.8049842030683019,-2.4379337602374735,0.8388838254611153,2.8203320481683365,2.6401944841062885
-192.0,2.944735672352459,-1.746748273812087,-4.6914839461645546,-0.6426554092892669,3.8053610811219705,-3.1952623391248935,-1.1303732328842961,-1.0197496610236505,4.074113059946377,-3.956181493803509,0.14777608141670984,2.30691057533259
-191.0,6.521895781687251,1.6553625401200402,-4.86653324156723,-4.123596292390053,5.677411273005125,-1.5926507677269108,-1.0057013689457728,2.8600890009433795,2.626357171097162,1.833810424535872,0.5214025137660413,1.106206183241973
-190.0,1.0494654903069836,0.12442881297584751,-0.9250366773311485,-0.5375558605917901,1.0429503316783548,-0.39617566548134375,-1.481917636813174,1.1716401878804814,1.1698297096610462,-0.25614241891919987,-0.7979034209631188,2.3704259177838334
-189.0,-1.5706655574957178,0.8321853107045533,2.402850868200278,0.3415761905767989,-2.0167567204193215,1.615705024663566,-0.5633055974399819,-2.943223747941759,-1.1452254901765853,0.8783377246908931,-2.692927311113223,-1.774279195641253
-188.0,-5.71194400809542,-1.3724842968245752,4.339459711270866,3.5126849588142024,-5.061775004763611,1.4788722456147045,2.2279047510349095,-0.5622154699666662,-3.4289815331436806,0.5078765855038377,-1.6057821691252223,-2.6137455413533783
-187.0,-2.6671214920622655,1.6278553485579628,4.294976840620237,0.5645350140615333,-3.442400384548692,2.9569691926738693,-0.320773722684893,-2.2011408480511827,0.6058666351679736,1.3584236072819607,2.173703058745465,0.06931846058776037
-186.0,0.7435754619077941,2.987408197391106,2.243832735483293,-1.826132318968786,-0.7130737290217342,2.613847825169886,2.0463105969649256,2.9564145539666145,0.014289048309484187,0.24036587078582586,1.9546771833498364,-0.7954759620737042
-185.0,7.702169161429099,-1.1360049884909253,-8.83817414992006,-3.328377259787918,8.228780407173112,-4.984295406041753,-1.7192487387123738,3.0952617959841144,3.201440297154435,-2.1336280230589866,-0.13430224684817826,1.2837801707702534
-184.0,2.7207167343699963,-3.4920178745479444,-6.2127346089179625,0.4132234019961336,4.50507319077434,-4.8437775514743695,0.6035822593091792,0.943097407645697,-0.15677448153477735,-1.8672426836341072,0.35065968335964326,-1.0421530377731698
-183.0,-3.9203147116392247,-1.414276253979903,2.5060384576593346,2.610422216471921,-3.2532030537625523,0.5609043678628938,-1.3020857893283027,-1.1371049264428996,-2.21909688364598,0.4558364986212533,-1.8139082063109244,-0.34384174264193024
-182.0,-4.913208251184164,0.39548553730853486,5.308693788492743,2.2755070070831978,-5.151947522053061,2.794900642690626,0.06272942380217184,-3.566110106626583,-0.4026751098309983,-0.05602751069881963,1.9707057653610338,2.3658447054192018
-181.0,-1.3260606607988263,1.209680398607936,2.5357410594068295,0.07059069954628439,-1.8952949138106145,1.9005666812683053,1.8470817896398461,-2.1983450931216706,-0.34482913910390983,3.121146569430397,-0.16804612494058,1.9761848307887049
-180.0,5.348432011983677,2.18816629943436,-3.160265712549269,-3.758553547587103,4.287529155876264,-0.4523881110303114,-2.681579275784318,-0.23996089121489805,0.0010829308971345014,-0.46931577607182096,-2.8902328210784844,-1.6272329874704603
-179.0,-2.081151933951052,2.5527764306367215,4.633928364587776,-0.22671481176675967,-3.404741199732461,3.553345208387128,-1.1491849953675666,0.8502198333525695,-0.23220777564945344,-0.5036259052830556,-0.1584986263739886,-2.94164776835904
-178.0,-1.4433910737513767,-4.050504560681304,-2.607113486929986,2.7574881019744604,0.6132130242299922,-3.285977058942343,4.513779155840599,3.2966921753510863,-0.01973590948994164,-2.1201976072573383,0.8925391390878401,0.3414880375264353
-177.0,0.02892753124410362,-1.0174937237430506,-1.0464212549872476,0.42942766750570216,0.5701369609050592,-1.064998012707423,1.0380868046310496,2.1642426273829214,1.7407648373469649,1.4834487995107593,1.8077730597524826,-0.3788866051262629
-176.0,4.6635748660515794,1.3370282273215321,-3.326546638730124,-2.9814280582747825,3.950390789234056,-1.0261668658661118,-5.334149686898469,0.23118957477211066,1.2885630941178026,-0.8740552499430854,-0.6308207479482368,2.1449247436921572
-175.0,-0.28288340298161696,-1.7308755934518163,-1.4479921904702315,1.032012270188181,0.6177630039145696,-1.54150596474351,1.534567535247354,-0.6783260420585381,2.436364820548683,-0.08934878336731678,-0.27180870950457126,1.2186504548156927
-174.0,0.8423795524095734,0.39335708117024826,-0.44902247123933475,-0.5856961216724641,0.6022524301491479,-0.05882876496460876,0.10585821749485905,-2.928657976993417,-2.903395450060204,3.1416099044098758,1.6995778637561423,0.45818444467620145
-173.0,1.120350697530928,3.133429746023558,2.0130790484926306,-2.166390901985847,-0.4904106629457806,2.6202080278489706,0.2922461315875974,-1.469592904064449,-1.857757264803237,0.07036223166905087,-0.5362454953965612,-0.9779416563776308
-172.0,-7.266291712659554,3.7397809904565333,11.006072703116066,1.7299681872074393,-9.101608006612338,7.339533994095977,-0.6659704982359684,-0.6098289929694618,-3.3333860411801175,-0.07802136302390203,-0.6861213228106532,0.6634715293009859
-171.0,-5.558550720770725,-4.8281595338065335,0.7303911869641455,5.2433224659265845,-3.1082202485566155,-2.0062856280252963,2.7326612252465377,-0.14392462071417886,-0.011811918113235231,-5.016391038827135,-1.0729687279757076,-3.5105852380680425
-170.0,3.3677353576834204,-3.1564742080813586,-6.524209565764837,-0.13221179220647117,4.986384963191467,-4.880628121194104,0.7973945200606647,1.759443153018824,4.0572211424519455,-0.2961990653116966,-1.7214167886058058,-1.7519634669553168
-169.0,7.014487921731822,-3.177797212830653,-10.192285134562502,-1.8664967522666003,8.571242640502671,-6.730521090473312,-0.11714365208295827,4.694995364886834,1.7141389796653743,1.3874754466418149,1.8605182058087302,2.255950584100281
-168.0,5.156269128369374,-0.5250108885165597,-5.681280016885917,-2.345091937739939,5.393484461264391,-3.075164316365405,-3.3585115416294427,0.450246151963434,0.7081024842518735,0.7678591535071095,0.7026318582108788,0.5108556917934253
-167.0,-1.1226397818079348,3.886725310629032,5.009365092437006,-1.4153985944709981,-3.085339631584769,4.471937848955058,-1.1048108258530671,-2.7346987862935874,-0.13333420205962843,4.198433032174784,1.9369054493857627,2.7920315822348205
-166.0,-5.458050009319765,6.818024919305185,12.276074928624988,-0.7170699308188481,-8.882373162380702,9.569093769255794,0.0026524041117630404,-3.7273144851802713,-3.0153386228941814,0.43119041356154564,-1.8015936631228395,-0.9230923168989993
-165.0,-3.935713517287331,4.789357181680882,8.725070698968235,-0.38706757948259607,-6.265046186160697,6.779975966761935,0.5651262133084614,-0.3898183973534175,-2.305278895631546,-3.7998908127652626,-2.4781826799798967,-0.3486597027924824
-164.0,0.9873063037570677,-3.203514421331996,-4.190820725089088,1.148748776027904,2.5759160122474603,-3.7502537845834873,-0.17243733936951833,0.6969721572351075,1.493595445360124,-1.0583598676270622,2.378243300201276,0.14971370362889258
-163.0,2.8029230259251654,-4.455622155242903,-7.258545181168117,0.8702906659629226,5.016960196394271,-5.90578039464755,1.8548339128563816,0.2750256873630342,0.3321425530427348,-0.46291851434287756,-1.362955959635976,-2.3322462978521528
-162.0,-2.568918251014878,-6.593674327354421,-4.024756076339576,4.550337933454385,0.7133936992323866,-5.27389215936076,2.826525528344176,3.5047285073603565,3.1594560041336144,1.4976302205750107,1.3857044902272748,1.0648350765193435
-161.0,1.753007046734765,-4.106821086360587,-5.859828133095342,1.1478891817581978,3.791566551605927,-4.942319464457487,-0.029477161038734212,2.099517705727032,-0.6474355078896206,-1.5499181594642528,3.2685833394569346,1.0998943150811082
-160.0,6.281739320395508,2.8147882665480317,-3.4669510538474206,-4.57896696170395,4.938531294041031,-0.3583329133897346,-1.155381561923317,-1.7569245203127442,-0.8108374049958574,2.1503047137815217,-3.28198509461026,1.3503150007864595
-159.0,-3.0130290028446676,6.409424202823471,9.422453205668184,-1.7340982396024662,-6.231663712096186,7.966763333272735,-4.044301681160981,-2.936267979754734,-0.6152600019132268,1.035477115556045,-1.425853549059393,-2.6980644969770067
-158.0,-7.577419988174672,5.262564188405155,12.83998417657985,1.1936406407474383,-10.222217425922022,9.02525907253165,0.9317472991382207,-1.6486106747929945,-0.4788422231060362,1.9582069648796656,1.3191698757062549,-0.31689362994164605
-157.0,-1.040416032963416,-0.34345421908960017,0.6969618138738021,0.7231790504048925,-0.8826023590837986,0.14918890145230268,0.547268059336112,0.6995265597601836,0.040769514319609124,-2.385862630955843,0.8401049369124395,0.7594712363722818
-156.0,2.3745022300746736,-3.352697986510062,-5.727200216584776,0.5197143599247499,4.035554512958347,-4.572808519236204,1.4429771992839533,0.24090512331258754,-0.25882804505204504,-3.0091626562955627,-3.0912888435064834,-3.652582506876741
-155.0,6.5023859058512805,-5.510927854903437,-12.013313760754777,-0.5391383104445028,9.240501045254314,-8.7245317976094,0.9734702329467424,1.303661083883674,-0.4632643786535288,-1.0539279928699372,0.07822229042634044,4.011311236064637
-154.0,5.609174191894894,2.419468180628903,-3.1897060112660487,-3.9699823898445254,4.458636781540581,-0.35727478227473597,-4.8089195831748635,2.165555313270937,1.1530149040313944,0.5437340439645575,0.11535649971929154,0.28863294680878093
-153.0,-2.0256429493556545,0.2841258407660369,2.3097687901216517,0.8469333478673404,-2.189415857787151,1.3155090597467054,0.6694065015991149,-1.0544956402218066,-0.8064937314180041,0.6037805120647937,3.2431034704354476,1.5716117053448964
-152.0,-6.221874463111414,-0.1286567268165164,6.093217736294895,3.160408268173377,-6.10307292269556,2.915073043189064,3.0759589253692026,1.9901238548642857,0.9324659030396255,4.163999187004032,0.09888207218990686,0.45352293754814665
-151.0,-4.184618568549513,6.050080979837461,10.234699548387011,-0.9427511135289457,-7.23787055309297,8.1506113036159,-0.06937937929275328,-3.598353744608103,1.8748621931122351,2.3924328277589835,2.5719300519888515,-1.7863518873662807
-150.0,-3.4534956883287196,-2.8738407077360835,0.5796549805926929,3.153397018231436,-2.050891062350483,-1.1376164486812619,2.2854141185896997,0.560766095692955,-0.8457370324046868,-2.8587184547320375,-1.66076091618045,-0.4492102173137198
-149.0,2.4069916117309704,-3.747096451096478,-6.154088062827405,0.6552307300610983,4.238065646745965,-4.935213435789676,0.39283439725211233,-0.4121245972457079,-1.3291895035361065,-2.4531197262284734,-3.3495267451959645,-2.594528586474479
-148.0,5.815523625793702,-1.2666036959972686,-7.082127321790949,-2.217337919473829,6.47624127937963,-4.149413947872106,-3.7857042564601873,0.5132516551205796,2.7263025599916713,-0.4897319719601687,-1.9497509700723636,-0.1943699748419152
-147.0,2.912351484171296,2.7685133228844454,-0.14383816128684757,-2.8687216720657194,1.5481142067635765,1.2697771287886972,-1.996479048812357,-2.539601814702203,-3.914391647575138,-0.0230059751475421,-0.5080981475485293,3.268673275797149
-146.0,-2.397563723882403,-0.6445117128586555,1.753052011023743,1.5668798338704044,-2.0592206829764277,0.6007597400082973,1.4892776066379958,1.1942068658134966,-2.1557038375315294,-0.963218663556918,3.4674902407528694,0.651326377039289
-145.0,2.8557934501160513,1.5105100322253926,-1.3452834178906634,-2.2177118626438803,2.1170344626112803,0.05727895894424684,-0.48348722633114677,0.2775067009701343,2.04898112083928,1.959053355792615,-0.1780719335844243,0.7941848480078991
-144.0,-1.8224065278880697,-0.7134934299901481,1.1089130978979078,1.2346537808736984,-1.4450495294348307,0.1744877582018327,0.7684551467547358,2.70224582356282,1.2634391357212547,-0.7096474716206338,2.511438512973637,-4.589313678858504
-143.0,-7.482645628440065,-3.3025059920295,4.180139636410536,5.441479163311881,-5.883488357580839,0.4129949858612728,3.257474240272238,0.6893468514234933,0.17792846643302695,2.064699497338273,0.07897853018541667,1.1149650399670061
-142.0,-0.23110356763121898,5.9852123091961875,6.21631587682736,-2.902341274987021,-3.2698805981472945,6.148003163564569,-1.3064664783447621,-1.2947412554667688,0.7181651839196652,0.9626417646156978,-2.78174795729109,1.1221511455731552
-141.0,3.8243256144435334,3.3348011796271178,-0.4895244348164556,-3.600360731199575,2.1938145748629565,1.3848512354133709,-0.7492086954120782,-0.6639447917151267,2.635699597876162,0.16705539941603703,0.9443792290001896,1.444139079963466
-140.0,3.7396079613481463,-6.533733099461875,-10.273341060810024,1.4583089559462858,7.045478955004334,-8.367068897709013,0.5819142274719028,0.2356460054985703,-0.8764963443046243,-3.077755340899208,-1.7242226584326275,-0.16783154391268473
-139.0,0.1462006959913822,-5.751313688933074,-5.89751438492441,2.7862480526496167,2.98222538009702,-5.789364051877756,-1.2872780138655062,0.6965338456713122,-1.9973000313940033,-1.0900707183719913,-2.156064748902262,-2.738846936759645
-138.0,2.198537505978279,3.20092857595746,1.0023910699792697,-2.7173844141070598,0.6359163398122691,2.059392364333711,-0.0069276379053841985,-1.7209898767165939,-1.4854000542128516,0.18421980821305506,4.058480744343155,2.5062202193730974
-137.0,-3.4977727614684198,6.642999629737413,10.140772391205934,-1.5938720358251075,-6.862105966645801,8.431149200591353,-2.695763864669235,-3.5800614566492843,-2.465498749779554,0.3752847413695892,1.0086660797489237,-0.2771196975089927
-136.0,0.22195308596441543,1.2654000506000593,1.0434469646357059,-0.7697664398368301,-0.3767138479072747,1.1170967958928086,-0.8638597051643373,2.53021223556319,-0.5082762698944641,2.272989549090698,-0.32497347730163806,-0.647590177534224
-135.0,-2.3494265824495066,-4.603845237210674,-2.254418654761175,3.5247202262626915,-0.09351312801236245,-3.466370741389868,3.183391225068186,1.462512790288867,2.580518452201852,0.5734659206467996,-1.7810176978544758,0.19938634607677808
-134.0,-0.43503945588107007,-0.4024720835600448,0.032567372320934096,0.4638106458050886,-0.20147846180778528,-0.14568277020065512,4.112471199270162,1.8680391367056226,3.6620356145216855,-1.4829318588155687,-0.06084278838579327,1.4333864811434638
-133.0,-4.007906748732646,-3.666447209549367,0.34145953918315697,3.802532267923926,-2.1419843658238378,-1.705560043240086,2.478025596442787,0.6617758561778633,1.7600027034935681,-0.9577561880238004,-1.3685354735952893,-2.116003092354377
-132.0,3.0195295926808705,1.1171157988308513,-1.9024137938501158,-2.1022191937012646,2.4156303765737643,-0.36025024974164044,-4.699674192684812,-1.4406122982665583,-1.208192231372196,-0.5670140414976215,0.6354427588323096,-2.321608643625371
-131.0,2.3869053645002647,3.9024495523672096,1.515544187866889,-3.0983792278436333,0.469520151080455,2.739823460490337,-3.50325851498161,-2.2959960124939935,-2.9169549436178848,1.8918575794292007,0.24681909190984547,-0.3154538983066626
-130.0,-1.9595885122239807,1.7880358472826268,3.747624359506611,0.05434423313575154,-2.8987874605313775,2.799263626218367,1.2777650010324009,-1.947359898738934,-4.316418884661779,1.4477585232570769,2.8555310566717265,3.3692220698813347
-129.0,1.0434773714193764,-0.5670191992677796,-1.6104965706871115,-0.269899520079927,1.3596657383453583,-1.1339088061622657,-0.8231939637111826,0.3659944613352546,2.4392928413197112,1.2902139144720388,1.4938508415358747,2.1118919047500837
-128.0,4.340967179355528,-4.828169579939137,-9.169136759294574,0.28881393795678734,6.7081259508240425,-7.041312851577736,-1.1823667092372814,2.8770420395844702,3.8190596686605183,-3.056236683949489,0.054632519669344515,2.383675578710993
-127.0,1.4501076234210686,2.43634297947038,0.98623535604938,-1.9014405718721783,0.26391930410162123,1.7490806674135106,3.47061400422545,4.735819148360856,1.4878431538546077,-1.2756064003360614,-3.1365478911992595,-3.152608801345286
-126.0,1.218884794596855,0.14314590044418554,-1.075738894152675,-0.7225265581325845,1.1813046310569064,-0.5068493123892513,1.5367341747324212,-0.26240576190319254,-0.5801473806790185,-0.7971617049490315,-3.7109842772913595,-1.9968772398155419
-125.0,-4.996932296841963,-3.3876398982323055,1.6092923986096102,4.145950535334376,-3.3437541238526602,-0.8517561858383347,1.772605830271309,-2.467100256051393,-4.407379007685709,-2.0633761361958007,-2.540930422004047,-2.170291282779977
-124.0,-4.5817142636819375,-1.673404574560661,2.9083096891212223,3.1561197572829007,-3.7011738038529867,0.6532749494123512,-2.4756461390422126,-3.6145614468121403,-2.067996436825724,2.8193456439787195,4.13716064437849,0.15203368513971638
-123.0,1.0346268619577064,8.605714456827993,7.571087594870221,-4.793044679077375,-3.2968411731069724,8.043313003450054,-3.95305543539059,-1.394697548975894,1.4685130520039982,3.346352985547287,2.529654873348194,3.002598954423112
-122.0,-1.8804526915712252,1.7423220685404974,3.622774760111674,0.019584365806542214,-2.774526518243059,2.7134872598584194,-0.21198202275356803,-2.6069074446531344,1.1786746927963057,1.212068680615121,0.9501339597440639,-1.7688604843986067
-121.0,0.6554303366997345,-0.8846190666935922,-1.540049403393343,0.14986687297263268,1.0790003921091968,-1.2635240272311945,2.1218060272056998,3.254115898862887,1.941038532715936,-1.4098122136578886,-0.5665806554236512,-2.154822496277709
-120.0,5.657003880409493,-2.182124724596556,-7.839128605006045,-1.6932602017603717,6.81018221578975,-4.987034301928061,-2.009354516898804,4.006313376792281,-0.803450707293019,-3.4384080973656754,1.3361853892875433,4.279834991473529
-119.0,2.307585601925493,-6.166017495413,-8.473603097338488,1.90436279639204,5.373696506445915,-7.300386855490032,3.650705250408899,0.8313326611974472,1.7134469756837964,-1.2157293676271095,-0.7901070785524147,4.8054367485341825
-118.0,0.3439571505675425,-4.2717329338836585,-4.615690084451196,1.9469801319300362,2.460042847488512,-4.427929943205212,2.882791620483891,1.0630569870508073,2.6178149511506774,1.7783205717561006,-0.1903869445571369,-2.1765982019312378
-117.0,-3.6961357819196774,3.095121402522897,6.791257184442583,0.287678710748913,-5.190438667493425,4.8781020045210735,-1.0508452824894388,-1.5276398336451096,-1.2970023695434678,2.1973425296023303,-2.2130493507097326,-2.0174338669774294
-116.0,-4.100597364078946,9.603387146137532,13.703984510216486,-2.764755602236143,-8.936260837399713,11.667864955030474,0.010524453572413606,-2.5748573828573917,-3.437518145240942,-0.17051784317681384,-2.7600327772994966,-4.959235008969741
-115.0,-2.6780370357822454,0.7744751782494195,3.452512214031662,0.934179525245096,-3.109820438609496,2.1317530537847027,-4.215227615235166,-2.7696296301929273,-4.591292736576937,0.44673382598530104,1.5403643242147742,-2.0838305035937448
-114.0,-0.007094462276294955,-5.056980097818312,-5.049885635542031,2.5873700593562945,2.5443824184994748,-5.027227331131618,-1.8427700808902079,1.6650953622990339,-1.5129632675285123,-2.9024448852107474,0.8744937660852642,2.2714177012131773
-113.0,5.047377194650704,-1.0612121044710803,-6.108589299121803,-2.0214511117203307,5.591173562720187,-3.6263485514595324,-0.005267526367422004,0.4053873917446252,7.687214676567759,3.231296963051872,2.2470147588662632,4.9419407859335704
-112.0,8.243473284100117,-0.561895310254696,-8.80536859435482,-3.7927306317676193,8.531358886624668,-4.633892261840162,1.9147729820718298,1.2755182049765652,0.8997978757212564,-2.3838261677652497,0.7181154947423616,1.3133286407887814
-111.0,1.3046286573523256,0.8005969440249325,-0.5040317133273922,-1.0825233346800203,0.9100896785266812,0.13051468874867922,4.335962357913309,2.9442614486672705,0.5459031162350461,-1.4629570413255935,-0.6680224149564764,2.421685360657101
-110.0,-5.632176023728461,-1.2141228944886953,4.41805312923978,3.396264065101545,-5.014981954630838,1.5917146627536964,0.14104187847957173,-0.6977936956998414,-0.8529106567657043,0.2968112848957951,-1.7820792253773927,-3.930670694768062
-109.0,-5.3654188854680225,0.8663059646165382,6.23172485008459,2.3049309498533175,-5.857958918611295,3.5408897191503907,-3.1743083422455616,-3.0442862668943347,-3.046513978214618,-0.23536995023167473,-2.25791813254195,-3.311397454473302
-108.0,-2.6482029482780653,3.064776036845715,5.71297898512381,-0.22962708545332067,-4.148849490207521,4.37732719320753,0.2678303940568636,-0.6359372825750658,-1.0104472227059034,1.6336358798112294,2.141699620124996,-2.4290406143640064
-107.0,-0.6083914385289111,-0.2680531687852248,0.34033826974370385,0.41600901017895325,-0.4295092160863483,0.01712382056096806,-0.8441510903272162,-0.3597427900722987,2.188446712422307,1.3188581105152504,2.0513821175595264,1.7926743889392711
-106.0,5.432157776808672,-2.067674876103142,-7.499832652911808,-1.7086084337086465,6.443268084702092,-4.732818035909211,-2.08134772626636,3.4073280303659654,1.8838105913376217,3.3381789534041455,1.4495764753634717,0.45072954069397597
-105.0,3.1283600065537343,2.891209542295457,-0.2371504642582849,-2.9640231434943276,1.6668859316853868,1.2921217502273343,0.6405849627023901,-1.928239868503919,-1.8707503903809075,-1.1828511712109449,-0.8890414333571278,4.3879062132627125
-104.0,-4.137859201242476,-4.415429062828162,-0.2775698615857012,4.236199385348222,-1.9448474467919392,-2.3057088587253634,2.821154251027506,-0.2756724553347294,-0.031856690564398715,-3.0701205147002986,-0.776515192351551,3.9399793356652864
-103.0,1.1697160493565226,1.5040731146213688,0.33435706526483044,-1.3051374289666453,0.39851062626968586,0.8831530765489737,1.7170407110075594,-1.0795011924941167,-0.21822431745375084,-3.6369951448420865,-4.609828853154408,-3.380049770115211
-102.0,0.869587195345902,-1.2781778702026607,-2.147765065548569,0.23156139632400097,1.5596536172370874,-1.6642170301792245,1.2064361192164859,2.0659621056463378,0.8695431667520026,0.5334672523166817,-1.4675463318737232,-6.394983444573819
-101.0,0.8690899247087184,1.1830620957045932,0.3139721709958768,-1.0010276975462231,0.23948340680157912,0.7265802002186466,-3.291165939268429,1.6215628805161066,-1.1303096070567282,1.0701133134495189,2.9806731523404975,-2.734180956193203
-100.0,-2.378137391133931,-2.026545755657322,0.351591635476616,2.1481881864174133,-1.3335589714715053,-0.8522116504794481,-1.5752192409872863,-1.2247931123454374,-0.45411391976892057,2.7929199590636853,3.8440497695314155,4.327608125185227
-99.0,0.059293969103904276,-0.8408598947547807,-0.900153863858679,0.33730629785379485,0.5047383623054382,-0.8815074534174667,-0.38484949992773165,-2.368048989104838,0.1747458301655587,-0.017919094209136732,0.8203180978730877,2.348428748726758
-98.0,-0.4363592800980607,1.9056006535118712,2.341959933609935,-0.7077898985003721,-1.44485779488384,2.111437369062338,-0.34681652854760536,1.6281313534484019,1.3192063905727696,1.1689997173292634,-0.6239166314833582,3.8065844493037493
-97.0,4.675244510084458,1.6561478052676444,-3.019096704816807,-3.136246416884024,3.87284555529543,-0.6216995777042473,1.1888884072551917,0.9711921894058336,-1.086165949686984,-0.8338576256736798,-1.6910983703204703,-0.7317651154133933
-96.0,-1.853572569592546,4.320815155164058,6.17438772475662,-1.2003131930059823,-4.060518166897523,5.2178679294901,1.9132166051364345,-1.6572785531595913,2.1946606570538325,-2.1497339534407036,-0.5665788311465416,-3.368448621312221
-95.0,-3.799271240837338,1.2488267571118743,5.048097997949233,1.2345703155982433,-4.382546627657411,3.106072128975916,0.4850697209857959,0.09568216449453543,-0.004204901178105236,-0.0826183310251718,-0.6549218776876435,-1.138332781973692
-94.0,-3.904987940318739,-3.3842372377436734,0.520750702575093,3.6875358599608417,-2.16268896167031,-1.4071654142870296,-0.9867880422186279,0.1929264103920713,-0.9474899777964757,1.5700881956046966,0.5452255141077718,0.6475381613791487
-93.0,3.638440120737029,-5.581670695721298,-9.220110816458298,0.9395374648214743,6.407180265731697,-7.384586539786089,-1.3583026933193592,0.35701932421086713,-2.7257172214868204,-3.3617116024182807,-0.9381289869349012,-1.903433324213981
-92.0,1.75134316773215,-1.773643447795274,-3.524986615527391,-0.01899423979691761,2.6176033306848363,-2.636004693723594,3.035330262597511,-0.18826968365366328,-0.46137340043495545,3.047470932913283,1.953616391743226,0.56860083607509
-91.0,3.271965073439127,2.3401107369314076,-0.9318543365076923,-2.836046089054686,2.0768263100333253,0.7201424749917535,-3.6455662746354487,-0.018351067336726437,5.269638527106067,3.918412765242754,0.36541172163060087,1.3391055831464094
-90.0,0.18163717997727402,1.5573147367034472,1.3756775567261852,-0.8217403660832407,-0.6318551034002683,1.4111914963434287,-1.1392330875104941,0.21679924067772288,-1.8027056606866982,-2.171099810344823,-1.8396226255004318,1.7752752468747781
-89.0,2.554869983273113,0.2001341433862982,-2.3547358398868234,-1.331207826384512,2.4864367054122076,-1.0436508746818616,0.9039606554413454,-0.9628488185624486,-1.9962976157243602,-3.1933708829488685,-2.1459038622488,0.7028363541997331
-88.0,-0.4979694202818552,0.6221596256995758,1.1201290459814095,-0.09629946433190495,-0.7885670525439196,0.8367007751990398,1.6168288716820665,1.2156999964314474,-0.32733468471307314,-1.9770686558796693,2.4418265757662865,-2.8144552564462204
-87.0,-7.062942467008264,6.2271071506626745,13.290049617670917,0.45977233135656764,-10.162785993519286,9.811882501301548,0.6672365750567414,0.46438373509281017,0.4089667993173438,0.8149174928958562,0.5203935960264311,-1.3094353020981653
-86.0,-5.386751619092973,-4.745882084068706,0.6408695350242573,5.0248361965998685,-3.0008250201489246,-2.072074661600084,2.4775034978434833,1.199986375179999,1.6691609281572328,1.1309350880600677,0.3999042947517047,0.7641048587693848
-85.0,0.8188844088429965,-4.731901185656664,-5.550785594499658,1.908079843626996,3.2027795382525586,-5.158677972044897,-2.0260593591169886,-0.30448194252588767,1.4320277035391207,2.630340497871291,1.7218907056455075,0.5740406530436357
-84.0,2.8011222453597178,-1.7126767379425272,-4.513798983302238,-0.5225747003579151,3.60529446462533,-3.131480319663251,0.414680355134063,-3.5736796925630676,-1.067758849770117,0.538985785773457,-0.26672054535058765,3.2162424190923105
-83.0,6.18056349254124,2.050421788669092,-4.130141703872148,-4.102489589987121,5.112794482139234,-1.060860163219747,-2.3849519530474854,1.3143842337376384,1.3119035794659502,0.8336114741617464,-0.30764468800079076,1.9046734929099276
-82.0,1.0348492971251226,6.67879260435509,5.643943307229968,-3.8502081414605307,-2.2602509732675076,6.2160010715817595,-1.8125950358148886,-1.8616207223428884,-4.048962481478277,0.43459758289950146,-3.033212478808789,-2.5775953060770114
-81.0,0.11269737171151895,2.36517322879961,2.25247585708808,-1.234716355873348,-1.0206397716785358,2.3609655303487664,0.7108585349835121,0.5530563330889982,-0.8322945750847606,-4.516207837325369,-1.4593162544079863,-4.763197100263143
-80.0,-2.6408168702979022,-4.764586433138723,-2.1237695628408377,3.7089903812988747,-0.28683012066782276,-3.4725556185602895,1.4192569191091908,1.751660966076517,-0.8150358851737038,-2.973299713034619,0.6848215905794917,-0.5527984686525274
-79.0,0.15573228795536354,-2.622150496832437,-2.7778827847878285,1.2449550220817245,1.4363979191014284,-2.7299738613321693,1.5192785038133354,3.182123130721455,1.8828282202645394,1.1249443437657847,2.155015471072832,0.36183426610290936
-78.0,2.6043333700989675,0.6887238640859525,-1.9156095060130462,-1.6281889829485054,2.2256053691322544,-0.6452571187528878,-0.9457307160067069,-2.0679275333221665,2.0130864453045554,2.043586541236193,0.33184658683470714,1.2001746320614675
-77.0,-2.881484596379108,-0.8030878454318742,2.078396750947222,1.7870658380820066,-2.4393007371857536,0.6038788133785016,-0.00017354780027792338,-0.47125321428797107,3.408235678772411,3.014756748495621,1.3696359207945366,4.569608926125801
-76.0,-6.143288992571625,-1.2945626676362494,4.848726324935407,3.744475460370518,-5.456907336216262,1.820729359684754,-0.21378945854917675,-0.8704724369280309,-1.2217478500370076,0.22093669058229337,-0.8097800767664195,-0.5861744171269159
-75.0,1.9537215968269122,-2.327336321616572,-4.281057918443454,0.13224536694083622,3.079541367782939,-3.2606585966927826,1.55830762765028,-1.65916107259409,-2.0494183488124493,-0.2525642306511478,-1.3768830889192625,-1.5810685178513184
-74.0,2.445384546542447,5.823383657744547,3.377999111202123,-4.113481009031866,-0.42043232724614876,4.644957079359993,-0.33716187682215737,2.662705085003809,0.584796537077678,0.1187690796674995,1.0997604462074204,1.3189862135836605
-73.0,5.035935171847198,4.309044115468919,-0.726891056378304,-4.654304240301336,2.855339151143416,1.7566156356400895,-1.7160787542581435,0.588474141358203,-5.577670386866352,-3.842479906193834,-1.915670080349691,-1.7270764714088442
-72.0,-5.124328379771479,-2.739002927676926,2.385325452094501,3.950116048142246,-3.7741712743007088,-0.21396943919953182,-0.6213172608350667,-1.5492350734829372,2.1673340267650465,0.8160811951303177,2.14773133291964,-0.4281473682091421
-71.0,-3.0093684344946294,-2.2501587793115956,0.7592096551829838,2.6527487802263865,-1.8986610105803774,-0.7891855452165277,3.8392368329594446,1.4017708000358144,3.5596858256794777,0.5188312147128245,0.07039562099136609,-1.4461370589858247
-70.0,4.817725416699517,-1.9282860884389001,-6.746011505138458,-1.4920434606817379,5.7697694001355515,-4.312092996606268,-2.4815819036109046,0.2205697553916437,-0.7062569445460096,-0.7125202008701466,-1.6130221620096914,-0.31718588707808537
-69.0,3.276056079649643,-0.24227905688589235,-3.5183351365355775,-1.4749421524055808,3.4633102584599764,-1.8663189162999672,-2.445062678165379,-2.830821674136297,-0.8503230862353851,1.2407519999693382,1.194240850870859,1.059642110520887
-68.0,-2.2887959806678437,2.143586202747679,4.432382183415495,0.04584228853421468,-3.376100207637232,3.2931347493995737,-0.8699112555883739,-0.9391287263308188,-0.42710873464749854,0.7890690203141955,-1.5051777425612674,3.199718856392618
-67.0,-1.8365237739443911,1.4566836005312784,3.2932073744756942,0.17035088973882834,-2.5848582159277527,2.3765278981417706,4.408768511887481,0.5225704438039156,1.5856879716924772,0.07781807831340692,-0.5940915582728712,0.005589783446939833
-66.0,-1.205179821200425,-0.9850395146739841,0.2201403065265053,1.0784491352836267,-0.7379299950308789,-0.3775553741013995,0.5894244075625517,2.1830786080813667,-1.531839153263907,0.9322871012445252,-0.01780666021330618,-2.835380710898393
-65.0,-1.8867220576399926,-0.9735826840751046,0.9131393735649782,1.4906823597915866,-1.351729746719034,-0.015569904986244887,0.018686970606133002,0.8110517283183751,-0.3322149301806061,-2.392020175076923,3.945759385849748,0.3327342824541264
-64.0,2.1589126742215488,-0.5405352600616242,-2.6994479342831257,-0.8324862703770962,2.394016899615556,-1.5914987757193426,-3.2914304744396787,-0.04953405154126678,-2.14715792414554,-3.9945154139135326,-3.0387763104592707,-3.2872446803355317
-63.0,0.408973045121397,-0.5567159166162804,-0.9656889617376813,0.043662860704504536,0.7273653541567041,-0.7970078488018029,4.003440981630222,0.6072436530220133,4.168147759818192,4.679455181197895,1.109351296420388,2.4568350933636043
-62.0,5.149493513785226,2.2427012617311726,-2.906792252054113,-3.6543720169657625,3.9869831951676153,-0.3561377465680897,-2.708379824262832,0.34552031890254037,2.711560105017652,-0.7877934349632227,1.357723669400761,2.1689059243219475
-61.0,0.47445668438333666,-0.20627077940325855,-0.6807274637866815,-0.17615222582364498,0.6135836290389196,-0.4606959373449469,-2.4875165111006172,-1.112711010856766,-1.0813193929847456,4.242301605846127,0.9095956033132342,4.023205336395031
-60.0,-3.4540017335129267,-0.23457429835034233,3.2194274351625234,1.8787507574512632,-3.380652098419201,1.4770359029789066,0.12617199019540482,-3.0479899972145574,-2.251621916551871,0.5473656827436613,-1.6962446221403262,-2.095194903262594
-59.0,-4.319955391867083,-1.2304992547651321,3.0894561371019273,2.810392242489014,-3.6710540215904235,0.9907891890727516,1.5395469390048357,0.10976438530219346,-4.0919199443504795,-2.599649865732153,-3.3544437065589197,-4.0277666514505235
-58.0,-5.540140697848933,1.102286095177982,6.642426793026949,2.1782597333013154,-6.058965586716528,3.850844022640451,3.3040256365157585,-0.5732999002091461,0.6700280891445116,-3.711952764145359,0.04431519952944796,-1.5762178899094792
-57.0,2.7559106089412024,1.7445650522188452,-1.0113455567222966,-2.2869539854546392,1.8358778586407163,0.41920568475815034,0.8936177707907469,4.657441854537069,1.6844315948887902,-1.9160983181945248,0.37446727683156994,0.48629062538158707
-56.0,6.876849143494619,-3.0705706074414794,-9.947419750936016,-1.8572754513395386,8.363730733998752,-6.539786984344644,-1.0069246824666234,-0.5567476700533276,2.0984498093742685,0.8567715551035372,1.6034512154793417,-1.7859101604254355
-55.0,2.9179178060498687,1.168389860308557,-1.7495279457412432,-2.0731025846463362,2.3650274037347243,-0.3261728365310539,-1.6647351221045592,-1.2655678893163609,0.18409778660787857,1.9979231023848387,-0.34504402324458283,2.8621314540815193
-54.0,1.3485877231494574,-2.194160505982621,-3.5427482291320587,0.4733588776318012,2.4802867983874126,-2.830657887451334,-2.0010110852301177,-0.2253456802296278,0.4301279136540186,3.280840769818491,1.1709530313112033,2.7667118470748737
-53.0,-0.38509168115235515,3.1177593447534386,3.5028510259057692,-1.3937355632017006,-1.9037624002399451,3.2635042882043646,-2.7923137627671366,-0.7327061500559665,-2.730091847905551,1.2800606655980555,0.7344045806610967,1.791526168573751
-52.0,-0.694939395561897,-0.01105439711532663,0.6838849984464872,0.325871886599587,-0.721285150875616,0.36274464072118184,0.9976355050776957,0.9512140203648105,1.3766337846681824,-1.509853361001107,1.3163143215001463,-1.842405241633866
-51.0,-10.006261972318834,-1.1506995456273768,8.855562426691375,5.551750502538021,-9.457019030443783,3.8746478413474508,4.236298331420929,0.973257738002804,-1.5821736868927199,-1.214853308963535,-0.6377259132261375,-1.0350039122471395
-50.0,-5.226327222511804,0.4964218675717467,5.722749090083519,2.4178668360551816,-5.497725727037812,3.051824934035352,1.7516508497318144,-1.3811740957817833,2.4799640134895675,0.4258258851392138,-0.9215164303607024,-0.963610583201842
-49.0,5.3834308867884015,-1.8550325518185298,-7.238463438606905,-1.7101451175666342,6.365506974737505,-4.52322101660417,0.21979083182943326,0.27057812076564725,1.1427216119563322,-3.039861912059259,-3.653320775815303,-0.3658360825545781
-48.0,8.354776767517228,2.3163609106719605,-6.0384158568452175,-5.359881103836888,7.167728886889162,-1.83136832084511,-1.850454649530003,-0.5754367616808042,-1.1537337467774993,-1.1167505691461865,1.995448443178734,-0.0897102646034722
-47.0,0.5161559611517665,-1.052988521737101,-1.5691444828888041,0.2424333517767927,1.006945476826762,-1.273154358089353,-1.3025152279623882,0.6400960864513673,-1.7865741394602126,1.8475242977525632,-0.6596649423306898,0.5959179375658783
-46.0,-0.5029276876602449,-0.3649431842251423,0.1379845034351399,0.40349994807434497,-0.28411206437105463,-0.14644870274058785,-1.2670404450543014,-1.2529771891253874,-0.8386979412592375,2.8565455762329552,2.7759226524591427,-0.5475271862720121
-45.0,-0.5961187461757181,3.3794352288238994,3.9755539749996336,-1.4287691930177107,-2.2537299247010076,3.6493072490820295,1.1968137971839228,1.51236702401914,-0.4456856048855832,1.0021587608599818,-1.1746198643702463,2.1199052195785666
-44.0,-0.7430277469945934,-0.5624206890077359,0.18060705798686527,0.687308578142108,-0.5086470784773565,-0.21922969810185844,-2.0409028260762065,0.48603123746696325,1.7935868309818683,-0.36443777786479425,-1.9539640769277193,-1.550945292481061
-43.0,-0.7591789820371111,-4.138475165041043,-3.3792961830039308,2.4782801504863126,1.3461699656053705,-3.713714134948983,1.7637251047399927,0.5993740857536161,0.3079703252058279,-2.9246617127069716,-0.17065802743824382,-1.4864697323867482
-42.0,-1.9218618405251393,-1.2758295603172936,0.6460322802078613,1.6266715732658885,-1.3190693147607782,-0.35736325023119286,0.6485560674451357,-2.2012029491924223,-0.2566261464509523,-2.820467043593563,1.9307411749082664,-0.372398744872956
-41.0,-1.297862947340824,0.916628212026163,2.214491159366991,0.22037936329291363,-1.7038436273721635,1.5918839313991517,1.3488551563057656,-0.6328482396301918,1.3530435996555519,1.4756947099417,2.136122506584026,1.868624316009062
-40.0,0.1299900366369866,0.9832089687360099,0.8532189320990174,-0.6014652247678912,-0.38073530910435915,0.9361341285747932,0.7490069281379365,0.2964041351261939,0.44861981860875755,2.3582436554507944,-0.9850659290166952,2.029621712277773
-39.0,1.9823303286346157,4.453381265363711,2.471050936729086,-3.258335743688684,-0.25983836651076697,3.475084920465856,-1.8312607967910952,0.9119100226715406,-2.563797133399489,1.7783788404679113,-1.1357314022610583,-0.11147405178035952
-38.0,-2.7466625823790234,0.6317694878343985,3.3784320702134116,1.020233321523827,-3.0791326591798907,2.016760206745898,-1.2917311559913656,1.0229286966490965,1.0075072465248889,-0.7636208675644973,0.01994534456646524,0.435038407871611
-37.0,-1.7408012368279993,-1.9525202465538656,-0.21171900972586855,1.8900717909615996,-0.7864921356713703,-1.1472872318341534,0.8561208253883279,1.4881255541724299,0.3156600476434239,1.556326657725832,1.764351287302146,-2.12006084358709
-36.0,5.412491623634281,-1.6058015265035994,-7.018293150137879,-1.8588601127675946,6.264503284477646,-4.294798770067409,-1.8996622897568047,-0.6476595163856478,0.7761710163923063,-1.9382497111928607,-0.4681569368313221,-0.9345127278222323
-35.0,5.192543783886156,-0.6728871509621421,-5.86543093484832,-2.293117902597417,5.492008839100009,-3.2479700760555947,1.774130617033507,-2.0261758772157803,-2.045338819930464,-2.4860156970098846,-3.6879400766507158,-0.07325806845830485
-34.0,-2.471067212657646,-3.395185004686829,-0.9241177920292198,2.979607879969581,-0.7362548931480004,-2.1353527025092918,2.4530523695955093,-3.002436226519834,-2.1059633956110813,-1.1214877120045206,-1.4290139347332849,-0.45261549584394933
-33.0,-0.28805700684978364,0.807139143214473,1.0951961500642162,-0.2913082792782391,-0.6547628640292849,0.8985148405086503,-2.1898488825740734,0.1014008120239247,2.448347423361449,-0.16910126159605965,2.3434971840699985,0.1368582387421635
-32.0,1.9239317136450933,4.200848959520368,2.276917245875271,-3.095072768753483,-0.21447249338522356,3.265724985898731,-1.413676577603307,5.6911507869375635,3.2543310550109013,2.51408516039332,2.10464046905344,1.6011112979566104
-31.0,-3.9394418664967836,-0.6305604811804257,3.3088813853163876,2.3281303069607397,-3.65501388466427,1.2878457519394941,1.4961780833842893,0.40408393955902255,-2.2545758166998553,0.5073818385224573,-0.6990073344629735,-0.9204815509252136
-30.0,-9.050209797374725,-2.15936135596076,6.89084844141405,5.564376490949338,-7.992663417963417,2.394774266132134,0.2530989364989599,0.6574901730260412,-0.3336386693458095,2.653920478894482,-0.1190187141551326,-0.7727048914655799
-29.0,0.6348096518831077,2.4532823710992355,1.8184727192162171,-1.511257306313305,-0.5266823933350895,2.1682838244340332,0.8465564472206417,-2.7947388839063256,-1.4231469006376127,-1.178760189375346,2.910737431033641,0.7738581230701052
-28.0,4.087717267370335,2.317444024375745,-1.770273242994572,-3.253134653420852,2.922029962950883,0.3110071773057248,-1.1373035074800564,-5.323894021135959,-0.46991504787021476,-1.0283585498770138,0.2934858418659671,4.267267933126054
-27.0,0.9586946235681526,1.8725591096011078,0.9138644860328982,-1.3892965385726888,0.018649156786425092,1.3574028597169117,-1.7723374224855981,-2.005017103941752,1.1626681464221016,-2.5189639008245845,-3.1235581052487342,-0.7972224537985175
-26.0,0.9230812134992492,-4.797432355233795,-5.72051356873314,1.9654628854971763,3.3166701450218232,-5.290376210294664,0.6495346647513242,2.3509362120923054,1.1855007799601724,1.7465188149165567,-0.7449619875283491,-1.8457171874345437
-25.0,5.984658697274477,-1.1865172875647005,-7.171175984839252,-2.365111765146483,6.566535712850534,-4.208248180052438,0.24551891094820022,3.2659527216002666,-0.3154170769551711,0.1546184036384907,-3.302658827565737,-3.386949497298462
-24.0,2.2325226040604944,-2.875612006770015,-5.108134610830502,0.28479020999551286,3.648569500558743,-3.9433110417958144,1.4724747494164503,8.103309901676692,0.2558830861682471,-0.03444008062365872,4.39412634639173,1.9716007278800096
-23.0,-5.499349318847706,1.2668545427043574,6.766203861552121,2.0878364446343896,-6.088408429019306,3.983311500093282,2.419170926635253,4.078603566142818,3.476737668286518,4.393637750744815,3.962082344300438,2.7708747240478586
-22.0,-2.0778187470956526,3.81775016182443,5.895568908920151,-0.8916679269294705,-4.0333433870783395,4.897944031613758,-2.3405166218126174,-5.647896156474316,0.9011953582702857,1.0251020528879529,-0.016809142694129253,1.033720656059645
-21.0,3.3147273711403766,-0.09819894380585525,-3.4129263149461986,-1.547302176630307,3.3866612571875345,-1.7187700252561706,-2.32225939173554,-6.5001915098999845,-3.9864596869417754,-7.568724244001671,-5.69619276419299,-6.670094200867753
-20.0,2.451720250418297,-4.195910212221717,-6.647630462640038,0.8552871576799908,4.568191986777331,-5.467805143643355,1.6909629922730098,-3.2750062960950936,-4.456329065569238,-5.5630180568237195,-6.316163078073625,-6.0420294464388995
-19.0,-4.513738089904192,1.6705692687721079,6.184307358676273,1.4035540047038249,-5.329191382676427,3.878176655098004,-0.5595682268541163,-3.80509542406178,-4.20167978723906,-0.21831484004540758,-1.0621650018181148,2.1068956634225184
-18.0,-4.737548497725242,1.3928832586941406,6.130431756419344,1.652116740334504,-5.4867142555963175,3.7892020089901197,-0.4285168590105898,0.9140218694694218,1.906528340400809,4.167722185587753,5.947442862651249,6.571033578151523
-17.0,-4.152684888405817,-1.2336746016667786,2.9190102867390335,2.7498553161894956,-3.500676016612471,0.8700206000385065,2.384802737358394,8.46256900652756,4.379542797885392,5.13059463414321,6.157445676867415,5.423888003309074
-16.0,-0.7333978731632513,2.7671733874567828,3.5005712606200614,-1.0396179055598929,-2.151010434643837,3.1630917556444498,-2.549669405930398,0.8269844220979516,1.1057908947058528,4.098309347336571,5.4227682730429265,2.985398577499841
-15.0,3.598807666524721,0.33349734819489696,-3.2653103183297287,-1.9881968685667206,3.4842379563909365,-1.5115948347001282,1.3701416436940694,-1.9911970700704038,3.6415982876297015,4.063195795025894,3.0601794025870044,0.5753113380874466
-14.0,7.027303413256358,2.8223008434261923,-4.205002569830026,-4.8667032169580775,5.593084227122576,-0.7317542863809137,-1.3304151300621578,-1.9890561096615118,0.9872732987861221,-3.826857899240002,-9.46928339404098,-4.1222403824134
-13.0,7.8620027193464,-2.385156224047798,-10.247158943394098,-2.7580814795430473,9.030332896824234,-6.27199519274638,0.17553352003200506,1.8656725899748938,0.617452225943104,-6.665200147359046,-9.215707125246404,-9.016244493214717
-12.0,0.22809153587808062,3.1278771281600752,2.8997855922819786,-1.6980853547493648,-1.365347099256133,3.0631413189933165,-0.03955695993934982,1.3371987361959647,0.28819968174330324,-1.1143026876765845,3.284508825516136,0.9195830305174955
-11.0,-4.40803398027265,-2.000128603020607,2.407905377251914,3.181708968455431,-3.366303787172596,0.17760186887175355,1.2774615443894295,2.2193100170876914,-0.7718132717300632,2.949443833146525,5.439152638810703,5.966038219558263
-10.0,-10.241692021875757,-4.113401873948484,6.128290147927034,7.151598111052653,-8.150986590954744,0.9812301364254392,-0.636847173583621,1.483167116424795,-7.784647815208117,-1.836612045756318,-0.19299211833245167,-0.9575720196636541
-9.0,2.9247649027315594,-9.079312273013205,-12.004077175744992,3.1263877288966904,7.413925212239517,-10.571257454072235,1.9233182934841127,0.6294791534256657,-0.8300751078929514,-4.491295032109818,-5.205127202114906,-4.782425559248427
-8.0,0.9493607270636464,-7.015695610579818,-7.965056337643551,3.0796889680280537,4.482756335400663,-7.447220049549541,1.948784623481729,-0.4077061352861102,2.261183355744428,1.1828970316967917,-4.250500374417243,-8.594159116335566
-7.0,3.432434837961109,6.92646967824193,3.494034840280949,-5.212621316428789,-0.004831903830202988,5.167625405951695,-0.4364100140738316,-1.6581254513244006,7.032875601700923,4.792402666730536,3.1758785888470897,1.654936882228959
-6.0,2.1653225436026258,7.167179474050307,5.001856930448081,-4.699040338914136,-1.4682777336620036,6.114627947810391,-3.82196852749298,-11.745312452026571,-10.901679773422448,-3.5877471293009906,1.7511625570902942,7.918391652926748
-5.0,-7.636812979113751,7.611315077110641,15.248128056224903,0.05945278033575452,-11.409805103181784,11.456421218979827,0.11406128262917581,-4.0457688547484825,-3.913968440294517,-0.7880158395930081,2.438074221104171,6.321162454369059
-4.0,-6.477228611642477,10.908390394764378,17.385619006407275,-2.2475756620684892,-11.973563892649073,14.17349113072835,-2.8222890238949443,-0.17549649616866314,0.2659832966367709,4.810898301024402,10.092805567102323,13.5126184340774
-3.0,2.8775196876719162,7.535558209311338,4.658038521639615,-5.239854742169159,-0.8504342246939066,6.0470678694144935,-2.6759262163075346,3.65922250073476,6.8712928247858125,6.585037302015567,4.568232734351815,5.874650195340724
-2.0,1.4774845960739773,-3.6007062432522967,-5.0781908393265285,1.104269449394188,3.2411121253087116,-4.384977273960232,0.377170747522512,10.562994097254315,7.798413944716913,-1.4709345743340216,-5.7399635593892935,-12.138253805364299
-1.0,-0.40932859433003,-18.429591787130857,-18.020263192801497,9.45836177823472,8.84870491750863,-18.18698459152919,5.744817502902505,3.8311281650262243,1.3635224238173698,-6.7557972947735525,-12.645066661981113,-19.389260364497837
0.0,16.84401502967881,-15.223893120890999,-32.06790815057078,-0.8538038824776999,24.420797322376075,-23.60359635261123,1.6447323644181795,3.7405547030783644,2.986690837875965,2.152825096525735,-4.274437010873585,-7.940057667342671
1.0,14.1288596592231,-10.277504736298745,-24.406364395522896,-1.9724329392061155,19.31073360922982,-17.37494362361986,0.5776724899572068,2.598797042763069,0.5553919661090987,-0.5780080196685584,-3.87533248493452,-5.319831782447029
2.0,-7.483557176746305,-4.419648710228753,3.0639084665168674,5.98243922054366,-5.310649722191069,-0.7086942699402647,2.857284386685687,5.65129304376629,6.37885666860951,1.7919992471290476,3.682816699710054,3.2479505294255167
3.0,-19.341937679876356,14.538532960948395,33.88047064082477,2.433833264048525,-26.57139539577374,24.258211070574472,1.1594394232956047,-11.455746502416885,-10.865172087209242,0.10518785273306153,12.510598264417013,17.777957026669313
4.0,-19.824287254244624,24.43304691460405,44.25733416884951,-2.2686042558727095,-32.082102832429335,34.31452514637472,-6.700520444918954,-25.749939576592975,-22.461654315759585,-2.9979551025343154,11.945732742567278,25.53260997673529
5.0,1.9198384441473024,12.888619716769009,10.96878127262324,-7.442058302031231,-4.567627634674594,11.974870798277095,-5.667237974121433,-5.061438115361835,-10.277239344859087,-5.345862017346892,0.5245546973973383,5.986638427242175
6.0,15.803908328560654,-1.8199485292576139,-17.623856857816723,-7.02438021732412,16.749080843349663,-9.757410155100834,1.569227876804744,18.734230316057868,7.209160312324094,-8.132710707144408,-17.504044966136284,-17.99474842043965
7.0,-1.3418701568712272,10.67380246121823,12.01567261808989,-4.693666072584306,-6.641897950903202,11.3057928042763,-3.1514404575076935,-6.969794195128104,0.4177148790777938,4.247729834532977,-1.7065498584713126,-5.52363544280324
8.0,-0.12052130856487864,-33.1681783833549,-33.0476570747908,16.698903410034333,16.50386363694562,-33.07133446039913,16.317047468814327,23.67018247544819,37.84854710019794,15.047772060279664,-4.8287611230011,-20.62441915325001
9.0,1.5765449670139287,-49.01523606423381,-50.59178103124928,23.69742581142575,26.049545811351706,-49.76916572437936,20.18505688393096,33.28490663593158,25.829312024013745,2.854297939471877,-19.64680489266674,-33.3549114111629
10.0,15.762249734023335,1.2386971379326432,-14.523552596092056,-8.442543724729203,15.110780064548301,-6.687568346997821,-12.849231807974306,-13.86759534901013,-13.534929902143883,-7.234959096850441,-2.973574332510096,-3.9606186918476673
11.0,19.67688556667036,34.42654303385954,14.749657467188628,-27.072705771259542,2.4314253150602836,24.6225681189417,-28.648812783806967,-31.359303067972224,-28.8944256006559,-5.527892803378984,17.97753235889879,28.262940696802033
12.0,-13.028827968242839,26.241851377673143,39.27067934591631,-6.6290373388764445,-26.105786457879795,32.714069804562754,-11.490864854265702,-26.701355603103032,-20.097899344331402,6.185788424617203,26.26084639721286,36.49695007898291
13.0,-36.40575363971181,38.99326004447187,75.3990136841844,-1.3188877367940244,-55.94093243430973,57.235328574983775,-3.8155713008457592,-23.902219973249586,-12.365624016988255,15.667651734628492,37.89045492662801,53.00837058993906
14.0,-17.949888766098766,23.065805028083915,41.01569379418355,-2.585879563088924,-29.445465901300974,32.00356089808524,-2.2642033336007756,0.5964939797374651,-5.362916324327496,-3.2738249958775443,5.751262455700988,17.47973973056118
15.0,17.920486429011078,-28.3281990346643,-46.24868546367503,5.252984954690424,32.12178705680049,-37.2455808403669,19.910540072231292,34.162724487056735,21.42882071657508,-9.771877344823407,-26.479869897346724,-32.25959871792248
16.0,38.25767772063136,-80.42599392034391,-118.68367164097539,21.133654538574085,78.43266498748666,-99.59112698498193,39.075547004893316,59.59421433780247,32.110756444555534,-23.495993593996406,-63.164247050273744,-87.26377687366603
17.0,11.932019721238136,-38.079998990365695,-50.01201871160411,13.047230126312591,30.94087208920534,-44.00596353952288,15.337058596143457,33.303874799459464,20.73861149624257,-1.9843744165442008,-22.065761637575033,-43.7024482719222
18.0,-31.724052166954106,16.744309655447253,48.46836182240111,7.4666972120105655,-40.03985452503754,32.563428191327006,-12.700239094682331,-33.53422132238471,-19.884365801228842,3.68425221535481,8.79215887655415,13.707027140707734
19.0,-24.00021100837415,29.26634756126782,53.266558569641816,-2.6532925529182987,-38.64722314565725,41.29713230046046,-16.78383090650862,-34.57063739507721,-20.751383668516425,8.993892547737039,22.486108591789858,37.64191381828056
20.0,10.437144494880767,48.39554169063982,37.958397195758984,-29.357211055827086,-13.768208635078029,43.124152720969626,-30.502484414930088,-29.648456909723222,-1.820126103264208,22.475658347599428,36.3388987538726,46.84644383258754
21.0,28.91307277299272,21.08736153280538,-7.825711240187012,-25.022576670091553,18.364260654164024,6.654012269578658,-20.38230142868261,-11.354769073655476,1.8238188000945748,8.629964029068717,17.39534498286011,16.510113657520854
22.0,5.756194098165992,-17.69984897878392,-23.456043076949364,5.943526650569961,14.599262530198237,-20.55428327432797,8.352242651744819,3.435818053380661,2.736603474069536,-7.004073351528781,-8.981044004333913,-12.603526910253628
23.0,-29.97669149601903,-21.149723763139004,8.826967732880373,25.52714773639097,-19.41364529302045,-6.133721775479522,27.982680409089877,8.523076796048596,-1.4293361975590715,-6.801092069073836,-9.131291056686788,-11.924805160390475
24.0,-21.89359343202303,-2.5205309709519668,19.373062461070923,12.242383837540604,-20.65138863024667,8.38180745440335,9.196630690514741,8.987814676554084,-12.95843942897311,-14.43591644329422,-7.725369035212561,-5.795860081683941
25.0,21.304785717396264,5.57550953129677,-15.729276186099899,-13.409621395913089,18.57241610005188,-5.03509457748328,-4.916586890950422,22.586768893154886,9.633301924252706,0.9419388683717056,0.09704078282571338,-2.392735152167388
26.0,17.44163137427318,-13.380372866934584,-30.8220042412081,-2.0011112052430002,24.105704724340868,-22.131785188326592,4.278756699919661,16.827395253190048,5.206065015023746,-3.583078348566461,-12.336617739047696,-8.224082154276262
27.0,9.159318131895025,-18.377815207621126,-27.537133339516423,4.562522035799567,18.401034793419676,-22.98426108182529,0.2228657308244646,-1.643162180659857,-0.7842676421877997,-13.002798970361061,-22.107539339785404,-19.242009899387163
28.0,-1.0263002613521959,13.216232560194136,14.242532821546213,-6.058485439700852,-7.658213360746197,13.703491325266635,-9.383272255655417,-12.887488620350643,10.830490592820198,13.598961739211331,13.126104963446437,12.30470023580833
29.0,-18.700193958476667,17.182839199148592,35.88303315762528,0.7207524682925235,-27.312994320420458,26.584436445210155,-3.9060058249309364,-23.05202866552554,-7.24770880930317,9.388414377164079,16.679804302796317,13.505603261389446
30.0,-17.957616157074806,10.620142306231324,28.57775846330614,3.63340258273823,-23.287944960109463,19.648021882935026,-0.8879961776162579,-16.602138407654934,-13.995933478897243,4.97535408240689,9.41541947601154,8.228266647336001
31.0,-3.961862555861136,-8.219553389931102,-4.257690834069802,6.13433693821445,0.1267836367834363,-6.270669205474453,3.332631823053738,3.4578083510056405,-1.297317095323831,0.2322785247836885,2.7340800418354743,-1.548904972797689
32.0,15.72714643850763,0.32308971827607025,-15.40405672023128,-8.062002369951907,15.620702798562498,-7.574049902839765,2.951634270568683,17.586520367674403,11.161820984802302,5.837525336078153,4.576233286813126,2.2175395957903015
33.0,19.117050815167936,-2.866789407404395,-21.98384022257215,-8.086084236198037,20.52366883638503,-12.459081536659873,-3.790393780220658,20.69956828447608,12.672221689287367,3.04671973953653,-2.290672580395309,1.453050642728794
34.0,8.19747883865709,-11.083589682695479,-19.281068521352488,1.4789968807869887,13.788611486440253,-15.136017385342189,1.7420499235785094,6.166853024795184,-2.3932741556991557,-12.121629010867501,-14.417320602202842,-16.06341388182704
35.0,-1.099916892752534,-15.64554608055803,-14.545629187805545,8.326719325639141,6.691989234966035,-15.046559274005094,6.806205573365617,-0.7334861075505701,-5.652920901330232,-20.238376209281302,-23.25766216691228,-17.67941782517904
36.0,-8.597815831061169,0.8848081730152386,9.482624004076156,3.8855707063949274,-9.071224865844059,5.157505457091143,3.5096914243910606,-9.725209610546885,-5.115099845347094,-4.699867310252483,-3.241419673062607,-0.7553585249111112
37.0,-16.849736246680816,12.631968039548395,29.48170428622898,2.054540398983377,-23.117074740161023,21.03402512272708,-3.975583789335661,-12.040341241694643,-4.929802931104082,6.948033792598438,12.648672096878059,14.065409961935227
38.0,-7.56051661955401,21.921058174692398,29.48157479424617,-7.161721847345747,-18.549684333855893,25.68096842712116,-9.452452303144645,-14.833866410090362,3.269286019339879,17.95754823256276,20.61445054438761,20.62656689874807
39.0,-2.9323922591410696,9.185001901481629,12.117394160622498,-3.1144635365436564,-7.552021153610646,10.631972913363725,-3.7533728322373108,-6.105268980425034,-0.16323467369901068,12.073318740521353,12.991371377468688,7.413681056709301
40.0,5.397920847184122,-12.712615633408753,-18.110536480592984,3.6624521404468258,11.806876277658784,-15.352258016118878,1.7794371501822142,6.635653792136929,-2.354775759476143,-4.026145400105076,-6.65429082078499,-8.371023824983308
41.0,11.221396376015637,-11.782418598424341,-23.003814974439987,0.27987798512622963,17.086493489457915,-17.413996157859174,4.810896562156865,15.053428184477372,2.612624992749267,-7.534680615198009,-9.181166030141972,-9.38102108865052
42.0,12.09529461085728,-1.1577466723028103,-13.253041283160009,-5.473185894219716,12.725259445953599,-7.150368424349443,0.380014871062202,8.836597158525304,4.268068891439237,-8.17010874973274,-7.91570758468994,-5.999384273488639
43.0,5.503956138987737,-1.982120701531377,-7.486076840518999,-1.7664430521974264,6.4640798103793,-4.76243207577328,2.2580561391665532,4.257160490094823,3.708357997107779,-4.1931102024124005,-5.376578281268851,-3.7903127985276157
44.0,-5.1098346778806825,2.9743383704983137,8.084173048379107,1.064102196431103,-6.632463651255303,5.494428407937255,0.7189717416400803,-2.7703505000972766,-1.135525777950464,2.1593345587224455,1.6503828404571061,1.6434271313370585
45.0,-11.431654478773012,-4.29983910105741,7.131815377715652,7.866805051120448,-9.321595042650259,1.3734439088425257,2.020427185231729,-2.0006431664996565,-0.12025515442035184,7.357285176016201,5.790290351558787,3.543475158111519
46.0,-10.397677062663693,-1.805085620508177,8.59259144215553,6.109203704443295,-9.45859218898175,3.4225958952350863,-0.47696637363201144,-4.4824242630418185,-0.7175180100645733,6.293614500028406,7.676946758103489,4.3837927711551625
47.0,2.517191675260661,5.614814566983963,3.0976228917232618,-4.05071296213981,-0.2523527051263841,4.380014604520845,-3.7210132152411406,-9.188157734978269,-6.117990786211512,-4.728906239402941,-1.286148202018956,0.7145721432798955
48.0,6.8644014858625635,7.697547604682567,0.8331461188198519,-7.2592213147707785,3.058783237929898,4.287802119264592,-4.1326532598705885,-1.38405993795487,-1.891437092849614,-5.283748849096306,-5.577319756140417,-1.7313992125776274
49.0,3.585394275291252,1.5786778886097945,-2.0067163866816267,-2.635119978298108,2.7682531320491237,-0.1891711821406088,-0.3252997945308347,-0.8697378326888054,-1.382640532928412,-1.7792546926512491,-3.0162159968783753,1.178203168759411
50.0,-1.5074059829897797,-2.480201901374235,-0.9727959183845827,2.020095303243514,-0.2876033716453792,-1.7757304940066998,4.430280182915279,3.3495081928756574,0.059435283214269496,0.31326198075042955,1.2755088037121394,0.82918278845414
51.0,-3.1446798608741706,-3.0616380649544332,0.08304179591975602,3.04856462955291,-1.629868089645203,-1.4551224953001447,2.204974196045195,7.128397830440451,6.133290777141744,4.479643405381614,3.880822534519217,-1.9746415997797757
52.0,-3.2770125690320864,-4.570418323210941,-1.293405754178755,3.9447192741834605,-1.008536027576734,-2.9739048214308834,2.4543930930415945,4.561707837874809,6.26567195382889,2.1499010610804135,1.8145001509211818,-0.018216707686394606
53.0,5.421030597499016,-3.990764853319589,-9.411795450818472,-0.6959619232752665,7.393943470371969,-6.743683506479291,-1.802288363503767,0.361119180264859,1.2763799005682097,2.084615025334715,-2.786066620810508,-2.236850352674653
54.0,5.0503310112145225,0.5007811674106837,-4.549549843803727,-2.7549294202601664,4.847120651380093,-1.9909018109286047,-2.8508686424901777,-4.669947909506293,-4.50132146775892,-5.399869112909486,-3.9562997882324056,-3.7452706711524977
55.0,-1.466746580953521,4.079892193624276,5.546638774577874,-1.280410894254045,-3.469513156230868,4.842996898288347,-1.7782278300197671,-2.1626592869449244,-4.807383844613051,-3.838504300881257,0.021100348714055306,1.9810219813750218
56.0,-2.2079465302579675,7.210226239259296,9.418172769517291,-2.5447712409983363,-5.863246400759195,8.341013241718924,-1.610534562859519,-4.017892376901656,-4.325080168350441,-0.5232883581168968,0.7243725373418636,1.3837839171043718
57.0,-5.001651026778807,2.715997665933103,7.717648692711889,1.1098101033907617,-6.336886488691823,5.163876757743081,-1.0137687390106565,-3.9886932265808257,-0.5843797533109991,3.2481636796861904,3.7687832784702975,2.691541203949808
58.0,-0.4741565975484723,-4.893490821695015,-4.419334224146606,2.739650923691801,1.9927844084707207,-4.629618250488541,5.295094206244132,5.010994264792812,6.759659287422833,6.297075524794758,4.974704495610988,5.380804214171604
59.0,1.4739480159912963,-2.946726979918676,-4.420674995910092,0.7211247399612635,2.889066036844571,-3.6546182497040816,1.6710029730901175,5.758133589759972,3.705864117778411,2.0236803762145525,0.6408704843472712,-0.48070352364933333
60.0,2.3914871856976956,-3.8139099240811185,-6.205397109778904,0.6999903515319652,4.321420695818934,-5.056735107625055,0.8597641231635658,1.9293990420075118,-0.5702244447337947,-1.5428289446882306,-3.6503415172192444,-1.9907660481221912
61.0,5.348064335437779,1.0969319955984855,-4.251132339839371,-3.233513930982391,4.826507596334433,-1.6220802587750223,-2.691506581007956,-3.5781659226763667,-2.2910386532123184,-9.184822720770565,-6.687247517220871,-5.097879462814687
62.0,1.424029884607552,-0.31485215437266584,-1.7388820389802373,-0.5685625669650544,1.5344786453625594,-0.9917942990975003,-1.0124951715997201,0.645307437400557,-2.281125894252864,-4.350073634456336,-4.688008938032706,-6.201699897928628
63.0,-3.0910222376267615,5.762376802612567,8.853399040239344,-1.2757732273215951,-5.934980787880024,7.343468755431446,-2.482766051778164,-2.7188649847719657,-1.1931566921661279,2.6882084151956156,-0.09048691994134828,1.1728685424980285
64.0,-7.178652022551219,1.0252487249069482,8.203900747458192,3.0524138716162867,-7.727019424732326,4.649832529309137,0.9820723247677556,-1.488031592372761,0.37108694427489397,5.284736883951636,8.859276424883214,4.5789425645567405
65.0,-4.746894590650646,-0.2731149647379052,4.4737796259127975,2.4807275564122135,-4.5616092443441385,2.055429150271467,3.7237049380099747,1.2125269955004316,1.6979215807270198,4.01055771051054,4.866446714424113,5.064834279222687
66.0,-0.5720855277587644,-4.270229152788776,-3.698143625029893,2.4665806429321226,1.5380674365899139,-4.03186199923922,1.95617430547875,-1.0675076920116136,2.2386283278330583,2.5435710347685645,2.2395808957495946,2.950820583797522
67.0,5.083426803685632,-5.536258453084129,-10.619685256769632,0.18993363507682004,7.830168520786661,-8.050924852264258,-3.0470220498539593,1.2213932565097725,-0.6338816769726278,-1.679688130141162,-3.9095589156333297,-3.7105322981256066
68.0,6.3883271751476975,1.2214073236955167,-5.166919851452127,-3.765289161370689,5.836201222538923,-1.9502845257542307,-0.6382735346312746,2.5244867392747627,0.17790634311809284,-5.56895500564321,-5.9387496845102286,-2.909069174056307
69.0,5.366454171232981,4.668384438154713,-0.6980697330783432,-5.059378546992319,3.0103406161050787,2.003694267869218,-1.2845624302058964,1.6481704026822808,-1.1596444128261525,-2.1088512008914644,-3.2121217042486268,-1.3455936728622233
70.0,2.515444054635158,6.474302463066166,3.958858408430835,-4.461388923717662,-0.7483184255313748,5.154407109076416,-2.3592092539741047,-2.671474012768684,-3.3715810838100317,-0.848011739331052,2.119756480566544,-1.017906685476186
71.0,-3.9689628023529018,0.12393566496114028,4.092898467313841,1.8733473382147878,-4.06428009858991,2.126112332850321,0.32664744664389794,-1.8194177024487779,0.05505404604111086,2.393474513744973,4.209874986030861,1.3072130351527544
72.0,-7.1113828622918,-2.2716402276310457,4.839742634660592,4.716906378411484,-5.937281709725478,1.3064675212703736,2.97870977468306,0.07025672032493468,3.844594933820598,1.377200418933662,2.133849536022407,1.1718343300204497
73.0,-6.807358120557636,-3.682277241642668,3.1250808789148974,5.266273517677973,-4.933506100968284,-0.2481896440577528,3.3093973149403344,1.2778864895278605,1.2847599537483168,2.4923326987732333,-0.6443698094255865,2.6075819046397046
74.0,-3.8821867728988613,-6.368282808428587,-2.4860960355296506,5.143552698139459,-0.7466220935717554,-4.465513954330978,2.502745291272768,-0.6371146772221046,-0.848330975947458,0.5577225881286183,-1.340301663320197,2.037941615700885
75.0,6.375912796460186,2.2731181534049667,-4.102794643055023,-4.38685639198082,5.270452190372746,-0.9430230954403109,-5.343376410686327,0.2857372501710094,0.0662741370884131,-2.486633572009132,-2.8751093804938046,-4.629048874174001
76.0,6.4105329494448755,2.3065527401081116,-4.103980209336568,-4.342516895205067,5.291979211842248,-0.8399386285681019,-3.222553173423645,1.2133177362835545,-2.671069973941084,-3.56240565342272,-3.4563652403380587,-3.850629971654648
77.0,1.2320412286818039,-1.0557211694994377,-2.2877623981810657,-0.0708124044755758,1.7205402277563842,-1.6870780360302868,2.730952906674411,-0.8469523954609389,-0.6248791641985816,1.103564022557153,4.3670072321356965,1.4093043611398417
78.0,2.5014112211285937,7.100048946538042,4.598637725409579,-4.780357225928675,-1.084153215042865,5.834315260708309,-1.2517280730327054,-1.195286501210701,0.6626578800983718,4.194956732607967,5.1698321210800575,3.023470369300425
79.0,-0.29447553869364973,1.8045665053034337,2.099042043997115,-0.8089789235048401,-1.1519586759069789,1.9331558064879146,1.5575188589617657,1.044510913276925,1.825062173532441,0.5598862703121603,0.0051796658295959475,3.1094556310969077
80.0,-4.06137325752539,-4.804784507752246,-0.7434112502269379,4.463145422379078,-1.6939846986844118,-2.7987839741240097,-1.022091751463859,-0.7141351039918724,0.19501180092713022,-1.8843709962988922,-3.175255506412374,-0.9540955500849937
81.0,-3.9100154009191037,-4.985515858564322,-1.0755004576454328,4.483012080732371,-1.376576236459774,-2.982752572605363,3.5816080946793694,0.8852701265641494,1.279891718511404,0.7429049582337475,-0.46370302839707445,-1.07542817794056
82.0,1.3617052854650664,2.381434075531711,1.0197287900663836,-1.9109421410462306,0.1292395174242007,1.743778939124883,-2.15392673707182,0.3625456907627186,-1.7125351318653153,-2.826150161702528,-5.288761560482908,-3.438980771287562
83.0,-0.5200404280872499,1.8347511012655664,2.354791529352591,-0.6945028284341345,-1.4030309122107885,2.0576274097608187,-0.6589951187138974,1.937124638917907,-1.392410396125961,-2.2676075493483197,1.2441872449732916,-0.5754796794397508
84.0,1.59477312430461,0.15326439222962784,-1.4415087320750741,-0.8326367663992381,1.4736385559662588,-0.6797439028552724,-1.329928493796935,-1.8558234270073077,0.9984771104987683,0.7698176241488662,4.167072435856157,1.0853513640499484
85.0,1.6172415688098112,-0.07219506080816873,-1.6894366296179169,-0.7339423878959694,1.690589190228641,-0.8337971369457926,0.8899678902537878,-2.7102876251045633,-2.0474140798997267,2.190200578839819,-1.5133542729873368,-0.09050729870023777
86.0,1.2038061090731924,0.9854377114139568,-0.2183683976589864,-1.1398848678455105,0.754107670255887,0.3568097789471424,-0.806209897886203,0.18425346065757453,-1.1784411269354957,1.3185396822674005,1.6620828229973137,2.598001533265527
87.0,-3.9974703528374436,-0.8827120426514019,3.1147583101863257,2.466967314971725,-3.5846042522904753,1.0940170719485942,2.768898002642666,2.522122819258415,5.196958001074044,4.1107180201763445,3.751743057551309,4.1112185561141645
88.0,-0.5931740908129808,-3.7272312991320318,-3.1340572083188256,2.101554318861458,1.2489825403593402,-3.370781500732713,1.66829883437316,0.0647239053888522,2.0471402137439187,-1.4458973412668341,-2.201192071508136,-2.588985602341655
89.0,3.171103664266696,-4.102622252831735,-7.273725917098365,0.48076833696353016,5.20648724405582,-5.706593763573146,-1.8203680445516601,-0.20714960857142506,-2.123788655190676,-5.117604654551672,-5.151108514062849,-5.2385781446024415
90.0,1.8298634676126517,3.093311319077766,1.2634478514650218,-2.448092157837891,0.27095874848365575,2.1571510625351475,-1.1459109309340092,-1.382586011013757,-1.9998045513786424,0.4780325338426068,0.09538087596729206,0.7087852090687705
91.0,-1.602497611387781,7.89647674823015,9.498974359617703,-3.130203845556993,-5.560604044275897,8.670365781616987,-0.6966054147990121,0.8473339358487507,0.06499036762587584,0.5947229484316516,3.0253061033156863,2.2132947499387616
92.0,-1.2411216173459487,6.3953022429781115,7.636423860323804,-2.5523222219012967,-4.36795091778496,7.058374395252388,-2.046117591530968,1.332749138024309,-2.8877398779842274,-1.7541058421152038,1.0691478521158428,-0.31707665780811056
93.0,2.1435559825616837,-7.006524557906728,-9.150080540468576,2.3885067463984253,5.640744804427104,-8.04635415875816,0.6143405705070425,-1.3025459642398398,-0.9813321124825235,0.004847277493364388,-2.1433984592266473,-1.7271245982538206
94.0,-2.106834355387386,-5.752896230185895,-3.646061874798535,3.976850327661955,0.7647019950632454,-4.7571953218037635,1.9945734972366482,-0.4015174803574457,3.7839760117500196,4.596031680254351,0.3563631851648167,2.3156693530007733
95.0,-2.8463041749891254,1.3651178393632266,4.211422014352453,0.7172202525050393,-3.5346872390157693,2.7994579684382446,1.6873960078812411,-0.32344453449715216,3.428409103233945,1.7194859804549747,0.8977224854505598,1.0963569179431367
96.0,-1.9624765156960846,-3.2772222659163575,-1.3147457502201416,2.599905556046576,-0.33408888166860934,-2.2922048316210892,2.0493563479502273,1.041780430598515,0.13588827398679193,-4.521956857313765,-0.3257139307942753,0.48811529074236637
97.0,3.476919457059097,3.5876321211835225,0.11071266412451752,-3.5541745629251484,1.664412836960582,1.8490964398973464,-4.270585470483407,0.7722867000939467,-3.0676105389408646,-0.026306344121188818,-0.9412841609056379,-1.7597685695534684
98.0,2.9651589291420404,0.4388534954416663,-2.526305433700326,-1.7297699604787875,2.7152655073355962,-1.0435180960699824,-0.6084112161657464,-1.061283589892638,-2.60312146591991,-0.18873147990013894,-0.18921113500685643,-1.6436802528181285
99.0,3.7653947979644666,2.3181521984853424,-1.4472425994791074,-2.997840155671927,2.641484565996655,0.4398774024992326,0.20519443200016996,-2.3498877139513152,-0.2752391868650059,-0.725841992630879,1.0699119154258359,-0.9795001798167833
100.0,-0.6484931368071911,-1.637932407214455,-0.9894392704072134,1.1816616095420593,0.19365022826947675,-1.302212502610063,0.45101122314863956,2.1453468467161536,1.4849067309193993,1.5522368592778277,0.6716282638079546,3.189626967808917
101.0,-5.037168996928919,-1.6579071345329122,3.379261862396048,3.3837008799428494,-4.1938232151262325,0.8802371091534397,1.4720544238916662,2.5100736156965175,4.82097319228629,2.2903142173242066,1.9390814387966642,2.0770886719224437
102.0,-4.733727478679098,0.799692308981959,5.5334197876610505,1.925370287921375,-5.1236893081660035,3.114443545322337,2.106350472139974,-1.288664627797403,-0.4056244277012109,1.5703787340767466,-0.6078400557184004,0.05328851618636454
103.0,2.407585062844838,1.2118832712616685,-1.195701791583272,-1.848389476538024,1.7325539347309769,0.0391107064320233,-2.715839402863381,-1.1286341838261478,-4.631743502835797,-4.406872074957117,-3.5578250921856562,-5.337912615394034
104.0,1.400956177453658,-0.29342927182965134,-1.6943854492834665,-0.5888599585118732,1.560673133492354,-1.040788284505905,-1.946773916814168,-1.6615437555860457,-2.5068261678817345,-3.7594817411225665,-3.8615862625595545,-2.422574136671327
105.0,4.045539443100208,2.6613711394017003,-1.384168303698622,-3.306735378913496,2.7337095178523985,0.6679575989300106,-0.695593232110955,-0.45276211713702497,1.4481476325184632,-0.10627294877006754,1.4732206690039413,1.9722188114244654
106.0,-0.09870662746055903,-2.12970961118615,-2.031002983725609,1.163088783442211,0.9921767230585299,-2.0558945509467312,1.0160600191586944,2.41076112218941,2.4203282337995295,4.549948282094226,6.809047540833037,5.279727609905408
107.0,0.8573538081993903,-1.6037742807075992,-2.4611280889068965,0.34465830259138863,1.6137255919975684,-2.013858433320724,1.9010931625329304,2.7353589225204638,2.0211810426319086,2.6460945189969216,-0.16646750343262262,1.0680023144142066
108.0,-3.2319629978322526,-1.1589163991277172,2.0730465987046816,2.167681818994808,-2.6133506892983718,0.39156449023682194,-0.5004238567899904,-0.21712429462325833,0.05203087703394682,1.617476832047734,0.0883197369212958,-2.5892842138993073
109.0,-3.52004468961996,-0.8614472542596774,2.658597435360421,2.16371301482963,-3.125469588695419,0.9083890810905911,3.053000332234026,-2.9104743177901025,-0.2938129558517249,-2.7270295744835433,-2.9148898688952434,-0.1096861874861701
110.0,-0.7838618927290815,-0.06465427699914449,0.7192076157300191,0.47706343201423607,-0.7087695130583074,0.33662108975183835,0.12444771307791613,-1.2628322815157946,-0.7192376375155838,-1.7245006034871044,0.6236874110864754,0.3301434464884241
111.0,1.485840551059486,3.4370639260044418,1.9512233749449528,-2.4858265565851183,-0.27199662902832233,2.7064174086293495,-3.4918013763755207,-1.1613733139085136,-1.5960109244393141,-2.4205867758486903,-2.5883740398296946,-2.3267284277386957
112.0,3.4548199213458637,3.2232758777566852,-0.2315440435892806,-3.2830977094497937,1.8763949329342724,1.5140004773653946,-1.954626754048457,0.5870422887161324,-2.846239396557327,-0.7189347464290881,-2.1054498104528996,-2.4295028949367152
113.0,1.1222774818445183,-1.9526498903408,-3.0749273721854298,0.3929010641383386,2.045270148420217,-2.488213762138964,-0.49511692390104756,2.336142550423355,-1.4207345207170277,1.7735627327111891,3.4855011942047716,1.990283376197692
114.0,3.430974732236417,-0.9040406551763994,-4.335015387412927,-1.2875128862794263,3.9009253485176574,-2.665456309462963,0.652873808892715,1.925781143832094,3.1154155267510615,2.2541007383383875,1.617497838703058,2.3958795490270255
115.0,-0.45887545905311966,-0.3291097812667463,0.12976567778629633,0.36521933953439073,-0.28170173292622147,-0.13998175556046277,1.6274497504264545,-1.4954764664859377,5.155376772952903,0.5719082015939045,1.5723406152309,0.7731591246694771
116.0,-6.561064812627917,-2.502555018888449,4.058509793739456,4.574450585819649,-5.299098359793617,0.8199539841571198,2.852554770514148,0.22736118277837808,-0.44086972748797626,-0.21178798007096755,-1.4830139158067106,-0.35360526706870243
117.0,-2.6999753586219777,-1.8958491814147695,0.804126177207309,2.253319854076395,-1.739868527517957,-0.5805199193554034,0.8787837719474396,0.18944628804125552,-0.5821469903593419,0.8021169410719423,-2.088085255262355,0.48749548337290216
118.0,-0.8843091901301801,2.707860112682091,3.59216930281244,-0.8851409522949254,-2.2223200806977883,3.196118204999002,-2.487388648230539,-3.037187414245437,-1.055343526477568,-1.5543655603740842,1.2135654812773975,-1.7641384838900644
119.0,2.805688503710726,2.0266982095030235,-0.7789902942075617,-2.394108503163987,1.7335587945474717,0.5943064685325643,-0.9168857391448957,2.5345531453804884,-2.1474059850495832,-2.3916888520230506,-0.8527452747179695,-1.7913592998160477
120.0,-0.29296244761761114,-0.3211533598800371,-0.028190912262412438,0.32881811807484906,-0.10993100990488536,-0.12091914853097174,0.6159748910980059,-0.1764911879922852,-1.6726904617299119,0.6898745453813699,-0.06871142306249506,1.3482166803479267
121.0,4.284206094811634,0.47820335801797925,-3.8060027367938054,-2.4341088291693893,4.067427127788834,-1.6836279657915132,-3.7088392578121523,-2.3424314818610714,-1.5243597124646244,-0.09717921756420085,-0.9538486284931365,-0.0036754492518613624
122.0,6.896723152259651,1.4556094618370459,-5.441113690422883,-4.142572469095876,6.109937718811094,-2.00805154547196,0.24246224607321576,-0.2754243290649778,2.067751060085181,1.6688218339520695,2.6943065471449588,2.1488125346056535
123.0,0.09826765603934362,-0.8487773333751061,-0.9470449894146269,0.34021405201016663,0.5388153627770975,-0.9113377111507127,1.7769080171776295,2.165104553785673,1.9053614067879026,1.228017002537174,0.06976960992871117,-0.5299585205855641
124.0,-9.404336928761293,-4.171940148308117,5.2323967804531835,6.764088083086543,-7.304900568731732,0.514968828050513,2.7733699215714633,2.184451573544242,2.7010983808874056,0.5716085049261022,1.160731324137202,-0.9044619672685297
125.0,-5.248375807760068,-2.6773933067364446,2.570982501023748,4.027894576764734,-3.896240876920333,0.004626672294577028,2.8022167613305045,-0.08831276784141173,0.21126697918187487,-2.104696494578232,-3.7053779746880853,-4.414064015138327
126.0,-1.3914161636714715,3.7587843694390966,5.150200533110764,-1.1894268511290753,-3.253966834321933,4.425087182475088,-0.8940360873719391,-0.4892339689679443,-0.18030014636458894,-1.188312047168789,0.428256683162632,3.0372323106743164
127.0,2.97682635723613,4.933708927053023,1.956882569817076,-3.956966192512306,0.5331419261013541,3.4064587318650217,-5.318860700264517,-2.4293126116000936,-4.339680893800685,-0.9430783079244975,-0.06576132246233321,3.231665411497829
128.0,5.525744594560917,-0.06148090442818965,-5.58722549898899,-2.735029175424561,5.508710802421433,-2.792496505108864,-1.0055990135321737,-2.6664871240517045,-1.092563494973563,2.9296852764010453,2.049904249229132,1.6816586047736042
129.0,4.226178269330707,-5.088816931428313,-9.314995200759043,0.4216231679775304,6.730461605196035,-7.17458923909998,1.2743813549475704,1.3169901391302434,0.20360739175321818,-0.8200462032947036,-1.6956429586008248,-2.9175225245235366
130.0,2.577709758262468,0.04275283933975027,-2.5349569189227745,-1.3312519470039008,2.6013612932233694,-1.2972498544401132,-0.5006347222544186,3.1056667748020224,1.1695480695658902,1.4612356064450436,-0.8781249543822498,-0.995856249567048
131.0,-5.351360980319747,1.0884987927238452,6.439859773043545,2.097105081137474,-5.924418819051474,3.79688735806653,1.9234781496685385,1.1650104594667365,3.178796694319623,-1.300837511858793,1.489116397828902,0.2446446562208675
132.0,-5.036097730691581,0.010843986208859291,5.046941716900442,2.5451496631119404,-4.987755700496751,2.5701006096106074,3.385329473322613,-0.24893452359436852,1.9456841164531624,-0.49896654823083847,2.7837556970550765,-0.28064162629714096
133.0,-4.028623709616594,-0.6263840056074721,3.40223970400912,2.352584760823473,-3.7371148500663876,1.3597981063042992,0.7063527029249645,-0.3786423876981639,-3.686909722441789,0.6571610639105325,-0.8063066811845074,-4.159050768839602
134.0,2.2916529192064563,2.1622509701618324,-0.12940194904471403,-2.2033492027060655,1.1919462498230855,0.9958783368685523,-3.6674376074109696,-3.0281447404903203,-2.6093823543281944,-2.3108191290236233,-3.075564512909655,-0.4830287174672063
135.0,4.04567582509548,1.219273483167509,-2.826402341928131,-2.605073467398102,3.4201922757100194,-0.8204067842018942,-1.6022297470524103,0.17746602651176446,0.5357672862726575,1.5274810462300956,-0.8291297993464524,4.411645342933802
136.0,1.590135375810299,-2.4749423624750415,-4.065077738285476,0.3975817533988837,2.8921805848148843,-3.2876987301010923,-2.681149279988682,-0.43112764336821097,0.9441105635954143,-0.1043728557404171,1.903977319388368,5.555705933261455
137.0,-0.31044566951145236,-2.605449674084257,-2.2950040045728364,1.4191534756407957,0.977623178282466,-2.393741375841743,2.0361003052151188,-0.6228141927120027,0.5485126066964424,2.173683934711957,0.5013857784343712,0.8542219282315435
138.0,4.440691775192858,4.00978560246212,-0.43090617273071063,-4.18221166611751,2.4173967088510064,1.7607273220130528,1.535845345611896,3.971578543926773,2.4678677691799766,1.598084018709749,-0.17933985575236966,-1.301917042358597
139.0,-2.0556870046827598,-0.19327369356484136,1.8624133111179653,1.088220840480537,-1.9850602479159019,0.8784694020316242,2.5680621734116995,2.051956316778619,0.7562742866714613,-1.8638338259044442,-0.4620963700695451,-5.3401065277008035
140.0,-2.824332917043528,-0.9094083896808672,1.9149245273627375,1.8277980548820991,-2.3279257524403,0.46395404298256215,1.860578556716883,-0.9242144781976986,-0.8214122617619036,-3.0222177980787004,0.754630680664163,-4.681161846443862
141.0,-6.184364037981985,-2.053672677743238,4.13069136023884,4.156189464316071,-5.207401429161072,0.9990971734038684,-3.022088842978767,-4.4417546123421205,-3.5229014786721478,-1.636330334840936,0.013900969528633733,-0.8214572750114746
142.0,-0.5989283085525781,-0.739598432371081,-0.14067012381840005,0.706749405800261,-0.2123212337333329,-0.3978468113468999,-1.4994991332846503,0.05472007293251746,-1.4259151304407358,3.4425786784634083,-0.4550058480728627,3.752465816278871
143.0,4.85247070439696,1.6567642116165895,-3.1957064927803414,-3.212852270469057,4.032327004349369,-0.7215314937662269,-0.6104916705263441,1.0259435698341548,1.7550029134693996,1.3347132947703246,-0.13219195138621345,4.176484235907743
144.0,5.2752864444755065,2.7578804223395648,-2.5174060221360097,-4.0461683509491175,3.901541622915193,0.0959627559279399,-1.806674368174453,0.5588507321480547,-0.5849937029468718,-2.7334893699481206,-1.7834566655396744,2.6423619817736403
145.0,1.4317506236307591,2.151818637762499,0.7200680141316189,-1.8132748032764814,0.36406933452796864,1.4167859453407052,0.7788380177515578,-1.0966337913002309,2.9317173273535744,1.3231200976411779,1.2813288406071848,-0.39044527275886165
146.0,-2.0386565803465024,-0.9456908840407401,1.0929656963056686,1.4766373896833997,-1.5496993689882648,0.05617432118840507,2.0073253074653654,1.0358490231995863,0.31525060088258416,0.8348627660019854,0.7664125688856911,-4.014721457440428
147.0,-6.351766139796547,-4.149216234797363,2.2025499049991706,5.236800277118833,-4.250944245629421,-0.9935037880512327,2.5140285140573564,1.8053948716029573,-0.37726967209168705,-1.0639613713163718,0.6067303189461564,-2.876654146282348
148.0,0.0738967532180701,-2.282145771059375,-2.356042524277391,1.0878157593190587,1.1716800552566418,-2.2672850314090267,0.47339500197441176,0.39872232133758234,-1.2874728812834242,-1.661882950486138,-0.6870301202281173,-0.15935486611122363
149.0,-1.3501807613188959,1.024167272957791,2.3743480342766987,0.21956609795929594,-1.89946923480321,1.6629010836195735,0.7510279165690525,-2.6441071550354205,0.4031150014639382,4.028039590510916,2.2703824022066783,4.13457938064984
150.0,2.1498849097488297,2.44566408786535,0.2957791781164867,-2.3270474454291317,0.8921021411157326,1.402984595178504,-4.706727834834613,0.4333933633280159,0.8803738888692039,3.1549411512033463,-1.056550480623679,1.7073428623750293
151.0,3.252255103869854,0.6073057997167941,-2.644949304153137,-1.8865405340768118,2.991834836991588,-0.9955284905145783,-1.337355793932331,0.3922801421863328,-0.47484540520444435,-6.392302954236864,-2.7339888679485482,-1.035768510192401
152.0,0.5727353440479495,-3.882907506126582,-4.455642850174622,1.615560797807836,2.55590268455801,-4.231073380725,-0.8817389327296022,-1.0953935413694411,-1.829861153738266,-2.2061912696251005,-2.30462120469651,-3.7671001605307306
153.0,5.241794613512399,3.1096244982241332,-2.1321701152882744,-4.137789186454061,3.727801741977829,0.5029065042892737,1.287874674952145,-1.9961405614044287,-3.4561123573865054,-0.9430217787740365,0.9324992585276475,0.06263877010786434
154.0,-2.647585575152797,2.403634237428498,5.051219812581412,0.08230334547552487,-3.887060505314741,3.742802710831045,2.7776724763696565,4.001514851988353,5.156787665209371,5.136940907634575,5.36076032793573,2.7479551118050125
155.0,-6.458163396898443,2.775805642210051,9.233969039108635,1.8044297118636983,-7.8827340995202135,6.025261058638001,1.9406351113858522,1.311892705046772,0.8260579179519225,1.3223959699230763,1.1596828122325191,-1.0076186226927906
156.0,-2.2665278158176942,-2.1039931464101462,0.1625346694076275,2.2310097729185925,-1.2503345770644763,-1.0210682622592264,0.47617036817369973,-1.4182961874054452,1.5854792302665608,-2.3855691607522274,-2.9556126834798384,-0.1280978806542335
157.0,1.5828245597525559,-2.8020739655460347,-4.3848985252985875,0.6588123307155762,3.026901478232373,-3.5553109402731073,-2.4133331519942454,-1.856570970977442,-2.168534237463782,0.3169786543373148,-1.9332231234637858,-1.4008729026630906
158.0,1.3359178739536794,-4.976923980148864,-6.3128418541026505,1.7928045877525283,3.866496031975939,-5.675678587693419,-4.1562634388681055,1.2416272146429232,-1.983334169244491,2.2573758358997233,-1.2785687921757862,3.0798952430850077
159.0,0.3929779481903519,2.0748133337628936,1.681835385572374,-1.2624083785994784,-0.6829522337186411,1.9342097669670046,0.9288769561245402,-2.334613424547086,-0.6008196444884448,-2.387335124858148,1.872041281562144,0.4549399998941316
160.0,0.31259042459304487,0.8466711562019209,0.5340807316087041,-0.61210932595433,-0.07311801288694375,0.671952842325196,4.344592567859843,1.8222326595444414,3.0438821427448572,-1.9902613464063859,0.31855587503248606,0.8991863178195613
161.0,5.528849898904532,0.6398631405142585,-4.888986758390361,-3.0447023673200517,5.165029633866495,-2.142969437835045,-0.19609165823231312,0.1141830364860208,-1.2819007605705273,-0.20872188111218382,1.8099479979479247,-3.908327646222814
162.0,0.09918867255274622,2.4335302052684584,2.3343415327157717,-1.2345430089030682,-1.1634635584041138,2.361326811047286,-1.8034475670349939,-0.4282679576069883,-0.3058144630830565,1.9724387134570938,-1.3827201161459706,-2.1289860689263733
163.0,-7.422669728911251,1.2511859269165049,8.67385565582791,3.031718317801313,-8.01546706117042,4.93294904400067,2.4080540604115264,1.3630994924677524,0.5249106437208648,1.0243848745927489,-0.03075515129178452,4.272497410550084
164.0,-1.264350520748692,-0.22625374064601378,1.0380967801028267,0.7656660893233354,-1.1156985849844703,0.4476218704371364,-3.3562824627540375,0.15099696801815093,-1.2387177473542028,2.3550966129925532,-0.8518383199082699,0.34290329451370605
165.0,0.3594175852211272,-1.9046669876129876,-2.264084572834008,0.7928549597159493,1.3527425115958707,-2.0485290801655713,-0.46532221317957667,0.16818010395068914,2.6529196179949532,-1.4148955849656562,2.4967040051705225,-0.5928934342276725
166.0,5.761904580763684,-1.650279888551683,-7.412184469315315,-2.1096199960188864,6.556265236073087,-4.498445640477384,-0.75225130920712,-1.763143129705063,-2.2562694935642433,-3.4768561884255176,-2.8416811599364338,-1.9853397407334339
167.0,4.28736182691846,2.1187336062416757,-2.168628220676812,-3.169101823135674,3.2037529603663324,-0.07128628188215114,1.6416411405292322,-0.2911171361593329,0.7287567478343039,0.051579082745980775,-1.022476996469682,-0.6034042698096004
168.0,-5.76542527189396,-3.3522247745005163,2.4132004973933836,4.6042645420062716,-4.109245461131254,-0.5145279609782352,2.0094617799993038,-1.048088844435215,-0.2391688025783375,0.23179031305731423,3.367472074669994,2.5824558761871166
169.0,0.1175971148301187,0.5672974949125675,0.4497003800823627,-0.36454574670634643,-0.1847033073523794,0.5441537443347919,0.13824754452295585,1.7014298143661641,0.28823743796906476,0.3288771847792652,-0.5197890698756451,3.1685380275149115
170.0,-5.499768414609736,3.7492913962859706,9.24905981089563,0.8610341087711119,-7.3156188889464335,6.457958578397986,1.2293747538984283,-0.3350230777218335,0.18000659028646754,0.6365838243030404,-1.4533808563853485,-4.01789719360625
171.0,2.646719046815819,3.7072585797278554,1.060539532911982,-3.1889359132535193,0.7705640637164923,2.423171175978773,-2.348595662637295,0.8753127238650726,0.452208815049031,3.613203348117183,1.2660591850679,-1.295778019944687
172.0,2.02159847385306,-3.187563723356584,-5.209162197209695,0.5669125692539834,3.5904706314851613,-4.157354785855631,-2.0261254153169945,2.7320343653243087,-0.22208052330911346,-0.17051826020303262,-0.3089741169383,-1.8409185286446
173.0,-4.099846721668282,-3.2234718699973386,0.8763748516709042,3.636217182798474,-2.43559325787776,-1.2095504066942426,-1.0177762206120984,-3.7366063645653,0.3394285811237507,-4.302772222833097,-1.8344983794703096,3.5250328956010364
174.0,3.3036646158334206,-4.3715517612555725,-7.675216377089003,0.5751954904112198,5.46281928234541,-6.057900632518853,1.2855829468779532,1.450750348191109,-1.919392650016586,-0.3511360312335565,0.7056347067609022,2.1865897490023896
175.0,5.637438008653983,-1.9891606002094762,-7.626598608863435,-1.7946042841172933,6.683608988718071,-4.762834835478753,2.8343730023887805,-0.5919040313931003,-1.8611911591746435,-0.34753048332025716,-1.0004986072224775,-4.4063098597434225
176.0,3.8042621650492663,4.499914117237538,0.6956519521883533,-4.131472194983556,1.5249689701737932,2.563809863782665,0.29618933269675485,-0.7845259398255031,1.2670891829462156,0.7045555004868225,2.9301825681265017,3.6468741736445462
177.0,-9.796363009153179,5.882807706266746,15.679170715420051,1.8938447670908873,-12.771942557598598,10.82414255719758,-0.10075162939799187,-1.433887646534965,2.990037256456535,2.4433210134296033,3.0768700922279004,-0.9636050009738529
178.0,-6.593972807521702,4.868242975246913,11.46221578276872,0.8782007390895601,-9.069572286105824,8.126571051910783,-2.085088000373844,-0.8189979784360493,1.4240224440065286,3.2196870645256555,-2.170679524079261,2.271579880041482
179.0,5.48479826445894,-2.2358927685779126,-7.72069103303682,-1.6058185322626433,6.6318302426095315,-4.942516537792365,0.2283945955746931,3.915660310250955,-0.536872514440119,-3.205144731554927,-4.184613687118551,-1.237030024034373
180.0,1.5714646763622324,-6.033330878396,-7.604795554758287,2.177024708826391,4.6104512651976,-6.867082822888311,-0.7709218897534292,0.30697441656426094,-1.9596474370132888,-1.4723800571287842,0.7024600641997725,-3.7591734026021344
181.0,2.173681500590051,0.13025764849669708,-2.0434238520934773,-1.1190088390512434,2.1274111108967073,-0.930750205186742,-0.4957953090077713,-0.26366261989620965,-1.911153388048175,-3.396257715338883,-0.09149915968988231,-3.065566349082614
182.0,3.0129982274533313,-4.790658116913051,-7.803656344366516,0.9307128855298241,5.427476135133841,-6.274977580222557,2.0808687330976197,0.24994392683054714,-0.017628225635027972,0.7283418739278167,0.6656760716178479,3.0768441412570007
183.0,-2.3315330472469222,0.37707165506465046,2.708604702311475,0.9488468579703763,-2.4981146226531195,1.4849060170554753,-0.01152572890226533,-0.8042641209010002,1.0502078853724837,3.1945134687045074,0.514854825697125,2.653374444328729
184.0,-6.9673435129980374,4.21887778248854,11.186221295486593,1.3526141726647272,-9.130544218042074,7.724942541485888,0.5949031063358827,-1.5170985411637308,0.9215954441301395,2.12541689304536,1.093993772629564,2.9986620139696942
185.0,2.274273611193086,1.3704294858106176,-0.9038441253823839,-1.840021748039237,1.5364053814375467,0.26010646805412474,-0.3968739613179026,-2.1348061233280413,-0.08928745114403813,-0.32124184222669205,2.2554070013110143,-0.4689798331220436
186.0,4.55530133058449,-0.22852942092986073,-4.783830751514241,-2.1018947170198325,4.6938649783784605,-2.4730899553175236,-2.413237407797072,3.786660981241238,1.9656356585535968,0.29594627029560355,-1.4157085996280565,-2.9991332921168468
187.0,-0.7812972310159065,2.593713501063832,3.3750107320797937,-0.9268526470447498,-2.0580260960625325,2.9451394968301927,1.2506662477024868,0.550406020939445,-2.0559125556965414,-2.809574009159629,-2.3093501958366924,-1.3310050840585197
188.0,-4.1386657568421725,-0.7822748441479017,3.3563909126942377,2.432860542246649,-3.732340593910778,1.2526199307677106,-0.8341145846973392,-0.884615945932193,-2.270731447662181,-1.608296174802407,-2.2768401780413177,-1.0336217087890212
189.0,3.7899193593300207,-3.560306370384421,-7.350225729714505,-0.07348806425073262,5.581408547986001,-5.409020348682778,1.751245819616269,-0.4168878883652249,1.3955975915222638,0.32245095780794464,1.8762831234590567,1.1673875266177882
190.0,4.806647487083223,0.7250901906935898,-4.081557296389697,-2.814747839308726,4.454102777357816,-1.7117423091530188,-0.17478830187586547,-2.5233847004995065,-0.8131204623249562,0.22986027277166432,0.09873886228233525,-0.2640818769414103
191.0,-3.7383361659199554,-4.283592502845775,-0.5452563369258492,4.029377729280597,-1.6634009991681578,-2.4508679751837747,0.8206693132143625,2.9365825889880064,2.041887197599154,-0.2492153524047589,1.3314480353591849,1.3854067489279795
192.0,-4.634890003212483,0.6387460558186939,5.273636059031185,2.006719349908457,-4.937259824324603,2.995195249923288,0.4525970733631639,0.2239393925298212,2.360322623397381,4.051941544322171,1.9640033655020512,3.4609779982842546
193.0,-3.7852417398103357,3.1207905743540856,6.906032314164468,0.3341781889059757,-5.320920791587284,5.050036099035809,-1.4871454816416418,0.31198916500318413,0.16968237596676405,1.9418713096945543,0.7950333837367933,-1.809525660198176
194.0,-0.4923227549312774,3.5113917918848534,4.0037145468162,-1.5105155448617877,-2.2142071464783384,3.793063319715552,-0.758093418837027,0.5740897458945543,-1.6867636855783956,-1.9786000474184644,-1.7008638660947533,0.14069277861849316
195.0,7.824390311801949,4.440173505346454,-3.3842168064554334,-6.132611024987818,5.56815549778071,0.48420034162884074,-0.43870653659735404,-1.0084789209723375,-3.4350188155487666,-1.8769915969562567,-1.2302685291003426,-1.4181724172167336
196.0,5.439919925631662,0.33006531007370143,-5.109854615557931,-2.882038990719464,5.245403483657176,-2.4347459327200376,-1.7788777662628084,-1.704826927203809,-0.5674047705502896,-1.5969737624367775,-3.7615098208511717,-4.160203289118336
197.0,-0.3801245403400171,-9.356335479994696,-8.976210939654692,4.875688321775944,4.350384748444814,-9.134607682441558,2.546992318860482,-0.925919884403294,0.11928836181391961,-2.4417240544309893,-0.27865615684455336,-2.2860408271262025
198.0,-3.7829100602919183,-5.574513975358654,-1.7916039150667649,4.690509630647894,-1.0232455255401782,-3.733077820064975,3.0341678099064966,2.7793027992024735,2.6842091819925233,-0.48278557519494214,4.211068025937204,4.919209775119362
199.0,-2.7069913608179226,1.138809704857175,3.8458010656750843,0.7204271465932539,-3.309111491258517,2.518833979203762,-0.5489123109752969,-0.2653880711425296,0.6827646306052371,4.0770301173850605,0.6719471299231135,5.731765075056734
