Time(ms),I,II,III,aVR,aVL,aVF,V1,V2,V3,V4,V5,V6
-200.0,-8.501514969124575,6.708999099747796,15.210514068872488,0.8498943328260058,-11.814735153138416,10.945660706002245,-6.008257289903522,-20.353094642450458,-22.1916474941709,-14.095919913301778,-6.456863279189422,0.9087125597023027
-199.0,-24.80748236054936,-8.131509821362268,16.675972539187683,16.5023848723396,-20.769501073734475,4.254324252113347,-2.2254946623845506,-10.318117384896235,-0.9203820632323385,0.12664571142818384,-0.7711852644668176,-3.0448145921357876
-198.0,-11.066432377465105,-3.593147913587352,7.473284463878544,7.362491282265308,-9.287809751887846,1.9167571254038709,5.95725488495808,9.399741286754669,24.38338064851022,33.05188686154086,15.390140263207513,2.96411282058373
-197.0,6.933785704532353,-7.739755623267393,-14.673541327799189,0.4349040081879334,10.79300710960107,-11.236176433245745,9.034921911959948,13.828616024525015,9.961896491423119,4.944246305122279,-7.591990719072741,-3.08881722695775
-196.0,14.147326822631614,-12.939777634719189,-27.087104457350787,-0.6518770791132376,20.60928502327059,-19.969860077312028,7.815112397922757,30.544838139882412,17.343600097152695,2.679244540102598,-9.58818092239939,-9.340913249860499
-195.0,14.01096503193364,-5.812143902932164,-19.823108934866134,-4.149052692720076,16.90646467180332,-12.777913190627228,1.1789466777756603,16.05555497272578,2.7660393212583516,-4.430490773639211,0.08583716054704693,-3.534754309140616
-194.0,7.301341750532646,16.078048470171485,8.776706719638382,-11.661933668824833,-0.6769538384047138,12.465258632174802,-12.212447081463896,-25.76478012157498,-14.649255923157352,-4.422596450053048,10.627371056360891,11.539533851974818
-193.0,-8.340382530076976,18.458240351133185,26.798622881209464,-5.031750907208451,-17.59815755888418,22.586971111529,-0.9382186250844509,-23.664171280064277,-9.591901296690175,-5.5984943436682215,7.365108074615745,12.815616166241863
-192.0,-14.560525116465062,7.074585289658025,21.63511040612239,3.7706210184087032,-18.13808100647355,14.31281879444811,1.4141660175670538,-11.958015179535513,-11.338317178306568,-4.24454554560746,1.0077149424747414,6.298264804467771
-191.0,-18.350901906668703,-11.19845498183756,7.152446924831056,14.724800423686672,-12.723481491342161,-2.0662878229209536,0.5622169638760146,-0.94034148886632,-5.67718209882805,-7.3796207695869285,-7.507167038554254,-8.164682067326511
-190.0,5.5757797152853765,-22.366980716125415,-27.94276043140998,8.425570398408425,16.780359841035803,-25.121028748966033,1.6740609437889034,18.68103403253622,15.425835962949844,10.892761602423086,-8.651127885087817,-23.660126329916977
-189.0,26.278701595255807,-13.88400589947485,-40.162707494729695,-6.167386376242944,33.238940678524116,-26.990449677080544,-2.818034160584043,22.927474138883603,20.367572276533977,24.250019672598917,1.2617481493807956,-11.06447053861
-188.0,10.064891636959755,-15.069401366602897,-25.1342930035624,2.451904725024567,17.540546520281417,-20.068229540174244,5.288760517886778,12.20836704975593,1.6113536561668393,-7.873259436253939,-9.524906789163282,-8.223296021832242
-187.0,-19.940979612807702,28.177031447633915,48.11801106044087,-4.1708917519384485,-34.004784517509975,38.10481826524704,2.635261043985622,-18.641115939987735,-20.940580126384795,-33.200571328660644,2.551992984724601,25.57073182960366
-186.0,-14.70627194260127,48.95718585376653,63.66345779636662,-17.10139168602459,-39.15291756365444,56.34950640979557,-7.579592648075587,-31.26246833601262,-18.325345660986763,-12.611620230548276,23.880460997023082,37.995326960060524
-185.0,3.847688126425302,20.800347589734802,16.952659463308496,-12.299052738758661,-6.5912922062869,18.839133381881133,-7.19710211935845,-11.95688653535476,-3.2219756380767777,9.128376891076837,10.02067408424681,10.17560583962189
-184.0,3.554542129221262,-41.78377225245171,-45.33831438167332,19.144468352448225,24.41502953519835,-43.59868277801658,5.704642072708666,18.28803080181445,12.379405566875302,12.286374787598081,-22.65699215998236,-32.16819174457816
-183.0,10.466147235438106,-39.97611656413817,-50.442263799576125,14.793302825105673,30.50728461625052,-45.171551034212065,5.838578991418164,22.989363039041883,15.084392318601015,10.61851043243752,-17.511168028470195,-23.52310436530935
-182.0,10.522525311386373,-19.42238612800818,-29.944911439393774,4.419338763748199,20.211239520351008,-24.65237473260876,-0.5528240886220583,11.390933129596203,6.543012185219631,12.438004049742064,-3.8619543593595527,-15.346150966945293
-181.0,3.3813336800587885,11.145801503882963,7.764467823825051,-7.286059509879623,-2.1353048804799784,9.399605966702413,-1.210132579869915,-1.2424754064938899,5.409706949999851,13.03027927456507,6.238589086251679,4.050639874753021
-180.0,-14.224281081840479,18.453176310803958,32.67745739264508,-2.1331813271260494,-23.476911235779344,25.580502266860794,6.622931115273108,-4.732909559820518,5.114354165753321,-6.862599345553472,-0.5173234977305958,6.952865339667754
-179.0,-12.069441235430316,41.501123089872344,53.57056432530282,-14.736024233385939,-32.85281290507726,47.54471125941445,-5.233297532882043,-25.26744126284998,-15.87860878302687,-12.307474053144777,31.23977851846639,30.255541223977392
-178.0,-15.34171915478391,31.206881340581454,46.54860049536515,-7.958192644709538,-30.986611227714953,38.88320390543319,-11.468019001253333,-25.843558418126246,-24.499407894192515,-14.802402444218396,41.15990675816753,33.08314931842469
-177.0,4.090600001049782,-26.81423724428964,-30.90483724533991,11.408188300618246,17.526773113331586,-28.85424370279729,-0.4296545899158124,7.011988116342703,-5.536694308636985,-13.58816706292037,-14.928561976689847,-9.06926242609458
-176.0,16.77891637455819,-44.552584311264624,-61.33150068582329,13.927782541668957,39.07893381406832,-52.93430597742126,6.327770232706275,24.9502808670927,13.196110914025512,-0.6395506147549463,-45.40004776302546,-34.00882638734536
-175.0,18.175067928857295,-17.31398693872487,-35.48905486758246,-0.3922027829132331,26.85511229045874,-26.390000107025056,4.643811617778553,21.410902090161763,18.223461904330684,13.935460671179854,-23.11559870011335,-18.306254761155266
-174.0,9.697723783837256,-1.6622666600536213,-11.359990443890876,-4.058184804727316,10.556056524631492,-6.5745959060680015,0.40180757824372115,5.315580561130474,2.1596568372162075,12.107993068157155,-6.811647686752517,-7.794614499466794
-173.0,-9.01940230802912,7.699256526089737,16.71865883411909,0.6207109202297749,-12.913099971966771,12.22707552062416,4.697168821538784,-5.389372021692438,-4.4457623215691875,-1.362674151092019,0.6315321633808106,-3.2847184320397216
-172.0,-20.43224241199386,14.814603716198416,35.24684612819246,2.770153624969551,-27.87528629638031,25.05057770965672,3.901712455239849,-5.950017142770899,-0.7982121661380708,-1.2410292865398223,11.023892686771463,11.012802376129688
-171.0,-6.920870546602618,22.609991629204387,29.53086217580722,-7.804930319671935,-18.176143589969385,26.091361685552858,-2.131614800668716,-7.880980587755387,0.11612528456758042,-1.8171537255176358,21.09250621108655,18.96920905042921
-170.0,-3.063420874368143,8.575387535156635,11.638808409525002,-2.7176999257948737,-7.376590077943288,10.050419428443593,-9.423193194482835,-12.788824969463315,-0.45787308246653424,3.895558003212701,23.180197997925355,14.058383810529795
-169.0,5.43010309984842,-9.457657197678916,-14.88776029752712,1.9719611149337744,10.133625796444498,-12.148881265109251,-6.785484410195682,-9.050665816667912,-4.177635036508271,-0.14913384599106383,5.637800725042833,-0.21333762063861883
-168.0,14.78676660030698,-1.2137445204690538,-16.000511120775975,-6.749987511217711,15.444891187854637,-8.580806936187338,-0.3427138477020004,1.5858768966680443,-1.3310549593685161,0.1535310874775957,-6.560680336281676,-5.901444697881618
-167.0,1.1994041335671977,-10.268211936759846,-11.467616070327075,4.493255131994349,6.303217458521004,-10.838792667583839,1.4752808952118293,9.323739291711306,-6.388635350489454,-8.271070191149894,-17.120580310885302,-11.51223500189601
-166.0,1.375139695170433,-10.881594600734399,-12.256734295905037,4.793360802998667,6.784000194363424,-11.616473874037297,2.7743631687409382,10.904083365384276,-0.27861348581820355,-3.84452844026858,-13.606476515933066,-1.2317718294533329
-165.0,-5.701820833622053,-3.6908078741386205,2.0110129594831836,4.661096637036564,-3.8091126154955246,-0.8860817892713388,6.958042438641943,2.7631942402333696,2.640305679793755,-1.5995189081231824,-1.724942812488381,1.0196473098652827
-164.0,-7.401498747248667,7.647817650407911,15.049316397656447,-0.0763018419507624,-11.175795308629539,11.38083601383957,-0.7866139592221382,-1.8693538203969062,3.0286142872643596,6.072576873157039,4.311857903329622,3.1961176921258416
-163.0,-4.192062485669426,7.770286266954145,11.962348752623505,-1.818716048117631,-8.103858194162235,9.897234607421609,2.0540433688513913,-2.766925943679205,7.3466850533235775,5.354407867897223,0.9517580733527171,-5.080490916088355
-162.0,-14.122787898273991,0.6529915699072619,14.775779468181247,6.705936454824134,-14.4755902244431,7.743661546976274,2.562718523074053,-0.2191696588956349,4.928983391110173,0.06438801512733017,-0.22229796479828323,-0.2890744216391175
-161.0,11.394175736639102,0.09859309101620717,-11.295582645622728,-5.69756923779598,11.314889576617968,-5.648988810297625,-2.497234928883642,4.376844616260117,1.2531833753353672,4.516362830119222,6.443888564754347,1.4572472462919126
-160.0,28.630588714657033,-0.517749832285165,-29.148338546941957,-14.088228883346895,28.93007990055978,-14.883043407947062,-7.418860760563623,-5.264539925386365,-8.650080509744903,-2.978053450358097,0.5792712208363291,0.29369351340227334
-159.0,18.17896978320576,-2.1891946744054804,-20.368164457611037,-8.028328306111362,19.22429623445436,-11.247223211563991,-4.878246769848271,2.538197647069802,-6.100954333075276,-7.380405686994683,-0.33077688971214414,-2.07369172098935
-158.0,-7.964188629873531,-3.3126030093931895,4.651585620480433,5.683406240155001,-6.289524241655216,0.7060022356237816,4.9220868055747955,-1.5475123487430849,-2.6885528736627355,-1.3084522242483798,0.22085027374827537,0.03004412434030579
-157.0,-23.15983876350008,-2.27579662292809,20.88404214057197,12.764365160182278,-22.011118288074954,9.347221760998291,2.613437332611622,-6.525844443933778,0.6428605145005215,-0.0041997147072678764,0.36992399568958656,0.6743867458330364
-156.0,-24.057706332310936,4.452352424439874,28.51005875675066,9.773475420180109,-26.274208398615755,16.451880327590857,5.017310678845444,-1.654559661317934,4.520929866463182,3.133914601774242,-0.5044426772549591,5.399407204028622
-155.0,-7.3918466911655205,3.6872914614566517,11.079138152621992,1.8264611773726704,-9.219563108970984,7.357771125857717,-4.249920096550786,-0.23464910590612675,3.468826572801007,4.544420884857461,-1.411859749812998,5.140909148123477
-154.0,5.702821719824313,-4.306717322531565,-10.009539042356025,-0.7213333662295238,7.884539178999988,-7.183720798443117,0.9481153439800138,2.707504180482554,-1.3656627944035031,-1.5200936028803187,-2.9260147489910677,-2.695677427623193
-153.0,13.19571577344884,-2.712540117618619,-15.908255891067519,-5.185218557380446,14.517128535514928,-9.340386851578867,0.4896500974918283,7.422674268136261,0.9513209131789555,-2.3701860637204546,1.6512788690979514,-3.4846688305133404
-152.0,15.255695820885624,1.069151443945895,-14.186544376939741,-8.18554193991872,14.701062096931652,-6.517359774225039,0.23973493730248807,6.3131348943385515,1.4851314811923437,0.5819561547984529,5.065965684290486,3.332159230196182
-151.0,12.094877584194622,7.820978289473969,-4.273899294720627,-9.982682490551321,8.175064513386662,1.8064085779210544,-3.5797786913192104,-2.8197268620684963,-1.5719106523534032,2.9720375838674453,3.187193192990753,-5.249225362882083
-150.0,-2.8270707608854604,2.3318106217961576,5.158881382681646,0.22145678145164815,-3.9975200438807637,3.770504473838414,-1.6206101909512427,-6.954956114930674,0.23005299969411763,1.2602009228023157,-0.6386250198379796,-5.348980130464469
-149.0,-13.23453049314803,1.0336600101072357,14.268190503255266,6.152708677053567,-13.757270078906696,7.591349928905776,-0.3656005707295476,-7.273069426303486,-3.85088538521146,-5.701551620957342,-10.121644033530822,-1.7719800562635402
-148.0,-6.481623695379598,-5.117990524671121,1.3636331707085247,5.852968902009959,-3.856168663492216,-1.8621665458701209,2.387651067186415,2.4597945540230652,-1.0972479463726967,-2.5469775009306357,-2.905263632406336,6.458159394402124
-147.0,0.8873978024853866,-14.473538249626259,-15.360936052111573,6.7685821160478135,8.102273532972923,-14.904921633866104,6.242399741012649,7.797884724746509,3.6081604375668848,0.7211353630851003,-0.2986331519541886,0.527437349202561
-146.0,1.1771000530775213,0.13089230077063174,-1.046207752306917,-0.6787897755130414,1.0788327920902998,-0.4468212513037062,-1.501271696733296,1.9472497666464865,-0.4494446716620373,0.275593093150867,5.621626112862781,2.6317599287297244
-145.0,-0.9549815606293603,10.081219152433071,11.036200713062309,-4.590950023658659,-5.960194730204697,10.490783828114633,-3.5262918065524187,-5.028511092395542,-1.7427550949951525,2.335699498144555,-0.016111000706672485,-2.1223848586729703
-144.0,0.9117964694073818,14.718583565590952,13.806787096183413,-7.848951173694218,-6.499557109323954,14.275736482882971,-5.730969117895919,-6.159064791239395,-1.9418875919143708,-3.883089450682158,-3.8162928814948334,-2.444258348113948
-143.0,-1.802739581961002,-7.626842739188401,-5.824103157227492,4.752213267186893,2.031489580351357,-6.707076974654543,5.939495221678168,1.6843612714140193,3.763419521769266,5.876956447431436,5.423544035438632,4.263994562259365
-142.0,3.671825291300853,-8.08541739791606,-11.757242689216945,2.237157424054039,7.732641726664735,-9.894211949299928,-1.6161124660919515,3.314972477107005,0.8512963606217439,6.9936524300475496,13.202700090839624,6.3022651340246165
-141.0,-1.5432877647023004,-6.712714539841556,-5.169426775139185,4.1538923700833115,1.8311756631372487,-5.902812409547214,1.7099607180896883,4.937048538008973,3.5912099397960877,0.8151425189650869,-1.5714638453277852,-0.8720561340928619
-140.0,2.9944321302794155,-1.1066662246146568,-4.101098354893926,-0.9973911927811738,3.5673489175007185,-2.6329996596174743,1.310746699345825,4.307115479047207,0.5815438000578963,-6.070786128631279,-9.56639497262315,-6.636437875859909
-139.0,0.9865911445000425,9.090613405442607,8.104022260942692,-5.010111740138881,-3.616374075679477,8.57714771161026,1.9768849178120298,-3.37277855939098,-4.789631431129576,-7.336302506209181,-6.608859437874976,-6.473035633379673
-138.0,-0.4837828184754055,5.629541121481006,6.113323939956523,-2.616910804805582,-3.2768437748893326,5.855814246997741,-0.8523042671467789,-4.139435723485187,-2.6434747740249014,-6.374548315819947,-4.544750912960304,-3.021360305171874
-137.0,-1.7583977199852372,6.938924473130511,8.697322193115749,-2.5479063849831967,-5.284974234239259,7.802352083352643,-6.318787497779864,-4.9888842261723045,-1.7719900401952797,3.061515893073467,2.7526085886334184,1.6514232632341406
-136.0,0.4062763080223637,-10.939084139255858,-11.345360447278285,5.237183784273866,5.8980095257275655,-11.161283879870496,2.2207391973691832,1.0198419731661144,3.5544837955346855,11.757163056203598,8.056308050122546,9.800879010838246
-135.0,-2.8933026090944622,-10.525130582585845,-7.631827973491459,6.76358395558066,2.3943972269159044,-9.022456095119118,2.1570449395210733,3.0685633181415852,2.890190769110088,2.8727444559427706,2.5518673939514844,2.5185916070193253
-134.0,2.263163639124101,3.144088840222257,0.8809252010981146,-2.7270002277149716,0.7227084237385337,1.9884235677681854,1.419320959627781,0.8996542011110074,0.4212162781070501,-2.8975622539470214,-4.150021579978544,2.964116133728853
-133.0,1.5566859346943724,10.426055158965708,8.869369224271345,-6.0182504066002585,-3.6939460102328305,9.704671121237407,-4.728264859346748,0.8950244065324142,-4.824148083261365,-5.873491325751682,-4.794323731406497,-4.367133533496361
-132.0,-1.9754546672338145,7.521084848123573,9.496539515357446,-2.807265622224829,-5.684365956700996,8.492300899904297,-0.8722325378286842,-5.853761006564749,-3.50670740731134,-4.5856195664094415,-0.10802840265812819,-5.5470260756849585
-131.0,2.4865619819477023,-1.5942817906718183,-4.080843772619524,-0.411924186239053,3.264664350501808,-2.848223759478033,1.307660892430517,2.8668303202621876,2.294967327477928,2.1530083157120736,2.5363403868314705,-5.137150510581352
-130.0,-0.9613651749252796,-3.2057367741898704,-2.2443715992646034,2.1073334819931646,0.6248732956779204,-2.7324370911464495,-2.4944275540693064,0.34435384043285144,2.6894044824056476,3.0514146276525125,4.052314194717739,0.014808718530161968
-129.0,-8.877139053371101,-12.346051677377226,-3.4689126240062578,10.626649075474685,-2.7258218742454283,-7.916680089404021,6.363534163959439,3.8695583509284073,5.645224339179653,5.114657111257219,7.258749882400461,9.534025943392527
-128.0,0.5796411844642435,-10.939541276147963,-11.519182460612292,5.1893867816270305,6.0157273597630345,-11.246276409360574,6.367419151900393,3.4779935969787137,0.22516817368904385,1.3036658223382278,-4.291372533047274,-1.101982838790807
-127.0,5.350818616851649,0.49014646469091083,-4.860672152160726,-2.9916549952174174,5.135002262668579,-2.2145034880822614,-2.6962022181147725,-4.765436710682673,-2.076297254884419,-1.0566678734745245,-4.135255629504988,-1.3224634651379792
-126.0,3.6254717994261667,10.589393380266895,6.963921580840795,-7.097881044428244,-1.6549808364489778,8.812153888128611,-3.1741227604006275,0.30363544383447794,-1.3045023403980394,-1.9919488065011215,0.6409086012934413,6.451667244777763
-125.0,5.450062467993856,16.992303586220384,11.542241118226595,-11.206151117159957,-3.0414044874926214,14.290497588547694,-2.5658037082441623,-0.9632891059598223,-4.83957054945286,-7.066521988233024,-4.363054245625971,-3.3354286578419563
-124.0,1.83449173696458,3.96309430629878,2.1286025693342436,-2.8755397647168452,-0.14334319594657696,3.061207272106424,-4.571490893236443,-2.4924694550488793,-2.28258844435147,0.6903726439311164,0.6943406371618506,-2.941696420387935
-123.0,-5.446243389753482,-12.73490609937947,-7.288662709625982,9.12349022037646,0.9331330468436105,-9.998832686825835,-0.5802549141210016,-2.1084345993556797,2.526107296455062,0.8505845067716422,-0.40186626088996813,-2.114872495243255
-122.0,-6.969942058488622,-3.4329285989743568,3.5370134595142213,5.165005524713237,-5.226252267238217,-0.011352373407468086,0.8558479787845634,1.328659479253039,4.080732061191954,1.665606541928234,-2.0578117508670792,-1.8940014462415262
-121.0,-1.5246892939457064,3.7915624962667627,5.316251790212415,-1.1623515273929392,-3.4536639849159627,4.5746765651740295,3.7544532650027183,2.1645819693842485,0.28310822090251087,2.567944873878215,1.6095841007058442,5.02209070533762
-120.0,0.34824400745780815,-7.171119729799367,-7.519363737257246,3.3871279894738855,3.9172717761232017,-7.31818188454936,2.6878881572484405,1.019136025185003,-2.042069863494768,1.5420676740382424,3.35206041489179,-2.75931094321126
-119.0,-1.0947688293891382,2.08904035403848,3.1838091834275453,-0.44115512385999045,-2.1447049158742963,2.590146239628616,1.583359515121312,-0.4249461086587669,-0.6667634019477483,2.3938392699277893,1.3413635866848335,0.1494105756083406
-118.0,5.665018370761555,3.7338133091647503,-1.9312050615968772,-4.723190902812676,3.796273057719926,0.9373614753731638,-2.8025583350117467,3.291021550840216,1.3195732598746501,-5.92555726927298,-0.7762039643603991,0.2036299840271345
-117.0,3.763496987167351,-4.467760943360914,-8.231257930528272,0.40431435674890137,5.991782763321346,-6.390482275030054,2.4280324119361403,-1.7921186589564435,-1.077591577989442,-4.716969022024498,2.230838948834622,-2.3690456819375774
-116.0,-4.273626654412241,-4.277024186994847,-0.0033975325825355007,4.244861018711735,-2.1498364516896777,-2.1019310060595853,-0.1755359931345779,-1.2906253785802342,2.235074258155806,5.384825043908085,5.428824443859009,0.24277892710203483
-115.0,-2.6928247768113662,5.8184755242667805,8.511300301078233,-1.5977006864674568,-5.5497484402716575,7.124584492611201,-2.6107991216582564,-0.8984620027388843,0.5514342025290991,3.201020961428209,-6.229835145700645,6.751274221259667
-114.0,6.245642711739564,7.244853355036112,0.9992106432966157,-6.705619305520449,2.663853500947367,4.160890584939854,-1.6087610896282327,1.4310151888654634,1.4909444742183366,2.3342310697875885,-6.116889243338967,4.690528339928399
-113.0,6.265177803862595,-1.178954340967398,-7.444132144829942,-2.585427841176732,6.806766858736539,-4.272121120160083,-2.734200541940692,-2.558568317646088,-2.767822532150391,-3.582722080780303,-1.7349889924615747,-1.7332643803293868
-112.0,-8.830272281788119,-6.44375380752464,2.386518474263461,7.67226478575985,-5.663113302615694,-2.0680049303730885,2.183591553719589,-0.22413888120603764,-5.152869348073017,-5.531451451976524,0.39606158996583196,-3.792411169824836
-111.0,-3.9159400368906736,2.6576128580753218,6.573552894965916,0.5871570427917554,-5.224124010727164,4.574467561633474,-0.9278701597237871,-2.474806139209856,-4.126790406152722,-2.9965870248851783,4.1824565310929005,-3.1362865305397913
-110.0,-0.6326691398639559,2.295802610322677,2.928471750186468,-0.7907476139560701,-1.7598724058899702,2.645673443580485,2.9667722287960068,6.082168460342247,9.35622223161591,4.51691894888929,4.149399788288237,-1.0627888328507926
-109.0,-2.641427168266018,-4.6383110877210365,-1.996883919455156,3.6862424502214703,-0.298426324882613,-3.290401296061266,3.3427360389554037,2.809024711181638,6.877460514128579,5.410733544812752,4.518585568587466,-4.979642755297168
-108.0,4.641400702378096,-0.9928405110342424,-5.634241213412393,-1.8515660420475595,5.166926280340282,-3.372576415564504,-2.3118030055048804,-1.0090449649336002,-3.9666808436536076,-0.8267830924297574,-5.277190218033609,-4.099549132608819
-107.0,7.428606736875461,0.9343198703162529,-6.494286866559078,-4.2062040211731375,6.917908979722685,-2.7670530822561092,-0.6744973034542963,-1.5351888853148752,-2.5565393261777185,0.553805744818771,-7.11431619085121,3.7318240651620065
-106.0,1.0384889682589291,3.1735589829900834,2.13507001473133,-2.1320467159584897,-0.5859108619177422,2.66319624741776,-0.5234669082472658,-2.1167483359350427,-2.1048705711163684,1.468965512564906,0.9742213817723773,7.560659308456008
-105.0,-4.534850152803056,-1.6216935675650999,2.913156585238112,3.047303315530404,-3.7562461951444406,0.6548108931431231,-2.1133575861911593,-4.20808604472955,-3.4198520024528767,-4.004774276651563,1.0145481023366498,4.358836751577682
-104.0,-8.736991479662219,-5.892309360306603,2.8446821193556646,7.355339793996688,-5.739206591379734,-1.5099668094059455,2.747069387579611,-2.149751998198092,-1.3413522476903381,-5.004544446292033,1.944152664728199,1.808791354666036
-103.0,0.5038568090760491,5.899297398153337,5.39544058907725,-3.168070136264612,-2.3889654547043655,5.6694057173817125,-0.2610153152861688,3.042634534844752,2.8932153291278317,-0.4062292448835816,2.627249471759953,0.1341225310440335
-102.0,1.5443845864159886,1.2011747612521806,-0.3432098251638802,-1.345000008193323,0.9268284568914504,0.3815504811696564,2.6535157369680302,5.558493992814116,4.80650880033443,2.9100830931598725,0.41020970262270273,-2.1156516902234244
-101.0,5.570986634977215,0.6792606570813525,-4.891725977895993,-3.179985259282283,5.2179462754473125,-2.067267764482185,-1.202353968756099,4.708168041966051,5.523063330190038,6.990599320848244,2.594454232979483,-2.1972654002546665
-100.0,13.863477869513035,0.5186287848138231,-13.344849084699334,-7.169932165314298,13.591411786993985,-6.449022711837595,-5.598545307638994,0.9205426765925377,-0.23548947656697727,3.019278826925954,-1.6799978883054063,-2.8129599774890934
-99.0,-5.761122271242436,-2.336933082396884,3.4241891888454585,4.067365224441636,-4.608641918170644,0.5070254798605389,0.7694674990081922,-7.483719489017291,-8.300469661366908,-9.210408755064375,-7.583881793085431,-3.560772898093595
-98.0,-12.88039345715712,-1.0913410286904828,11.789052428466611,6.921925961504796,-12.357636414054562,5.386545657095584,1.154671681616473,-3.4726352782074756,-3.610147980024126,-5.074708272188506,-0.906287340597228,-1.4176232542896279
-97.0,-0.46980196897680937,-2.723239301987064,-2.253437333010104,1.60731893083226,0.9385260400724551,-2.4568818358029656,1.3591371659027844,-1.8280711202914284,-0.0470458114741259,1.4181826157537851,4.550935312718402,0.7798279265883161
-96.0,-0.9694964450491546,9.817254778648202,10.7867512236976,-4.416284031222082,-5.919243587901121,10.249079491483151,1.5570098290703687,2.6061315278044566,3.7211978124859044,7.056286323744583,6.516267345571411,0.5446706615423409
-95.0,1.468062330958728,1.0575718120505657,-0.4104905189079253,-1.2558562511251101,0.9699910969942694,0.34623080225003156,0.43261438246283834,2.5938326662976863,2.280392274999234,6.922782037207352,-0.5946383022414419,-0.29537410685497223
-94.0,-2.7865278698095293,-5.981928169367522,-3.1954002995578237,4.394478914876774,0.23153147073004798,-4.565851127409052,0.3360071902400667,0.574519321536378,-1.557525101049785,-5.166698109369398,-8.083492492714797,2.1443824343543763
-93.0,-2.59341735798933,-7.9793547849809405,-5.385937426991668,5.304038523615253,1.4227975641163848,-6.6570057827289,-0.38861707236369036,-2.3654166407323984,-2.7360038671641296,-11.908732766212275,-6.720343500482562,1.9908556202671874
-92.0,10.562582245112285,-7.485668310101012,-18.048250555213485,-1.5105210273280192,14.254363147602575,-12.816078756836754,-0.3545888245866884,0.16379923633114668,1.2130288583521363,-0.32216292758531395,-0.0620357821491635,4.100098256223952
-91.0,16.479538887624187,10.010676250003318,-6.468862637621198,-13.28498365326977,11.424326786344826,1.8039458197191673,-1.1209790036587646,6.122211254670145,7.144444935875694,10.741359438625159,14.77948662984585,7.323185832716947
-90.0,2.6405093403388697,4.358452088019859,1.7179427476807039,-3.530094583867055,0.49011049920129723,2.994267120117316,-0.11662436817997968,4.012085859337463,4.16093093578448,9.367289256154217,7.477875266220614,-0.11356219856726349
-89.0,-12.753157124675198,4.447654855049054,17.20081197972416,4.128191420994806,-14.949842099444407,10.78067290582545,-0.14989930226014023,-3.791178708322157,-4.321769800667111,-3.5437235513332572,-0.1377771847059619,-8.275857573265396
-88.0,-20.53724936707091,3.534652116049071,24.07190148312017,8.558028407456934,-22.28043446754472,13.838779631261787,-1.0391940566941535,-6.942076932172705,-9.154469265065753,-9.901065184176733,-11.52835658869815,-6.943745392595584
-87.0,-7.961572567617491,1.6419574645941153,9.603530032211877,3.1375320794507644,-8.840792119576582,5.6601935169648,-2.985644495346583,-5.506528947083623,-7.06180363279752,-8.134152055575537,-8.337981165623148,-0.99108662296912
-86.0,7.589716389191067,-6.395803338218034,-13.985519727408963,-0.5423491163891145,10.80459832442376,-10.148643354098915,0.21083008986250887,-0.4612142760927602,4.131260000259371,1.8357337263225877,-2.092996233530255,-4.480071732413241
-85.0,8.056858637369988,-6.781653772137554,-14.838512409507535,-0.664076321396478,11.46182404194359,-10.839970945016072,5.834219004267087,2.8314472002170596,7.065780357073244,7.1417369590320545,1.1301895053062643,1.5553553652597654
-84.0,11.74982108776856,-0.22943849801389327,-11.979259585782588,-5.788536231241569,11.876862628416575,-6.1266347596449995,3.161368813827372,3.883115583645156,2.1755735156479394,1.6987441229115232,4.266971887485439,0.8846664849709249
-83.0,12.617916946340529,8.361769624268387,-4.256147322072284,-10.518867197092646,8.448671424788081,2.036995243249926,-6.187949241200853,5.423043907435538,-0.6734629963176206,0.6915214591369447,5.491790098201346,2.174033689232352
-82.0,-6.139093045091453,-0.011692601102365252,6.127400443989004,3.1261454640999338,-6.199889999342373,3.045990350494527,-0.2326802670366921,3.192418280777173,0.12603856297642396,2.8717624482220017,12.029757923368104,9.310780233205179
-81.0,-12.217411475749818,-16.202892176088813,-3.9854807003388943,14.184949671661958,-4.102164009093536,-10.105061686117203,5.034211507806837,-0.40472843678952836,2.308153602156173,2.653424187780197,-2.536008535299744,6.752258089321265
-80.0,-10.869209718168385,-11.491311800906683,-0.6221020827381141,11.237696361105286,-5.106724386907874,-5.990485257759749,1.9752190693245857,-2.711898815670372,0.9855792304138986,-3.425304273778718,-8.864456648230853,0.062102353656839915
-79.0,-3.344428777996445,9.48899889536507,12.833427673361648,-3.090061136493575,-8.067850717776992,11.144959337088872,-2.4723740457598105,-3.2702543275127813,-3.994919237104897,-4.436296194208328,-8.350418855825989,-3.926912334799809
-78.0,11.460408698371754,24.826629109806294,13.366220411434462,-18.159885304320582,-0.9269400279586186,19.07473970707251,-5.767693383216147,-5.914942002049434,-6.172934890299096,-3.244688182491719,-5.729583523210452,-7.176737086292578
-77.0,6.581078046230051,4.119079556391139,-2.461998489839133,-5.368524186144372,4.473292615916962,0.87855901515589,-1.0746723816563368,-0.3471869455870773,3.208505556172544,2.3180317049903714,8.718197542013861,-0.3121829876514637
-76.0,2.0903913950250663,2.8743975791136496,0.7840061840883132,-2.5066581289634593,0.6869280077762028,1.7919198448573028,-0.9889954159292464,2.54106122152402,2.254569471123921,0.642772185485307,8.412782012948695,-5.614751823767366
-75.0,-4.225481355832041,-5.229514972388429,-1.0040336165564963,4.773508143504913,-1.6541518833025908,-3.163554199370788,0.4636044291852197,2.5400188544429523,-0.9612257969830886,0.4491972803914872,0.8768349082994504,-3.6158443462025986
-74.0,-7.199525928920075,-9.123755878842967,-1.9242299499227995,8.11978923068607,-2.6805268440012866,-5.501254037004888,2.8454933674118705,-0.36269297448277094,-0.976857679887815,-1.5326512706075055,-3.747848516447182,2.431107665575304
-73.0,-1.0987013735428737,-24.304093100232368,-23.20539172668931,12.730694993873733,11.090028719877722,-23.739330061014734,5.29679269606667,1.5947872541567392,-2.081112449660792,0.6110193176030582,-4.719341111818085,-1.4026672769136157
-72.0,0.9517305300933097,-0.6077692921865108,-1.5594998222795677,-0.14736441197443906,1.2945743128690461,-1.0722039943093602,2.336277118391426,1.317565683304732,1.9159712239904751,1.8826344786598295,2.245922492903165,6.929066319003716
-71.0,7.8299808982147,21.33050306266986,13.500522164455278,-14.557226822348273,-2.7923727460425614,17.42688485922603,-7.453738483087413,-4.74777880219025,0.9800227560405745,1.6032014042305645,-2.08074529211596,11.445251635857264
-70.0,6.711214011207905,13.989592509425606,7.278378498217602,-10.405656959995607,-0.31502488546587726,10.648633553981412,-1.8883539323128806,0.9329635300655457,2.2090999831312472,-2.217665532945863,-1.0664810120923918,-1.4894946658111117
-69.0,-7.787285499702845,-6.132191044705307,1.655094454997334,6.984265291078527,-4.749893525408593,-2.297575178707717,3.0381119689947145,0.4356326641472268,-0.4880103739069682,0.03225212871348426,-1.1673430439380608,-5.473612231935457
-68.0,-3.078119548236843,-14.869335476334596,-11.791215928097852,8.919825732896465,4.326870027051058,-13.305542916858734,4.196941674462326,7.87619286413292,5.651919162210268,6.067098897651444,7.872753328161526,0.29781988892352995
-67.0,0.25590113228019806,-4.847487831737617,-5.10338896401777,2.3198136082053398,2.7231176917009874,-4.947256646412806,2.5517726478602336,3.925671575582567,2.8688860661496616,3.3601185341998288,9.57042053109201,-1.1690765252311128
-66.0,0.3199104784928559,-0.9392841227115669,-1.259194601204295,0.3321505594046159,0.7447551683095102,-1.148534083247228,-4.015647005807834,-7.196147354550837,-6.989938665070882,-4.861691931960872,-2.9305327473286873,-5.814689784087373
-65.0,-2.0561471939219715,11.66622483822914,13.722372032151117,-4.783957417984714,-7.86666779258658,12.72330341203811,-4.734961551605089,-6.204262252789254,-6.3325180120603255,-10.468455955039484,-11.633721845397687,-4.131431288745215
-64.0,-2.0800977235627482,14.700169325963781,16.7802670495264,-6.3680331054208885,-9.41811364214202,15.689624564393034,-6.2059821454455415,-8.577967956249296,-5.168610613167273,-1.934743959962208,-6.482025724506872,0.6615138230614086
-63.0,3.987408085094469,-3.4267623089568833,-7.414170394051512,-0.2583722222175444,5.7054882374501545,-5.391919806267413,2.2253993047963547,2.2590144712574833,0.5134106369350651,0.8582393252842232,-3.0175182990703022,3.8411404808767142
-62.0,-2.3117493617216507,1.6409728204823373,3.9527221822039262,0.3599570345384821,-3.1305710538660394,2.828192840595828,2.570568078190332,4.618153501744251,1.4165013349872564,0.07893151806956977,0.63884742686584,6.333344262684095
-61.0,4.794087390169561,-6.648034563983133,-11.442121954152656,0.9549451266220195,8.120808892219971,-9.008471965608535,4.69520654617005,5.837305628171428,9.135852376062324,10.69717550954222,12.835083254918466,5.80332022034155
-60.0,6.355622390480648,-1.285735338106801,-7.641357728587431,-2.5824078759387326,7.0048333845474176,-4.499164405199457,0.9004809335914912,4.4900994182066425,3.061762854130781,4.446029062008201,4.403286810159893,-0.31358907752948584
-59.0,-3.488343528275214,-18.550890955687045,-15.062547427411818,10.974713279298733,5.797658965497661,-16.836487295968098,4.257226700615986,1.8887543435179777,1.0582836295822595,-1.6319685822395216,0.6917597769091643,-9.245818467325238
-58.0,-2.8843547455571477,-1.2426483729337585,1.6417063726232999,2.0990360674072037,-2.3281798073744255,0.17311000616149919,-2.1588365888984664,-4.265965988423488,-2.691734873552433,-4.43878963148478,-4.600968393684451,-5.793139811546606
-57.0,-6.163108724898725,4.465357743718847,10.628466468617578,0.8856344611673881,-8.381120990649697,7.599089585062732,-2.896092556553268,-2.988609509940155,-1.929282377452819,-2.498748756172798,-2.3836443619886714,-0.7745508486958221
-56.0,-3.8248844635223826,0.24935841944368775,4.074242882966098,1.7471099776615149,-3.935493363696926,2.131613237074019,1.191799454548708,0.8900197644295957,0.2878006478995756,1.2089102367484057,-1.4170155800002346,2.525664642600904
-55.0,3.9482139482664143,18.085037315717333,14.136823367450962,-10.976741955576081,-5.081390395917433,16.15327605784558,-3.5635330028296557,-2.986727161723395,-0.13982529424504175,1.1433502471216663,1.5134978373810726,7.271068457431859
-54.0,5.7648072059847735,11.258558463667807,5.493751257683098,-8.548419725190193,0.14800273975263023,8.332203968690845,-2.733035526508942,-2.508194707662547,-3.123964569370953,-0.012033281823812081,2.103248848708135,1.131222811480809
-53.0,1.8339906415095433,-6.368351272279974,-8.202341913789489,2.3112090598037307,5.0318519773602395,-7.258091029631251,-0.42587849373890474,0.9538271791911916,-3.391196471260897,-8.728483155277436,1.2471977225160815,0.07049217270255714
-52.0,1.7664749421642103,-8.057106208625605,-9.8235811507898,3.1119817025429235,5.733223595061933,-8.919447383674079,1.9551572371942494,1.478139883076397,-3.214598714929579,-1.4608112481264928,-7.539568613319433,-4.280635624221252
-51.0,-2.869560532159129,-5.001125102417666,-2.1315645702586306,3.902519702508755,-0.3468003891539375,-3.6284406469698034,1.469373174097373,0.23995901320510837,4.276705490234709,3.8146222827014467,-3.7328743929643986,-3.2519906739703024
-50.0,-3.5055035805190036,-8.364252538095696,-4.85874895757688,5.980622641807251,0.7056990061614299,-6.59635142926013,2.090236010687841,1.197850631408359,4.091169233744418,8.275856136427498,2.774672485582541,8.268182980344637
-49.0,-2.6285506236614813,-8.649456369839882,-6.020905746178563,5.605627569766476,1.6544017522512482,-7.318608995231926,2.3898618586775413,3.49889530935136,4.5771187107639655,6.02221372252195,3.7228727502394,-2.908368453076639
-48.0,2.7168405975992482,8.885057059157363,6.1682164615581065,-5.755635228082108,-1.6806399897515931,7.54716938302234,0.3183672753210063,1.5292845496058196,2.717876991742547,0.20998523784667356,6.0307023595836,1.7324479918673161
-47.0,1.297015210028825,16.12336143577135,14.826346225742792,-8.743220014967472,-6.791155138300451,15.500901135040888,-4.118844226278982,-3.269386157095103,-4.402577476862842,-9.418072536427019,-1.5590947522038086,-2.8396537681016834
-46.0,1.0756058068531427,8.614166008965203,7.5385602021124845,-4.798611507305868,-3.252718094746639,8.029444204816038,-0.7557728016764738,-1.516948717390764,-2.9226536904398293,-4.039404657095931,-0.9159834511809908,-3.1553576758081667
-45.0,0.5205373990961797,-4.247119537014559,-4.767656936110453,1.830915329566699,2.7039268907251977,-4.5493114049246035,-0.20683762952800056,-0.9647592050787333,-2.931474979320757,0.20763436662665846,-2.9681839222884423,-3.449049797277133
-44.0,-4.644565438194733,-7.450745457545355,-2.8061800193505264,6.014409262366435,-0.9392975060621049,-5.08783039463211,-0.11792980041903028,-1.2022998560043878,-1.7437062708943338,-0.04558539512614562,-0.5235859853925309,4.918817520877459
-43.0,7.376523565009876,-9.62059016745787,-16.997113732467962,1.1656517821358792,12.162095618943686,-13.344112859941259,-1.2569359776413127,-2.313734660641771,0.09650998427489321,0.005101012533032856,-2.1724813478146805,-1.8747367436431355
-42.0,-2.803104518909166,3.2048651607096623,6.007969679618402,-0.2383468489164713,-4.437421767972533,4.652229611227659,-0.5135210241909052,1.3296501289573048,1.7250799200701907,1.1697183222980563,2.1435885155207512,0.760861568229475
-41.0,-9.76824581384961,-2.33077400293902,7.437471810910063,6.08900964487297,-8.564079012701267,2.6009573362896035,3.1581220974928437,2.7982915132912223,2.0937040595765364,2.5041916499982593,1.5051026786466364,-2.4651715243818977
-40.0,1.9950665907879603,-3.0910669781590054,-5.086133568947401,0.5085601215584301,3.5722935681288863,-4.119106088043492,5.810663568187015,4.180324609749871,4.350067030587703,1.677378583194619,3.7580652399804784,7.124830978353591
-39.0,10.765814632103222,1.0329197525206144,-9.732894879582744,-5.858008393049401,10.19783346760747,-4.381949163443574,-2.620351564092583,1.3784743729351878,1.3993542836224349,5.520643042259786,2.515627297532224,6.250232132017093
-38.0,3.6454747471464133,5.036967172613036,1.3914924254668526,-4.3743986831622745,1.1532023850017743,3.1781998487009493,-3.4331231498028414,-0.8837528422902015,-0.7583441537485583,-3.215073899868991,-3.5185374797128692,0.7641821732585181
-37.0,-4.415213860660456,7.519882149490291,11.935096010151316,-1.5012550408578216,-8.146672143971475,9.763987948895219,-1.140728623722135,-4.80481577060622,-5.24235258026579,-6.194048990730466,-10.29364000142665,-6.018146205240342
-36.0,-8.510657850703213,0.5988055111479191,9.10946336185182,3.9336140915807514,-8.855751596662444,4.883745093624458,0.0057052402786139655,-1.8020710573775491,-2.982349249519698,-1.7387252613068571,-7.30300810648052,-4.81864015184237
-35.0,-0.5895818266281134,-5.464018618443767,-4.874436791815115,3.008169650437071,2.1809833739933637,-5.223894826983428,1.4939698037490858,-1.1501813556930673,0.039205193744684674,2.4461847612281877,7.137351661840087,-3.6911077298822397
-34.0,5.9091418591152785,-1.167816869257952,-7.076958728373169,-2.3883728961230823,6.45802152546121,-4.100638024557418,-1.371042788285614,1.1230180483755634,1.7393035373167907,2.1404643722612184,10.775200005410179,-1.842907719294228
-33.0,-0.1476694013324944,5.4091573590410675,5.556826760373102,-2.650636840078721,-2.8831560501240316,5.506566710877695,-0.5889165890088495,-0.49117471272731006,0.24520784218180824,-0.5328768448399172,6.391647503788763,5.284198563074918
-32.0,0.08060016644774692,-1.0104121814126614,-1.0910123478611982,0.5187764720162217,0.6366388024290992,-1.021448201738959,0.9980236318956617,3.1382554649823096,1.3166405616179442,-0.12853037622314623,1.9476632816571793,2.912007445803727
-31.0,-3.5661534198744445,-5.41387514975391,-1.8477217298802233,4.53666428550238,-0.8849905713249864,-3.67221485571699,1.7378851888587359,2.0814827829277402,4.506545687415516,-0.20910176634595135,-6.949235899213226,0.7796438669439754
-30.0,5.614051509526501,-8.228702175906419,-13.842753685433241,1.2663412075213865,9.78291057130636,-11.068857209934267,-0.023586710116051623,2.5237301562345995,-0.5353026251434494,-0.3178628718868805,-8.985359010811397,-7.144784665750978
-29.0,1.7126467190976216,2.6898952995611776,0.9772485804638213,-2.2521630586127825,0.34430386011777037,1.8855792774622904,2.3421687276340903,-1.6008383473540346,-1.2864622935392607,0.5133088337461068,-4.769703016115074,4.0212980320009954
-28.0,-8.326797839528153,11.883106934693554,20.209904774222515,-1.760240182809758,-14.291923661913904,16.022780973230176,-5.888785719124316,-7.9127631557254405,-7.310549614051268,-2.4193287250308253,-0.09094793552043345,0.5916573119612457
-27.0,4.153113841971118,1.2192790971129677,-2.9338347448573003,-2.67681990973506,3.5183850920117283,-0.8818742947788989,0.0018863635590462557,1.2775064898305386,3.3942859356042785,4.729283972427508,13.20837139479734,7.090224898592542
-26.0,-1.3088259984392252,-7.379203651928419,-6.070377653488633,4.34785205295252,2.431544290186685,-6.674983650085193,1.0171891626587208,3.7462604310039325,1.6110234879418746,-0.947964218531369,2.4660495779410745,1.8675985943465476
-25.0,3.0732004110009594,2.974674307173242,-0.09852610382773408,-3.021486842871793,1.5539005537640793,1.402427996279016,4.054626888791988,0.5113204640305242,0.9301844279438368,-2.0857789586509696,-8.96043850519824,-5.8661018614752525
-24.0,-3.529552909867816,-6.403443524524629,-2.8738906146573537,4.971878163367452,-0.2856435887613977,-4.603131200533216,1.1162151903600903,-0.12243270293692254,-1.1991387947350742,1.4994315554353708,0.5076588838232359,-7.126698229123686
-23.0,3.4577307137593367,3.985889015717062,0.528158301956966,-3.710236588115057,1.4235066404509844,2.2069145678490285,-1.9905183347712918,-0.8875785630474934,0.8876509124915266,2.6213277047557146,1.2668012018360228,-0.32513141920345534
-22.0,-2.7074418052740783,2.2150922592005435,4.92253406447406,0.26517346239977524,-3.781874824424403,3.592540470775888,-2.7452044109460205,0.15556615017582026,-0.3991977437903028,-6.780828223698226,-2.190065933123699,1.7417246038400718
-21.0,-0.09723182308519718,-0.10687581442151428,-0.00964399133643945,0.04859846621510594,-0.09295906693096101,-0.03659692618953314,-0.8854156744712365,-0.9607841217290228,-3.268235499060419,-3.5067449920172935,2.0246182884113937,0.1494180899603228
-20.0,-2.4157682442446355,-2.345735983425601,0.07003226081933667,2.409352151287611,-1.2155687264472785,-1.1150726770631512,-0.8788422803073052,-1.2213361746319842,0.7305854666921576,7.799585295698176,3.2001347827604585,-3.472600030997719
-19.0,0.7962138096681187,-0.5154773840825964,-1.3116911937503108,-0.19090695069423713,1.080618102331154,-0.9653869245001823,2.7070055555556385,1.3140622526586498,3.8249143920095685,2.6013813035922526,3.130342822965374,9.447298829892226
-18.0,5.206011948657142,1.6980338486945343,-3.507978099962272,-3.4272577547751597,4.305848250803787,-0.9499595425429854,0.7175505725377316,2.4529844130810003,1.8418727621667867,-0.7651018229517978,-4.154176895378052,1.5606191404040302
-17.0,1.2814721622173997,0.18233218859569145,-1.0991399736215568,-0.7120191662155826,1.2200633373389778,-0.4157854724729013,1.1292913607670865,1.6475181927538265,-0.884365542117656,-2.2253436342255832,-2.9859816867853137,1.8710313861569832
-16.0,1.1280223562471794,-1.2556527088028069,-2.3836750650499634,0.07931516617772333,1.7882274654931833,-1.7671238559119646,-1.270832545729144,-1.251853481240075,-1.821315082836608,-1.1850654417680662,-3.5184549150072826,-2.2170029103347844
-15.0,-1.0523175986584274,3.600776103195578,4.653093701853997,-1.2609780343379717,-2.8968695450661746,4.1101409487255784,-2.8801905020711946,-0.5319480502671284,-0.11237257489227237,-1.3419737488925083,-0.4163211296431917,-1.7891714202268711
-14.0,-7.6628045764263275,-5.591481133606877,2.071323442819443,6.562569573654275,-4.831313731377613,-1.7700523254298621,2.0937105804409177,-2.1326185811639635,-4.021865254859257,0.5538816042559012,3.9429237129953103,-6.240545756344851
-13.0,-4.488804973638458,-2.3263389190299897,2.162466054608542,3.426295512538446,-3.3685001895209945,-0.08974127309401328,4.322351862508583,-3.8744616697659007,1.4042806077170238,2.4336247999958034,3.7681610778568975,0.3319120843314871
-12.0,3.729471957988209,12.10973860537889,8.380266647390552,-7.892783505463671,-2.368363204489059,10.233499166191157,-3.911622324434113,-0.81812201974531,-0.8248452555489723,0.35927587436372954,4.093108914898043,0.3717482137534095
-11.0,6.548377806167111,3.300733712976575,-3.247644093190834,-4.96544338980337,4.934691482966368,0.005737819371404829,-1.4052136530080275,2.341519462347148,0.8748879509903673,-2.9997053484474856,-2.691724938873243,-1.417689583644316
-10.0,-3.4458114099229546,-9.803702012652364,-6.357890602729797,6.675366134811778,1.4955251160843734,-8.035886890607053,-0.9573057719198665,4.799520227885644,2.411884588991075,-0.5966120197650898,-4.11984339422614,4.1020949698739475
-9.0,0.13815730760178935,-10.795114012961575,-10.933271320563666,5.312935968478702,5.579728457173989,-10.911757020533582,3.9432809130714874,0.1808308459802248,0.43638174696824317,-0.553275709715099,-5.890229192034291,0.6422142996042637
-8.0,6.294851813357628,-4.017744156179434,-10.312595969537156,-1.1438865145746409,8.273747806306325,-7.145070647004768,1.8581625326927766,4.664374478105508,5.384107077703327,5.656989910790359,5.008719928446149,3.4323007610222893
-7.0,2.8102320545694,2.3225025922021962,-0.48772946236697967,-2.566034463421984,1.6218210972267912,0.9316297626253163,-0.3112507099095638,1.3092723154044927,2.8270657635349608,6.869557861163952,7.802152392329374,4.283959629020554
-6.0,-6.474574090453519,13.379565755320128,19.85413984577392,-3.452539305613088,-13.19234435797409,16.631490134273236,-4.510731839216611,-7.4426857155930195,-8.678593863246135,-5.615098666940976,-3.6896799618370792,-4.468380234415395
-5.0,-6.994755487926948,11.061198704761585,18.055954192688624,-2.0400378357281546,-12.558064365113564,14.578967405328164,-4.178102370608203,-8.017146273123906,-8.375780635838424,-10.15578572218523,-8.324642931989132,-11.761846404932518
-4.0,0.254683542722141,4.95993377946796,4.705250236745808,-2.6262805179644606,-2.186470120860875,4.78287224511029,3.1132040228411304,2.7299751922710236,3.3805417225521994,0.9460879512903269,0.690568962148336,2.215072770752471
-3.0,-0.7227328986986488,-6.675437634059109,-5.952704735360532,3.7435798271267884,2.6464015346425134,-6.276675971313504,2.283293558398143,-1.080655455135757,0.691827402103806,-0.11914561549469192,-0.5967418275762274,2.731797431400628
-2.0,8.974114956529837,-2.1582299751335015,-11.132344931663408,-3.457581625412275,10.07923144394449,-6.6812871833061624,-1.5111242542462744,4.670032304865975,-0.21565340377578046,2.0834122053291084,3.729504069777017,5.185223354612384
-1.0,5.568563609835093,-3.930591111978475,-9.499154721813744,-0.8022686653495041,7.478744814997587,-6.749956393149354,-0.7426143497407283,0.5464384599104308,2.925359825169374,5.4743590151193136,3.1741579320758326,3.5027826973234872
0.0,-6.884303405465949,-18.552879824629915,-11.66857641916421,12.728265712045598,2.4161516129626035,-15.070375881849964,5.026560194358028,4.371674906540505,7.397609498567136,-0.23065113972493823,4.403155210648865,3.674635962160983
1.0,-5.123252749483577,-10.242600024291463,-5.119347274808106,7.691860984458389,0.023864206205072847,-7.646604693365842,3.8915220595370403,0.4954930566930855,-0.5179186980777684,-0.6571244505585392,1.9031880012873406,-5.582425399765182
2.0,1.4448176753551314,1.2923947384524737,-0.15242293690269992,-1.354874627149994,0.7472765497438929,0.5191865027416149,-2.793273137827467,1.076515317265629,-1.4366944963472759,-0.6211562027110629,-5.799237243397056,-9.771727539982253
3.0,0.9247959709341498,12.66715569386428,11.742359722930264,-6.77417106544409,-5.381198444474924,12.228020274888344,-1.926406029551255,-2.8645177177469643,-5.049800701016582,1.3132733363749785,-4.494383706663914,-0.3871350605728834
4.0,2.762804373377085,17.6017637756393,14.838959402262466,-10.230865876933414,-6.090751193249872,16.242198419477347,-3.9612513316682136,-3.34252712682159,-1.9482235606361842,-0.5108516464147164,-2.377678260687571,0.595622185201935
5.0,4.825641942197429,12.267446894486124,7.441804952288918,-8.58916335286786,-1.2845182212058663,9.80012633785307,-0.267100720191507,-1.089141600348611,3.121652605143879,0.16488658781661814,0.29786423254544125,7.572578746677822
6.0,-9.151143297511677,1.8437686224945562,10.994911920006311,3.691804504481966,-10.051813498130006,6.44936893963506,0.8083772222323108,-0.6181729335373202,0.9139496042594283,-0.7269543360612077,8.201942827540076,6.235203640196948
7.0,-8.355412969078131,-10.413777385570686,-2.0583644164926302,9.42053894128763,-3.1285177337682035,-6.198317030639043,1.828567467152092,-0.8826353198302885,-2.699183967140883,-0.16815607404575805,2.1168803651367445,-4.397763946460356
8.0,8.288809497971489,-5.720317868977011,-14.009127366948682,-1.3324280532405863,11.16920086645325,-9.89808589977061,-3.3918214310247135,-0.7455129436376484,-3.9232795806500023,-2.390432796017689,-5.67330248586279,-7.819619353526818
9.0,6.12865663179781,-3.9779659275907466,-10.106622559388585,-1.0517655230887164,8.060380356349082,-7.07025222645286,-3.0860557024543596,1.882952768385108,2.2942821403240883,-5.468619126635258,-3.28085778060012,2.0807485460001667
10.0,4.0759628669165995,-6.768383428324994,-10.844346295241575,1.362940047994062,7.483277530887901,-8.754005057984275,3.202963628323957,3.6148892840880698,3.4759269150115175,2.4759014038238467,-5.336540480343716,1.516094201717324
11.0,-2.1753909684779544,-14.542264299420383,-12.36687333094233,8.3704452309972,5.041724748537448,-13.483796952200182,5.302454524389203,0.8516455694996041,0.10031815126098609,1.0932263509746525,2.0690315512196653,2.184763145017695
12.0,-7.809204899225655,0.5580307278330923,8.367235627058681,3.556381514005116,-8.061818336919933,4.426867107749757,4.138960330032849,0.8428313105314548,0.38367103907021316,0.9112376412090288,4.222400316482736,-1.1527073578403286
13.0,-2.9931821078018017,-0.06417092141588743,2.92901118638585,1.5400767699129587,-2.9326456514987145,1.4670034971360622,2.783163920003607,1.2535322771052948,2.4112805839581446,6.302247913721857,6.625039097263029,3.881088285918058
14.0,-1.5530746226192593,12.659893054672544,14.212967677291722,-5.5359793604903444,-7.852024979694995,13.463216454230537,1.6507066673356228,2.334313468836405,3.334780900715778,6.47430276925109,8.998295980331179,3.776220802686027
15.0,12.033149607438553,21.171945709225152,9.1387961017866,-16.575664573694745,1.4021008082046347,15.098582080827796,-10.548907052139656,-3.6467204405095073,-1.0798819179181787,-0.8684469443562102,-0.4634499922463806,-1.792088472142377
16.0,3.7620611328121987,18.779919664273443,15.017858531461355,-11.233160553129688,-5.592092518341559,16.920544708445597,-13.0967625290035,-9.265208407238333,-10.39270762022914,-10.059546918136691,-12.94677998931706,-12.409581124351096
17.0,-4.800197381507127,-4.695440564719453,0.10475681678775173,4.716562846960264,-2.4943228145689385,-2.2692625236014647,-2.029548632154701,-3.0930758950194575,-4.180894704563746,-4.739617318233188,-10.066071085344124,-8.147247792649258
18.0,-8.885015964403104,-26.8663837844903,-17.981367820087172,17.850121222394318,4.506577030781831,-22.389901948608415,9.138704063629008,2.4093713771840655,1.623622967546063,-3.2112728561260706,-3.0381503936399303,2.0569254522766935
19.0,-2.4867047870863406,-19.2505469937175,-16.76384220663128,10.843223001969372,7.176050323597933,-18.042951667221022,10.308098141837704,7.683044044025879,7.524269932874018,4.856553250022332,7.258889727906165,12.109769714800947
20.0,3.516946826746334,-1.3633381844329477,-4.880285011179362,-1.107176922964908,4.237762117418004,-3.1500137297125317,4.244803247950165,5.416392446992257,6.118008250886881,4.961838868457861,7.098768757375041,5.01221788226011
21.0,3.2767381836422875,11.936494639413748,8.65975645577137,-7.566320611324189,-2.7272601488398083,10.274152495540541,-4.163971728375954,-1.9585716473976813,-1.4400144485143267,0.3996780720721107,4.530753616287539,5.3820671505751925
22.0,3.1517718137775237,9.99381804615139,6.842046232373807,-6.540977940597618,-1.7961807787134036,8.473096490240799,-4.23071532006782,-4.466242438567893,-4.756791936004749,0.698300834374407,-1.6258504106060818,-0.7849358316986798
23.0,-1.4920793078614718,-1.525141005774394,-0.0330616979130145,1.5337258606633393,-0.7523024373667107,-0.8053206505476851,-0.1229575664482132,0.31381703020609075,-1.9600053704296752,-2.6248301877976346,1.2659099360442347,-1.0572382254140145
24.0,1.3381371204053525,-2.907856350165204,-4.245993470570534,0.8059557237346602,2.775746942107758,-3.607205356424595,1.5272310181413706,0.3031175495278067,0.7496402595148988,0.27997894058645545,-2.7580978587917446,-1.1357664169718653
25.0,3.6092945168150146,-3.4579379322261197,-7.067232449041003,-0.1349054099998459,5.32653694676035,-5.218057098721125,-2.5893040125654045,1.4069127978308198,2.325788120010004,0.7891690745068187,-4.47218777446863,-9.149686531720612
26.0,-4.770875391371222,-0.02807442441605007,4.742800966955411,2.3405054460493226,-4.766445670655776,2.398848390705946,-2.6427217192267096,0.3057297318861939,1.8154212807004217,1.3648692145730599,-2.280225382253162,-8.58734737465155
27.0,-3.588398019168965,7.26823217055136,10.856630189720482,-1.8183209598120922,-7.232174614208629,9.022740180641655,0.18515402612957654,-3.404871706839936,-3.7351305557731207,-1.0037100575029136,0.7833129886985513,-0.862297495619698
28.0,3.245364651004631,9.308070071662238,6.06270542065762,-6.25156955934244,-1.3409467314038745,7.721627977146886,1.0983584576413317,-0.6373398380830089,-0.6111474849242007,-1.2701036230455287,2.9000291658242623,2.2488194470069667
29.0,-4.30130477487598,-11.548123645490831,-7.246818870615011,7.955246865614318,1.4599602176836395,-9.444095888510695,6.720272528764711,3.4501648857178573,1.7656179091699418,1.0318945733046254,1.621257444749458,8.002948968371513
30.0,-1.5919509874319449,6.725658462841792,8.31760945027348,-2.5297372798625,-4.969124326585664,7.469669880551116,-4.081600482925444,-4.605669016762292,-2.249171925017512,-2.5585526869315305,-3.4893356704118585,4.021493968105099
31.0,0.839171954144378,2.531303032186278,1.6921310780417795,-1.720608063672252,-0.4417903886874006,2.1333168847325115,-1.8541922189629814,-1.6570872448173573,-2.16777134162134,-4.094631047303651,-0.9872590203512047,3.7848460204474685
32.0,2.8812025588678436,-7.938598496396607,-10.819801055264278,2.497409491537468,6.835080701430779,-9.360469127248102,1.5669473187395944,4.456334422863175,2.339611124273805,2.702963808849059,3.127638059730571,2.6043596937273543
33.0,4.985425831263828,-16.014848015019894,-21.00027384628334,5.484022225932556,12.978432608676723,-18.487611416780283,-0.9723197981987606,1.635881409987634,3.9522512449220946,4.292893469541124,4.022717289805181,-5.910010487401969
34.0,4.210646216893593,3.202173225889516,-1.0084729910037051,-3.6613256258893845,2.6760377980339207,1.1222910119638856,1.5951478587077217,2.1854195310814797,-0.635513767292895,-1.250753753115386,-1.5356423356012947,-7.113363575968478
35.0,-4.700379091568955,4.019530204715988,8.719909296285072,0.3013142048211541,-6.719665418057092,6.403028652419663,0.6039472559277269,1.0125992365953196,1.4949432987914544,3.622241966066161,1.7433542313960215,1.0232797884913678
36.0,-5.726933115812715,12.522840304408245,18.249773420220688,-3.364525636006552,-11.995745311160219,15.347711581948406,0.27232469032721296,-2.576219066698434,-2.39065977024757,0.11788954464150281,-1.1321512371708065,7.514179363121909
37.0,-0.10368085307757546,2.978688989739398,3.082369842816565,-1.4095909092828685,-1.6005365579089679,2.9943036975973207,-4.486089621934244,-4.566494002029048,-1.2875519002040163,-3.374657815757735,-6.545749048639633,-0.7623967460109486
38.0,3.0141107010671524,-2.1708018503669315,-5.18491255143434,-0.39788625434587854,4.088214253317071,-3.7180785219149772,-1.5926830240989407,-0.4678144771085626,-1.276012024409466,-4.372518901636024,-4.051167763920754,-7.009439063640825
39.0,-1.517388401048186,-6.288897867535166,-4.771509466487074,3.8452853888445024,1.607708882684899,-5.501390310594973,6.681094076418608,4.585458140159707,1.836001285607649,6.4748111402310204,6.55257565526983,1.2982888666961816
40.0,0.7870521051954044,3.595724961337196,2.808672856141871,-2.1724426898867093,-0.9632061989621943,3.2186055420066015,0.5277269686256894,-0.16439688116024853,1.3165216464893879,-0.6088974475248072,4.803055970512565,0.4684047072977602
41.0,1.4688873354250191,-4.617963656585439,-6.086850992010244,1.5137765935719119,3.732753011288767,-5.346826753913314,-2.460959733140306,-4.009905222849557,-2.831322359170372,-2.282866199246249,-2.0097502659908106,-2.4251713988374237
42.0,-2.6182760732612618,-5.4333246596091325,-2.815048586347643,4.044517356290482,0.11805410152154128,-4.12389278389867,-4.7865940437547945,0.2935237581651625,-2.312932902145258,-5.198475813554893,-3.1960605819741343,-2.066438035492859
43.0,-3.288481740261844,0.7851640272127653,4.073645767474715,1.2737316131767624,-3.6731367082058957,2.4322464360730254,4.052538539422747,3.8626289746091964,3.6628565907232113,4.074766803657105,3.6165597612062115,7.941187708277128
44.0,0.255223175045572,4.541229641104675,4.286006466059099,-2.369786778485155,-2.0152795289693684,4.42674824856884,4.443747268486931,0.6756515272260044,2.9745860738587804,2.593463732861951,-3.1418842300474537,2.636395283266919
45.0,10.116749443924368,4.477455382776099,-5.639294061148396,-7.260114243608359,7.875030200266581,-0.5521701269394792,-1.3124053111617657,-0.19030787364545398,-0.4673860409836399,1.9697640801120804,-2.0760528969986773,-5.379989204571812
46.0,2.0817298590079423,-1.8041187315240426,-3.8858485905322384,-0.1718727945021219,2.982141170906946,-2.8779356047683367,-1.6832589715250919,-1.5026757222080007,-0.09914909352704789,-4.008009513189505,-0.6919098441746392,0.9001248873329795
47.0,-6.2920707504203,-0.19643133687226677,6.095639413547804,3.217557776726816,-6.190886906371511,2.9310601442804884,-1.6449531683128766,-2.735578551015421,-3.8165133905717896,1.059869978268418,4.231417325032141,3.116131874843176
48.0,-4.012016920079651,-0.3434026109999384,3.6686143090795933,2.1532991424541277,-3.8311814334715057,1.6529296632213444,-2.14741168906403,1.0505336736626616,-0.36130406219278144,2.0112476987003944,4.857952735781932,-1.7092247286481175
49.0,1.6189470563128192,5.52906851392151,3.91012145760872,-3.6004954226420507,-1.1305009576835867,4.712360846390597,-3.126340566849818,1.7180859528160737,-0.08107425158191511,-0.7494416832133629,1.6760789419017519,3.5166317294833034
50.0,3.3355685879326606,1.8416625602121688,-1.4939060277203122,-2.5415449542786637,2.3555484866348415,0.16382435665051065,0.9416149158304284,-1.6687875738919775,-0.46427716572542427,-3.337654285550752,-8.222438556999318,-2.6376404652952496
51.0,2.3980552289862906,-1.2801370428157783,-3.678192271801974,-0.5181832936066609,3.060317572190752,-2.4160489119201336,6.349155939882082,1.1995175940628073,2.5970893870663265,-1.3585466142468183,-3.118335691463046,-3.6139857024758255
52.0,-6.6504740333966375,-14.27925463985704,-7.62878060646038,10.421262654879628,0.5127311473824472,-10.975228364239735,3.578603206792946,3.1745490271500985,3.6871237832308106,2.518667072736337,0.46229247664018835,-4.538325895601604
53.0,-12.760127628117246,-6.732368953430328,6.027758674686834,9.777283804955553,-9.447781154311318,-0.37701480314596925,0.02668955795589234,-3.189771828924064,-2.7497718235010646,0.39856016408986716,1.4938557909868717,-4.030707597449477
54.0,5.573377147227195,-2.615373332289016,-8.188750479516315,-1.4506843484683918,6.908406112710671,-5.348564315504205,0.9820137721123412,0.8514740431773642,0.7335773005587662,4.137758270309258,3.8359974613741916,4.640761779526695
55.0,14.445832911421391,15.785916841088042,1.3400839296665583,-15.16820069429893,6.584135159316878,8.53986078504115,-8.79262245103282,-0.9819604818002019,-3.020634842175989,-0.6830868999022417,2.4154382988401295,7.366590847747133
56.0,3.7249020856733948,11.474710019385586,7.749807933712157,-7.653515399180641,-1.9765593766329514,9.592814588925604,-4.522762336910194,-3.8757175035950464,-5.089830901400215,-5.923920971764771,-5.22079479418929,2.352378445855675
57.0,-2.4545905131980343,-1.9888189946608232,0.46577151853722576,2.246219695601436,-1.4994618452613535,-0.7769846637087792,2.820642859469366,3.301954052820052,5.137793794648404,0.2622800156583591,0.26118488204800383,1.580204407637261
58.0,-2.828762913921774,-1.5585171902393462,1.2702457236824471,2.219284433737307,-2.0882610839961977,-0.1564252865363842,4.8359201392927025,3.669919224201617,3.8839882640010206,2.6120771025886658,1.7110913089501953,-2.1657838165258827
59.0,-3.6223172597358864,-6.117007058388034,-2.4946897986521335,4.898629962562887,-0.5275308818209403,-4.237817598138783,3.829934244620881,-0.2555061163442667,1.639143764506111,1.312920384249035,2.0729304382898595,-1.4397018330123643
60.0,-4.799507563990029,-1.3030791454803712,3.4964284185096686,3.0853967926043007,-4.198005263928765,1.0853626142821673,1.5709086139423447,-2.440749853415779,-1.2156525348594935,1.3208538672336858,-2.96820378002793,-4.410044866787562
61.0,1.5058676020005946,1.411138508523564,-0.09472909347702674,-1.4975778721942254,0.8195793485467235,0.6437705791747796,-5.604992431217786,-0.522793629600299,-1.863264171362837,0.430181566287396,1.845587351123072,-1.1891942176944443
62.0,1.542122865763176,-1.80588374430791,-3.3480066100711072,0.09706504194904098,2.4560188314254403,-2.597038397518919,-3.279076628723974,-0.6288494242377094,-3.8956481194068333,-5.1590797202887675,-4.208587117719099,-3.1877243720311927
63.0,3.5640633888652857,-3.2752085754583704,-6.8392719643236966,-0.17750969308867487,5.20823831049335,-5.084964172425078,-1.739915332905146,0.13893172324067016,-3.0478117076541977,-2.3699271679448897,-1.9133450667111465,0.8567916421127827
64.0,-1.6667735148917964,0.9776518701154319,2.644425385007193,0.3893517244533722,-2.147842726120484,1.853607117680669,2.2800803827506932,-0.9637043995903019,2.2390459857197555,3.780363816934625,3.423760147138239,8.558261625069063
65.0,-4.84522501566712,-1.0172067777068328,3.8280182379602743,2.973536948689866,-4.322327653940157,1.440120878226868,4.414275376196512,1.4653659185778505,3.4493456027106197,-0.2871330428611212,2.5132060127328844,6.262517184813465
66.0,-2.745250424172557,2.904934266092784,5.6501846902653625,-0.11872585689349668,-4.173512337876896,4.227576361342743,1.2028655049594565,1.0250660002673209,1.9652258327557695,0.6491411202599104,1.8395729779817132,-7.731060985397032
67.0,9.294670943867208,1.3447476069650084,-7.949923336902154,-5.3594642540328845,8.578092572180218,-3.27699660533069,0.7085205301966928,-2.1719230255485753,0.8607175285589148,1.6633663774400975,-1.7338307229036354,-5.049602461812703
68.0,4.777342872409113,1.6156214981625174,-3.161721374246542,-3.155763292371613,3.9333679942465,-0.8263061019186374,-5.863547093630924,1.71753776466094,-1.1769727879339045,0.12900874308255572,0.02070551298463852,4.308886926054946
69.0,-3.262755559518471,2.0572774441889465,5.320033003707465,0.647889345370108,-4.244513596054005,3.716807131697707,-1.7752740579456332,0.7144884447221156,-1.8101735649677733,0.7560339675126758,-1.2421800818296576,-5.611666748455664
70.0,0.5579386420161341,4.209520704273719,3.651582062257613,-2.411050328962707,-1.5778208202905697,3.963100837654599,1.5706877978203213,0.0746587230466697,-2.376216187707227,0.2255909026972488,-1.8227586838996885,-1.6320845315811416
71.0,-2.4243733487678245,-6.663778405314439,-4.239405056546618,4.523346721174608,0.8757675490065462,-5.41453855345891,4.967272096487675,-0.026202027906939596,2.769577781224895,-2.6132855507540285,-0.07725224711727818,4.334662578926432
72.0,0.9718918380271404,0.009674512517911626,-0.9622173255092661,-0.506231971887297,1.0140737823717578,-0.5151738052873136,0.9369445084342245,-0.2991517893818868,0.050432540140617044,-3.631033201188423,-3.342387837129568,5.846034429991313
73.0,-7.053222135473374,-1.786978086362341,5.266244049110977,4.407478969021541,-6.110095619506999,1.7006004167317983,-3.3956195136604705,-1.1110388331511367,0.6965330696849923,-1.0576708336073755,2.0827862831428625,2.304165647657882
74.0,7.43524883088515,-4.988583799418443,-12.423832630303655,-1.1572124935588353,9.90607881667179,-8.748184128470921,4.639676439704788,6.626301761157022,6.490484345984774,11.771650826177439,11.461157725516228,8.281366232050809
75.0,-10.250617346776648,-7.855591599986487,2.3950257467901155,9.037971545401613,-6.338731715025081,-2.697712470029652,-4.524565796014487,-6.000527655654857,-6.066184484187309,-3.401184826730036,-2.715963078003808,-13.241770931995184
76.0,-10.430041608929573,16.242010625979923,26.67205223490948,-2.9251988085707277,-18.5596297218699,21.486407064435706,-12.543576187002799,-9.469187019297875,-14.525553532765015,-12.809631570267566,-11.996960339062678,-16.929148457741352
77.0,12.74666627135245,10.773138728227103,-1.9735275431253072,-11.783449969730638,7.3564373721591965,4.428777914454897,1.4456686565155463,-2.6579805780618577,-0.00053665229080746,-1.9405038510907588,-3.909969707753263,-4.583942259370585
78.0,16.957354008814747,-20.50298764333547,-37.460341652150134,1.7461510961558595,27.20630308541625,-28.949955288148765,18.79201773488155,15.808043760267516,18.489059749110762,19.964090891061893,15.563142595754439,19.649143448389765
79.0,-7.812156672487413,-5.9362106986937695,1.875945973793666,6.9254623804981605,-4.849520057326295,-2.0724934441162812,3.682199746074298,3.859419403769566,5.684251317258512,5.5107878800226535,3.902975229024322,14.366741676040252
80.0,3.9964948293007785,20.590461989520907,16.59396716022009,-12.240585035972828,-6.310323460436321,18.554475079959527,-8.899949941517107,-2.2817167374136282,-3.7482824500244822,-10.322183860922607,-6.715222747170973,-0.745727645160601
81.0,-1.6410032827893475,2.901333913479732,4.542337196269009,-0.6531924125849977,-3.0323622885428785,3.6869250440066184,-5.707142730170572,-4.503788423985894,-8.17891049180499,-10.190764882053447,-11.09359508106569,-10.13954982443425
82.0,-2.7618160600081842,-13.163901851767429,-10.402085791759308,7.941697908378591,3.7926097682621567,-11.738877399571972,2.917009579707667,0.8190526965600267,0.7315082991416553,-0.7827108164654959,3.5584911684867864,-1.0412787903638803
83.0,-6.5575712589959,-6.199325573039429,0.35824568595644,6.355984766216518,-3.4926055050007507,-2.8784678647935746,-0.23323271761203157,0.37798824875958337,0.17769543666404441,7.4773150235696155,8.657613559000502,-1.79249448213029
84.0,-7.488648149976958,12.084563449990254,19.57321159996721,-2.326067979289614,-13.492522003417875,15.788583396843931,-4.015692235816797,-8.160500142313927,-5.976259444270399,-2.438374106620283,-2.512764077044361,-6.854731424037945
85.0,0.8271700879181374,12.491771450710509,11.664601362792403,-6.6183643899498215,-5.384253572895746,12.11215264578158,-2.383626641302615,-1.9205127558613788,-1.217753373597648,-0.315148243422948,-5.323385740209961,-4.420786725797726
86.0,5.734815765388291,-8.756762848429641,-14.491578613817888,1.540658193228913,10.066632840260286,-11.673820553348989,4.022111423001016,1.8705608140816479,1.8551317409675954,-0.4443063101227762,1.417759592572171,3.55711482803613
87.0,12.947316306882485,-10.44315788434827,-23.39047419123073,-1.3115510532827397,18.1217821838235,-16.892736892309248,5.275744078709213,7.223193896795996,8.177670711623142,5.5683040096803635,5.601678494424364,11.027033939964346
88.0,-1.4614861918064594,-8.792996592879842,-7.331510401073368,5.140070418200947,2.9681143473800873,-8.043191121314777,3.0678457856722146,6.03808760727544,3.5475920134459993,2.052771773328044,2.082491963661978,2.1301689503572154
89.0,-10.133853499999807,-0.6365009743639267,9.497352525635856,5.397633619500448,-9.778694206794821,4.4447645249688446,-1.1904405794817778,-1.2774774858208664,-3.171601111239569,0.1515958016616537,-4.316348139018668,-5.592758369473463
90.0,1.2630275075598156,1.5528584903074463,0.28983098274759556,-1.3891720973493356,0.4508326129362521,0.8531118603867478,-5.188519047772268,-3.751042668344865,-1.2844739390541227,-2.986925183528233,-2.0267983132280643,-2.0439212756806895
91.0,-1.5236956545164315,7.236130587567149,8.759826242083555,-2.825638313075622,-5.091273421159573,8.006570386136483,1.100215499620841,-3.5978321411450547,-0.10977715265127497,-2.7116971189338432,-0.023563372610619915,4.918384285012531
92.0,0.12768524169198125,4.1863090026983105,4.0586237610063245,-2.1905721870632697,-1.9864030260724528,4.132176078323741,0.22381420812774855,2.6375629481923926,0.2954194524311249,-1.753719351056516,-1.5797919135680285,6.746626031645915
93.0,1.1512136708305762,17.12411613022836,15.97290245939779,-9.15722658880777,-7.426542926163599,16.563107692184904,-1.203545650758401,-3.8628589444283485,-3.649925990511125,-3.625428998315415,0.6616021132406426,-0.9575424687017143
94.0,2.5123900481817554,3.7764337716590215,1.264043723477272,-3.1535132796250407,0.6100481814881664,2.5431611990666503,-4.371982147334232,-0.7300731120143019,-4.997481848003287,0.13627798868386887,2.163118812986315,-5.150122502980543
95.0,2.1993328634656235,-8.201226313763101,-10.400559177228732,2.99698046650872,6.283066037925767,-9.267886494296459,1.080527138895116,0.0069658251178244535,0.3902577628111201,4.009404650054498,3.0166966744182715,-8.206221578759532
96.0,1.395413928732305,-19.688902067975818,-21.08431599670813,9.142243941252195,11.295061024410103,-20.423120660092007,3.2397496260193677,2.8531639591940756,5.2307954616765375,7.518571161840364,0.721193773070997,-5.824988667799561
97.0,-3.606359298739211,-5.238391121217628,-1.6320318224784298,4.491211939421626,-1.0200394228521903,-3.4658865311316855,1.433926270635474,1.754405530986448,2.9051261598491873,3.927328335856074,-0.43789617110426393,-2.41693504231683
98.0,-4.8768474337750884,-2.122275004475867,2.7545724292992104,3.480780099256606,-3.780079148583864,0.28655650556258117,1.3288666384509484,1.0471214497100028,3.1644566089351245,-3.8349671876865132,-1.848186801086195,7.647102508442373
99.0,1.9950890307191704,2.0434246785687478,0.04833564784956623,-2.0486728224980375,0.9208883245504174,1.091819613439544,0.6445723681926798,1.3466041881034871,0.994725506915082,-3.9505345318700824,-1.6122606746755697,9.551943154554177
100.0,1.5601295537925923,8.432973823287057,6.872844269494458,-5.036590157037704,-2.6370136009860854,7.6146338341760895,0.48893868318671707,-1.0954928538506934,-3.8354552275995277,-7.7801390823693595,-4.727886899128562,4.918953277001865
101.0,-3.2927870740901106,11.581554901071438,14.874341975161562,-4.114582503055005,-9.067560681167134,13.26344876435366,-3.539219696774587,-4.7382473522045805,-6.046316635894678,-4.218894197633322,-3.0207276476578104,-2.3338882937435583
102.0,2.5117431347303927,11.575381105265848,9.063637970535472,-7.019691293509309,-3.2592128831248437,10.352767805170124,-6.743231870348707,-6.955562217317189,-7.83806984943953,-1.9852794424195443,-1.8719286228653906,-11.978865295739064
103.0,-5.639645362940379,-23.712826558889994,-18.073181195949598,14.697571165617802,6.159334559748796,-20.937170986522432,10.435486332168729,9.979669139734668,10.378869623873126,16.395374062808887,14.507775038333241,7.107923026375563
104.0,6.338725455594821,0.5180368242139224,-5.820688631380891,-3.406753705576805,6.108596222273096,-2.6127313217464367,-1.0230337625907975,5.90917935461444,5.097869712687194,8.689200431564018,4.234989527732023,6.148971443936325
105.0,10.454606687978218,11.150603614723547,0.6959969267453419,-10.857769773252986,4.9174412307839095,5.887616356328996,-9.11755106007895,-8.307206432391173,-7.48583672410863,-12.207274783585248,-10.774471982671006,-10.484266896818413
106.0,1.856562983324523,-4.563867045357702,-6.420430028682209,1.3010836307519922,4.107295845356949,-5.446865108231434,2.8770471230433836,-1.7169075741463924,5.523403414415235,-2.450058613886725,0.9656105465897058,-4.40308879558841
107.0,-11.063289587497316,4.321620871507726,15.384910459005038,3.3999318281820505,-13.247114488663525,9.817616213819434,4.0413558145291795,-0.2938429404021552,0.13363443643670225,-1.6261362688242413,1.4709431326128328,0.7161951321793802
108.0,-15.352091336138457,-24.849791664999447,-9.497700328861011,20.13367477704053,-2.9442575659084973,-17.216652396714746,7.729717245401897,10.599247847405639,7.8925880505174515,7.987906859915382,10.903349153820951,8.310421674640267
109.0,8.978094930568826,3.9780644445656863,-5.0000304860031815,-6.440378848206258,7.053944724721583,-0.48625558347226727,-1.9739190289869581,-1.5821839413185694,-5.12181101449681,1.4006929735099296,-2.0517843799751576,0.9947624595360454
110.0,3.549817428958849,12.691705013379982,9.141887584421104,-8.155274046128575,-2.8096006243190033,10.929374143998041,-5.099070430092598,-3.487958032339008,-6.7528261158133915,-0.574941524734184,-9.106329498449158,0.8208189350101609
111.0,10.032647179678838,12.55738187025482,2.524734690575982,-11.321827598062763,3.73793592915096,7.543997228799332,-5.934584813609301,-4.674809565191883,-5.697847963683353,-5.671663227490768,-10.284021184805312,-5.22405662783633
112.0,-2.570483032931903,-15.5899317365482,-13.019448703616252,9.06129337644615,5.203642796556021,-14.305769302966887,1.7723488505553595,-0.9026589345461313,1.4250732552845116,-3.7992153399932573,-2.9935373126755627,-0.25472441104280685
113.0,-3.9369464693003424,5.348821396160978,9.285767865461363,-0.6393124864506738,-6.559907266385786,7.31950769268403,-0.2718201015800116,-0.384196564789974,3.0846725858637294,-7.958129877329171,2.876742187450726,2.457118384555863
114.0,-0.36808685325435575,10.925169667950414,11.293256521204802,-5.286431593878515,-5.864995426257994,11.121777702530535,2.1545370053190296,1.6343420654087035,2.332866381425935,3.8161359444193423,7.8036723509432315,4.0009347457824935
115.0,-10.833615093499445,-1.4268247032663328,9.406790390233152,6.1227213246021845,-10.160826088002466,4.017850146861136,-1.439684243426047,0.1317325251427901,-0.11139477878176463,3.420956903235203,8.766220577713524,-0.42303926346321985
116.0,-2.9594752741526027,-14.666450130676575,-11.70697485652394,8.801331440334618,4.407465867817362,-13.220645111035509,4.067730060948569,2.252005179895119,1.9703253184633693,5.838579003899332,1.3604237627053486,-7.794512296280196
117.0,8.135333598103838,-11.730650531483768,-19.865984129587606,1.7777678488287836,14.0324403302436,-15.817118734400683,5.224561670819048,6.445910212013388,3.680312298696857,10.237565151402267,-0.1816583332685271,-7.528675483186075
118.0,10.850337768821783,7.882853044070431,-2.9674847247513743,-9.397234856472293,6.940896161850082,2.449580651012619,-2.3931641527465457,-3.469907181487304,-0.820543005620477,2.307804446169492,-5.646517048721456,-2.0491669150935357
119.0,-0.018292514259169224,10.658634693962686,10.676927208221885,-5.282812307611501,-5.39323913070915,10.664758235715201,-4.947373750192183,-3.7909010637211926,-3.398585361649559,-6.813564748477257,-6.665981500205882,6.183810139022761
120.0,3.9243587982344934,3.072134242800902,-0.8522245554335077,-3.4691679076657986,2.343192074428604,1.1065873524849925,-1.013087089247429,-0.55679381239859,-0.7718115732109654,-7.781437456922739,2.0824231938806204,13.09861240560111
121.0,0.6644651166846314,-2.499147610960536,-3.1636127276450132,0.9421519615250271,1.9464635191733266,-2.7607382383882415,0.9963281729014046,1.5090123184252868,0.571859973772654,-7.2614123108065565,4.156079867673223,5.909797562258898
122.0,-6.291936072286746,0.4195278331758533,6.711463905462775,2.8821190371822394,-6.472531962892308,3.549507660313976,-0.47388560802386354,1.2285343375608175,-1.2024022784828197,3.0887980984435544,3.001456338423747,3.6098806513679973
123.0,-11.962260800850046,-0.564338869015559,11.397921931834645,6.29076502268296,-11.73432462761269,5.390962069398173,3.2653977078442034,0.7973044166054004,2.715327986842161,4.441490285030904,-2.33673177726905,-2.5986686175218496
124.0,-21.52827062041349,-21.76885986443009,-0.24058924401652515,21.60117803555714,-10.624155957850917,-11.041174536360835,-3.655338567736343,-4.356476208884734,-8.799642046930211,-5.834380458439641,-12.942465752061683,-19.88252048725347
125.0,18.601965314450936,7.037435734857462,-11.564529579593483,-12.785148165075011,15.099202879979044,-2.2312535297655978,1.6044961135211155,0.1424129328289715,1.9657366827808664,4.417192490504118,-0.9841432546110909,-5.563176830404794
126.0,11.993274955705012,17.853749169180237,5.8604742134751335,-14.887688338563498,3.080604393004494,11.881627416405125,0.03153072663732459,1.126675903986329,6.353257380700466,4.889223735805434,12.581519291458513,8.38800245251786
127.0,8.154702163595847,10.094258444475994,1.9395562808800197,-9.168350905501633,3.122227392492052,5.95866847829273,-0.5221118016270611,-0.6344372928413483,2.529207128528302,1.5359786148863108,7.8167196978258975,1.1575290629709167
128.0,7.887338648034652,-9.645414339444851,-17.5327529874796,0.832700545116305,12.648281692185744,-13.567805607082938,-2.6350629576295415,-0.042627818892336355,-0.9158629392288735,-1.1206220552784354,1.1818965448089127,-3.515411674736454
129.0,-9.53959782569008,-8.363982518904008,1.1756153067860424,8.981661814273403,-5.336914489895037,-3.567371678276306,1.6565861005745957,1.4418563777644655,-2.547540564525176,-2.3904433846672513,-2.226781829790707,0.299715963416439
130.0,-6.05028242970842,-5.374662073860676,0.6756203558477621,5.741331426876898,-3.3375173951133044,-2.31364066304301,4.756021962893238,2.102775163618225,-1.8023377682529222,1.939167342630354,-11.21617156353771,-0.3548743364488596
131.0,-6.133321459956646,4.434362206655538,10.567683666612215,0.8798417177272873,-8.398083360951828,7.468508896729739,0.4470424481201818,1.4477756860112687,-1.1685193652523722,-0.05477569670294069,-6.722972159306955,0.20171879143814175
132.0,-7.082692381423389,8.596927166935068,15.679619548358467,-0.8016442001369599,-11.34313625024066,12.11483003670133,-4.1290630479670645,-3.744281850967942,-2.236794303103687,-8.998273765825619,-4.891970110593393,14.226328535443256
133.0,-3.4150918903216834,-6.541069740351961,-3.125977850030309,5.017260421053732,-0.17732984690671483,-4.851196880703191,-1.7749409987365952,-3.9300573951887667,1.9970565247591237,-0.7151374192212758,8.947664987539904,7.2471573402287985
134.0,2.5096329284476533,-15.194132222656279,-17.703765151104,6.306940451923984,10.161301223038102,-16.465005175215904,3.246148421156365,4.559586105635404,6.946881564955634,5.90829360470711,14.176617002860292,0.34577087719694033
135.0,12.272679864267424,1.2539669782963938,-11.018712885971109,-6.79659798944606,11.62984273915005,-4.821892354346853,3.870100141554162,5.468454619099868,5.75810591851962,4.7758390353483495,6.951321542910285,-8.56142081542359
136.0,14.635137827721998,16.218699312742658,1.5835614850205992,-15.382313127156472,6.516517764582699,8.877829725506935,-2.2177039314994746,-0.7066664207383226,-3.4675119751853125,3.937496126192501,2.5917566670280747,-8.360074192789071
137.0,4.288784446522906,18.83287244815808,14.544088001635137,-11.598419558031974,-5.133353459028478,16.73717678245705,-5.2154038336479855,-6.015252054711887,-8.613223282098994,-1.639338524430729,-14.63116840896384,-10.388993959868085
138.0,-12.856894118252779,-7.754904822432147,5.101989295820625,10.342096894006854,-8.985286911569593,-1.364132451913135,-3.776024941582302,-4.686826452582631,-6.292430158763932,-5.851422139830279,-12.842588664305008,-4.422215590539047
139.0,-12.459092761475302,-15.435847014880496,-2.9767542534051703,13.978524320002489,-4.750640700871676,-9.251820515915071,2.3513055365220916,0.9320219904887783,-0.3029278104259463,-5.633341446978519,-5.82463007047308,5.139303026301703
140.0,-4.41189817444987,10.47085807253224,14.882756246982133,-3.081266087414181,-9.662815664824073,12.702590147109621,0.3466738054720566,-1.7547246499229798,4.592712332825597,-4.495929566635608,1.4451374533657644,7.4789727851840535
141.0,3.313654338140812,-12.919766920912766,-16.233421259053564,4.827967206522532,9.829917265182605,-14.55719959836567,5.508984688385722,7.5169784592077855,4.922569762483114,4.724107874468936,12.993076392333819,10.627606888631247
142.0,4.284897512063606,-6.560347615154607,-10.845245127218215,1.0845858033648543,7.536342029455674,-8.68815422664811,3.87667693179539,4.775410832852032,3.694456975339592,5.619434196267722,9.039254897172638,1.6926886707009183
143.0,0.6400643605796379,-2.9935527088035228,-3.633617069383174,1.2061569947693478,2.1818738244880533,-3.301685315220887,0.1816058352202803,-0.22345163507146903,1.0302278900962287,6.297632793324161,2.6680653034841857,-3.9977327037556547
144.0,4.294429988010323,5.930987933649587,1.6365579456392356,-5.076662493849462,1.291879889202192,3.716411632722197,-2.2268403554166643,-2.2708308970280773,-0.048180750759446264,5.8303947322182434,-0.4249493538546698,-5.567322437715237
145.0,1.4574314022349255,11.273573367899596,9.816141965664631,-6.399888798621965,-4.218105381470384,10.55819848778785,-3.8418280831437053,-3.079342260035709,-3.2346808094775046,-7.907829451283419,-9.413466403594507,-7.3512776630392915
146.0,-1.6159910708324787,3.986264913119226,5.602255983951669,-1.132771588731262,-3.5691269285984175,4.8122971652093955,-3.392194072177501,-3.0376046797729535,-4.66511036674169,-7.765917716812412,-4.405171167951744,8.101707578849378
147.0,-3.902908020250275,2.179212460011424,6.082120480261651,0.8407919453128354,-5.029415093672514,4.156270299141669,-3.0256576933321018,-0.09263666855542274,-3.858737153243358,-2.7812174896515147,-0.9874701512430519,4.669338772326909
148.0,3.365149663884679,2.522361729595654,-0.8427879342890869,-2.9640042071894612,2.149545617871613,0.7967398868285915,2.733592012430424,-1.507703545876478,3.9615433402323603,1.3883703181158462,0.0692434666475572,-0.32630843249548636
149.0,0.6306770511246615,-6.71680699142524,-7.347484042549959,3.018643871339175,3.9609689467773688,-6.9847921320459,3.853313747736416,1.5721469020349441,0.4195288183797554,1.0422914230213243,3.3701731302214966,-0.6076751661209967
150.0,0.5305489532535258,-10.832199633269884,-11.362748586523445,5.118597430831496,6.002334841929555,-11.117181441658902,2.4512281935216094,2.1315481573280044,-1.2246828930155371,0.5458700060061088,-2.368978810850126,-6.838472963249262
151.0,-2.928330268264354,-4.0742083014422885,-1.1458780331779082,3.539117811142754,-0.911235165630282,-2.6196976403341,0.30928946465569673,4.975181893890125,2.2720616102732087,1.9676874437047025,0.8057958082194472,-4.700413780490792
152.0,-1.276288918564085,-1.1298166465446942,0.14647227201946422,1.2344533926210488,-0.7322978542030087,-0.49427050503481684,1.7631871137730855,2.6704879318480206,5.675458521771241,7.823367821534876,14.05985353102933,1.840602044112401
153.0,-3.452471997889319,10.990665674057002,14.443137671946426,-3.739794437015939,-8.974682015926799,12.717708151916588,-2.031727176784834,-3.8176150554463084,3.2233779321387974,3.9565743562467275,-0.19056913239307338,8.204606395177684
154.0,2.146691650315922,14.257680131469451,12.11098848115364,-8.249058733061318,-4.940800196755534,13.18509084516509,-7.80389109665342,-7.538257535269028,-5.486651601476257,-7.306501908074859,-10.455660550132926,0.9069704348024477
155.0,2.8272005618004985,-6.16765443920165,-8.994855001002065,1.7078841975158428,5.860749527771526,-7.583101088375283,0.727816551094628,-0.29547544850737895,-6.345002818599798,-7.398453133247823,-9.36978726321785,-7.77339813750905
156.0,2.0624957113332876,-9.504262309708002,-11.566758021041261,3.6862799574625806,6.831291089752195,-10.541279343856463,4.712692308104895,1.7672560353683522,-0.7666976028829118,-2.0363873358360642,-1.0716536003505288,0.7359632379369871
157.0,-0.19990708889471254,-2.586380674673073,-2.3864735857783783,1.3633032720898366,1.1027945541858934,-2.496345713210924,1.816320053062218,2.575854996088926,1.055132968463276,0.6814514562671286,6.704714595817108,4.664431705850789
158.0,0.3895886158741023,3.2047410790382216,2.8151524631640794,-1.7466645188854866,-1.2032502812009136,3.074961609467757,-0.4330509403475711,3.532895252256157,2.6804170758164454,5.39568917390256,9.4336531477471,7.816586148346849
159.0,-6.192352706449433,-1.6716835888487078,4.520669117600657,3.9021813793863025,-5.339312063949444,1.407180217598666,-0.4064766147565959,-0.48382513999791366,0.6994011546030106,-1.0500864135478807,-3.20983865750117,-8.732016965845592
160.0,3.239885755686729,-8.956428154165534,-12.196313909852325,2.824976977011631,7.74872971389554,-10.597492006858634,0.18590048223190914,-0.6468094345463897,4.46053125128388,4.547968259527973,1.0426907502398475,1.5859656699554967
161.0,3.5305921525747292,-1.043649614053385,-4.574241766628203,-1.2013174904488106,4.019805365359327,-2.83439623171567,-2.365769710910914,-1.1966839289001823,-2.2759604384533554,1.463224415891765,-3.882067801163555,0.0569012558302906
162.0,-4.91212017229158,11.690155095237422,16.602275267528963,-3.348097088611686,-10.776449578220683,14.11627407510696,1.591284860741738,-2.1670012436675536,-1.4876091627496435,-1.5799821974008823,-0.5150996767949283,-2.9985821849213803
163.0,1.0937343017208438,21.397130560065143,20.303396258344332,-11.28136600627164,-9.616158139804668,20.895445936255665,-0.7800647088670464,-1.1882961798730864,-1.6270380515266676,-1.9153138656212585,2.40577142059762,-2.190701114387733
164.0,4.565274317113865,2.5491132085230817,-2.0161611085906914,-3.5882560262245886,3.2806128937103027,0.31009698889873594,-2.114739720513266,0.8596936410257014,-1.0153514447035534,-7.064694641157866,-3.455814060711546,0.6703604082780579
165.0,0.2522836795150527,-16.025577664352962,-16.277861343867936,7.9408984725712575,8.250484649062683,-16.18563572479968,-0.876977906202952,-1.3199945055003601,-1.2017073385914232,-2.0620031938998595,-4.074156634048031,0.3109064964156041
166.0,-6.531366858555934,-12.016212976761626,-5.484846118205683,9.255540650887806,-0.46665523392580965,-8.780663473568978,2.1745607956372552,0.3854911629432694,-0.22087746047254359,4.052734370399601,0.3678812173488607,-2.8688142978157765
167.0,5.210848653713665,-4.63281884065994,-9.843667494373562,-0.30350360090052675,7.497583274277005,-7.184391922430716,3.7271031915278505,5.149643320847865,6.3929588241048325,6.301256436352672,6.073650413271553,9.599403433804111
168.0,-5.150625856062179,-9.587116379368318,-4.436490523306094,7.353898475428872,-0.3130936369689139,-7.031700371417081,1.3062625840390865,3.269349443009819,2.0799868720274244,4.5788374772099285,4.383816395602728,3.827733455479088
169.0,-9.37664214359474,2.589700328620829,11.966342472215592,3.4516816381734907,-10.707950290769496,7.261141700502613,0.9892559651855302,0.2632717781380076,1.546869749547855,3.616690948685401,4.5132075748236895,-0.9906160858649127
170.0,7.873481255488234,16.576117478025314,8.702636222537055,-12.255591656942004,-0.3710209428579567,12.622222798815457,-6.153200331139823,-8.38257371224879,-8.691075505603465,-11.481878823919478,-9.135681038068885,-9.901603746193087
171.0,8.786452375820398,12.81920328141081,4.032750905590251,-10.846853558282028,2.34445269943866,8.483518289243083,-3.4866239055250916,-1.9391313890795336,-4.525230320767405,-7.004166512527105,-8.075801006040944,-8.360940305698668
172.0,4.866231120481599,2.4153648311027727,-2.450866289379051,-3.6195094454632653,3.628902410825618,-0.046312606217314034,0.2048081089719609,1.2641015845481305,2.2490677225802873,0.9396119854576028,-1.5846236219444108,0.40593687878453544
173.0,-3.3020040458744795,-0.9179008255840644,2.384103220290266,2.120836171934929,-2.8710823913641703,0.6952715555619573,0.5965273467644541,-0.7089543167643815,0.733070942122023,0.7702901855847376,2.298688708838722,4.053961488597985
174.0,-6.865242176217515,-12.362966992258158,-5.49772481604061,9.620391873031485,-0.63296933878716,-8.898596729480976,4.93886596507936,3.3543182532800992,3.9288746849757814,6.084366648780943,7.7860298304792535,13.789574015587492
175.0,-3.392686917441739,-6.938106603875717,-3.545419686433775,5.174316021133437,0.12567585281617932,-5.216924081209795,1.5175269590851377,-0.28568672557388286,5.112114359965228,4.723136543748337,6.9059341596470425,6.887412521596717
176.0,1.8373534551871704,-5.455708364526111,-7.293061819712977,1.8274948505937223,4.532786713247124,-6.431236193422839,2.901922212037938,6.2688298831446945,1.3916817726196042,3.8248480550200403,6.0809308273820974,-0.5862792256029286
177.0,3.1160367441126806,-0.2844084290197091,-3.4004451731322174,-1.4623619848730847,3.2213233546687556,-1.8188290514664005,1.2878951209860572,0.7212512284414809,-0.8516894212082153,-2.6092501294804236,-2.6606541113669593,-4.67511633297191
178.0,-2.9666627430531927,-1.2035017128118095,1.7631610302413725,2.132185516273327,-2.328960355579375,0.3090233293084518,-3.1062798152841062,-3.870443023714101,-6.703853927566788,-7.0824398227892225,-15.786880796690905,-14.299936380953978
179.0,-1.5241692940607912,7.741715688763955,9.265884982824566,-3.1281890166339985,-5.444547240320054,8.540359916576193,-7.60926192672302,-5.372551551722312,-5.391480346848185,-5.217098526788483,-10.30501018333537,-6.871968657183015
180.0,-0.15007562918926765,13.18367584657985,13.333751475768896,-6.52952473140585,-6.719271520817119,13.222708746124045,-5.486014791951689,-2.4831862876556383,-1.9608454924345113,0.6324757281321634,0.6718921983236656,0.4949562607448734
181.0,7.611841920066263,11.121763129936241,3.509921209869801,-9.379632242127649,2.0682596521727907,7.282092004218472,1.639854106425668,0.6041318523162191,2.835462294908389,-0.1944230786969946,7.149306190736005,4.8587758734598
182.0,0.8635793515284025,-2.352165814344325,-3.215745165872749,0.7252155514363676,2.0536817842789077,-2.820861333699295,5.648342524956441,1.3553600659271043,5.547720938449899,6.4000143220786505,12.3713184370168,8.571306702611476
183.0,-1.1404516208902706,-16.608837180017265,-15.468385559126904,8.924156443481222,7.177007331250051,-16.004987990210452,4.678940060534654,3.729650311609996,6.3573619586296815,5.4735800001710375,6.650276780544104,2.6627911263359945
184.0,-4.954181827257026,-16.862999716019,-11.908817888761785,10.868230897797709,3.4126133872715427,-14.36365872388131,6.609979033760567,4.405006237190083,-0.5916215997049847,-0.7045205689544392,-3.5038752167355183,1.1576301011666503
185.0,-7.259632965607949,0.462154023938119,7.721786989546304,3.4276652013099778,-7.474285611471885,4.102310215064685,-2.2722796707160366,-1.0731894586449728,-5.359082299722769,-7.552978477008638,-10.058937773218288,-6.763646592255236
186.0,9.930845648134463,10.913051701534092,0.9822060533998149,-10.399381673333549,4.493848970049559,5.947893341109783,-7.441907752442562,-1.2964183113515841,-2.897813484662321,-1.0675594594686815,-1.983602619654829,-1.8081753142113701
187.0,5.113336184452243,9.046030340422849,3.9326941559706015,-7.060395625108027,0.6130895427584973,6.482935240558488,-2.9331053735884627,-2.1093685303060847,2.8789535827265142,5.248380626785076,1.036516119709693,5.632428139733707
188.0,-9.009446879072303,-3.984910231352228,5.02453664771994,6.436367901310313,-7.070149956913713,0.5107104569426442,0.3957158314820792,-1.2252382157255117,-1.8277888436038294,-3.864503492394551,-1.2301228371473878,1.3742628086774376
189.0,1.3770987282063607,1.8107190086871834,0.4336202804805742,-1.5768170514972377,0.4992298762848466,1.1143471761365387,0.8514681581767024,-0.8098935421633053,-0.7431521120138438,-0.4810997061052298,5.048262411547354,3.23296845397557
190.0,0.4686300006881506,0.5598068911696157,0.09117689048129884,-0.49827215554987947,0.21679657707891786,0.32243271626138914,1.2201545589268696,-1.3953198941792804,-0.40366511166448216,2.5993126057863356,-0.8785618856621817,-3.5583886394424153
191.0,-0.9389029750811585,2.2723673551851955,3.2112703302662635,-0.7306090669598858,-2.1266722681307675,2.7462712219371657,1.471398981460216,0.8060761456986616,2.4188904112668377,2.9329655903906384,1.3935104877726316,-2.5127532398259538
192.0,2.5466795888989466,-3.4526641493330454,-5.999343738231978,0.4682956256823304,4.297973474056146,-4.712274656319538,3.8799465520525303,4.226774344188121,3.494169582181773,2.375302014418442,-0.46531283590952177,-0.22207941860272706
193.0,-0.7704336191720678,-2.9886942223878252,-2.218260603215708,1.898543115510042,0.7459988617245705,-2.579931190572931,-1.6691915055352173,0.9014334406902416,-3.246439943357861,-5.229169361727505,-5.0662129721327185,-8.248014407024847
194.0,3.94653721795313,-8.742117770417305,-12.688654988370313,2.4246597999881905,8.258409328042305,-10.761550275802712,-2.401118207674198,-1.2482193977271598,0.09893397181907204,-1.290207798715225,4.729228836839793,1.3436890074927064
195.0,-6.952353267174109,6.160551230884917,13.112904498059176,0.43419618087404976,-10.013996360168253,9.67649950809399,-4.05119572922684,-4.124083159478499,-2.5547720101350633,-3.7805178994169184,-5.174440729139034,-3.643366367553761
196.0,3.8353800176474,9.134368264603706,5.298988246956352,-6.5128285119202864,-0.7114273026157756,7.1825726217357975,-0.9442014977015902,0.07196581562062376,-0.16781890194889948,-1.0713105204042064,1.5588675758379527,8.085440136340903
197.0,1.6974684319900564,1.0332733446429634,-0.6641950873471894,-1.3832097165419253,1.2061344415932238,0.1533556700695442,1.730863451014917,4.582321766984771,3.509491199464004,7.63467622320397,5.597478746569168,2.666038993718197
198.0,-4.559484371599479,-1.7916010323143219,2.767883339285004,3.1623396222553084,-3.7093705354505655,0.5377152482851242,4.6527232956600315,-2.6217830961148945,-0.9681433599089602,-0.34680223675822575,-0.5686384771811857,1.9662541185762783
199.0,-3.025327641345222,-2.0490764381774564,0.9762512031676346,2.5217163026647316,-1.9582878557447583,-0.5632750836915258,4.015567129930674,1.1599598573273266,0.514273943010061,-1.9541344802549283,0.7413537797246977,4.354380993409467
