Time(ms),I,II,III,aVR,aVL,aVF,V1,V2,V3,V4,V5,V6
-200.0,7.18146614213725,-5.217101160571152,-12.398567302708441,-0.9209977300933012,9.813175046966341,-8.774720122270637,1.3945039118554021,0.1531612519889806,5.33055207046972,1.4495064316195005,-5.032476839257232,-1.4771301100515797
-199.0,30.188680362315566,-14.317228238460576,-44.50590860077614,-7.943197442941328,37.36211237573809,-29.438086939724535,-16.135184728651268,-5.2603477249461426,0.38031292315357934,-4.156481408158977,-1.3882674958910917,1.364182682404885
-198.0,13.560785746640196,1.0629706310540215,-12.497815115586103,-7.313408764053529,13.036971320502136,-5.726910704056287,9.67933170695293,13.792327149521523,10.926658246495588,11.878454916884316,14.022939104238848,10.978000081757969
-197.0,-17.729734750089534,-10.465203848595603,7.264530901494048,14.095820101277358,-12.493865968045801,-1.5983707158804794,2.0782747741700685,8.813040881232485,5.872376160728692,10.28403643998448,7.915126392991272,12.426951628175496
-196.0,-25.497333059825824,-7.943650012131544,17.553683047694367,16.71206849153179,-21.523210224257163,4.810333990891387,5.912894903760213,11.86638986294005,5.556735866441313,5.430365468979545,12.608141707593784,24.62608270770857
-195.0,-7.556119424930467,3.2688542338887934,10.824973658819308,2.12300677736833,-9.186049790075211,7.04664867363198,10.774223321559758,-6.235237158601301,-6.2034581204912875,-0.8586929949857551,6.822264465277253,13.831872735327106
-194.0,-6.427785035977784,-8.024202655612248,-1.5964176196343978,7.190761824898895,-2.4067479789537662,-4.823893176018554,-7.631286753093631,-17.641344721333702,-19.694051984641412,-19.965175928984525,-17.61852187670846,-20.479760131306026
-193.0,29.218333010396385,16.499157101984395,-12.719175908411902,-22.82815492265521,20.904533716327542,1.8584251217508538,-13.576993892503221,-6.553682014587,-2.808401767984625,-9.268523633100973,-16.72537821735949,-31.86312685131232
-192.0,-0.720929134014213,10.427486669073184,11.148415803087467,-4.830125992446542,-5.9142129100279455,10.816743424212635,5.815740511647766,0.9781794290816999,8.819795517483529,6.4274936311508,-3.1020434302283633,-20.49499159322822
-191.0,4.989372627495017,4.3921323497236076,-0.5972402777713595,-4.667417167162021,2.8196092949174125,1.9117789807618428,-8.372272551133909,2.7311516503922193,3.643909829300683,3.770738000105559,5.53998820854631,8.7474482991021
-190.0,22.008708786725514,13.180736578580307,-8.82797220814518,-17.56398181794948,15.45020010542596,2.1834355744893528,-6.4222727222736555,5.656735601407368,2.9854908629940984,7.121859390498214,6.12254585221846,2.536058419366195
-189.0,4.060595336305432,-0.02605981987204576,-4.08665515617751,-2.0533980874443847,4.031785054743919,-2.0480993411426733,22.423363839639265,10.264653461042778,7.566364464125191,12.83224570892254,10.715272733091023,20.179507533549202
-188.0,-45.23230431954618,-45.766795298611946,-0.5344909790658443,45.47580682500498,-22.38655752643609,-23.13353081369673,-7.105130271933806,-5.606274824210946,-7.661491097698134,-7.146789500996181,-5.050410347320913,7.636150540744984
-187.0,-5.734252299845071,6.475198767919686,12.209451067764592,-0.3849462433766959,-8.92789017550843,9.294685387326771,-3.9180977421795986,3.132381771305149,1.78088191772957,-5.8683021701493745,-1.3732379725468673,6.6736759055386905
-186.0,-13.465808795068206,1.014162697960312,14.479971493028298,6.215450345975459,-13.927903256280409,7.715253794571682,5.2289383053399865,-7.420776673704716,-8.306106320731255,-13.890395133409166,-6.194818786307865,-5.885611220849976
-185.0,6.017430656167809,-2.3653462087930475,-8.382776864961148,-1.83756255208765,7.165104766514854,-5.312745603161884,1.5821365192547032,-7.530323121830379,-8.224054325886065,-7.088345335054724,-7.335929720275466,-5.793982782013695
-184.0,34.708263834456574,-20.79741338149062,-55.50567721594754,-6.893179378729125,45.0683997878896,-38.15870576487151,-1.1885698041025998,-7.325443698860056,-5.201838129021112,1.518805900470308,-3.5523844302538743,-10.545208053193287
-183.0,19.68122502758616,52.31134516098384,32.63012013339734,-36.01968957744333,-6.439597016537984,42.4680045181012,6.935480684719916,19.706571905081795,24.090077421814286,29.941308565266503,23.323301045155183,10.682848472264958
-182.0,3.5310549352548364,38.447989515557225,34.916934580302176,-20.941473028283824,-15.742622660338416,36.6776974964681,-17.364471895528972,6.694621911825612,10.130253400487028,10.68129184493132,13.671313681532526,11.879717212345096
-181.0,-18.466371015199794,-11.110547796132792,7.355823219066952,14.75078442669037,-12.886605196168206,-1.8900386848007518,-4.958535932369987,-2.1877624931239446,-0.33956851476232064,-4.350826361101396,-8.244236392890727,-12.108415863831938
-180.0,-39.07233386314731,-54.38569879767984,-15.31336493453251,46.68476567592579,-11.857044962701496,-34.87424923963548,12.664874924094342,-1.946926553110131,-12.396082743521802,-17.89957527737606,-9.286530919048609,-7.380787026066566
-179.0,-0.5078288725721052,-36.39339638282771,-35.88556751025569,18.478813658122313,17.712051309381998,-36.099082232934975,12.967897867043687,-7.024543102117287,-4.72915827862892,-9.607708096502177,-7.588959018095102,0.2853306522239154
-178.0,5.133645879674977,11.320968400117302,6.187322520442127,-8.205071472604047,-0.5011320999388262,8.782037510185713,0.7238590621820267,-3.161547416236758,-2.6024231162050864,0.09946319084497901,0.15496064980559066,4.961832945433815
-177.0,19.55796792873144,36.87009699897155,17.31212907023977,-28.197046556220236,1.072328348018055,27.03111886784363,-6.9541264023331895,-1.4696730867678622,-6.943906458100951,1.6765440656018495,-9.783694144636051,-16.26869935981729
-176.0,30.388871205583456,23.097534731381316,-7.291336474202518,-26.808805906178435,18.7901526980646,7.917386269312212,-27.057352870206685,-6.949829596546636,-7.6445244034182736,-8.777550993306686,-12.146919322517425,-10.494168819884862
-175.0,-27.278584713923728,-17.265750011336483,10.012834702586906,22.283773300052506,-18.618788888737324,-3.6118526812187195,6.391240341497765,4.485028910473008,9.801920634830523,5.279721266841842,5.762699537825438,13.729831612752514
-174.0,10.373102059656087,-9.758126212910135,-20.13122827256641,-0.2943243472962829,15.275396369285277,-14.925994025294866,18.45942894349141,7.955819497051289,10.130177861632747,10.820299566212388,24.561451090657393,29.80684608848573
-173.0,-4.366380727851242,8.011157539436692,12.377538267287996,-1.8042869818135205,-8.352420914305268,10.219037622178917,-15.526768798563785,-2.968070617620974,3.27528323562255,7.909188824812547,15.18157750061021,9.067287604322855
-172.0,-8.999475391370986,11.612561155943947,20.612036547315185,-1.280747732729167,-14.866492360357686,16.064203379878872,8.457568285005754,11.438429384923962,5.5886511637301055,2.7585141745734307,-3.969166351378367,-15.73949814039057
-171.0,-7.638659895145953,-6.47535095243628,1.163308942709957,7.012931844474646,-4.380622565236664,-2.6994947173284083,15.195330530248384,-1.0954466848389766,6.724600486048957,8.378286337741109,-0.35858049534301983,-6.740088957865897
-170.0,-6.813569385668464,-22.40935464145812,-15.59578525578947,14.654141143777405,4.418244417395062,-18.964117875524046,4.723985174338324,7.3487765961145906,-1.7077652904016358,-7.338791023591571,-9.964247289600909,-5.073668880552347
-169.0,24.34802234317179,-2.943883547839679,-27.291905891011503,-10.732803838628787,25.85733258343174,-15.155478662662587,-8.226876404204612,-12.42374139810575,-16.210547437452384,-14.764244184031853,-13.402661388235481,-3.2160718838191826
-168.0,-39.74081831170803,-19.759357481822505,19.981460829885346,29.72125873520183,-29.891176066897646,0.15578968443750174,-1.3601773340341268,-5.545576311204159,-21.656584397453933,-21.2195048634095,-14.051034046498721,-12.977106100099377
-167.0,22.778245846223108,30.940267209377865,8.162021363154519,-26.889033782307802,7.287541759396542,19.600995903766588,-18.565497106284457,-7.624681277930604,8.010561364312258,9.396502426589818,10.679328261914266,13.993299157700989
-166.0,33.895441654697386,41.26111942837606,7.36567777367849,-37.53152268122273,13.249308775141307,24.29059878172722,-7.721729017497458,-5.196783445911468,11.254607267894501,12.972001462836733,8.386934736566076,8.100219680593632
-165.0,2.205931759857494,-11.861112689150602,-14.067044449008218,4.8725934213299915,8.120142645089206,-12.98144579176586,9.590101173646897,15.541490666578582,2.3632968387395596,0.3519432285930453,5.308450575323798,-0.45493676072770484
-164.0,-28.537871822075115,-24.847317876442567,3.6905539456324923,26.658496012458855,-16.058025684933092,-10.592908622331477,15.698215584826327,2.9893436822332156,5.951331846658217,5.520293978834077,2.920433312240256,-3.1251362890682053
-163.0,-26.332306639124237,-34.08079969704604,-7.74849305792182,30.25199148592165,-9.324438938929212,-20.930122642005863,-3.9442914022592976,-6.487671599172748,-7.536313078840987,-5.020010987311378,-12.428287436409075,-15.385281097348024
-162.0,28.51636775050488,34.532014509539295,6.015646759034416,-31.55672569493696,11.28531248142061,20.253760106626615,-2.045564352198696,4.859384789593505,9.693204535187338,14.135815363578194,17.205496322386757,17.004442560689263
-161.0,26.517008407043885,6.91303119667029,-19.603977210373547,-16.747971573658504,23.00668140995,-6.293621334454493,-8.433945377499459,9.489461272526167,3.0629958645180793,-5.411893673473597,-6.839071633020032,-5.768197113078083
-160.0,-48.50539545577394,-7.136591333440944,41.368804122333,27.7860561639312,-44.918865849178566,17.082146622097838,20.36676939360281,2.186548054138307,-6.147005278743893,-8.657435857904362,-3.9976365487010854,6.814859130733548
-159.0,3.3825268751804547,6.506360954739769,3.1238340795592716,-4.903424184562435,0.1452806547800254,4.8543014077637,-2.7647906763726766,-16.832270377197947,-6.85988017140593,-3.074032842441347,0.41227625466812023,4.112715635151136
-158.0,14.805887424702364,-17.345913269059487,-32.1518006937619,1.308952610875503,23.496746068529916,-24.712967219781525,-10.555680532502603,0.8420459007089418,1.2619246279883756,0.8090720985298079,1.135019427581407,1.343160483125135
-157.0,20.145053372980122,-6.816966322433323,-26.962019695413503,-6.703741827240076,23.5763775946201,-16.933579497557155,0.22602857546073984,-0.15318761442151985,-2.647249693956942,-6.05545647919372,-8.785567951973274,-9.662649397454379
-156.0,3.2357543127152137,15.899890834861193,12.664136522145977,-9.525766539540436,-4.7641346460571565,14.238068654212167,-4.775567865454248,-1.7857642053190457,-15.323056728791151,-7.773637624715134,-3.5798587327519,-11.373163247106689
-155.0,-24.532798527697366,9.567030451587431,34.09982897928483,7.451682988809819,-29.36108712844375,21.86909324408692,-6.001918188056768,-7.882281744138625,9.216273672940748,15.450762776560365,2.9982063383228055,-1.9740601297393114
-154.0,-25.552661263637688,2.4276666133897478,27.98032787702757,11.537902893640391,-26.729204902059934,15.16222844768487,17.662098787522506,10.660662497311623,20.415091267242357,15.946159263636096,13.171534163890273,14.98899407406471
-153.0,30.93868917262901,-5.958510996539626,-36.89720016916846,-12.430118657389253,33.95656151341601,-21.38912106179655,-15.156353164629095,8.039507045832314,1.4221592327126817,-5.728276435805265,-2.680896830120714,0.7872813378649441
-152.0,-6.821707680205195,9.572680809831954,16.39438849003733,-1.3910977849484,-11.648308500313357,13.024213550726108,13.279920616903814,11.408687996189315,4.275891192830407,-3.091564297707298,6.179143262657179,3.324895395653181
-151.0,-12.403190594457264,-21.339455323754404,-8.936264729297026,16.855037649917648,-1.6957872076028093,-15.17460218156714,-1.3099196534263005,-15.483564135286972,-20.11374022815781,-14.596823550069184,-6.955449564476785,0.30546770118397015
-150.0,35.318062227255254,-6.9433547080239135,-42.26141693527908,-14.20819643448202,38.74786520240153,-24.560918932255134,0.3314350678160618,-9.482838201052731,-12.15998749751105,-1.6989436905513866,-1.3762966918262869,-3.1953726579364106
-149.0,-8.244866848091046,6.002857472843738,14.247724320934843,1.092991972528318,-11.209693194717223,10.084490670638768,-6.435157858659324,-3.234356585873562,12.183231766745912,13.339602374333683,1.8455985401358959,-2.0494444033911714
-148.0,10.126477149947638,18.092378687793577,7.965901537845921,-14.066264722972178,1.0387030011785843,12.98164434650624,1.6635206845784714,14.446176972796753,11.44362451920207,10.360711998593906,3.793158388800073,-1.4894436773662356
-147.0,-4.5098832294050615,-8.400155877542359,-3.8902726481374312,6.49252301809357,-0.2711435759708358,-6.122702738444998,4.382275873849602,2.0326680674917363,-1.0828173386010054,-11.676549086289164,-14.45189623135184,-9.477097074792768
-146.0,-25.12844955024356,-9.529824981287948,15.59862456895543,17.28567057597687,-20.401345807553742,3.0483487256005324,5.658460849199548,3.0766590425210056,-6.551972220754653,-10.146914789141642,-1.053364222385082,9.997288664029714
-145.0,-22.533902665097585,-0.1498080723015287,22.38409459279591,11.37855375740224,-22.41543450307614,11.125173916224497,2.907597415527082,-0.5696486847592679,3.622158434913544,4.462682707101097,8.4134616392883,4.375639528813261
-144.0,15.050329946659527,-11.584720506498424,-26.635050453158076,-1.7708996799445442,20.80976670924305,-19.10349285659261,-18.652862685731606,-18.781427620070833,-11.983481066111278,-9.915153547047016,-13.69065124320531,-14.253767376567914
-143.0,17.254724218236827,10.991208808797502,-6.263515409439361,-14.077668576667987,11.806040807744491,2.372940952487654,-2.181285895694523,-0.2751593760803184,5.778493901005131,20.287605574373302,21.69895879523393,14.089749247848054
-142.0,-1.8743815467728275,6.379116675374869,8.2534982221478,-2.2823483633160446,-5.096444574598097,7.330851409801669,-13.78885275579088,4.4614404580367335,-1.9614762499060356,1.5894525896499223,5.632379532992651,1.025010326247132
-141.0,15.4097096663345,31.364354892750203,15.954645226415897,-23.415884993101326,-0.3074571627716445,23.67966927951112,27.343370105022757,6.977256941943077,7.04033799206271,1.9230497472008539,1.890640398658014,6.9450122356314665
-140.0,21.68430702704421,22.71580912020879,1.0315020931648253,-22.23028803589369,10.366601167641154,11.818504103598084,-1.939613339498651,3.5564042588406632,-1.215466843710014,-13.281509870094407,-14.077098115062737,-12.197250221893842
-139.0,-27.735431564668126,-28.371686166692466,-0.6362546020241129,28.09882054864625,-13.591405744604597,-14.558875826550052,-7.148560751477157,-4.238412097578986,-7.800281355189147,-9.735266361100592,-13.027011813472154,-9.16905460374837
-138.0,-20.024194870622296,-32.40199507633191,-12.377800205709526,26.25398131699889,-3.7876981348835352,-22.368037337148845,14.735239700839552,2.1803035050462065,6.975844358965328,0.5741200013940189,-9.09271867768119,-7.159024142877939
-137.0,-13.701969650001836,-43.2501264029674,-29.548156752965614,28.511741666657585,7.960072423053075,-36.37906838437312,2.306959384702151,1.4251174331316505,5.398592056659891,11.905021136130653,10.080981950785066,7.858760873901478
-136.0,25.484715571985777,4.226923892932202,-21.25779167905375,-14.90510660279827,23.33404827733981,-8.494367387067665,-5.164904868850356,11.438463116417243,7.449082456717143,18.66942807146848,26.98592559502617,27.534787630498474
-135.0,-7.798229579249787,30.67755730869163,38.475786887941325,-11.496370876049225,-23.167377154179384,34.602777099663726,3.612501956704282,-13.581470620109181,-8.744944611880435,-2.9700596095732106,-0.21662014718385514,-8.635721593442366
-134.0,1.1186123288566727,31.39024690565459,30.27163457679802,-16.2403063828766,-14.52055390201145,30.865261998860987,-18.763077772917566,-11.831249155835694,-8.825420569246301,-10.718526502509636,-4.026953407941957,-4.571351043642893
-133.0,11.169487335899625,5.175327198491363,-5.994160137407935,-8.164866975351224,8.565560407486895,-0.44513787438495456,1.0340518926080273,9.444444198941785,-1.0021678275619665,-10.01284435566588,-5.590627450711745,-3.37752653124776
-132.0,8.009696780755515,-10.393027024812605,-18.402723805567682,1.1964589533758252,13.19388242482881,-14.427598153275934,4.277214023622392,0.100675833001997,3.2659226641330292,-3.6246035885373518,-14.30185141441779,-11.577634412486177
-131.0,7.292415805145701,8.906285313594855,1.613869508449561,-8.091358425174125,2.8274004490191684,5.231558259748999,-5.7436603858802915,1.9639878094092018,2.8064960460306767,2.2505038550027345,3.0949099211078233,11.057330578656678
-130.0,-7.1456484788977175,0.3160922244784903,7.461740703376482,3.4325436525320336,-7.3185932779028855,3.8569145734453825,-19.243146739190507,-11.362593755607044,-10.397088644054854,-5.17807641171953,-7.068139918034796,-5.969205385614648
-129.0,-26.028670547437414,-7.923842978453498,18.104827568984014,17.008939283809323,-22.008593205279738,5.131337994244139,28.996122540610227,-0.15968904093163605,-4.905302623069666,-1.7181489411620814,-4.136882334935276,-6.621279561738845
-128.0,-16.549714240091394,-32.87443530570943,-16.324721065618085,24.68280108941839,-0.14016101734170583,-24.56373716655359,6.120370942226925,1.3272511905220121,4.717455564735499,13.274970201699105,12.465329513006791,6.4430741388464
-127.0,42.12247510045998,34.8346078408691,-7.287867259591007,-38.493244641250726,24.67042054096085,13.807926960338927,12.930066919005359,19.560959305279614,25.75560040175001,21.521697172949846,17.40575739538013,11.74835429065182
-126.0,-10.684387394227581,-22.61644414451702,-11.93205675028961,16.644523078605516,0.6618004590009896,-17.314859263602653,7.991171893464232,16.766663434379435,11.986077303263901,4.510898524594655,3.7033428526335097,-1.974704647818995
-125.0,-1.0966269340471597,-16.719315177451712,-15.62268824340476,8.90338551696267,7.296581439434266,-16.204015438006895,-31.227160835522334,-12.78021813732396,-14.824174478882675,-13.51897728635753,-0.34335536130856803,4.241673658199557
-124.0,11.15860394756353,7.551290635912797,-3.607313311650879,-9.365090804918886,7.335018078676584,2.0269338369040386,-7.633932511429762,-11.401570022718385,-10.550494103572337,-18.26587836817576,-18.390127705824735,-15.790722918822024
-123.0,2.6639042742578716,-0.953067881153677,-3.616972155411596,-0.8752260922858071,3.1699533356776186,-2.301025147830484,5.124256008444846,-10.1001557728568,-9.583365740200882,-8.991501956141434,-7.044220721607903,1.1287423791898803
-122.0,-8.875308009000177,24.69359329574891,33.568901304749176,-7.860107595860577,-21.271333198347484,29.118989630630878,-3.5764059709937706,-8.795399974967534,-14.84518836478796,-8.29700537116996,-7.370706701437465,-2.4635803815720134
-121.0,-11.64721310615222,36.6293569964987,48.27657010265107,-12.527391118299944,-29.930877579143214,42.438984577090245,-11.577213177884584,-11.062780338945766,-1.4057401307562212,10.707038071947391,3.7848573529114167,-3.5633546048231146
-120.0,-15.945114195145933,-8.878601501018908,7.0665126941271375,12.452887466582713,-11.550125367563428,-0.926945680612004,24.61407018027536,19.471325116943408,15.998581373054265,11.044102356055562,10.890558621368656,18.129509662347893
-119.0,-9.8319619865002,-27.825242855587742,-17.993280869087545,18.87296693783957,4.1207490085834415,-22.861687722809073,2.5679509167123875,19.175428668166973,15.2352126411787,10.962017124804987,5.613251069731492,9.435327850881698
-118.0,25.39458186287051,-19.158495811388498,-44.55307767425913,-3.146977221778805,35.02143022690946,-31.89780404863832,-4.050969350416225,8.411606182827825,13.07460604289153,12.666787950080248,9.462358392592503,3.1260190243113324
-117.0,38.7593773912417,18.129347035831753,-20.630030355410156,-28.469373946558044,29.67164126796066,-1.2222300204296417,15.333923228719375,-1.805554112644458,0.9959252116727733,7.9487816268716145,12.782450129862076,-0.6465100253187894
-116.0,-17.43259966983171,-19.72514078868377,-2.292541118852279,18.55316514890814,-7.586348566120973,-10.985200946932734,-11.370527784272769,-18.09125792945484,-14.670460177089636,-25.105425032594862,-20.221077961832485,-23.153818686562474
-115.0,-2.026215704591894,-17.307107214044954,-15.28089150945322,9.63442862812305,6.614602555059733,-16.27006806827693,-13.643058890751947,-17.03146116391153,-25.275537646942944,-32.51154359969813,-29.707426261985102,-35.29313573915671
-114.0,2.616800900550434,32.31598536211243,29.699184461561938,-17.431160337402755,-13.554413937435452,30.95721896262411,-0.9269024612910979,8.326826772116352,8.62243197353,11.498548976437831,6.629431342866321,13.946118737335318
-113.0,-12.99560888876399,15.305163196605223,28.300772085369253,-1.1327926522787841,-20.665574267248484,21.75992576404115,1.6117740872288828,9.005905791125006,-2.126314217697578,-2.9784739725158023,1.8990431679672253,12.195362459287237
-112.0,-11.917871618203954,1.2994649996170438,13.2173366178211,5.319292681002623,-12.512575881058682,7.302891380506978,3.048825146663478,-5.148721418289884,1.540256259069024,11.771751424241367,7.4798341263803145,14.162267669147266
-111.0,-6.5272939066311535,-11.461746719941537,-4.9344528133102505,8.996747302135407,-0.8267247761462002,-8.223409912874974,5.561127784396932,8.321263973110929,19.8920408019139,24.06461927365757,26.361108165589602,30.247575123676963
-110.0,-3.5213723479492023,-0.9117475727276805,2.6096247752215813,2.2163495132260596,-3.022272738988003,0.9102141796551706,-2.161516989511804,6.317972524149459,4.571754399703412,8.182742553561656,3.2009356966105322,-8.875703067870363
-109.0,19.118373511571,-4.500803359259385,-23.619176870830415,-7.305931398894392,21.330194257726387,-14.072175362268617,7.917168026275363,-4.419864849706066,-0.9335775622864158,-8.863529445371706,-7.830064108578172,-15.50739875465134
-108.0,4.955976970967747,-9.167537384374093,-14.12351435534196,2.0375766733783633,9.578973965613855,-11.656433031441043,-1.9894282210260732,-5.166721882870553,-22.13918590001349,-22.270290293066235,-18.24278323913017,-9.557824921279156
-107.0,0.3769869773446821,21.277954112477655,20.900967135132817,-10.80603245637068,-10.300914947192737,21.07480472495383,-14.833893268196682,-10.37344352469804,0.30739994556305206,-4.374575334214303,-10.394142260318525,-2.794049302626247
-106.0,-6.320957841790118,-17.622335333816405,-11.30137749202649,12.005356546975737,2.452740713038532,-14.485262983752609,1.966948805223942,7.623735911222305,5.537473997120193,3.9551985494986477,4.613054685299462,2.1713596086816382
-105.0,5.771967677050397,-0.8186216761780809,-6.590589353228541,-2.431508405001339,6.224378423179331,-3.6616200846525357,9.498076881843714,-0.2676688979761883,1.111240880679639,1.6233585627909202,4.1094732078676754,1.1924740487535956
-104.0,6.326769148871961,2.02423336858386,-4.302535780287986,-4.2008457078959935,5.3596485818135315,-1.1882917277532534,0.059324466414343746,5.558700130741027,-0.3546420511619037,0.25018043108871435,4.833778356615646,-0.3253204608674771
-103.0,9.856837738297306,21.56335471341694,11.70651697511988,-15.73241596241353,-0.9568051312497561,16.65326305372799,-1.8641413582296262,3.3505584823734917,8.903354507736402,6.464646114785495,5.332029173722311,-2.235341321695381
-102.0,-15.188845763990765,-7.861847662744198,7.32699810124679,11.50006679536975,-11.288340667892793,-0.2556156771865563,8.671405765870217,-3.4495490799034307,-2.3511270975874465,-0.9124517250123816,-3.5980950736005246,-1.271004068001866
-101.0,-20.35372541025796,-8.645946520543626,11.707778889714387,14.46664650579255,-16.059926189537247,1.5422703013891153,-4.336150073643191,-3.051739011735427,-7.54818730928747,3.268827663477638,10.28678496444764,10.230412518229958
-100.0,2.4213941063941196,-1.5650573923321032,-3.9864514987263417,-0.3927955051211427,3.2543848251104848,-2.759394381622257,-9.429825467772234,-5.043854214465138,0.669655465582375,0.3828234707878244,-12.302638898049825,-8.010115390927716
-99.0,14.371987744163974,1.8842954451846015,-12.487692298979546,-8.101873974259707,13.480566882482188,-5.277218880246842,-11.516573321860253,-5.733541534672743,-2.4708606967325997,-0.11226124787884606,-3.1447512985710953,-4.359599973131525
-98.0,-0.40198792284279783,-14.290195088095405,-13.88820716525272,7.367116582682247,6.714134319962834,-14.13545843914823,8.717884557922268,14.302587939374881,3.8785550288620225,-2.200575752497878,-0.20733008766406824,1.5277235723067895
-97.0,-3.2095182961021678,-9.448533697870356,-6.239015401768146,6.3499328968933195,1.482885964684943,-7.884945631341162,7.7697644290815315,6.943488789408509,4.819157972852655,-0.487954754359893,8.599661674300119,19.230852204451327
-96.0,-4.789278023589314,20.768416599210934,25.55769462280041,-8.042848088378634,-15.210527512795124,23.20147799771634,11.09784371460101,-4.163003650894165,0.1666372424134268,-5.436559048940891,0.48128823824158395,7.277507621254097
-95.0,15.573731755362791,35.66423827916462,20.090506523801995,-25.66466426817834,-2.2237611325563025,27.834259927348025,-7.027010678401713,-7.355503716675248,-5.357846676674123,3.1070552628234775,0.1959287425284214,1.1522093998270593
-94.0,-6.0214458409763685,-12.036350807403007,-6.0149049664265615,9.070490486629588,0.02347212118638585,-8.994272538680484,-0.13723248116306896,1.0993881684369082,2.772256608028529,-4.577447025444748,-6.218514399348589,-17.126244423860648
-93.0,-3.600030752246062,-12.291391114977136,-8.691360362731084,7.9947363001176575,2.565159935566032,-10.463139734733824,-9.802337857057,-9.820586467838314,-9.18465880286944,-5.8988145176458975,-13.041321397917558,-27.25129210545237
-92.0,-1.2220554135174857,2.468205008481707,3.6902604219991737,-0.6480303728712382,-2.520686181954564,3.1076519668647453,-3.845753227031535,0.8793878007366072,4.519891809297158,9.461851767822782,2.927318485960069,-4.81783625466081
-91.0,4.746484927670554,-14.710228883249684,-19.456713810920267,4.958141601026796,12.11347055147375,-17.12934201046646,3.0062982369418534,11.712826227366477,4.2175485308714125,5.335795540680097,10.566485842660649,17.81508676703047
-90.0,-13.426313383289541,-23.183902880755056,-9.757589497465556,18.279129460588923,-1.821538768198757,-16.508150174972652,15.509163269652358,-1.0178886387866326,1.3801385036290221,3.725596442761178,6.473793998421987,16.46034775758466
-89.0,11.085441843228123,0.10021560313159128,-10.98522624009662,-5.544683035227233,11.052073269212045,-5.3899061583803105,-0.4752262645885281,4.53204847868651,3.4203680953185347,2.133558160063624,6.279018826133221,13.528119568385616
-88.0,9.755923330360549,5.851780407971462,-3.904142922389176,-7.8396142756941485,6.85255566822265,0.959897283302154,-0.5119026885279365,10.767546958491383,8.707499277930804,4.439113996859138,10.137997741074845,0.41057993386506375
-87.0,13.605236019994424,24.57464824747509,10.969412227480605,-19.050638118506125,1.2677100669967523,17.769199138061456,-9.735493174116723,-9.431035514451477,-10.430282220861612,-10.356633136000509,-13.613290033505837,-14.021587336905618
-86.0,-3.7046804519040295,24.280843618224154,27.98552407012817,-10.328241479186923,-15.811918827927604,26.138152641009746,-9.859104105018783,-16.512471203937206,-13.815378227186924,-8.925996943300863,-14.026972214211657,-16.46155992372021
-85.0,-20.72909160335831,6.513111525422671,27.24220312878097,7.149290667884181,-24.029002833781206,16.885290346020824,-6.362794730715129,-9.084034369273464,-12.162158931289225,-11.39245277105111,-15.043916213956777,-8.12593424403411
-84.0,-22.32334616734548,-21.880033634556217,0.4433125327892169,22.069561525757692,-11.34818216387037,-10.714310475213132,14.62785115170498,9.921931527247978,7.749968281560248,-3.2496349313829977,-1.3834066968487422,4.560476362822008
-83.0,-15.018544352725836,-28.82647991702722,-13.807935564301516,21.975138676557087,-0.6506472373786788,-21.322924572225933,8.141800523963788,9.903124041072552,17.094401418461526,15.57522660922043,16.276496362684657,17.99101049860787
-82.0,11.985625242214102,1.4699646600575704,-10.515660582156752,-6.749713327106134,11.282374065127293,-4.5429766074942,0.6790304247846466,6.215876334658337,13.551512185663022,14.455165853835453,14.469646284680397,12.103656363924907
-81.0,22.50445908673513,7.81577566916514,-14.688683417570294,-15.181824114247213,18.62818389910671,-3.472683856101348,7.790231630311904,0.41974781769505487,-3.0503389028293686,4.652367123598662,2.018544498558013,-6.629508546417217
-80.0,30.652392062900134,9.981966160530078,-20.670425902370333,-20.34370689735583,25.61651299874623,-5.315728888148188,-2.196257939537036,-1.480237769346607,-4.94677514554034,-1.8099211247776452,3.648846721432576,-8.75118923728866
-79.0,4.426716928884925,5.471249212743623,1.0445322838586044,-4.905987263900748,1.7293117577135853,3.2779489244255307,-12.361326867971947,-9.160106936601172,-11.244780652400458,-6.8640820183056075,-4.301360764976096,-3.2511547542206376
-78.0,-3.560811179781208,-1.8894587408192063,1.671352438962141,2.6779408670155833,-2.651349999057119,-0.0898652288198436,-9.053328332931756,-4.205625390702483,-6.499902403448404,-10.095880959356084,-12.263999876546059,-6.1576222983294
-77.0,-16.953728013022022,-7.843868228237608,9.109859784784666,12.419742745367234,-12.983975825589056,0.6585883597824678,-7.621553098954316,0.9270710576241266,1.3562206245314568,-7.358848046495919,-8.92534800140094,1.0070919988969886
-76.0,-14.583053564140707,-1.7570496589266587,12.82600390521415,8.184033518741632,-13.733857847224895,5.492436313657163,5.770666695317418,0.8312197853292617,0.9185197604416216,-2.3523767853294775,-1.6554360016092868,8.490141747200157
-75.0,-7.523891832090113,1.9642093851338738,9.488101217223942,2.7920718054497424,-8.537595499465754,5.695967112316481,13.40490359312528,5.170012610581951,1.013543232680556,5.261686108782237,7.817492502895821,5.072635436779936
-74.0,-20.492518944818922,-8.921766027610671,11.570752917208107,14.722556369824673,-15.990623969815468,1.3815538403009526,8.765879561696227,6.499946384350789,12.037248862274218,18.736421115685015,16.43056001404711,6.418545447663911
-73.0,15.644539918875843,4.631903062026108,-11.012636856849799,-10.116653127973208,13.282082856986865,-3.209854373738078,0.37669612278475473,2.5178123100139764,6.378566017059257,6.066656341157266,-0.22199229271273602,-8.13311903715756
-72.0,7.321535970143586,-2.8845098801285864,-10.206045850272117,-2.269344344369541,8.786763109254968,-6.569782222633147,-3.2480895504971397,-12.404603971424741,-13.712329250935323,-18.303520741519634,-20.901994659861277,-19.913690382239167
-71.0,23.191033417930107,33.44198148633341,10.250948068403455,-28.363157344078637,6.485566368892412,21.811096184266148,-5.621213518875228,-0.10682038359229651,1.1084187834014818,4.551964878146882,3.1730565071788366,10.075937054890868
-70.0,18.958217906237792,2.3687915545364966,-16.589426351701132,-10.630364453691643,17.78552723513829,-7.080429201783222,-10.945677843097668,4.093788154145271,1.1984942712991562,-0.7571031511481285,5.251871729502387,4.095406448352861
-69.0,-29.95019456541786,-37.24151296411344,-7.291318398695529,33.62759181265791,-11.31711496706116,-22.24870009260747,6.9021515431072125,-3.98951973708275,-5.221985730859574,-11.30473365072171,-2.3242868282446354,-1.5955418983005654
-68.0,-10.825214069621163,-1.8113538465180632,9.013860223102904,6.269318167991461,-9.98116672139852,3.6113763670688837,-3.377247352805015,0.9588332178391168,4.244486984688033,5.552197546012007,12.823679274673724,9.704451661108207
-67.0,-12.579364790685382,9.623916449240731,22.203281239925605,1.5071654896752316,-17.366272865941376,15.92212718986526,7.394755482953111,5.282425115513212,4.618533585736719,12.10338704303612,11.435069246118342,13.552279556463716
-66.0,8.011485217717835,-1.277398542152881,-9.2888837598713,-3.3348378300878947,8.684850835027994,-5.271028384580167,2.1653783994793345,-0.3224928708984738,-4.6759334446024905,-4.588757441295844,-19.09232020041944,-14.151421113002549
-65.0,18.559706018259444,-19.193779825920817,-37.75348584418062,0.2765749696779587,28.12230558236092,-28.45528190988279,-6.4067037276253735,0.4754757365705752,0.8766149314029668,-5.325922379763778,-12.741600938560081,-15.480375218328232
-64.0,-0.1938389805991756,9.712054381885666,9.905893362484932,-4.712593114356465,-5.075515532594046,9.754457749719018,2.959683721952218,-5.764104204261507,-5.989153956432974,-3.4025572138159066,1.3326526274043253,1.742328842184361
-63.0,1.6012493860065622,31.097774256941417,29.4965248709352,-16.373501811509875,-13.88803355632081,30.246042043761772,4.286183154243781,-0.9710192613967672,-3.788618413596179,1.9413973369228459,2.916032249906009,1.9944490625502664
-62.0,8.505669983979644,19.338342290455095,10.832672306475914,-13.940022672162074,-1.1788276641127453,15.113719630504075,-15.791000789575328,-1.44949944171273,4.252785063405028,2.8708455691939863,1.3783968092460692,-2.541817089754174
-61.0,2.1680082699811773,-18.33603302062985,-20.50404129061064,8.068039041424633,11.321774954704907,-19.392764636117136,-0.22153100310327467,0.8886720902633963,7.077105738717951,0.9095355757229857,8.392794309032457,7.4243350685269
-60.0,-25.37992553031029,-28.53478037775199,-3.1548548474414924,26.938932113076355,-11.128010111599218,-15.817855894408076,23.77020430582524,9.189926467519435,9.795306581188811,7.4453794395760555,13.95939990138914,15.891954313792533
-59.0,-10.615279659217578,-6.078855491574803,4.536424167642741,8.400963881592332,-7.594020319473965,-0.8209054411676426,-6.479440778025003,-1.5174506212546501,-6.103640804030989,-5.121773908903178,-3.0628642732287474,-0.16631881766278855
-58.0,2.0254886630514433,-4.359459393645252,-6.384948056696858,1.2116553266197805,4.262558549306508,-5.338085557400092,-6.243946758464025,-0.465415549130924,-5.476352155477705,-2.651358628188596,-18.525329441751254,-18.715576230082966
-57.0,13.416545345320054,14.533250386286342,1.1167050409659192,-14.019487777396188,6.125321666838501,7.866180479273203,2.679154110895675,-1.9141593110014186,-4.967132051682262,0.48425514582854534,-3.9350146001412396,-3.898535913708635
-56.0,-6.964860476926525,-0.3948397619483295,6.570020714977876,3.6251685258880215,-6.716389907597997,3.0571528402931047,-1.4727217471178882,-5.1833062504101015,-3.9421538321265563,-7.904474380952144,-10.486482324252801,-6.12071023328283
-55.0,8.641600569529192,6.2245735824059585,-2.41702698712338,-7.416819342216179,5.4982205127893256,1.878309285934968,-7.254735721809591,2.9612847153465194,5.068432808808016,4.120859903925505,10.63265684791227,8.91352498102482
-54.0,12.981373467386067,9.320814640657751,-3.660558826728244,-11.138541869902461,8.28588951014053,2.806186959648229,4.168624304625039,1.4578761441994563,4.81819698790728,4.679506420974302,14.597165187484094,9.060823989397704
-53.0,-8.69121452740868,11.09710443508105,19.78831896248999,-1.1889021765188446,-14.279130126241572,15.41695198787491,-3.3017940897228053,-7.547210669866415,-3.810459381830423,-2.833472854614759,1.132745774142693,-0.755284584780445
-52.0,-0.2804717257295435,-12.900816484777433,-12.620344759047585,6.611182837393314,6.205662005339028,-12.711410363182193,3.3451051504796245,6.623226945665957,2.458042197826843,0.12576793012282136,6.470118344956076,6.052494083067099
-51.0,7.026615884531454,-16.946702020960895,-23.973317905492145,4.990330385760426,15.533705769073237,-20.41492436099974,13.035734184733847,10.06017955946811,13.015345396222243,15.230271475705498,8.129506668965442,7.805617365313671
-50.0,-3.0304491028418785,-14.798361210171016,-11.767912107329156,8.876112466123981,4.4025467419042394,-13.319959516463083,-4.41917026746939,-2.9483402791266915,-6.939535306904393,-10.137041861902198,-17.311585589599222,-10.202034368023552
-49.0,4.711835968736522,36.07783804577696,31.36600207704029,-20.425398416138798,-13.370609093471584,33.761787025163486,-10.117198491785487,-6.2027840001427865,-10.215803129824272,-6.484523339785699,-19.615549133202325,-17.356535160885535
-48.0,-38.106297700769815,-18.322661172657,19.78363652811256,28.1874467705172,-28.908613576754586,0.6900111099495927,-3.424739326094049,-12.80975529912445,-14.546791066281116,-13.26024505998997,-11.517126023715157,-12.422444230753893
-47.0,18.30432121497026,9.295440796527549,-9.008880418442901,-13.74888117457577,13.613391792727501,0.10090872885386082,0.7119335888661902,9.154174595976471,14.33941573923481,13.355254135699951,19.42073989065021,17.18858197991405
-46.0,-4.072182387370081,-2.956033376848019,1.1161490105220042,3.4829110859932095,-2.6409135234074386,-0.8860147657738563,5.361957874723328,6.016396775342811,13.29296440470732,10.565573107161512,15.290905182090242,8.501468027649121
-45.0,3.5119631694615236,11.986184625455525,8.474221455994062,-7.705401820065359,-2.454820095470069,10.261641232567804,1.4698572280255369,-4.330546829063567,-4.289346977115606,-5.221850040090246,-2.4045470675604204,1.8428405883509615
-44.0,18.204180840586112,4.386051303363093,-13.81812953722278,-11.332422566251527,16.03127989594678,-4.764785384243107,-0.08689907489265347,0.09765534499085438,-6.305873023098373,-2.8177842960961863,-0.30730745894381073,3.3085993406790943
-43.0,11.752723677277302,-15.68774520492315,-27.440468882200246,2.0094753285626448,19.611952585646204,-21.53329861033788,-2.343785337087846,0.0031823640036810694,-5.188629078182474,-5.142393466379195,-9.47397814807039,-9.228757602256067
-42.0,-21.724527146170097,-24.99664682665723,-3.2721196804872434,23.326838117742085,-9.212968870941923,-14.178568878214826,15.406838664611001,8.919469403723614,11.576772734164049,10.498519079530922,6.2330140883896075,2.522005876060239
-41.0,-3.730259226070432,8.018431878930443,11.748691105000397,-2.094928436289962,-7.725636028246935,9.924576738710384,-7.099441923423757,0.5000456739221224,1.8308925220135,1.2926254435197821,5.089724705601352,0.8838932904234618
-40.0,13.357795474855212,10.253838379804279,-3.1039570950515873,-11.832075665561211,8.168391073940933,3.623623891262733,-12.978188549800088,-6.263941500511263,-7.36801355438163,-10.734776056982884,-0.8421701062924858,3.3566034620897245
-39.0,-15.658683816528367,6.880004190243628,22.538688006771565,4.363947177740494,-19.07943962462421,14.68568301059234,-0.6558670939449502,-12.81301156932046,-8.318298384908017,-2.7405967791219696,-8.046742927608667,-7.66839621433197
-38.0,-6.477808238863451,5.580583817212216,12.058392056075654,0.4210191388604314,-9.24627406943761,8.798271161912105,1.8509416831746863,4.675155396986442,5.0253638348289975,4.556860561201308,-1.0611164750248525,-1.5190447073238431
-37.0,-1.5181002219012352,4.35517477900387,5.873275000905489,-1.3719125815677824,-3.750708350235584,5.089718247211607,7.670477644264221,4.6115724734965475,3.3329528454010036,3.23035692684075,-2.8224299834466096,1.4989944593377185
-36.0,19.218705021793966,5.906594347342961,-13.312110674450341,-12.599891217007462,16.290734905221072,-3.7362495239685414,-0.2599915012235936,6.543132457462242,3.255536206500982,0.9094811491468826,-6.46023824524253,-2.6594018486038395
-35.0,7.158615146403678,-17.131282047076546,-24.28989719347966,5.024139257576394,15.751543630320276,-20.677989547720376,-3.576258292459548,0.47037830107816436,3.1106199832556083,5.7835552596692485,10.492814718092307,2.9637837312260116
-34.0,3.1199457016385246,-0.27481667448664915,-3.394762376124916,-1.3856117113617805,3.287507564378412,-1.815238257051531,-4.133263705092204,1.2908046853992443,2.446007722562065,0.5107559832799047,11.611742194552663,8.2454370844735
-33.0,-20.442892309338838,-14.564465579481759,5.878426729856881,17.464278694261367,-13.205295263098257,-4.333596157852984,8.280920902260187,-7.849217455438725,-9.325893703561414,-15.597236713855235,-9.233253760719002,-13.493605425113874
-32.0,15.631827371140583,16.648734942136564,1.0169075709955593,-16.174646582116267,7.267772785746267,8.837229198821998,0.5625065908184195,-0.3274505063316995,-5.203908496452563,-1.874204021529077,5.405623330324961,13.644707085577373
-31.0,-25.252770457148998,-2.913300886940804,22.339469570207736,14.133856963040335,-23.751349494669164,9.718096031491624,-1.2009083140639674,-8.851246673048161,-6.835960922118531,0.09440044859520436,-5.416158060759423,-0.3680490761490285
-30.0,-3.375392956601557,1.0101656154978524,4.385558572098962,1.1611325948306568,-3.9083032797265425,2.708082738037146,-0.027238911483808748,5.168513387884744,9.724520014772123,15.833205452312132,-0.1251420399688521,-5.616945728316398
-29.0,-3.032226201517736,2.136523425595277,5.168749627112746,0.43161860949608577,-4.0435171282492215,3.5920894442357074,-5.232586939518669,1.432278993604703,6.348795776240632,3.928996797140578,5.1787347848579195,6.57085777837389
-28.0,35.31936720663827,4.929508788145758,-30.389858418492544,-20.137512128540465,32.83787015342164,-12.70303519827947,-7.401420247415791,5.033493409632924,1.6125939563401346,-5.953764601099054,-9.796469775740636,-9.647682381652938
-27.0,-3.496708363982206,-10.902235162061613,-7.405526798079196,7.265629123963646,1.940544360546367,-9.196867226182627,19.212144670038903,9.695634744526966,5.261722401963179,-2.508197780485157,-0.4396742401927023,-2.45897584632682
-26.0,0.3097552562744066,-4.16082074005097,-4.470575996324925,1.9104082953797497,2.376016755790494,-4.272298925180128,-0.24713833987043987,0.30147004434735125,-9.156528837566885,-12.511704953766108,-5.840317881555871,-6.034421413354115
-25.0,0.21516799003132325,4.2599409744248256,4.044772984394029,-2.2582412509647987,-1.932829539451518,4.201994581814382,-8.039732428759425,-3.358585943651357,-2.16914843743061,3.5290011108737778,9.689536446920298,11.392452434973197
-24.0,-4.620862727713981,0.37537637857402406,4.996239106288404,2.093976803709328,-4.754945569197267,2.6610880781314052,3.2638538643787824,-11.161263036717,-1.7977271990100734,2.8217861979456416,-4.931779929386996,-6.916521267125781
-23.0,-16.856176196932974,5.337654288472351,22.193830485405535,5.799859672735944,-19.55943862732229,13.743116180378111,-15.294495773472649,-7.357389075696305,2.371620883127312,10.396124598924496,3.2074615256186556,2.0108703931533918
-22.0,6.591141405966019,13.707629739709233,7.1164883337429465,-10.196433471726252,-0.2282991619300958,10.389110512704754,-0.3010353573926219,3.096955287230492,-0.539849661322203,2.868525885919717,14.14783096203984,17.145642896817105
-21.0,3.1855283474222436,-3.1441538722623386,-6.329682219685264,0.004509638545906469,4.704329618471608,-4.7620849876210105,11.750755957904511,3.6534479212366087,2.9578925422773117,-1.5163341425625627,9.668965412956643,8.756050300183476
-20.0,-7.741156071825672,-13.527994717274487,-5.786838645449647,10.657010169388082,-0.9579721538324488,-9.606878868446728,-4.9414468990409794,3.5100238108083923,-4.835032974335082,-11.775636052462707,-20.461728444601132,-22.058920988934776
-19.0,0.02530252442572678,0.5603133615240719,0.5350108370980635,-0.269134824214492,-0.23820150483920166,0.5954830929202899,6.9894344142972535,3.934753332911007,1.6591223085257218,-1.8137647597895592,-6.498034728606392,-7.533024057369641
-18.0,-0.4125839577989323,-6.371580067854999,-5.958996110055769,3.341266819601089,2.791480934531771,-6.197852514952518,11.413166454582509,-2.464861455426462,-2.3290437194282276,-1.5176894387344357,-6.118654504270347,-4.615934708005187
-17.0,7.514300187460985,-12.409784726285077,-19.924084913745194,2.4811048813648737,13.663969990683944,-16.19986895206892,-2.499411382602471,-4.450948954185166,-2.6918791098490744,1.1513374668743186,0.440713313028283,8.662324855830478
-16.0,10.200778509889947,8.298795286265513,-1.9019832236236347,-9.290637342578197,6.082371738175962,3.166143919315303,-10.605292057628642,6.340360120913146,10.363974378813268,7.676560288358262,9.377112584701276,14.359889589472534
-15.0,4.162392316732379,27.5051155685259,23.342723251793878,-15.793761587015377,-9.551548205893052,25.47169367158624,1.9366342539005847,8.249097901914254,11.369159129374214,11.925542583497261,8.920932238654853,2.28979067434879
-14.0,-11.525182354369052,-4.648952801501901,6.876229552866983,8.047387672340259,-9.23527104373029,1.1627402249590997,-6.398189495641148,-6.684612546911442,-8.012886616297523,-4.036540760283842,-3.7119605934615025,-13.974570539998268
-13.0,-2.1377936643008617,6.6250641013549325,8.762857765655285,-2.20794927711664,-5.483204579280755,7.664993700028497,-0.3755839024096903,-5.430899615375456,-5.775160734260689,-7.1689496809856434,1.9867608060558823,-6.5690484752735365
-12.0,-7.187987963799665,-23.932538885448277,-16.74455092164942,15.512827004722249,4.821065119235041,-20.36805696663123,4.187534054184696,-4.645893119469839,-9.993332267901724,-12.30555734859977,-6.339129847217811,-3.1665615768834163
-11.0,1.23807568103385,-11.898420197644304,-13.136495878678774,5.358025765811342,7.143764594273819,-12.548833341987017,-2.307966775955194,-3.659451693675481,-6.404171417296949,-5.8943522192068105,-4.624426077136068,6.389338042331236
-10.0,-2.0214944963577186,0.8997314693011536,2.9212259656585937,0.5878536870167315,-2.4467679772504085,1.9552781247434456,-3.084540072057411,1.524368222323837,4.469381019246656,10.559247328655417,0.15671707102488996,4.872418832050727
-9.0,23.462895075058675,16.72726419869292,-6.735630876365424,-20.14435721256025,15.112165528685733,4.959667407943107,5.930348338909282,15.836690480320586,20.99325683486242,17.052938997064267,11.352691012883978,10.02777631648442
-8.0,8.352047304724964,1.830840828537097,-6.5212064761869195,-5.056525708712442,7.438915141122456,-2.3034064461494235,-8.421357305530025,-2.6996694550061235,-0.005328858268665471,-1.7447252120114598,-4.528885247576316,-3.874177748404003
-7.0,-17.572682686741768,7.022975186369981,24.595657873112877,5.31653346488913,-21.089625298400232,15.851983681578135,-0.7184239710938125,-6.652803646499578,-7.302197361329212,-5.592093676027073,-1.7785147390758884,-0.8817074889365024
-6.0,-26.42481539870154,-5.964410948892626,20.460404449809587,16.16331407017374,-23.4516941341695,7.214031758962143,22.1598287624384,1.1581128022807818,-2.9250760945550516,-4.867134991057679,0.7547872265608611,-5.691429279412008
-5.0,6.314300840172432,22.501452505598095,16.187151665425827,-14.436493497779713,-4.944395108194383,19.312716221517956,-0.1458289790424976,-3.6799646366709173,-0.9295982080207685,3.1958109026958104,5.919586525422802,1.9097061139068519
-4.0,-0.5489431545195314,-0.21369208463333145,0.33525106988580067,0.3513109185459524,-0.44422817145861426,0.031018086851774207,-1.5129778927308628,7.997752477968334,4.74236027985407,1.1059017024593734,1.540548641722537,2.1757917314730792
-3.0,14.517767897638992,-18.063745388777438,-32.58151328641704,1.8168778749367172,23.557318586387723,-25.272586766285844,-4.851127045469529,-3.8575625639737052,-5.634264656662692,-7.2853300885574175,-12.382608503165752,-8.166725609894108
-2.0,-0.831352494998395,-48.45194256996642,-47.620590074968526,24.600421815587726,23.414526119576983,-48.06432628987113,-18.51450122582727,-1.9665575743975976,-4.548578449611768,-1.3958337916350112,-2.2489112701488088,-2.385143349044242
-1.0,11.802748530346802,6.424213137220663,-5.378535393126356,-9.081400987260265,8.622996252496492,0.5743093660438863,-13.130938607965762,-1.5825414321648819,-1.6087339632198605,2.066039959730062,1.9360381321299758,-0.8619434483574804
0.0,3.324492541665565,46.642986313535836,43.31849377187034,-24.954342540374842,-20.033092776984063,44.95463833653633,9.607555588081393,3.772917841830293,7.996947751336528,3.4821330975958293,5.033452097569118,9.524221929194576
1.0,2.570072048566084,-17.397998788226893,-19.96807083679274,7.443941688467277,11.239382372199383,-18.707776690150677,27.53983905873609,11.99934053022211,6.864768876129968,-12.304670800449383,-7.753061827216363,-3.678118782964363
2.0,-28.77198814484593,-37.19243257629546,-8.420444431449305,32.93637938573672,-10.20343934277015,-22.751463441372387,18.456651651474587,1.1742776680469689,-2.073763320931069,-4.49289755197186,-8.661595758603251,-5.438194156645309
3.0,9.224970617815343,28.312846238383003,19.087875620567885,-18.811154704328,-4.881779757433607,23.676571349893173,1.6657292304713192,-7.211888376994139,-2.4147023634608384,14.82499903176855,13.108467613202874,10.449397675813692
4.0,-7.440664870169917,58.32170194636831,65.76236681653855,-25.401443791435234,-36.63357127793195,62.017047131855826,-38.88377889115461,-42.02781178796486,-27.009218155840035,13.095455456557723,18.989422626689823,7.487521116064247
5.0,13.023997699575897,39.82728929024397,26.803291590668508,-26.46473102037671,-6.84565004599772,33.28836177236863,-39.06971258821903,-6.949851244845441,5.477092665609277,11.545479586272632,13.119921949817464,7.22815645260503
6.0,0.8549888834953396,-56.32613299058605,-57.181121874080866,27.77369626540754,29.060654977223184,-56.70349793976909,12.705517301380521,37.620927028056656,26.07286424009501,-7.12437401980404,-7.613705680237295,-6.090510518466937
7.0,-13.356364866915394,-42.02433141231252,-28.667966545396805,27.725256058897386,7.619488979064048,-35.37513249980192,24.270973107587096,26.821953883509025,11.205146162319554,-19.923582950610562,-20.726681760763785,-12.209205856503683
8.0,13.363085980441564,-13.209326087784277,-26.572412068225812,-0.12488207249653982,19.93176478216037,-19.839607709339408,24.248906107070372,12.37456486692895,3.3398937820463903,-7.916474113043407,-27.862566625671022,-30.107174117621753
9.0,2.396682534574871,-9.316983962229635,-11.713666496804827,3.4866646535900383,7.019304213528168,-10.539929342314327,15.00559960141207,-4.13295449094061,-4.83115760750915,11.22030332068861,-0.7589987097359145,4.5252116936475595
10.0,-9.964321049610117,-9.949597619587127,0.014723430022664089,9.901402306638953,-4.9468867668272605,-4.98922846820318,1.551610800899101,-5.82963919844002,-0.4850829698203718,11.141742679564839,15.565583914871691,24.288889760746013
11.0,1.3009144601024412,29.18575305927677,27.884838599173733,-15.221525064976863,-13.24952955483877,28.593027201431934,-19.16597100165395,-40.88483462485987,-25.667654283006087,-5.845029539244294,14.288496689925362,19.848407258033973
12.0,-5.002931640173565,34.57968513546437,39.582616775636794,-14.765230145381343,-22.328728464557354,37.05719313780184,-16.693037477291984,-25.08645725744856,-18.736493814091553,-9.476852418439291,8.672812188171031,7.844530738088073
13.0,15.286183413351548,18.659099121038555,3.3729157076865484,-16.94525768889411,5.921798055181107,10.984867426149936,-13.96820664306842,18.58184381480777,3.7185585183434284,-7.022272563758406,14.935991203546251,-4.092455179230313
14.0,-15.618595343839672,-9.837468561301183,5.781126782539226,12.683176212891025,-10.65446956281087,-2.0695924760703406,-2.143644555328639,9.315620951073468,-1.9164760997191532,-15.317696524712705,-16.034214988571996,-32.32324358423375
15.0,13.22294107915877,-1.3289016963718847,-14.551842775529385,-5.905582362133573,13.933674622694342,-7.913735742151071,14.553788085047183,31.57918007173785,29.09183492973111,6.31570243268933,-19.00156502434855,-17.780150377549663
16.0,9.412005151798256,7.255468442995156,-2.156536708802527,-8.363813947340669,5.750965061365395,2.5683236641115954,-32.12636331658319,-9.056742130365915,9.94259443984459,25.408825022689598,3.0298293427536045,7.406853329717604
17.0,8.740163185145747,-6.682303360721232,-15.422466545867445,-1.0529404177691788,12.044716028040556,-11.035811114133223,-5.959420073495814,-18.360084369314507,0.30187189989240437,25.83072154745085,9.938380919697707,24.70953392319477
18.0,-24.55450830721643,-71.3985383619361,-46.844030054720385,47.95734068587212,11.10271027276195,-59.10084959866198,60.97773949484908,9.260996721826109,2.474832278895221,-5.34099461622108,-3.512677976894784,10.986046188231818
19.0,-30.4554464565231,-50.70362559827578,-20.248179141753486,40.64327270768338,-5.073098173103765,-35.44712525783412,53.764380985978455,28.59157277698648,5.879817646591125,-14.708554301574186,2.623562425844192,4.222703777619498
20.0,9.233858586736805,39.46237240041585,30.22851381367851,-24.358901563552372,-10.47164799790184,34.80498489812037,-22.676911341928005,-8.590713434535154,-11.575651780967394,-8.528307389635843,3.8334438810584337,-4.774176101146258
21.0,24.29517933030165,62.54349603277119,38.248316702469445,-43.42555302947534,-6.952860650157155,50.362612225016726,-37.61894468715832,-15.411672760313424,-12.19567855451436,-5.4551918218919315,-13.188462218593557,-20.799102252288062
22.0,7.217578431276733,39.408409609279644,32.19083117800407,-23.314737710118873,-12.461706561886764,35.768920448237424,-25.85315521107242,-5.89504289907557,-6.89185313349277,-10.591503893974508,-20.160596237058556,-16.335235861499406
23.0,-3.197261792197409,16.588029727151582,19.78529151935043,-6.693844321283768,-11.541812392847662,18.232685985731592,-8.768999720190877,-13.531693404633653,-3.6375879191484177,9.750214494100156,1.789149297589253,-4.16047221305398
24.0,3.268460818178808,-21.0942497079799,-24.36271052615802,8.91515392451361,13.847336813197856,-22.765884943201947,9.22905481191188,-2.280435737776617,-5.226636291992122,-14.976451559686401,21.506931108502528,31.607131792737484
25.0,-2.778035172157189,-29.351720300979544,-26.573685128822863,16.06410761173902,11.853072363995519,-27.925739672168422,1.4020159098642235,-1.401889392836643,-8.626021857618355,-11.619162538177997,19.99535403174501,20.753013803419645
26.0,-18.974979734646602,-5.532839009090303,13.442140725555255,12.24580614657635,-16.25275090755501,3.99012390671011,-13.724508150669983,-13.760395360356172,-7.594219411413571,3.9043742951953293,15.958668475433706,-1.5138746892782766
27.0,16.85184740222001,-8.632402275493696,-25.484249677714878,-4.129100791787213,21.202376438391333,-17.099038927788037,15.904021106420394,30.72389985303636,31.30986083122231,22.789553126111144,-14.074679471443394,-27.135712674126225
28.0,-16.147786761847797,-19.67043456507949,-3.5226478032324433,17.954571746463312,-6.277716307396634,-11.552543637833958,14.75588927474232,30.322333817104955,52.641086368919254,61.90348049630551,-14.968062852510668,-29.782404295715803
29.0,21.951215736682983,26.35832571348783,4.40710997680482,-24.20260428426223,8.809382241787205,15.355220615031332,-1.6861074162447558,9.941819611992106,18.441218894822256,34.10038809877923,5.596908311424688,20.64998774959141
30.0,12.96799443554012,11.244131198286205,-1.7238632372531093,-12.088089563990339,7.308990330427859,4.738537327058072,11.605194390210015,-13.690194466276786,-34.124662681095245,-44.818893886505464,7.3657730438884474,41.66076754067717
31.0,-28.073039698751224,-50.12932871983385,-22.056289021081547,39.10973191913763,-3.0400330149040116,-36.11205536241052,3.8813392294082507,-27.304471958488765,-45.5335888967772,-66.83879437551725,-22.666502926401282,-9.18359992103903
32.0,-11.959248943107397,-1.713498855006372,10.245750088101698,6.840117851486171,-11.051285045443349,4.323398971220515,-7.373342003048956,-22.498998994082243,-32.39237561282429,-41.89428870324139,-24.717711232936967,-26.569783340580866
33.0,2.037721704818799,12.95673872097832,10.919017016159522,-7.4936414814792425,-4.467122481511346,11.909955104464736,8.330515236099945,1.9196063609402927,0.25563299990819743,-0.8695709701779712,0.5092709217523833,-6.697033207700776
34.0,14.113696735314399,28.967074181486637,14.853377446171574,-21.533262799709497,-0.39942551017349714,21.87317825279231,-10.666570466026586,17.31238824213342,25.17916079401493,31.486635862443286,22.25479436986238,12.910830663054243
35.0,11.107416482051605,12.51527666969243,1.4078601876399368,-11.798492383099525,4.891782199375907,6.99364691202641,-20.072749634349506,19.896453367110038,23.506841103753356,25.540918516902984,9.797042325901376,0.27395386238741004
36.0,-20.72324985437683,-6.138915304189677,14.58433455018652,13.371747290953337,-17.70038551804722,4.24680801516256,3.817290368175561,-1.0987647327090606,6.9668871870327,18.789345938435318,5.857956019912397,-4.333787212036623
37.0,10.7701946912549,18.79825598444556,8.02806129319039,-14.758109751727893,1.392883135184017,13.432417960218899,-9.842707865036704,-14.998638595912112,-2.3667600155969915,10.194136322586004,-2.3180680885973466,-3.8330197357995868
38.0,6.227494860895782,-5.311323042725811,-11.538817903621291,-0.5037417125376393,8.896466028401429,-8.48571013032285,3.716438265474637,-9.345464779424463,-4.990515869736093,-1.4220453362982894,0.8429318612372532,11.131943921788972
39.0,10.693417805504307,-7.063070870857903,-17.75648867636141,-1.774253998727339,14.233330415689156,-12.389440118209578,12.414178131839119,5.779353016494831,4.003440281302473,-3.251548482606437,4.664640823707056,4.405542961134657
40.0,1.7445902830590676,-17.43650316850964,-19.181093451567904,7.895811951285166,10.470568343723635,-18.283694411564277,-7.865988122145401,3.462960248141539,-8.311701492181268,-16.912000342262203,-11.818104629974016,-17.06839627359738
41.0,-27.161976000062793,-11.587102977651075,15.574873022412248,19.355033006299294,-21.3573892643138,1.9465128894085506,15.90259874275652,3.5633966201821083,1.7877838559766275,0.2621848334407524,9.158273434781673,8.812385798794175
42.0,-12.464248046407889,-10.743623028036767,1.7206250183712417,11.592618480766738,-7.153830501999,-4.473300328855307,6.461600188318011,-0.2092825489752237,-6.140469489401752,-5.353243630065251,-2.734449899620982,3.808803175313357
43.0,10.766332839075428,13.132000785368186,2.3656679462924632,-11.95556259583013,4.225969076901568,7.714869235461146,-1.4580339685207426,2.2349710322205634,3.3114272478551507,-1.1941870192502702,-5.5109173129779725,4.177722137270162
44.0,0.6361606851179573,6.8303362428361165,6.194175557717547,-3.739568823906521,-2.8227571809441816,6.562820024906884,-2.1200982211712383,1.8498304820875786,3.6566443936282553,-1.4106793306587262,-6.795728612370572,-3.2151651289994305
45.0,17.981746385734038,-11.207812659890816,-29.189559045625522,-3.3983665696074095,23.63026311276016,-20.222263149387288,-1.1655873243636927,6.2052230704788585,0.8066203625677784,2.7973347313817234,1.7972640725122533,3.6645173867259087
46.0,1.7338140751834477,6.982335766368717,5.248521691184736,-4.378472094885748,-1.7040652379380443,6.095152281621679,-11.45833583307685,-3.967452910633154,-0.6436800249015312,1.8754585632419434,4.804099846395763,0.11072866112814594
47.0,-3.252232424983853,4.008841446234632,7.261073871218378,-0.33042896284676626,-5.276094419047331,5.616767186584142,-5.818999364506333,-14.077226961267444,-9.367397519054379,-1.2341312374793536,-1.767291044780868,-11.58310434408852
48.0,-6.987237843165035,20.722377627017252,27.709615470182463,-6.907587032078735,-17.366454884644668,24.277657411790987,-0.6074367868020234,-9.133893686370953,-3.828769535774318,-0.5729147986325409,4.233513057048937,-3.004754310893169
49.0,-3.739201300976692,12.309319609624566,16.048520910601603,-4.2519220440976415,-9.916443036519587,14.162130745180084,-2.3611456940142386,3.2047963338263563,1.9980782565599862,3.611961138499284,1.592586741366227,1.4194662353523257
50.0,-5.9703892429583325,-15.986129540761727,-10.015740297803045,11.01021200997738,1.989646588914175,-13.018239794384773,20.643239606096234,10.181130608490722,6.915475411901263,1.821120900776441,-3.124608502135011,1.0416654034754083
51.0,-8.76154613071204,-17.452278762050902,-8.690732631338642,13.06263822966843,-0.004185397517672662,-13.090351298130043,4.893847400483519,5.885508826772764,8.665440258344836,2.7553478341722624,-2.2068830664203913,-0.16056009829145435
52.0,12.879196219188223,-6.750681457807733,-19.62987767699608,-3.025426677642333,16.270404407363987,-13.1332228886056,-11.085499475378374,5.709985156106949,2.161666587402829,-0.8317319208043328,-3.0186496263956295,-1.6062015570803592
53.0,33.30865929774578,-10.790911794479014,-44.09957109222515,-11.294811048366128,38.70738048777514,-27.47127499118844,-12.372228920622684,2.733164782594771,-3.6229382655939038,-7.2426924608509164,1.763339728442873,2.3540881018836015
54.0,-1.0134167865129946,11.417609250709326,12.43102603722205,-5.236035404937789,-6.725838456430051,11.892521357584352,3.050415262382568,-9.759540906025144,-6.956030036598499,1.3361797360321503,7.525805282866471,12.431907334070543
55.0,-14.71845017863865,18.301169636342152,33.01961981498083,-1.7469550427365177,-23.872238127152546,25.70059455432246,-2.332767370012039,-11.269251934588459,-7.890769705448258,-4.546092032805914,-4.4529039349450725,-2.35195034366933
56.0,-31.86560001781472,0.9795878320776765,32.84518784989262,15.406646843385076,-32.351001803863696,16.866853709997844,17.415478028893826,7.310163898488639,8.985198668835995,12.00486049404299,10.302549564772736,11.795699217223284
57.0,-15.019405423641139,-9.848291656267527,5.1711137673738605,12.474114978327997,-10.077761595695332,-2.311711942167838,10.145238989934466,-3.83296436433959,-4.7129384688843015,-4.353670564042987,-8.490386244874768,-12.605309970176945
58.0,21.48270361917445,10.385349599062142,-11.097354020112327,-15.973343726287471,16.24464016687714,-0.33414637708227746,-10.308784761171246,0.9525721034156397,2.615967735251083,-2.2516468353344563,-7.702301500056454,-11.002996743462917
59.0,18.494448105218616,-2.5912347379154763,-21.08568284313437,-7.911140619787081,19.838895923611013,-11.820064106559888,-10.69352250106602,7.70740989672061,5.1295385832788405,2.577442836014547,0.48668697531429217,-0.32616439016330734
60.0,8.948796460533714,-19.003480038578715,-27.952276499112862,5.070115095754135,18.43288934286239,-23.54029931403215,3.7370765176622296,6.534382120761564,8.153179108127782,3.1484273777550627,6.276463761673832,1.334099438813047
61.0,-1.2570499975089593,-8.352969441720656,-7.095919444212186,4.771092865207383,2.9090721281692975,-7.709098566618003,-9.87245820050685,-4.977913258266132,-7.5593046045574965,-4.982450063189297,4.3098821164959675,1.4534746567543206
62.0,-9.913485347240112,1.528950105682469,11.442435452922417,4.158490119282112,-10.68638576270807,6.500973088572955,-2.808209184012921,-5.156558892424662,-10.769979195111452,-6.973152892802511,-5.123574407957771,-3.0721683429277835
63.0,-5.112768302296767,30.60329834992644,35.716066652223596,-12.781709222163503,-20.425162403536767,33.1759301925171,10.41370483920151,-8.462238346977927,-3.6312761784505883,2.6014058152182606,-0.7304559031736949,2.732515807147564
64.0,4.604063261189225,5.159295863830428,0.5552326026418974,-4.844385987343179,2.00915731336835,2.79707764179431,1.7600112355467665,-4.811870138019847,-0.3069482764125444,-2.6043943121804247,-7.0764266653863315,-4.250127312858288
65.0,0.43941086117232575,-2.2103272302028554,-2.649738091374651,0.9170475247424379,1.6035199522937442,-2.407528836771645,1.053076536787608,12.292417236225972,13.482106526343378,8.060739699073704,2.1744683505333318,11.898721547054208
66.0,-9.529679457090207,-12.548664055027917,-3.018984597937595,10.98770992864927,-3.2784169591923975,-7.7558331517884085,6.950246204351994,8.407649731240767,7.470710088975029,5.1857775247086995,4.921217902234668,2.806739198866494
67.0,1.8108216838291504,-3.6614915109339883,-5.472313194763332,0.9513260152739935,3.695175579097957,-4.532550693077371,-6.262234256020832,9.287921165681674,5.193238928845295,7.139345170999182,14.195522004302733,13.164240688806133
68.0,-10.33772727376719,0.3956544496124197,10.733381723379173,4.999141014225473,-10.562924591155742,5.5261305472543665,-0.6890076870381705,-7.731679912127835,-9.576145756989412,-8.423301823539244,-1.2920016477216718,-8.052251682737602
69.0,2.3830024738578484,-2.201186099537656,-4.584188573395748,-0.05824774061689464,3.4520443718066094,-3.426756332287746,5.739903864328774,-11.557580931387578,-7.7218342722819955,0.07944284588996631,-4.415178963475306,-10.04235772650113
70.0,19.4772173785841,-4.49323832008089,-23.970455698665095,-7.532965831740264,21.684963673106363,-14.18538324460176,-10.628396202285181,-7.072315900242364,-7.310607164738586,-8.679937064165092,-11.284218111860527,-13.197496332872102
71.0,6.719159519564644,-10.100578381507528,-16.81973790107217,1.6535418454830704,11.7990077763158,-13.493096685731123,-2.9633231603136876,-2.464194134915677,-7.384522450110464,-14.22940564017178,-14.665969429919846,-11.318272145840401
72.0,-3.8225923051181647,4.556116234314869,8.378708539433152,-0.40232486145440505,-6.0829094472499685,6.432434895077639,12.023856733438738,9.153025151662217,11.938903166682792,6.303143800438958,3.9658794358350224,9.13874652955221
73.0,2.268175741497177,23.102094250315318,20.83391850881836,-12.642105434765519,-9.27620903413716,22.009877229479603,-8.912006799939686,1.7160847492967362,8.453702501771485,10.269203114417053,9.881246751462722,11.843606897236965
74.0,-15.797880169946673,-2.925692838336321,12.872187331610615,9.404283416154502,-14.336562696539183,5.0146041576869465,-2.630470597696868,15.512131850907151,12.541032155755934,10.066804529290202,10.61351837473879,9.671833236205906
75.0,12.897303897293536,13.013453720028739,0.11614982273549046,-12.991068771071351,6.385141841805831,6.528609229181432,-1.8149024464869195,-4.088798129807288,-10.03068506384119,2.6984801090191626,10.499705995934121,13.139509551220337
76.0,-20.040018256362764,-7.292337031542578,12.747681224820258,13.711690307362707,-16.39856366951482,2.7723775323250655,6.098441414198179,-16.00283181153479,-14.88131516128281,-8.134799709637916,-11.714019079416813,-14.506612948562857
77.0,1.0985174099575037,-17.12256430114071,-18.221081711098137,7.9829768485619965,9.65973977331643,-17.704192365462898,6.282653389865661,-1.4911193796784126,1.3565812154327954,-4.604330472068003,-8.077286238660571,-11.837610613861271
78.0,7.681997779417263,-8.913598602054853,-16.59559638147196,0.5918221419520173,12.145837800043914,-12.787025265152334,4.9815785600683,-0.5889598758130346,1.152745763956629,-5.86799683974394,-5.644268396629359,-7.584247503905786
79.0,5.215220956865465,7.334244362092715,2.119023405227349,-6.293868173125805,1.5628218204465103,4.692016292789027,-1.16484685392528,11.592898529210883,12.937557209606108,6.711701517303089,4.218548370087544,5.264098169919946
80.0,-14.835746217803516,-8.113474838921666,6.722271378881809,11.537883021887133,-10.757706350436877,-0.6551617396392484,1.1695317507782832,11.180686059867183,6.431213098801379,6.331783721699556,11.724588342087246,18.374148664543533
81.0,7.1944365477369026,17.54540095662021,10.350964408883177,-12.383557170744417,-1.6311245410131143,13.98462635799563,-17.223790696012088,-11.848311983549166,-7.186647280795524,-1.736694845785244,-0.6101304992835273,0.3585024966316075
82.0,2.4549888382015856,-13.706365477983864,-16.161354316185733,5.6118213946463165,9.25824098407317,-14.900662436361237,-0.05310348294470213,0.2458930650027744,-7.763338262624264,-5.0369602397921724,-3.4582157848400037,-5.8737671952433725
83.0,1.4356360455510888,18.31946090669527,16.88382486114392,-9.893533179157773,-7.692530065070121,17.55405736829833,0.38547232654794317,-11.039418489566302,-10.131973312395633,-5.374502730338403,-7.421953674211127,-13.303064407520504
84.0,9.269415073769734,11.394335713141743,2.1249206393718687,-10.351286818666317,3.6082330665108033,6.7111567845702265,3.3736429300940376,-0.8489860321171481,2.995567660497482,2.8272837326047306,3.133447631191675,2.317774150913749
85.0,11.810301144689028,-0.09974661858017297,-11.910047763269205,-5.79989412301734,11.903416236330225,-5.974606763364383,8.171555939654136,6.910251299391343,8.99397074541143,7.297444190359118,-2.3102054144067696,-0.6772611362452526
86.0,-16.781014460213196,-35.19260863231788,-18.411594172104543,25.959595305560207,0.7895237444254117,-26.771105763868015,-2.0734098132294267,3.9909712825264143,1.7760797746364414,-4.238828624064864,-6.34924358803996,-7.3952018501138035
87.0,2.225480637094009,8.22754198178701,6.002061344693424,-5.178500505061097,-1.9036946545945135,7.0682223836844695,0.17709743426885094,3.2300958931576216,4.408381709005006,2.1063540848781983,8.353408494897874,15.252183062446317
88.0,-14.706383821680255,-1.5388645685604203,13.167519253120247,8.088521506002529,-13.943985947100467,5.8476876618402445,-2.606475666856012,-3.4014881001245953,-2.599501555064124,-1.3067512440741622,3.443243666145697,8.024508826164833
89.0,-5.508721884107806,5.677007384511545,11.185729268619477,-0.121675773066797,-8.350125395283278,8.465139881564506,-0.745341403215557,-1.4368302606069734,-0.8588993950857942,-1.1980427894615486,4.430684299832043,3.5212484822615866
90.0,-1.5311320626078033,-0.30283932545244774,1.228292737155293,0.9548074939429048,-1.3836712444572727,0.4164188865500664,6.9810236245007875,-6.840898476822279,-8.991893610354534,-5.17365378578728,-2.146407314800387,-8.131523753258357
91.0,22.853026760397015,7.361639701429986,-15.491387058967053,-15.151049074309896,19.162692738738333,-4.0361930945737825,-4.789612055429543,11.050312843922455,5.846617966485529,10.81874653721556,4.09991006702924,1.210179106095759
92.0,-0.43345948578447846,-2.5520622625555394,-2.1186027767711986,1.5264224216998743,0.8250895118192734,-2.3915002522190774,-5.303217284108614,-1.297063220142519,-1.413886153395991,-2.6104777810544437,-8.048438138053104,-6.885898496178989
93.0,0.2795780597698645,6.260325101487141,5.980747041716994,-3.235681345239112,-2.7970106227544775,6.135841535706956,8.516771347934142,-2.47761444726775,4.228848578286176,-0.4104058992471612,-9.471827354264303,-13.424104085710415
94.0,-10.656349068366197,-0.8442768280625637,9.812072240303339,5.708331653273984,-10.264514008778018,4.492759940130771,-6.103097431751442,-5.865327131402563,-5.661736516871744,-7.954482303657613,-9.11499399236612,-12.93010516836917
95.0,0.3002065456589804,-12.587516868267379,-12.887723413926292,6.183965878842058,6.640929786265642,-12.732182838192784,-1.2219902998195051,7.219128704838255,7.727740968984167,9.445152980988153,23.53152423665645,27.70774986722892
96.0,4.1524908615617075,-5.682387289675286,-9.834878151236689,0.7297692571073569,6.963598302088002,-7.752117050561776,2.6561012570188676,1.3650730162406952,2.0764472286239757,6.4515856017404145,12.171262080590108,17.232614515745208
97.0,12.385039517666383,17.478431755395043,5.093392237729068,-14.965260761266364,3.618861002080079,11.298123155413414,-10.509891652535117,-11.227646069020176,-14.089528712089546,-14.479782364919453,-16.76156887753682,-11.739977345293877
98.0,-3.78100759007463,8.576422779502376,12.357430369577237,-2.3533276084980925,-8.015250949891593,10.488028499496735,6.379330903137554,3.171570075786905,-1.1018346433032233,-2.0960540180438483,1.0290069204078778,7.659220417409648
99.0,-26.702823859843797,-13.336911438694026,13.365912421149641,20.060684782457518,-20.06004572994122,-0.033583292479549165,18.137235292417724,4.729675232747792,6.259129057368772,2.5319802784680583,-4.638543780198806,-10.194285382088298
100.0,6.411777854047532,-1.7913050888622122,-8.203082942910157,-2.3539151721513267,7.27664602584742,-4.959031169631105,-2.5522006844017504,5.7817532986728395,6.224985309053978,3.1045636910037473,-7.26912120287351,-13.195830332783588
101.0,15.268775531960262,-8.274301516086785,-23.54307704804748,-3.5475689138284805,19.444918906053726,-15.94583244241032,-7.771191166829969,1.811928896066952,5.537911007696403,6.056431156902173,2.398209707521685,-3.2706687649042365
102.0,-3.847144994578672,1.3869310928854708,5.234076087463911,1.2527890822277223,-4.5913532040223775,3.2721901226602927,-5.7419755277431515,-8.293071432598257,-6.511106265034714,-0.9718533672650254,8.788272089660154,3.4739880282531397
103.0,0.22388682491129197,2.47589522215674,2.2520083972454317,-1.3301749694527905,-0.9961874139205111,2.3995392833807854,-4.723811184538577,-1.5611723006679101,-2.466383047833728,-0.46183511154972884,-2.164307754538812,5.60764044934929
104.0,1.1531660851751333,3.185766560551738,2.032600475376665,-2.1488329479828394,-0.4281826316510622,2.6381409879803748,-3.1760876518090906,3.1576962294766706,-1.80442235466063,-0.16354021829254006,19.474714058522355,24.920095826317166
105.0,3.2497748281109065,1.3597119874197126,-1.8900628406910043,-2.279560471363246,2.580865301162775,-0.2426148791112288,14.666896221992406,-2.9639777085191863,-2.015928755233536,-4.687014570493078,-8.601036071666869,-12.558123511040645
106.0,0.7429762180129711,5.893663213329465,5.150686995316797,-3.3653837867727394,-2.1875774668005654,5.461233543033711,-3.9046802444027744,-1.4933943521054884,1.2078240747764264,0.13842348057293163,-13.593566598973881,-10.410966568641276
107.0,-13.530681627503105,-12.195008071336947,1.3356735561664848,12.900495675823233,-7.407427522342291,-5.414475980017248,0.9613959312028928,3.2836629417732643,1.0363048401066897,-3.183820980251556,-7.621515481893216,-8.19052878244716
108.0,7.216310220128041,9.580197728783306,2.363887508655358,-8.436206498771682,2.3837053604197043,5.986376017297639,6.012438234279817,2.01141602637613,0.603683677393311,1.5087991934629852,5.284377698678592,4.7486111930031285
109.0,3.886139052896755,17.643977402841834,13.757838349944802,-10.80379507088066,-4.970139712867364,15.715184380422091,-10.028970057994695,-3.0909590069293467,-0.7776587475687831,2.906454050380871,7.460529482810816,6.590888131535772
110.0,2.967372007805289,5.738387112550716,2.771015104744956,-4.317072098446681,0.14631670562607046,4.268613778480027,-13.45369836168974,-7.277304424867475,-3.7896776356787854,-4.655240076629571,-3.614758314340437,-4.619230801150467
111.0,-12.585006771358335,-20.556014966906574,-7.971008195548595,16.600592592795294,-2.3389141864602965,-14.32974671389401,20.43824234263061,6.902676440477219,4.980479184039812,5.133354186284324,1.3795247180471624,5.361815623936532
112.0,-4.019801790332082,-32.37162791415964,-28.351826123827678,18.142319474142685,12.129236128679066,-30.35154185352001,6.020403234667347,8.795034555956391,5.620060770954679,3.8627473402851784,5.366252671787506,4.755387542443848
113.0,4.304886374345497,0.4625610142089176,-3.8423253601365097,-2.3599281940788837,4.10979563481035,-1.681937838561101,-6.317246057117147,-1.0442019405449359,-1.448851799670448,1.2332647564596482,-2.682812375734196,-11.526668662557862
114.0,16.66889110197325,22.843327546962403,6.174436444989375,-19.72968430613797,5.279459476425452,14.516207427059758,-3.4445900214933745,-2.409111757986563,0.3871152194762906,-1.3396546377756242,0.12721422996556808,5.430662260292244
115.0,-1.8105784746455464,-3.2245632469638856,-1.413984772318118,2.550329061090803,-0.16640747022286595,-2.3096336375515847,-4.054875970143492,-2.753555150512557,-3.3836963959274087,-6.731996153864895,-2.482295936472176,2.3069658310396792
116.0,-13.954779357134,2.4236779326105076,16.378457289744667,5.7278540431102805,-15.209950169298173,9.416371724939715,1.915136953708561,-2.6758743656291357,-2.9580731229519555,0.5412827296308134,1.5321686589697796,0.9494033654175504
117.0,-1.856745130132988,9.07818839810305,10.9349335282361,-3.6403689830275683,-6.43290399367047,10.030134242994267,6.528414219228566,0.28890862555737007,-1.8954906734253123,2.1492653368784786,4.319415503388125,-0.6116902923702138
118.0,19.530028342940394,16.62991680082376,-2.9001115421164885,-18.103530083781862,11.263879161709035,6.818980390730834,-13.57964196023852,-6.902375740213315,-0.26090279214062695,0.3156055118096016,-0.46490498582626283,-5.255051654266452
119.0,-12.274362600722789,-10.278366611414299,1.995995989308644,11.335104415838973,-7.159043655423579,-4.1787139734572865,3.529285827968726,8.467099768798262,5.231825904724207,3.5806231700979554,-6.379874097096506,-2.438600956957192
120.0,-5.396280941870799,-4.34488587924284,1.0513950626278845,4.852168681083916,-3.2440779017868224,-1.599425668736301,9.634145974035158,3.454701955758081,1.2678204205717165,-5.477333422036219,-6.966237261624951,-3.621868950808884
121.0,-6.951573963888821,-10.72650550700164,-3.7749315431129986,8.821569480921212,-1.529281606086015,-7.279070702075903,-1.0750869573574775,-6.729262670014692,-4.911000612748443,-7.3147166314740275,-0.025457209396344327,5.6144814067208655
122.0,16.83489166039879,-5.617564086907578,-22.452455747306534,-5.6245313108071615,19.621590493768732,-13.984652386396274,-3.2050254276011576,3.335377808631402,0.6109104833931651,2.912570648938919,5.533915930678707,4.951807573439238
123.0,4.652982570813852,16.777387337637283,12.124404766823451,-10.649409922772177,-3.762085450636741,14.419645048829025,-4.377559754255711,-0.8246728830078887,0.2991166331830182,6.446916356741356,3.174990499094535,-3.9885148065572693
124.0,-9.361561654619587,-9.829950273234882,-0.4683886186151618,9.586481353732957,-4.47757781954396,-5.106760445034998,3.0720803175663107,1.4489043554239671,1.2579761135836662,6.666283245159258,7.5502561682375315,7.281427346991372
125.0,-4.278961270858041,-7.662308787966234,-3.3833475171079703,5.9643158676156895,-0.40319421447114623,-5.56553501788406,0.9791844294728825,0.8631952202289196,2.5389858301119492,-3.049569762296929,-0.7315093244455433,0.5845726855403521
126.0,2.669062837759993,-2.253935955149343,-4.9229987929091115,-0.21369519498614253,3.840371238849842,-3.6373831883788506,6.487138371352463,2.1647273392612383,3.6382000572108124,2.9011130027544065,-1.2887204408334512,-6.061061683726446
127.0,9.106521652516122,15.488117095422021,6.381595442905965,-12.30758505172213,1.3311211582650253,10.960392179416917,-5.518433327537625,0.16526201321131168,-1.8679080872406257,-3.3178135963533575,-4.701838717319196,-4.1777025582425615
128.0,-5.340199462442693,-7.733085832275805,-2.3928863698331817,6.517676876789616,-1.4992575382979252,-5.0383401838915525,-1.465062323391576,-7.333198506550791,-6.616836012293847,-13.110916693268486,-12.763360347886417,-11.265815920602737
129.0,-4.846203246458694,19.559302116962368,24.4055053634209,-7.387412823504692,-14.644634349556053,22.01001719399202,2.2544292723309414,-1.1129928847633899,0.4974491870500426,3.4643355139092797,6.562790849308707,14.116582585662249
130.0,-8.958805205981081,-13.408127013487972,-4.449321807507019,11.218808991597301,-2.188970605480913,-8.895381733400368,-4.486503545115017,0.7946250613246757,-3.971996804002779,-2.1251607284262253,-0.5474677735987103,2.5352245735875534
131.0,3.621835284110116,-14.328032144462465,-17.94986742857262,5.377973083231325,10.775517492969119,-16.1782650304057,1.9485921473068393,7.6668236739679845,7.35913819571178,11.655739609007252,17.47745268304164,19.387476321793685
132.0,13.810410831637526,23.214573006355224,9.404162174717762,-18.49422884685994,2.190621107583741,16.273780525697326,1.465006801891894,-3.382823611423934,-0.3105739557920355,3.098832679454569,-5.840822260796731,-11.335457046886575
133.0,2.7868709284417985,7.2256356983972765,4.438764769955546,-4.990539088774102,-0.8460663249048546,5.796123092557333,-7.807046702516274,-5.307290869307465,-3.783916845992244,-2.1875624602614776,-2.56017103247983,-10.735657702880037
134.0,-6.772932891626294,-4.415564969589642,2.3573679220366413,5.531513627319242,-4.597556283066083,-0.9913566812374456,0.869627547817166,3.332629574033896,2.709657470580634,-4.549014584631377,-6.910893611744507,-10.590714936089254
135.0,2.2087197614233656,-18.204238434876505,-20.41295819630001,8.015094506158997,11.342344090772201,-19.278849471813864,13.65844429279484,6.025730336870214,1.4366047447440917,-2.1517652960497107,-3.9123161343932806,-2.510878800117996
136.0,-13.432213674907723,-19.82322739106783,-6.391013716160293,16.64592810103177,-3.5036391107457368,-13.08608969374142,0.8840016450396275,-1.7716469941105366,1.6957506654140653,-1.7010425475247426,3.505582782535567,7.504348198652745
137.0,2.3718989814185623,11.774570487027697,9.402671505608897,-7.1337993967098186,-3.5100134513877097,10.523955074644164,-4.72242423067861,1.2846227644475336,4.284423842598152,8.612298465525408,12.48767043862938,15.209240868195874
138.0,9.859299445983588,3.492294686956744,-6.367004759026978,-6.6578830344533,8.111573459744154,-1.4264226583126813,-2.7323379002227997,-8.960766882497271,-11.756624071455779,-9.341327696761573,-9.54685132222347,-13.634370823865325
139.0,24.245622417912944,11.453664822263642,-12.791957595649272,-17.83103054722551,18.515245813638302,-0.6564499197662199,-10.509985805896921,4.434558703816398,3.310392247418431,4.743573145435414,0.7571043636363077,0.34365875826418435
140.0,-28.892409818733448,9.451107536176881,38.34351735491049,9.74187995360061,-33.619310336007594,23.916625371060615,5.438105016561126,-0.905598793303524,-0.377524259609956,3.8964265983700046,8.20579746285873,18.133420617334846
141.0,-16.08550907336383,5.588203864102738,21.673712937466853,5.274358081820046,-18.87607581229902,13.660447252625751,10.731275369731968,-5.572280807045407,-3.893655204776059,-4.870450273723566,-6.060941530549923,-2.239120868135865
142.0,23.138887519302628,-2.512788026589347,-25.651675545891717,-10.361009310221629,24.404886786978423,-14.11993669861912,-4.83067705454108,9.318617192403549,8.737818589199154,4.1399972871524096,-3.0980355134211504,-9.870020178647296
143.0,-9.044021958843127,-25.907435355112,-16.863413396268655,17.5102291155819,3.846814736536839,-21.41255559522407,-7.547882818423658,3.717647028536811,1.7316679068882315,-4.568403037008994,-9.200421285198217,-8.910312190896887
144.0,-7.867497062375639,5.592909214838738,13.46040627721451,1.0935602314453572,-10.641918431863703,9.507326525112017,5.881657506317007,-6.65490524572638,-12.918234611078946,-10.092985238070076,-5.684934232833303,3.3343593256007127
145.0,-0.5015935995212838,-3.2724134555376536,-2.7708198560164132,1.9185834792948553,1.1629131040850367,-2.9579591011997244,-2.2804986807795737,-5.495458131597551,1.7408038183854355,7.732811851022302,14.534815782955697,12.04448220971769
146.0,28.840023359473037,9.089627642636525,-19.750395716836685,-19.018575756656485,24.330109387788546,-5.344614632211021,5.365359406584805,7.84434984343468,12.379058715610716,10.371642429424725,15.202649056368367,-0.5920048284424793
147.0,-14.994931177969233,14.963941175217325,29.958872353186386,0.03303036174607055,-22.51395551113242,22.445485525763985,5.281498400016112,-2.5872693747778044,-1.9889081954648264,-0.9627250273864112,-0.5464872294992089,-11.74227936433175
148.0,-2.888937331441911,1.1965992594094566,4.085536590851229,0.8583305710703368,-3.517863102758013,2.621981478887477,-10.842285363988985,0.6057509090449653,-1.4624071550564366,-2.3385006654061176,-8.266122538389252,-17.002707623544914
149.0,9.706570104938084,-23.335977951860883,-33.04254805679902,6.826167084813035,21.42800302689219,-28.133228929101215,0.46530154159674186,1.1063907400434378,-3.5447409221736716,-5.875915266650235,-6.572295250545871,4.192445303473963
150.0,-0.5293973585934001,-8.350340958323423,-7.820943599729977,4.45647721353378,3.624120481733672,-8.111739985315126,8.812198779157743,3.157989516863805,1.6722212141251531,4.28974060186575,0.5593647451990318,22.343262033250145
151.0,-6.696332060548296,-2.072146561539243,4.624185499009199,4.4110894628982775,-5.6800549368251145,1.2470920191017743,-10.677339326733602,0.36486136148359244,3.0947285978490324,3.1380067384052763,1.6222182870260236,14.342307844292357
152.0,-3.1765801985787525,5.726245182102963,8.90282538068195,-1.313792681006268,-6.05909879997272,7.36200906349668,-1.8528517506801876,-3.34653193819772,-5.816834469898117,-9.346977300482555,-6.823846242609775,-2.4855281114510976
153.0,-6.544446641164197,14.594785538308507,21.13923217947296,-4.0516642496816075,-13.782928878798089,17.833558535954985,0.8986748077264998,-8.073320038984171,-5.537560963699153,-3.1965002897456034,1.0266302580899334,-8.185740474994358
154.0,-1.9090890081422132,16.134713676172716,18.043802684315082,-7.130193598183075,-9.997055545139446,17.132216480080714,2.438293521920951,-1.8271605354498122,2.693794431663204,5.580259760397736,6.204201408297055,-11.272884955179281
155.0,3.51397070506994,-8.260532796722405,-11.774503501792438,2.438612812946611,7.622610499338631,-10.05597810662642,5.564109825922822,4.237222610453881,1.2499954278494196,-2.034692375515013,-4.630051285309858,-12.593991692409908
156.0,7.887344335942775,5.868536393668373,-2.0188079422746927,-6.892966686538973,5.008471031458305,1.8835794897052915,6.755222585910834,3.4657740112913,4.502597520685965,6.163642910979115,2.02904687754636,4.017260124148581
157.0,15.884778456116546,-7.75894898169965,-23.643727437816487,-4.084251721612631,19.73765066233983,-15.66641339814155,-7.641683342620571,11.403041116622854,4.061109372710584,0.27948768093646637,2.260992045410758,8.597606837644603
158.0,-2.41481760867421,-7.842027758771419,-5.427210150097261,5.097915862636796,1.4741189578089102,-6.6015439871030335,1.070893538397283,1.386134228807074,4.536927721877266,9.3149581998219,12.96977939203751,14.519381919281209
159.0,-26.737215466185145,-22.755564279514147,3.981651186671198,24.784929748461863,-15.32058906610138,-9.355020949470418,-8.480601543222988,-12.409843449347209,-9.191335770015755,-10.298727379947955,-7.816470887023517,-7.176101216501197
160.0,-10.042760012274956,1.4275788406278203,11.470338852903085,4.33805837640595,-10.805890529017002,6.4012697930557705,-0.24069758713573286,-5.962845186476598,-5.8221850590461965,-5.532850756652849,-7.20880536006654,-8.671152562087812
161.0,12.348246664250395,10.263725239694796,-2.0845214245553496,-11.359334112564373,7.236286102576496,4.040695473947857,0.7014663611829943,-0.16007826286519844,0.431889983932388,-3.4373823599453663,-5.717641004075023,-5.110458459277416
162.0,21.13006710382222,21.50472436096601,0.37465725714385556,-21.29383814079238,10.389899987210224,10.967637421430538,3.902284801017276,4.658713964799695,5.892709908075476,5.519529405088209,5.343856308137896,9.351727813290111
163.0,15.503612629812025,10.827008152036765,-4.676604477775314,-13.141279603821484,10.097968462645243,3.10069905652448,3.098048435882391,4.537929607530021,4.532264357868453,7.419504220830495,6.1343579265548565,9.10540547180604
164.0,-19.206211028719846,-17.987652645871222,1.2185583828485074,18.622186005659565,-10.204744710338801,-8.36161074158119,-1.6482422854731493,-2.4329115448988916,-9.2391361908277,-9.55761277133017,-11.320989495844522,-12.817052880887978
165.0,-9.092487487184693,-15.146985414842762,-6.0544979276582165,12.066751184063127,-1.5077305802130851,-10.658760789480096,4.591221958703966,-1.3269083707869604,-1.4363785148057757,2.3632045993309716,0.9352214455775081,-1.3572846343468346
166.0,0.22792661046143436,3.2061866450833065,2.978260034621763,-1.7708020124348156,-1.4362675578204311,3.1114012846744314,-5.554593582867609,0.29741693216794174,1.7077013183073682,3.6486708175913996,8.119990223215535,4.948562456928677
167.0,-6.765260070941077,5.6433089995970205,12.40856907053803,0.5846910692973277,-9.561592834015574,9.044291107067878,-1.7730070979995447,6.715971305179526,8.45930997081005,3.644309877573831,6.388328300322881,5.536928668616917
168.0,-2.3227803104556886,4.396629862986389,6.71941017344211,-1.013328478214708,-4.488273761105892,5.57615986272535,5.221154667247818,-1.1647286844783944,0.25113474675091885,-4.762507625325781,-3.707067147943766,-0.8106781183515468
169.0,0.8967321379963065,7.356935809574932,6.4602036715787365,-4.100491737377074,-2.8215268559357405,6.848155498217643,4.2239416998554224,0.3373780719028917,1.9442232554391863,2.9905667321261764,-0.12504334937813932,-0.6617001943588119
170.0,-1.9397419922337047,-1.6335122336294408,0.3062297586044238,1.8192565263889833,-1.0800191372631582,-0.6448741211110346,-6.811974054778162,-11.283071298320381,-11.144925631557351,-9.972739604194448,-6.689372630574847,-9.8054648536131
171.0,13.735602526506943,-3.2676496457171376,-17.003252172223977,-5.271079639390821,15.335286946536547,-10.116089079280965,-8.995228222183085,-4.891643519342445,-5.369881464413536,-1.383377217742396,-3.5380224449713977,-0.29597872068116793
172.0,13.272119779135132,-1.9205584415006474,-15.192678220635766,-5.703141292153044,14.197871396618755,-8.536509443353047,-0.9281435902123807,7.26624353541016,5.177802634224158,6.390455827305837,2.172358132183104,2.2874552579958056
173.0,-2.508593978936025,-11.141841310183423,-8.633247331247453,6.805908719457348,3.104911844765012,-9.945320252136312,4.267798441113066,6.755873798743296,5.739248429916011,8.347508266359576,-0.07443024590309655,0.5106255647741715
174.0,-3.315992186197948,-8.342816268510369,-5.026824082312533,5.893179332310044,0.8960399188357537,-6.6629633231909695,5.25230563729925,4.045699974801064,1.4258147461200386,-3.5168467765742752,7.108269471856473,3.181903202519905
175.0,-15.671087527749169,10.182830723710717,25.853918251459756,2.7286512223187938,-20.802168244980393,18.04097646186298,8.350155641415004,0.5979740338782551,4.545091937875863,2.493247053730268,4.635943149355249,9.914057747276395
176.0,0.7472352238516926,7.026589979496208,6.279354755644409,-3.907716388791305,-2.8064528933571715,6.676034946796875,-2.7300995785841717,-4.942360453579307,-3.020536188246548,-6.067832584045062,-7.830532570314066,-6.731483692286519
177.0,-6.542310516383125,-6.856166361054423,-0.31385584467131444,6.669423698278344,-3.075759747795651,-3.6405118380912427,4.017195083901232,-3.3439227273029353,-6.859416442963682,-7.692384971604276,-4.785908196490256,-5.246091229222359
178.0,3.445631016096613,19.810908107123367,16.36527709102683,-11.590005566367013,-6.420687717193779,18.111627034698586,-7.236482121612318,-5.470360075460294,-5.741584610648095,-1.2157823515204629,4.3773674390759245,3.4148127041333844
179.0,10.49596565675077,13.41701032411538,2.9210446673648174,-11.928152031387482,3.7485534323076815,8.11500479638499,-12.68961834267039,-4.873489555303003,-2.6144870740776085,2.7403810027551643,-3.963910509593928,-4.293531201362056
180.0,2.37290972180074,-17.941681868399286,-20.3145915901998,7.726928357903509,11.304974517142607,-19.100326296626577,2.0819705157182655,10.618361012671153,10.554522691415526,11.779949065640736,4.459694094125646,0.3327884419255759
181.0,1.5488714472289145,-30.176066020537075,-31.724937467765827,14.332039892848265,16.67589684846955,-30.917151504817056,9.144675252048183,4.656185591207671,7.829696448054747,2.829991668967053,6.328579838214895,2.787713878508237
182.0,-0.7790538940736296,15.872189508083306,16.65124340215701,-7.52665242801371,-8.67857065916601,16.302627054745653,-5.05989753953832,-1.3933810668888351,-4.734063102352099,-3.1507717631498275,-3.2035288771748585,-1.6938909696676627
183.0,14.776781477171518,11.229576607903612,-3.5472048692679055,-12.978578404730863,9.11594737091784,3.811361739016087,3.3398440920656958,4.495220333167953,4.248893719133152,0.8024411099363622,-2.7531999676821513,-1.4125080737384337
184.0,-29.974182665977487,-8.333627693587994,21.64055497238942,19.105599018232546,-25.779633598998426,6.629965769301267,6.546835650534796,-3.761311193634256,-4.448472948992116,-8.798572044766388,-4.49470651931628,1.7847471407473652
185.0,-9.937148628135425,-14.047212925500858,-4.11006429736554,12.027256194559602,-2.9697715156968982,-9.099240073758976,-4.194943563282624,-4.480224874669433,-8.12971605234913,-10.366723081132855,-4.9981217737852175,-3.3240713544421014
186.0,8.070606993280188,7.4118865211015965,-0.6587204721786835,-7.783403318678567,4.382989379847373,3.3549523224306137,1.691430277837247,-2.9463995057450285,-1.8109491385921674,4.283205006947056,7.610539986639338,6.736370286237847
187.0,16.816326278602133,23.37266022464688,6.556333946044747,-20.06028790747934,5.146466096638359,15.017631682659188,-4.689408960409987,-0.6891839425343766,2.973286707068927,9.861534998757078,3.5616943055151475,4.222320979935401
188.0,4.137469493021429,4.108670359125332,-0.028799133896004525,-4.173341740389873,2.1009100811829047,2.0093369184036227,1.40155238453384,4.0774675411052925,7.874661227646898,11.050543165158777,5.925686417802517,0.3351637114174522
189.0,-12.036537417617886,-13.478514929543923,-1.4419775119258773,12.778617876020594,-5.275144992792889,-7.415999851818197,1.5014964563159348,-2.8615779260860728,-3.300543153373139,-4.893718958108773,-8.867377937590492,-7.620417973026288
190.0,5.8464135845085465,-11.037393517245079,-16.883807101753472,2.6096564683934664,11.31484953578431,-13.996539509405824,-5.754621993101512,4.329708836318144,-1.4414817186542797,-8.923023975244744,-4.064981350448771,-5.180831480857188
191.0,1.2534797117404428,4.4897576971670325,3.236277985426664,-2.862199237146499,-0.9561330441440252,3.907146367082426,0.46491039430998304,0.9675432417283027,2.248300645623602,-2.826864845130181,3.488772193834827,5.450501412425945
192.0,3.6278326833509427,-4.6749395165104275,-8.302772199861383,0.5310626127027087,5.9275757919368965,-6.52016921085438,9.306359863410101,5.789476354720205,7.11819359067885,5.026043866710493,9.02192177851634,10.085941529911679
193.0,-7.8668836243897715,-5.949108376205877,1.917775248183824,6.915875398320761,-4.926142156291286,-2.0430544913669078,-4.201392082663442,-2.178456979633232,-5.52349378126214,-1.9730815771040315,0.30438770016114436,-2.3267845520643595
194.0,-9.232794289791395,13.704746159405376,22.93754044919669,-2.226792191048356,-16.038278902657552,18.37565618194022,-4.116305600604844,-6.9569318451859266,-7.731077548355756,-2.276236002712854,-8.966041704896169,-15.737016343543615
195.0,4.613398917853106,8.960553747000198,4.347154829147032,-6.85563902361994,0.18029306490461572,6.631104984527441,-0.4764661338239702,-6.981672621220278,-4.395078115682248,-0.46632053034975346,-8.195138699362492,-9.660345239484597
196.0,-0.13970531891266624,-0.8829901323902662,-0.7432848134776249,0.5213728953679877,0.26915435665274334,-0.8361405080317112,-2.6499642468626217,-1.1965991670471823,1.0444921701236418,0.05093814086543347,-2.362744269503916,0.9035498083123836
197.0,5.406251014437136,-11.606922595101501,-17.013173609538615,3.1098280837544205,11.174898266891862,-14.334313760702598,5.876264114753561,8.485730383011074,10.046777012976115,6.241805958781209,-0.28066096048145706,13.370245700447574
198.0,2.7149271428889463,1.3657984614807024,-1.3491286814081338,-2.030663706420595,2.0729091786582146,0.06174129471215739,8.464817538210013,4.696617999282253,3.8676182379896056,1.726163337101029,11.164390676201926,16.7497952413179
199.0,4.092584632877664,-5.479581388687617,-9.572166021565105,0.7053087047976365,6.7910734003342945,-7.551071004094441,-5.809499524644698,3.096470172158378,1.7130415868216757,0.6392456758124495,12.450521881489887,8.39891337115953
