Time(ms),I,II,III,aVR,aVL,aVF,V1,V2,V3,V4,V5,V6
-200.0,12.777561054576791,0.05591411856474782,-12.721646936011842,-6.442458818532638,12.803257894314825,-6.388310064477959,2.867378329865991,3.409653875319864,-2.4234647386890247,-2.16605669516031,-8.577802982015594,6.2379882333824614
-199.0,-10.790858499601931,1.8589147410584435,12.649773240660524,4.445935546035994,-11.737687121756371,7.280169617300862,7.6579472606889105,1.296692254876736,5.599752537026814,4.806424666037518,-0.34046798016710955,7.625525280923755
-198.0,-18.732103380502846,-5.140065003008985,13.592038377493818,11.917059563187863,-16.173543883110405,4.2579165016162435,3.7229703962675926,1.7029094017342759,7.983721666984376,-0.7443733542421417,2.3565637478883206,5.879145490204369
-197.0,-9.414995367501813,-11.099391820283119,-1.6843964527817015,10.23532815442449,-3.8749993834025904,-6.350425232998824,-5.997645560817115,-9.196060576834634,-3.5423742832716423,-5.725225389765384,3.173951150729331,-11.110409301069865
-196.0,-5.061586469887369,4.754574837626477,9.816161307513452,0.2054623132406146,-7.452161506254651,7.259802707239261,-6.972770976696366,-6.80529615960665,-2.3392391706219864,-1.6615749598426643,2.4726072617531987,-6.13023762023115
-195.0,10.007906563972963,2.9807745228891847,-7.02713204108398,-6.447472775220461,8.495553755256445,-2.0371283333839365,-8.986108402330192,0.08695460005536582,-5.713204471090289,-0.7818146958263248,-7.378073307705437,-3.503595664025932
-194.0,17.926604641299868,10.854407141618362,-7.072197499681433,-14.426248403756997,12.544059399890799,1.8860352189778644,4.4738831514253565,7.777206728534287,2.77534791623128,2.1242515880767776,1.6559726557525318,3.6997843655629055
-193.0,3.6819159173311995,-1.228549107277411,-4.910465024608324,-1.26444320112821,4.327691776985175,-3.0705427930579834,-0.31045645933815,2.9301417186456558,-4.361327334673619,-1.5665821564457854,2.78808267351665,-1.6142955003662733
-192.0,-0.9927648864607024,6.768906704632622,7.761671591093557,-2.84719283552654,-4.436197067534685,7.262544096085953,9.771881265369514,5.829285140959437,3.882143228231132,4.598102546557519,10.183008697741322,3.4636425004434384
-191.0,-14.135687289867398,-11.016667131320176,3.1190201585473485,12.539959395050825,-8.615969901822494,-3.9584751564903025,7.914712869932762,-2.9512405808284696,7.545427512647387,3.257551336255643,-1.2168617260355412,-10.579956252605385
-190.0,-8.054614304931455,-16.424267335781305,-8.369653030849904,12.206442455714647,0.16488899302636195,-12.417001484678584,-0.8871977684634764,-5.600253557489004,-0.7830334279856515,-2.334640741300208,-8.914776075013204,-1.0755523164447836
-189.0,6.792061151846019,-1.4224531930960627,-8.21451434494218,-2.6347117645785927,7.51101131422469,-4.771411089514782,-9.776174924195539,-3.3959841304924825,-4.318816176230992,-3.8691337802537182,-8.278123422639164,10.374076780857866
-188.0,0.9412777534927403,9.162422980175364,8.221145226682545,-4.997305167749793,-3.6284816889695466,8.72800030493923,-2.9164904553400604,3.3824734523272926,0.23524506099436815,0.16577170488360204,2.365306127905143,8.1085259794425
-187.0,-1.3717259425341335,13.281209244359927,14.652935186894132,-5.976039494511044,-7.995442640558187,13.915800512850549,1.2721670994961478,1.621071326935671,-0.10455987312451831,3.0620899760823557,7.240167952036572,2.2445303308445435
-186.0,6.484970584927411,5.030108036552295,-1.4548625483749857,-5.779333311752338,3.9134332710391617,1.8091058091075194,-3.1284756405665326,-1.1481121211015533,-0.9999838763684319,0.9086897459972858,6.416331829713169,-2.0670070542126124
-185.0,11.78415518852635,-2.0443815897642743,-13.828536778290578,-4.896744637281377,12.832714244951582,-7.996779011604485,1.9209812597721596,-0.5181814867171283,-0.4639883383424073,-2.399566294452011,0.8820329605538308,-3.7404101134794585
-184.0,-6.99974143411705,-7.119620480658036,-0.11987904654098536,7.023532805442232,-3.4897769163431294,-3.601398616226445,3.2395174916403766,-1.396877006838749,2.3447584346472543,-2.628031472633432,-8.476671601033436,-3.2628860542631655
-183.0,-8.63155071284391,-5.552678267406121,3.078872445437743,7.123209665630593,-5.824795036497954,-1.2158334128785722,4.77636749593357,0.3288291959053687,1.1634477091634954,2.0051967712648597,-3.9046210055642914,-2.59595249025308
-182.0,-6.7578076040556185,-2.5551945917044323,4.202613012351167,4.676874580239897,-5.448478048628468,0.8496431451391848,-4.396923100823154,1.1300014260951916,-4.194909758508315,-0.22481372339602101,0.938134599071428,-7.513782369499072
-181.0,8.029258412871577,0.9993448427171752,-7.029913570154377,-4.501061368188658,7.5629063293305565,-2.983609477372405,-5.067350130984464,1.0406176127433007,-5.924597718088177,-0.949868824683918,-1.9304534946445495,-5.891935573645372
-180.0,-3.1777833062220266,-7.5782223990760516,-4.400439092854099,5.3892226822830755,0.567549190771939,-6.031377499836591,-4.754863651839063,-0.706150815235371,-0.8859629531297697,-3.6874655684958624,-2.1517154405206105,0.06844040653561634
-179.0,5.292519769911212,5.30968558121236,0.01716581130104855,-5.287001681895751,2.594907130468591,2.6244859681575674,5.575953430454051,0.8822491528158645,6.2786634047770535,3.217323028371286,6.392047538692326,15.361704058735597
-178.0,-2.4593311205613566,13.73081692925267,16.19014804981401,-5.694246256569931,-9.289102733398298,14.922550725224667,10.082950332064136,4.136582950996004,11.067889293598393,7.364847055719443,7.240532992739429,15.692125076259712
-177.0,-2.798353306931006,0.5035283103643398,3.3018816172955834,1.174824739856747,-3.0164448819484613,1.9433570985214228,7.030595692331252,0.8240659005047318,4.268703707235578,1.1969663697734059,-1.260014728097559,-3.888160042264282
-176.0,6.823203141031112,-2.960326148842733,-9.783529289873504,-1.976575729015977,8.255086955983817,-6.331235721227496,-6.8585870058043135,-8.896150762040165,-6.351954818321172,-3.93648198958199,-5.52016271476341,-8.899367642569125
-175.0,-1.0242871424580464,3.951847110425942,4.976134252884189,-1.4261210373290272,-2.973154328125462,4.505825392500786,-9.818279140981634,-0.8901374635970583,-6.565412160788779,-0.11905975583886308,8.696032950912924,-1.7965334633169991
-174.0,3.054676210620721,-5.0777733674892325,-8.132449578110187,1.050811789333487,5.539706907214097,-6.639916505930874,-6.1901387920192645,0.10387638812511701,-5.001550501873111,-4.04181140678856,1.5416074781412155,-0.7551844749213883
-173.0,-2.496999106446087,-6.078034718650308,-3.581035612204677,4.247638688041643,0.5674818991145605,-4.862216470509912,0.7552003677273289,-0.026906235681372404,-4.295282021765404,-3.4042334599101567,-10.18877748579604,-6.167121545106803
-172.0,-2.7716490837225667,0.5338523898304004,3.3055014735525927,1.0775635822335774,-3.008911379021008,1.8881148763217417,7.272576430132839,6.585566704341728,3.731978771900458,2.2142359190035874,-6.980513490005775,1.6599068175130767
-171.0,-7.207604344118392,-5.879684330079872,1.3279200140384726,6.579664174922086,-4.230465008383432,-2.228950327288742,2.8301445284360494,2.539286174762842,1.185057192604814,-0.46207539849940527,-4.345740915739771,0.28343161513358694
-170.0,-1.036989155393584,-4.192126317617231,-3.1551371622234154,2.6501939281489264,1.027311914715313,-3.7065946192680723,4.669875385741198,-1.3893777206644153,4.9794332935571735,1.5408595470853825,-0.15621086022044003,-0.950417796722713
-169.0,7.2125619732500015,4.029363424112399,-3.183198549137426,-5.663054363325259,5.175816762054664,0.46785331614772563,-4.280494307828679,-4.833526143098861,1.5303284608574663,-1.4937917057052648,8.432590199874559,-1.1972950461598648
-168.0,5.844771368866667,8.177473913341787,2.33270254447518,-6.972385592165303,1.7418015915610625,5.221189933052736,-2.3954944595893397,0.19848254620238182,2.514204370788099,6.773103395048741,10.440315384177689,5.696291918801345
-167.0,0.6016468903520984,12.999133615756438,12.397486725404212,-6.838214921171702,-5.907197504198477,12.744772296377858,-2.396748959069683,0.43859930723828944,0.9797914601469481,5.308797451437648,8.984835633625286,10.392466721145746
-166.0,-1.7880298936641188,1.332911570232861,3.1209414638968846,0.26966163974011126,-2.4616715667624485,2.197491904163443,1.0108825550217686,-2.9928140479907905,-3.811261965397085,-2.330558089025468,-2.949510204717165,-1.097659143185692
-165.0,-4.399956839767979,-6.4012391248604485,-2.0012822850923913,5.36333489085443,-1.1279151746680298,-4.227451956394162,3.320983170637883,3.3533082171430433,-0.9162701338424424,-5.407712490288721,-11.435976052476974,-9.613782440508796
-164.0,3.3719959459255597,-6.424754461904327,-9.796750407829606,1.4866371897693318,6.575320109262543,-8.05560340752777,0.8096171310955501,-0.010705600540064086,-2.981818151495866,-5.3743595374744295,-11.119979763216758,-4.451636995033976
-163.0,-4.7146201862158525,-10.42647843307147,-5.7118582468554,7.605893688677343,0.4865885109151953,-8.091635400263975,-3.4602881705055406,-1.1688715581105518,-0.7695663491186002,-2.685954109494114,-4.059927600600079,-7.957370355636469
-162.0,-7.693710968118639,-6.418567227057155,1.2751437410613713,7.087735254799001,-4.500556488884998,-2.5947211191105986,0.22364812499579023,5.820653891955737,1.5506404044367157,2.835868888143869,8.5921354569268,4.021231567707033
-161.0,8.737155344866254,8.104963265663821,-0.632192079202814,-8.392256555274422,4.663641384659379,3.7116557835158623,-0.4265035208987592,-1.2753829051183574,-0.3761404762263578,4.834480218335728,8.005710215301038,10.811853277293089
-160.0,8.321884900483688,6.5321089940740915,-1.7897759064099983,-7.478111156091799,5.029829708078595,2.4233251749713984,1.4058998956373094,-3.810580904369768,-3.1946607292914506,-0.18786409711592533,-0.7546968459415728,9.911038113467008
-159.0,-7.70212903115396,5.290727948458864,12.992856979612714,1.1553420357363757,-10.298806131269822,9.114300849594724,1.6941240356605447,-0.11031471271941151,2.2092244327797608,-0.5119436537882014,1.366818301461236,1.3596060572217081
-158.0,-0.24256024101895624,5.476276973317718,5.718837214336918,-2.585776628488704,-2.934497705036258,5.649501668205485,-3.439999564352922,-2.536593786068209,2.4367501652483727,1.3229594149508417,2.2407719392843264,-9.06349854757548
-157.0,0.6664835640178524,-7.5078912361791765,-8.174374800196514,3.4560728216089482,4.386862092685175,-7.865819172475791,-2.480485678113763,0.832470989067942,3.1324614641554387,0.10015028739836612,-3.1079181178225266,-15.59895456935117
-156.0,4.716593215586701,-2.472781187758374,-7.18937440334479,-1.0815097215290153,5.918926211122839,-4.853040205162303,6.573419057516077,3.5036677984906763,6.092919617351302,1.3509383409751297,-2.6787976034475594,2.686380228036583
-155.0,-4.935778181713696,2.657012469275675,7.592790650989275,1.1054788165218272,-6.22090494791559,5.1051705214060945,2.9695954042321695,4.452206119568135,1.5061436652227285,2.7423747323664363,-0.46569811430481334,11.858674119053683
-154.0,-3.5837634585865796,-5.802830651375624,-2.2190671927893892,4.6619837911290025,-0.7209867270387562,-3.951099931239548,-2.7507103139068274,-4.062958842745552,-12.578148448947566,-3.2198627831562714,-1.4411314574434106,-5.119184295036416
-153.0,1.3372938003000296,-3.07141976931377,-4.408713569614207,0.835952907646651,2.9074918719216543,-3.759944994652764,-9.017075511616383,-7.557865843760451,-9.172572787185848,-9.646357082455443,-4.540180683650628,-9.906517995504618
-152.0,-1.1156021183330787,0.9295832204433667,2.045185338776246,0.1391251540078201,-1.6320868507234947,1.4649566725646161,1.396574784458617,0.8714928727617761,0.4018304511398956,-0.8492298013010573,2.159539615862988,9.112086644146633
-151.0,1.944137958056377,3.7205036707626933,1.7763657127063328,-2.8665492240172252,0.10304447883510426,2.7227290274604603,6.103840507336963,4.735485155356967,6.30131553938988,2.553705257528059,2.1972779803941958,9.234269797151821
-150.0,10.637883977995891,8.706214906539653,-1.93166907145608,-9.62729145919794,6.297215701368131,3.4375074254886764,4.179921080280323,5.491735174504503,9.347603161412469,9.915177750156904,6.264830006666329,2.367144773374384
-149.0,-0.5685808926494214,-2.82154826334372,-2.2529673706940763,1.6643497955546431,0.850390276743572,-2.5670376931542553,-4.046408238430279,2.6555043586486993,2.285443725329161,1.5892115115836107,2.1254636700933625,-3.251664291704084
-148.0,-4.764200363421162,-0.36507285739304834,4.399127506028402,2.618842230675163,-4.574816064818069,2.066718522231037,-2.5210009006878598,-5.207806675689785,-1.90756116493053,0.1494623832792723,0.9148494130714355,2.373171302618205
-147.0,-7.9046975527125785,-8.894680267359657,-0.989982714646672,8.382607168203222,-3.4495716098920544,-4.969166617326099,-2.9220062336169397,-8.061630293556114,-3.5625228853051025,-4.703239185656995,-6.167707303565291,-14.153473415502337
-146.0,-9.1126977096873,-4.184092078274787,4.928605631412676,6.6375656898146875,-7.010925255077756,0.34786016308272916,-0.8657157798432678,2.524352780049404,-3.0720406286725788,-3.04759025883755,-4.760763853162645,-5.48411906061422
-145.0,5.940497922057837,7.674296184813741,1.733798262755888,-6.815587246452447,2.0359699482780154,4.759443468940756,9.115233587150314,-0.40699701517294623,-3.965883400436468,-0.7524055268285403,0.8429245896462256,5.731483449865388
-144.0,8.13926619013656,4.8500869057779,-3.289179284358973,-6.505114809230265,5.726250627381772,0.7554692855753142,2.05293953682863,3.1445755183127417,2.072239549546577,-1.3682775136137897,-3.219830024165717,4.536733793825566
-143.0,6.678779205911426,-1.504283020514693,-8.183062226426573,-2.604366984770913,7.442766542529803,-4.873319790067877,-2.3040911977682637,3.646321706823106,5.1948263183003744,2.7315091288123954,3.3375018101599396,2.5696504583800293
-142.0,1.8865578604008308,1.1890213662084779,-0.6975364941927835,-1.5639741359343349,1.303553948537027,0.209225223009732,-4.609925106654115,-0.9046725299570944,3.0476936218361965,2.7229544624899265,4.666159772502105,-0.7359847305273366
-141.0,-8.21803488195902,-2.796231223787594,5.4218036581712,5.551028456294786,-6.808286569465633,1.3476757989128085,-4.710762677411361,-1.5715214118735545,-3.37613631687198,-0.01307357781448637,3.194710077156586,-0.16537626583081755
-140.0,-0.8465671257975886,2.006149626662105,2.852716752459764,-0.5418762167258229,-1.8373441446164072,2.458362173297019,-1.1281488360448988,-1.1492071836610034,-4.119801165279657,0.3204537085629984,1.7989309012069465,4.12893055756693
-139.0,-2.5329902090602516,-0.6023574748686452,1.930632734191891,1.6031431110494563,-2.2188466369393156,0.6895501698422655,3.985448780470667,-0.8923030902540438,-4.901797748010072,-3.0060141131533986,-5.430131221155822,-3.5597189119300814
-138.0,0.8638926611113442,-8.142581784640381,-9.006474445751458,3.5963833863711328,4.869304168317787,-8.55038882402301,5.30207446329408,-0.9530845452313921,2.5297514905292466,-2.3846563987773366,-10.69862824345923,-2.006275708548576
-137.0,-4.087266891686538,-5.597630662639089,-1.5103637709525435,4.800895413753486,-1.27685811265293,-3.608782462151072,-0.3627512375145403,1.6666782650272627,3.5198104250713693,-1.9274588651818465,-5.1652023722518425,1.8732218847901474
-136.0,3.0061365625105916,11.478268004801034,8.47213144229039,-7.282769873516216,-2.723576476548144,9.92016257678344,1.4271455761416276,-0.30258515528094054,4.900149342630444,4.19105309308027,10.055453356640653,8.470085426822088
-135.0,6.4614829029795136,11.258875608243502,4.797392705263844,-8.822054899251508,0.8393375381616635,8.051191462555666,1.6383652855964645,3.756437614997027,8.454195162214452,8.685056695904866,13.00464586002865,-3.662329688684354
-134.0,-0.5886868032741654,-3.1613021678513586,-2.57261536457713,1.9122738947196005,0.9983596331006033,-2.8441804041970755,-7.9980402659813,-2.238714757636528,-5.351725009817349,-1.2497559102155082,6.166786489892498,-15.843925562381445
-133.0,-5.758355334378384,-8.44397381183892,-2.6856184774601926,7.137429530612583,-1.528672078980482,-5.540531371793191,0.639720853224444,0.3826918820534272,-5.567110410675614,0.17364361585218824,2.4879124667909256,-5.75316779241259
-132.0,3.1784120068749413,-0.913114890931058,-4.091526897805476,-1.175817683451724,3.6466263754344377,-2.5524506270100424,-0.23058959453815664,-0.09518398460553801,-5.196878297467243,-5.2289990269633835,-13.499846242761492,9.223571633803466
-131.0,2.0845130865447437,-4.139328867871987,-6.223841954416387,0.98417482577472,4.093630861974956,-5.145703319981196,-1.774205579199014,-3.4876660955819503,-5.472029466298185,-7.811202649134149,-12.101223895182427,10.14575067873014
-130.0,-3.0190888969267404,-0.6872968130975761,2.331792083829146,1.8895182470676648,-2.6485998104594772,0.8669555575306815,5.364683703555751,2.3476957452441285,2.169745043804243,-2.5238788720609096,-5.499317035075356,0.8700162509491847
-129.0,-0.6168254507943902,3.555439375579799,4.172264826373764,-1.5097606873409983,-2.3577936518739255,3.8377841523506273,0.8925191052119184,1.5213874571526096,5.812882886717434,3.792741736163532,-4.928778381295378,-3.2468503930932484
-128.0,-2.7855318309770785,2.3850346544398136,5.170566485416255,0.2417916016645718,-4.009969829950087,3.756237555376795,-3.0142208939648363,-4.0871100850782325,2.4720207058785633,2.22076453389824,7.977818077157107,-1.5096158963931756
-127.0,5.06836914112732,12.949309701033913,7.88094055990609,-8.963184057102863,-1.4293068482896467,10.392892415676672,2.6367827956465275,0.3763357107832681,3.543299948170581,5.0051413664089885,17.062061936343596,13.026826869095785
-126.0,-1.6369785431749402,-4.235438624838547,-2.5984600816640473,2.9070247469899626,0.5427641965273873,-3.444995936612154,-1.0913956448342366,3.274291467246789,2.1110453335058423,5.522999271013571,11.753206076509736,1.1644213117433018
-125.0,1.5180006259816494,-5.055432566519086,-6.573433192500877,1.7418167817287968,4.031462100573324,-5.772831785376445,-1.2089129732801187,0.5645095939227023,-4.577349453942111,-0.9270605315130842,0.2258069827694955,-16.39860224364961
-124.0,-1.2016150325755464,-7.470616297568645,-6.269001264992891,4.308700262468054,2.5174738203438674,-6.837616398985333,-4.142252396928041,1.722480083149445,-1.9035981807493125,-0.5060909665740907,-11.64637511271111,-12.746673200988553
-123.0,2.210248587177105,-3.328946881315072,-5.539195468491718,0.6069739922875887,3.8524790584511743,-4.487366197881134,0.9389842050558699,-4.607799772531205,-2.216830918709143,-5.60443588144365,-16.72924573633362,1.9226499778178043
-122.0,0.027863728405180865,2.2200355033282113,2.1921717749235428,-1.161447557273341,-1.1129769496516466,2.229402324061671,3.483530508062429,-1.9161987579309883,-0.02908612225297924,-5.357537080876439,-5.358379342927618,11.921207482859543
-121.0,-3.3351387047174423,1.622879612804204,4.958018317522082,0.8895338139309239,-4.107500092919158,3.3163874915658464,3.643552842291168,2.4071977925739954,0.7389680490718181,-3.0223063959641547,6.104866170662874,3.453582123549676
-120.0,-8.446118873707341,4.759089067077358,13.205207940784913,1.8689929587565153,-10.793402972032581,9.014035353985467,5.204350303134018,4.5315303782581955,2.7332106505552884,4.742969076042843,13.004354517839438,3.068536194452056
-119.0,1.4287231667590912,5.472238144278229,4.04351497751925,-3.510540638172361,-1.2784316318757876,4.717719829708849,-3.6688923218438823,-0.9489364028079956,0.044083633491079466,5.728947285666445,1.6053518149460748,-0.8183552604743394
-118.0,11.829956781692648,-3.174605222615921,-15.004562004308614,-4.313825904866618,13.367978677617883,-9.12480114024103,-8.492175907539309,-1.711390636378648,-0.8836123457837106,0.9458234458146557,-2.1057979206034507,-2.312918928376829
-117.0,6.900743614591154,-9.10687142878774,-16.00761504337907,1.1143121695228224,11.408448103338545,-12.590735663984391,-5.438203878568577,-2.4020367852777564,-4.771449243130697,-3.7779886393779725,-5.074585230167683,-1.281977015036131
-116.0,1.6659796011910744,-1.6440487029216326,-3.3100283041130227,-0.00036350177196964317,2.5263314855569554,-2.4331620057215826,3.936373175647973,2.236384726067259,3.2947947832956355,-3.4486807547151774,-0.8874493153484635,2.522345686590808
-115.0,-14.653141867885628,3.9273143614935737,18.580456229378797,5.374025772050831,-16.57274594302631,11.294627746866992,3.2953211633512716,-2.047723167814419,1.8686980764757053,3.9922387180903085,9.57802787521037,-3.0521399958337425
-114.0,-2.2736194751399053,14.312773337341993,16.586392812481552,-6.007833742931982,-9.459668832472332,15.408473445387905,2.702372067813997,-4.961631657018197,-0.003831540506865627,5.248216744937589,4.064343675831593,-6.136986121519547
-113.0,-2.735146999084145,4.563725462974547,7.29887246205842,-0.9813373692232465,-5.043019532509995,5.967280804267915,3.6985487401493247,4.885384035300648,2.9832300705313552,0.7420849463554415,-10.988596255040681,3.7317855287551858
-112.0,0.4054101146876622,-2.59802973268693,-3.003439847374502,1.1071855113914866,1.6805126090599263,-2.8431249389316777,-4.354464707039208,0.25139938037535225,-3.8292153824553603,-4.3567045357047585,-4.702481205987013,1.0806941544219153
-111.0,2.2016518934109603,-14.798240762837226,-16.999892656247827,6.3082154712734795,9.656394376020415,-15.860556810058167,0.400249266430841,2.7864267126600493,-2.25945720933019,-5.451706445244959,-3.455890255368284,-1.1545112851981156
-110.0,9.096365500561769,-13.076997416680303,-22.17336291724157,2.0001887969573526,15.61154210259763,-17.662383572405254,0.5660647232564979,2.0986008920896175,1.128917722131487,-3.257605713335529,-0.1656644915320482,0.9187750570669406
-109.0,0.1963154319260001,-1.8605739810062119,-2.056889412931721,0.8436105834915135,1.1809402036516374,-1.9144025261536433,2.328524256199981,1.5718432514524603,1.8437225267168826,4.090578192631797,8.155220071088932,6.063183832069647
-108.0,1.4560200420933462,8.979495999451885,7.5234759573587215,-5.20307685458404,-3.0603623422439554,8.21858226374755,-4.374173653098978,-3.567576355435151,1.5710695722201111,3.575296019597215,6.007411396592272,-0.06529195386245124
-107.0,3.0367736429769687,9.063994166656435,6.027220523679367,-6.031851417712561,-1.5254638041377637,7.512379884333469,-5.381794915166572,-3.2095683442271703,-2.2300005648968577,-1.2861654262198448,-1.7430054146688079,-5.219909442361936
-106.0,-7.406679675065311,4.5556406355933,11.962320310658306,1.3684716452256556,-9.719550975180383,8.302335759114907,0.44055710214330146,-2.0756561177083754,-3.909465112474162,-1.0891662387028849,-3.0119860283739106,-3.2208857077584585
-105.0,-15.963470167333535,1.46560038733824,17.429070554671284,7.272171354020859,-16.657770436843816,9.487199237679832,9.071044413255139,0.4160511100700579,2.456170671776354,3.0521413595614852,-1.5498879183444088,4.144807336405759
-104.0,1.9327821775507656,-2.0505203158630025,-3.98330249341429,0.003295546672282601,2.9921618931374327,-3.0597086080541906,2.132540990600417,1.6576253120148667,-1.7289980737869235,2.5883167917608967,0.9353428774703398,1.1240383017256241
-103.0,14.36008165728999,3.12780023621192,-11.2322814210785,-8.721320668250165,12.74903559675353,-4.098193548349426,-1.5067413435390358,1.8970443878182979,7.127388226051138,2.708645761977956,1.619023474719821,3.003962603227836
-102.0,0.10535673968181669,-5.852434738292075,-5.957791477973801,2.8966870625242445,3.0629133803031037,-5.873418733627431,-7.646247783060965,-1.8992534936975196,-1.1508909175430615,-5.658374789872543,-1.385082667678128,-2.064783874525373
-101.0,7.3412966076673225,-3.453494164807834,-10.794790772474592,-1.917980825043295,9.10093246088196,-7.090389347050354,-3.905673475335065,1.289818891121212,-0.06733979820753905,-3.9994805053828197,-2.5718903241591122,-5.433956079164709
-100.0,-1.7544581716721446,-3.3142965284892285,-1.5598383568163152,2.5653704318075126,-0.1408239773439801,-2.4763773775262674,4.494980774724628,2.4269958024210863,-1.7823834093641882,0.17076341095625658,2.5713382164691545,-4.730885095530841
-99.0,-5.197140212130764,-1.7261667306723547,3.470973481458936,3.420181968069901,-4.37551668621672,0.9206341562080473,3.9362921111370466,0.2809063112556291,-3.4019079752749968,0.5555897044969845,-1.5752208391391562,-0.18874539008555846
-98.0,-9.7809039438902,1.6250804491576043,11.40598439304784,4.04232117794318,-10.555064910683177,6.495390873695294,3.1523568468777388,-0.07627465371709857,-0.06063493473615389,0.7588010645649783,0.6041690926346459,9.696497065700141
-97.0,-0.7661667342839316,8.200929659455435,8.967096393738924,-3.7488148441894644,-4.828156453649458,8.573730685036443,1.82523597076855,-0.5156404446479665,4.290215107412532,4.108490209645388,3.6493123700585692,5.218175076279559
-96.0,7.647984004235621,-7.751957336792768,-15.399941341029026,0.10120932892385248,11.483317629415236,-11.578926808917938,-5.115763406529124,-3.387018414690343,-3.9102870015451137,-4.459015819671995,-7.532686109548234,-7.485404712343383
-95.0,0.42557170769113384,0.6077444869063673,0.18217277921467367,-0.46757210632464186,0.08101801853611112,0.39541697120163666,-1.2038113974774505,-2.885885797623305,-0.1884066289131837,-1.0875348059354706,-0.5735309250284524,2.2820268384404496
-94.0,-2.1249772544180643,3.7350474022197173,5.860024656637446,-0.8362924697331433,-3.9534405739901555,4.797371911976471,-2.1261658098060874,1.1252834448654994,1.926142153850456,1.2396961773559871,2.2023420499274966,5.987063534125519
-93.0,3.468402581962,4.829752249282881,1.3613496673210144,-4.182680810955542,1.0947845729596912,3.091675426034318,-1.1115004796397405,1.9444654369237098,1.1620595264933105,3.451810200664091,9.690873948883546,0.5842349672668071
-92.0,3.4008190846089223,3.616531275002195,0.2157121903937841,-3.465817561220675,1.557851417974192,1.9072377496372503,1.4712623102499456,1.7862834034868744,0.3521416625533129,3.956435311415822,3.2439189687338628,-8.778109637129434
-91.0,-0.024815849279985924,-1.3990895542686936,-1.3742737049879667,0.6748028719665475,0.7208696209779695,-1.3998671481452916,1.3274448388160338,2.0032872565509483,0.055727178978771,0.0992143711549307,-5.907121728417168,-9.11248137057913
-90.0,-3.249611918824139,-5.311653686338218,-2.062041767513618,4.244273783922379,-0.6263694729352931,-3.623368628201902,1.4253319990678548,-0.6654064287556487,-2.564284947328552,-6.343187627465714,-9.855664100292985,-3.4586686795147834
-89.0,-3.643311960375266,-8.676253470654025,-5.0329415102787465,6.205668295415106,0.6595591502366807,-6.869263552433262,1.6120457365554959,-2.8079892532707538,0.7782730027152178,-4.413448903386746,-3.0558074049843906,1.9775116707281233
-88.0,-4.694890968208152,-3.4866325345988374,1.2082584336089655,4.142605127524127,-2.991521735764824,-1.1512391783964442,-1.1619768738861675,-0.15222315645460616,1.52125178238646,-2.499213464799464,0.08091617552068353,7.7626304356266465
-87.0,5.168510783104635,8.019541466088318,2.8510306829831564,-6.613954723155757,1.1926678239210573,5.426387729550036,1.7913055392542825,1.9374744320823276,3.634122101761796,8.078613518954503,8.827015984169366,16.46019205090525
-86.0,2.301645182918328,3.9207925158037495,1.619147332885018,-3.125527085260634,0.37220494809162785,2.763156850799036,-5.4333090842878775,-0.13159408268953823,-3.6873164196629693,2.5856502667889987,3.74019657598616,1.888100468723711
-85.0,2.5401720835751433,0.585360436643457,-1.954811646932022,-1.5752692205823786,2.278509543590549,-0.6916801087474087,-1.5126332986477413,-2.441471565400829,-5.129243642804134,-3.3824083212016167,-0.4280305233217958,-6.764245294516993
-84.0,-1.290647991153465,1.628535976706746,2.9191839678601306,-0.18494532339864556,-2.0713839732405077,2.264111195808061,3.9840168266879763,1.621211291471091,0.8012860421726926,2.6974617273793178,3.424889124385341,-6.145186165263556
-83.0,-4.648731133514737,-8.023073686519105,-3.374342553004253,6.311281624931262,-0.6795016001830319,-5.634897187557806,4.202791492311405,2.687932090849827,3.351722478611307,-1.715915257224238,-2.8066690282354925,-12.033777639163176
-82.0,0.34271631795644364,-0.892354981326327,-1.2350712992824648,0.3170821402201769,0.74750683722365,-1.0855109889176533,1.9978166392396572,-1.691519392376321,1.034004909892181,-0.6345897120865619,-5.83764093063232,2.741674792837716
-81.0,3.1493383020514236,0.6270900170248956,-2.522248285026203,-1.8581244433102841,2.791997495645158,-0.9768898857752475,-6.206453578656329,-0.6922141770130514,-0.20774349072691756,-1.5327918892318455,-3.756265350401859,3.492118126610484
-80.0,1.600425997981806,6.259581590593471,4.659155592611787,-3.9880820304389166,-1.499670895188467,5.423060863617088,-3.07673231206509,-0.10219523613791474,0.7897257328452625,-0.4907599730530924,-2.2666344809717143,2.5953789592783885
-79.0,0.648901692083804,12.048950198986683,11.400048506902776,-6.3326279431777595,-5.3519812205586375,11.761562246781732,-3.7250472957298606,-4.690998371668988,-2.1566414092900295,0.962977603847614,3.394758184023656,2.0454482307053494
-78.0,-3.16816865078414,-2.9047449845718245,0.2634236662121374,3.0543147115490896,-1.6967062677319775,-1.2867123815717139,1.0748133340982782,-0.9612882895289497,-1.164167503212966,0.8623532027047409,4.978892648279226,-2.333871296975883
-77.0,-4.013069047175465,-10.230513241535945,-6.217444194360631,7.146364418566183,1.1200314030606682,-8.191024052732287,5.635683785735025,5.5381088296038445,1.1581989854385422,0.5346242494044473,6.843787216458633,3.210366367291311
-76.0,1.508600764825807,-8.846260832351831,-10.354861597177617,3.6242411706187583,5.951811766876635,-9.64610852146809,5.496560147792806,4.218159253232723,2.756392229357348,0.6216315107803239,0.4677368870456351,2.1133467495803777
-75.0,8.870425154416607,-1.769481005442846,-10.639906159859361,-3.507024879055516,9.70119520395439,-6.249831065692547,1.3372926857673284,-0.8314620344219232,-0.35622625455075396,-0.1930047332959151,-7.179841204214485,-2.1960392212601487
-74.0,-3.0328968127308915,3.0223410991146444,6.055237911845631,-0.02417913881356082,-4.5923905834511904,4.572371271217813,-3.2636315985511097,-0.9465253533955239,-0.817848099941157,0.19069129951250652,-5.4645129272511515,-2.6596994932035205
-73.0,-7.160972402627655,4.500347664592772,11.661320067220393,1.3011131305096082,-9.375367386756274,8.035387429126716,-5.02649763668454,-0.2844456328863574,-0.013637078037732842,-1.01958671637356,0.2319443898454705,-1.5861864694771186
-72.0,-3.633385898612501,4.702876810867976,8.336262709480415,-0.49101604877684557,-5.944637913209225,6.553046214049691,-3.4654251264376272,-6.068577111690872,-5.344930999679084,-3.914213225678253,-1.646141068637849,-2.5317836040346093
-71.0,5.729785629413238,1.0548238489273327,-4.674961780485981,-3.4379032763061073,5.167072759444422,-1.7754676011602202,0.8399044910991549,-1.3627182798370616,0.8076962206905096,-0.20534702360624624,0.7349534668910842,1.4209196918742681
-70.0,8.967461498329353,0.7171618697493749,-8.25029962858009,-4.821755492453161,8.65440045089188,-3.730203899621829,2.999384459418117,3.1775632236894324,2.758971752702124,3.435509204702461,7.358419325593966,8.510242595115008
-69.0,-4.452097274443049,-0.9174373138411391,3.534659960601773,2.6940537495610286,-4.025758761695048,1.2674457185003887,4.191293522502422,6.307761286934422,4.032813849808668,6.918889710033764,9.43215475957289,6.677512771310331
-68.0,-0.33286332244797256,-0.2631860911879458,0.06967723125992098,0.3003452209126436,-0.23395275020563572,-0.1386788328377908,1.5529000526497105,0.5603263408367609,-0.282430526187595,0.8335509326356858,2.540935620094809,-1.483568877784026
-67.0,-1.578914650783194,-0.7335430361083461,0.8453716146747812,1.1576788200082075,-1.1672336271996313,0.0892468809063085,1.5911583014816801,-3.8329927057753546,0.5376513364967026,-4.9699549989707545,-8.042660785451455,-9.906452880990905
-66.0,-2.8691308137509903,-3.0233070077500206,-0.15417619399902194,2.9530680905982516,-1.3928109872337713,-1.6398145555976273,-7.1304286859576544,-3.014765602672735,-4.906274644081427,-8.347131264024126,-11.712189360673959,-13.791718208583344
-65.0,-4.589610770835412,-8.063920739269486,-3.474309968433973,6.343911923670256,-0.5154976018264759,-5.747396269080964,-5.054993146205038,-3.4096584214418333,-4.3926415528670635,-3.59422783630546,-8.95334712680381,-5.876847579094324
-64.0,2.9228834880277783,3.3447998646800867,0.42191637665239945,-3.182647512604785,1.213219917643413,1.901235881342229,-0.6464083342789688,2.0405153093629584,3.787922744996339,5.43717515546406,-1.7798028202674585,14.384042594888818
-63.0,6.077324619429696,3.331694100640898,-2.7456305187887518,-4.661906844060283,4.452914017115596,0.31110575782745076,6.07708024215455,4.341126104250462,4.680036351939817,8.154257852336553,6.928986358493968,14.997692217686852
-62.0,8.730564541773376,3.371590137261251,-5.358974404512109,-6.076819356557046,7.007722461267592,-0.9708231505706322,3.6730084412821022,4.951059398177206,0.9529888865355614,0.6941483751183437,11.287160367346566,4.937726145761159
-61.0,-7.221874486070846,7.786897226449861,15.00877171252076,-0.3011802111469586,-11.073454892840378,11.35029948733542,-0.3823396054673789,-4.6073663833407466,-3.1993413172559695,-1.3236600897679487,5.450730548127434,-9.978208464251527
-60.0,-11.706874782458515,-4.591373631642432,7.115501150816089,8.134230238429202,-9.448255257292828,1.3029779486176816,-0.007479480467667776,-0.8433421931293728,-2.3702841660716136,-1.8755298798680804,11.690774329678376,-14.073665079595097
-59.0,2.581853170591639,-5.826839363386351,-8.408692533978083,1.6876168922522288,5.457805089431599,-7.146974819399945,-3.8002363347220576,0.9098772781408517,0.6387207915955202,-1.1074444535814623,-1.292945003807095,-1.0450779677618858
-58.0,7.623517279353819,1.9652024527256815,-5.658314826628312,-4.808279765598497,6.682093304994054,-1.8699035013490355,-3.1968614320070516,-3.4750189311052986,1.6138493794512683,-2.87160240887117,-21.44687100923274,12.521604940518005
-57.0,-4.066841003295355,4.03200047041206,8.098841473707218,0.0022175687522203447,-6.04086034132299,6.044792820604897,2.547136382498401,-3.546141046178523,-2.0784093593105943,0.2474604435192207,-5.163010512041476,10.612805491834685
-56.0,1.8763356592632738,-4.1655302215567325,-6.041865880820217,1.1271159126269061,3.924395023057447,-5.0450922060359,4.380806737494259,3.676216779485404,1.8824703706250006,3.2618861999607436,5.508831279966909,-5.996972855318125
-55.0,2.665262010858564,-11.887000827480698,-14.552262838339367,4.668423037581952,8.57725587999095,-13.239935317564244,4.65605390675411,6.238760168531153,3.124131469798101,1.9030287906311039,0.8154796233084672,-11.197034718599827
-54.0,-2.294436387560408,-2.406949744945572,-0.11251335738506718,2.3238515588383946,-1.0399501194283967,-1.2794098804289673,-1.4704704875266605,-1.7081638133610606,-0.522697983500819,-1.3834707217909532,-3.7095605175383404,-4.511054729435351
-53.0,3.7556665018226125,9.319842478233106,5.564175976410697,-6.57224751819166,-0.9284842264864293,7.503058895510553,-7.101225626091092,-2.451593263079201,-3.907397635827811,-4.852173096097008,-1.035027319458691,3.2018351456990914
-52.0,-1.3564299870090264,11.359509020704836,12.715939007714015,-4.9662158496568765,-7.058034424172823,12.022813350527981,-5.387203494245909,4.37865020913422,3.156853793514701,0.37858469860177,7.8853342814996665,5.288377018456658
-51.0,-4.7443954188507105,7.235837900210586,11.980233319061293,-1.2977618479398632,-8.304865873107214,9.595371378224472,-1.5859211701771627,-7.078723453730168,-4.684992821749445,1.5808281740873207,6.401093021190188,-1.0596416305507734
-50.0,-6.57612149149813,-1.1133249712123647,5.462796520285686,3.865238439306949,-6.042368050183372,2.162321477998142,3.998752716406443,-1.4232008754041707,-1.2370493748022762,4.3009847451632215,0.38304266093731254,7.154917091092019
-49.0,0.23423553985520051,-9.079704964843812,-9.313940504699218,4.441324751918371,4.74764358172591,-9.211743590688545,6.620984547165611,2.7415303238985644,2.0169033663538425,-2.419168740363173,-6.847802337949274,-0.6637300241388662
-48.0,12.433913642854602,-7.882326801084049,-20.31624044393884,-2.254075984258938,16.343995246374842,-14.1190748791851,4.191335014027096,2.527987067036909,2.0654470788552635,-1.2505625479199642,-5.232000586595715,-0.7058106174416021
-47.0,6.0469979678713015,-3.5388011199755596,-9.585799087846954,-1.2249277010800776,7.859531624556973,-6.5091367173418035,-2.1515441915709337,-0.5266453390626891,-0.05770843209413701,1.7238518494746777,-1.025491669553757,-8.878945533532077
-46.0,-4.01316855381886,0.31529901385316395,4.328467567672025,1.8091200436314576,-4.1310145591487,2.2914689663852936,-4.7846785933371665,-3.2627409198558146,1.850300498877742,1.1208829556669009,11.507483848415948,-1.652957011882863
-45.0,-9.096771655807732,0.9902314556371437,10.08700311144491,4.0230533553702665,-9.63244426300774,5.584684958668675,-0.8417602288303154,0.5716509251103954,0.3709613057136266,-2.3349475386436143,0.10817788249974836,-2.025252148780355
-44.0,-3.998228718802825,1.9220831614118339,5.920311880214754,1.0153351474477539,-4.921215090638671,3.8895344254228146,1.344995435814369,2.6151105399517975,0.19613119233748333,-0.6345687880726152,-6.148108768593811,7.039421440617252
-43.0,4.507674147604494,3.0339794359219816,-1.4736947116824028,-3.710252823884909,2.950570993183078,0.7524543652757139,-1.2062502442843213,2.7214072726658993,-2.351744381055981,-2.661992522420741,-6.0312703806,7.219150371229542
-42.0,4.306534477562778,11.26897620307032,6.962441725507622,-7.803911590220768,-1.3675544571924272,9.172456433938946,2.1863461081421685,2.4142633283741657,3.881624576423732,7.4523879407259725,6.246870377757123,5.284402755245839
-41.0,-4.493685806514043,0.577878324647819,5.071564131161846,1.9423218079266547,-4.743503506930961,2.8083179174416744,-0.28452985931853014,0.3193811690026755,-2.6351826117105306,-0.32900602786010635,2.3545222083438286,-3.459235032203528
-40.0,2.442167575623081,-14.28657874687849,-16.728746322501657,5.906941402618732,9.623895101263367,-15.520416685124232,-5.085763553518247,-14.081262912988779,-11.399540838410516,-6.291074230092272,-2.9756287463247886,-6.195672111752169
-39.0,3.0146002042190396,2.2152005556749685,-0.7993996485441759,-2.5506282332902455,1.865413950291992,0.6954227265505564,6.80834449703292,4.94458000971047,7.244467760819482,3.9670833423690564,3.9311600930831383,-5.31318537872655
-38.0,-1.263990731266202,-2.8032535368019715,-1.5392628055358362,2.020354752033212,0.17304081561744322,-2.1874372967410394,0.42492901847643694,0.5431657501095838,4.361037550481603,0.8243622286970769,-4.501346804346479,-11.566066005284718
-37.0,1.2178272595838533,5.038976275834759,3.82114901625092,-3.140764373650047,-1.3470632724324973,4.485266348514128,-4.27073533350975,2.0540127616772317,-1.44909325204187,-8.106407012980233,-3.4276880467059145,-1.299853822390621
-36.0,-2.860876782432516,1.566156980749189,4.427033763181796,0.6346477469100082,-3.6125571924255544,2.9630743738193046,-4.106470904256088,-1.7938414495769317,0.3025626354819184,0.51721761518712,3.242340613486562,12.768935010530399
-35.0,-3.289588151700769,-0.3724886571502005,2.9170994945506834,1.816156191259403,-3.15187492701437,1.3064725794672547,4.374907607388456,4.161851102126336,2.234569505332491,5.138342072120473,5.431471279316055,16.6005979374972
-34.0,0.8390210746317888,-0.5432783851013654,-1.3822994597330933,-0.1665536404567356,1.1412010654002598,-1.0177914632725356,3.0712295495170303,-0.07982502552223836,-3.6395676400990262,4.333270795795189,-3.2790378687081576,1.9268246579555353
-33.0,5.245575948528153,2.504318886419443,-2.741257062108704,-3.8194318347955076,4.026198627046162,-0.10278186426267491,-1.1616421463754811,1.1036726272404487,3.094485474516034,2.0403491904669924,-0.04228966297965975,-6.507009577549635
-32.0,-3.8286118876458604,-6.4161138722782525,-2.5875019846323886,5.094958236868877,-0.662631349843315,-4.490388593518138,0.9162827937653293,-1.357325397590222,0.4652736779399903,-3.6315872270612957,-2.8503314753183573,-9.026220431633877
-31.0,-0.4010346599361823,-1.4605430534192578,-1.0595083934830827,0.9792470305545656,0.37036369886205517,-1.248264735732382,-0.30321582241909745,-4.131379133615177,-5.204095853164189,-3.4339597286015735,-0.7412422332581188,-9.366889103197273
-30.0,1.626863986138852,-1.222300575414312,-2.8491645615531582,-0.23376106045172595,2.2037342618903315,-2.0190742298432705,-1.0378156551697246,-0.8252201124826501,-0.43862290757427846,-1.3599441871052091,4.504272537074051,-2.808267633438861
-29.0,0.6766184758961773,3.94752888784119,3.2709104119450187,-2.34305903312626,-1.252147691460361,3.5556349154565208,0.45100054546112966,5.042287733360583,5.083089817520785,2.8596626059516486,4.568626044651224,12.1929103441142
-28.0,-2.8137022983593303,-7.310872849601669,-4.497170551242348,5.033181073886555,0.8046396650853589,-5.868345086023966,1.8219429335447024,2.6311918598628825,1.5780176715508616,-0.3069520055623538,-0.9669616798101786,9.414751676609663
-27.0,-1.2365323087892568,8.189576515014682,9.426108823803908,-3.424177038096251,-5.375486105062008,8.775382198433874,-1.1566042470890032,-2.2243609693094766,-0.6564478146127135,0.3911526646390976,-5.108355111026587,3.6104173309581364
-26.0,8.679713292664768,13.966096159348528,5.286382866683692,-11.268005260072556,1.7219267846238937,9.681404901821075,-6.968220598990598,-4.764529470801568,-6.994576456387969,-2.4298358253518653,-7.168595410252908,-13.617273725274949
-25.0,-3.380612482170131,-2.0780580266151834,1.3025544555549342,2.7065131655106494,-2.325523839775713,-0.4056289221688716,-0.17842701528884808,-2.6965330828113934,-4.03400273798648,-3.387201060784374,-0.8987297705070123,-5.393332558893769
-24.0,-1.2003469036649888,-9.9621039535686,-8.761757049903576,5.556558666208,3.790080471420697,-9.37794273604603,4.014055978505387,4.085890694399438,5.005074695172117,5.448226549336913,6.686669413244964,-2.5902232241156287
-23.0,0.4802974925831984,-6.204675362263761,-6.684972854846867,2.832277722902534,3.589368759028609,-6.462449754784724,0.8137163678198673,2.686938181987988,4.028174980584356,1.0092008739370213,2.352272871427913,1.805829695359182
-22.0,-3.5360048133796607,0.007797176544221074,3.5438019899239923,1.7264594407216185,-3.531601601022172,1.754495735784213,3.7692582217920245,-0.9624475299512398,4.6657507443455355,3.454945890738569,6.894463828769112,12.979201383390588
-21.0,2.261132851524592,2.5630198967547053,0.30188704523016113,-2.3789421354514606,0.9926453180855663,1.4862008320733153,0.1788020037667215,0.13080861801716204,0.6545629965083772,0.5383792622660081,-2.1705125451877487,3.1938894455616316
-20.0,-0.1871095449732667,-4.8017014378542555,-4.614591892881053,2.5219990332116438,2.154244463357733,-4.73495457635925,0.4963569906731976,-0.37266066686914595,-3.287727019972249,-5.708319053601288,-6.025941848400749,-0.9144245389222663
-19.0,-1.591651101465526,7.450709664231289,9.042360765696683,-2.9032435343733227,-5.2914429197085395,8.299591234883938,-4.1024922733445175,0.548413807741979,-4.663361090050044,-3.415624882759006,-5.559617004565792,-6.485423858439735
-18.0,-2.14047295867416,6.939341727762903,9.07981468643694,-2.370197621484519,-5.657641426435131,7.9876871217385155,0.04700103316905846,2.912498838387731,-0.7563096423820377,2.61992619781344,2.5310389694239097,-3.0690417535863497
-17.0,0.11208066823108392,-7.467114075527962,-7.579194743759144,3.6334664661695397,3.8819735936021114,-7.53984199645519,3.6416643904892427,0.8688002257258773,-0.2700036041360754,0.5860440997273889,2.3112939451524888,-7.032666714962625
-16.0,1.2855108820634276,-4.715805706871576,-6.001316588935024,1.6764643724986006,3.684466579161641,-5.370375624539698,-3.825159473061089,-7.237627073827417,-0.12481891311701518,-1.769624903639071,1.5616927343100648,-0.27572252695998367
-15.0,7.984692254642425,2.1035099360764695,-5.881182318566005,-5.000928220017013,6.8994704185309175,-1.8976113018987575,-3.7099560438523644,-5.682004696753884,-2.861471363242959,-1.173624711582221,-1.060166810269634,-0.49700560715154396
-14.0,-2.684793249222261,3.5898651803553108,6.274658429577503,-0.48797244689688046,-4.431424375783402,4.923809440786729,-1.7533203349594024,5.751210238251238,9.03177808805432,7.223880885667731,3.940737952403092,9.52922860184704
-13.0,1.7850570112457553,4.734172958570809,2.949115947325006,-3.2968435770598523,-0.6117050930958308,3.9093145590800944,5.855453857076354,8.073960851983152,2.873711805759489,5.404096642804722,4.963908407639217,17.580005728360806
-12.0,-2.5152446131907995,-1.482095940033006,1.0331486731578856,2.0386731222250156,-1.806007166773204,-0.24086701862766557,6.340687969232001,-3.1745946077985545,-2.8637300136613497,-4.139292946507933,-5.3626402182312125,-0.5787576788374151
-11.0,-1.4660055507202618,-1.343392068367939,0.12261348235252156,1.4456884417160534,-0.8308265003453688,-0.6340925956128352,-2.24577806583849,-4.347127745671609,-5.469356172613907,-6.4245257169968815,-9.545737701625459,-13.818821571586088
-10.0,-4.390079008729772,-2.7339571781474,1.656121830582658,3.52879122089916,-2.986679967473214,-0.5707396138574878,-6.073474617194586,-0.45686628038867827,0.3793225361130581,-3.399107771954779,-5.1203789758652665,-11.199150409699442
-9.0,-0.08440436777727789,-6.4706578790803215,-6.386253511302834,3.330289305315509,3.1825106232713813,-6.388745389203156,-4.064088909807837,1.2633096967484885,-1.8413418316699737,-4.06148769682251,3.993297675046356,-0.8001495036930697
-8.0,1.9582267842209962,-3.429681762514151,-5.38790854673508,0.717128536339383,3.702640700963695,-4.452187741154275,4.711336633438204,3.818792853170627,3.7484602838552363,4.166250696633095,10.486375189308925,1.7614232998737325
-7.0,-0.9860094943682411,9.10350510601544,10.089514600383541,-4.073009907032509,-5.585234769013391,9.632013020618706,5.595045289394027,3.341952840502434,5.445862570491038,10.696621896228185,9.307281204727596,5.260324837427
-6.0,2.813835652803456,-0.06993119307005724,-2.883766845873695,-1.3873718219111413,2.8064501309079435,-1.4360585003788757,0.9532833828333132,-2.2882130565970122,-3.9012200544864446,1.4256787886123208,-2.3899591046143662,-1.8867517029038092
-5.0,0.9077226751056713,-1.0505463377288087,-1.958269012834754,0.04890841647796629,1.4765821502010892,-1.5326740919973292,-0.946360931285364,-2.0990054813723495,-2.47167405053009,0.0545796363228126,-6.9612420084150095,6.81837546500722
-4.0,3.9210254307440624,11.946471047926291,8.025445617181969,-7.967259164557783,-2.001437741210853,9.969787917148864,-4.713291529553185,-5.571250739496053,-5.30195418270332,-9.03685286636684,-4.037595082678656,-2.4403600992252725
-3.0,-2.534698409306527,2.680561325869329,5.215259735175732,-0.03883594311620264,-3.898066819052345,3.9435293474864173,-6.1215772495008585,-4.302293023444266,2.611776540050845,-2.994664871732457,-1.0250164047608386,0.980627439834471
-2.0,-2.6852545428889525,-5.733759128320563,-3.048504585431638,4.236377989374925,0.1593148311958983,-4.386720750058696,2.1318601480849924,2.0689530201484905,3.209371051361552,2.4683989797092547,1.1106979652517541,2.7986462977336153
-1.0,-3.2392264985510035,-15.321413482110334,-12.082186983559225,9.306482958698025,4.395287659223714,-13.693653893961306,1.717075386615226,4.035851808890496,4.289793715709109,-0.12282465969243894,-3.741338370076884,-0.6407504679830531
0.0,1.7027119370005535,-1.8630891847321047,-3.565801121732531,0.11218060774284222,2.600696891385173,-2.7086667507426476,6.020802123295691,5.373026933569735,-2.176240079596927,0.7617470453622479,-8.811458827487296,-2.256742344512762
1.0,6.171476914255749,4.587919492541007,-1.58355742171468,-5.41661086625903,3.914471952208855,1.4996424625411093,0.7786703095054599,3.8327821272250797,-0.3734758073471871,1.6175374385807821,-3.7795178229698125,4.136272376299759
2.0,1.5220200813319247,1.4111839384534028,-0.11083614287858445,-1.4935696293000138,0.847315119727319,0.6347401333344984,0.8650754045586934,1.3317210928970402,2.5070140947222956,2.9411800411195794,10.558016480891828,-1.0527118855436042
3.0,-9.356694649177886,-5.931848698202569,3.4248459509753233,7.623693050782685,-6.361610314632747,-1.2840253725607695,0.7341253511520445,0.04206055042081869,-2.9518169609026534,-1.4373735726350316,19.357445592985577,-17.010750590715727
4.0,-3.0573656482362357,9.579876448393096,12.63724209662946,-3.281039951526078,-7.893860728564301,11.142400942816128,-6.0658571073782985,-7.802763761575904,-5.4080799255980905,-0.1163413848953031,13.848612099450063,-10.58881415697487
5.0,3.181978297218781,11.677727578443683,8.495749281225102,-7.375617905901169,-2.618320132102228,10.109592911855998,-8.954216128575188,-12.125014678051532,-1.1873444724773008,-1.0532609315951371,-1.318706323199871,9.518945351858314
6.0,2.690165330772586,1.6156865854866522,-1.0744787452858793,-2.185937013234354,1.8492575771449897,0.2876397595983753,1.6076702144954509,3.723323466512927,3.485099418684282,3.234517797657409,-15.046985436023881,25.980045816015082
7.0,5.959578889293012,0.7634643579633418,-5.196114531329713,-3.3255442371287574,5.5499376611294995,-2.278229578803284,3.760907541171285,1.1786405935540378,1.6482899024068651,-4.474699253566718,-21.26449481921746,13.636883636952593
8.0,-1.073721554338793,-13.715035923436197,-12.641314369097577,7.421625038591511,5.835969866188327,-13.156701878089063,9.701222785462525,4.773222557019763,1.9743665015291938,-2.47530693689193,-9.378609074341771,-9.8886258334576
9.0,-4.778963520824707,-4.830069013037779,-0.051105492213231685,4.746840365222851,-2.3934145141450065,-2.411398582232043,1.524912517296836,6.764191448687815,2.499001539316995,2.0907381492175645,6.000180222528693,-18.65883300449257
10.0,-2.9796033008728138,-3.5411276428192924,-0.5615243419465799,3.27849962964604,-1.2445850607884337,-2.0922630204923887,3.4615131141075968,3.825262594047052,0.9988690180659894,3.98520738372363,4.382964149986483,-10.071365267092201
11.0,1.1638627551925684,-4.08971190233417,-5.253574657526739,1.4813921676280426,3.244892117144496,-4.6264213155977405,-5.55624271914442,1.5107666320751711,-3.805123244101368,0.16752893027793192,10.256988335029465,3.9222589641678063
12.0,7.808048119788348,6.376478668872656,-1.4315694509156636,-7.14925948788312,4.650482054475423,2.4435487340967432,-14.291431893900933,-9.698910267883871,-3.568151963137489,-6.482459468502797,9.641790927687039,4.480527470654122
13.0,-0.20970801744946366,6.355128880320048,6.56483689776952,-3.045267600291517,-3.437357562316916,6.43230342523599,-3.8465461579998914,-7.320951098394053,-1.4141673941849016,0.787809312009883,1.5598062085847175,1.164387859938972
14.0,1.070699234872743,7.5615213239715935,6.490822089098836,-4.281394223822788,-2.6791426920700094,7.075609676535373,9.25281256340257,1.2135143163582285,2.4876961050904627,3.9873221075986094,-4.8207390268443095,-1.259572441286767
15.0,-8.469480662191359,-4.669132204718367,3.8003484574729685,6.532957263838373,-6.098116841626352,-0.46666672268403797,5.530395398227231,-0.4922843689524009,-0.9082008583348993,-2.656363812566297,-9.377943699803293,1.5242828511112254
16.0,-7.731355698991902,-5.375632981931681,2.3557227170602495,6.60252823542263,-5.077760274488357,-1.5444984880490331,6.590603306337452,8.174059721092707,1.5542667611993708,1.6632362898648945,-3.4527462389711703,3.934112774672678
17.0,-2.35999376929154,6.519490963937043,8.879484733228669,-2.1053023208036814,-5.646639402609037,7.74391536747177,1.7219893186617146,7.5402333233413525,5.245557579204126,4.390089361771664,4.953340662564846,9.434741993510016
18.0,9.143378194499189,1.6118639936885486,-7.531514200810524,-5.4023359425222885,8.315444929858108,-2.9118452718886894,-6.574852736175468,-4.3459611971084815,-2.445181715832673,-2.147280536525966,0.414017135338542,1.563839784304214
19.0,4.749923207282322,-8.014722586645826,-12.7646457939281,1.6053478182669179,8.815253890139143,-10.414074962807526,-11.568384960954074,-11.444684362741308,-8.630017480124387,-7.462112137753079,-2.092311108008016,-11.83724870670171
20.0,11.263993324511285,1.9664601046264982,-9.297533219884802,-6.567851138089086,10.2571525888794,-3.68237219640627,1.4977523703455464,0.11642627361776192,5.053533949400202,3.7930062598979024,7.085432938337744,-2.7165210063241467
21.0,-3.130525690250728,3.1116903850429205,6.242216075293595,-0.02649269589373282,-4.63770218746357,4.666794683106759,0.338223304074432,0.4291413612721602,4.172276691755698,5.62626951119964,2.749880669204158,1.2850419382829736
22.0,-10.018310786827497,-0.6312354021400929,9.387075384687368,5.364449868187166,-9.741783018853015,4.372005142291206,7.590825877763782,6.101029705923825,0.7526330340554079,0.7435195806542807,2.3932125548876604,-7.882836415178365
23.0,-1.5354154839765242,-2.231534320017707,-0.6961188360412116,1.9220881491701016,-0.4685179436845104,-1.4683986729258987,6.14011706520262,7.035682137190617,1.3822779561773653,-2.492299678250905,-3.5781494222749193,0.10412667198878767
24.0,-2.5680977271977907,-9.861595920335686,-7.2934981931379514,6.175390368457171,2.3843001752549444,-8.583041212016305,-3.2118862743670444,-2.76954486919287,-4.786811510082181,-9.014539228386562,-16.54439981008431,3.7877035155874816
25.0,3.269269744695066,0.6212073650052741,-2.6480623796898386,-1.9833796259605259,2.975751802400122,-1.0208878188694335,-0.9573041489110733,-1.0574620924592744,-5.728029348390939,-2.0395936617314474,-3.940229685857153,6.714117888395666
26.0,-0.09062728424260014,3.2301088142022003,3.3207360984448098,-1.5283953269669557,-1.6878708485143048,3.344740325834721,-2.617184411318706,-2.788296728280991,0.9541677219161366,5.531414483774685,10.796254696328948,3.0246733014380824
27.0,-0.23385895313965888,8.299200626618994,8.533059579758703,-4.0706603940896,-4.359704153208912,8.40498183328124,-6.273757533172716,-4.9268792133849955,2.8204604557280883,8.286797414239203,9.554559149416253,1.7978826660744547
28.0,0.4561942561690615,5.031324540759148,4.57513028459013,-2.7049416852583366,-2.105001637805278,4.790035901388871,2.0406096539915146,-0.1234458476469742,6.9851446310361265,2.9385197856078835,2.8255910550013983,4.871632320170896
29.0,-0.8779833053218244,-0.443506066960373,0.4344772383614416,0.6180537349437631,-0.6129417941384231,-0.020988877022555252,2.6754197571564777,0.6427149801463209,-3.023707929450212,-5.618669249130663,-3.9555462086688236,-5.3249830575465715
30.0,4.086484985250139,1.6529303239921753,-2.4335546612580363,-2.836449841959592,3.2320906208891365,-0.41178654785144175,1.9498585238908746,1.9673516525289771,-3.9066925464747495,-4.897678371823125,-1.351873536105974,-10.563674096166958
31.0,4.032724073447332,0.9008631291829978,-3.131860944264403,-2.435742533501107,3.557008087016019,-1.1432258952229,-1.7104414414278954,3.8051437277587934,0.24921476149542676,-0.38124058596938104,-4.03024191756146,-9.088885401434517
32.0,-6.040550148722403,-14.00219121986686,-7.961641071144484,9.972349948861355,0.9321886128529204,-10.937084810835286,2.560296017685802,-0.8030823759010524,0.46443167135075625,-0.788148060041798,-3.529650897981567,0.5370141239098181
33.0,-4.306502092645607,-8.083965852942526,-3.777463760296904,6.224499097794654,-0.2221209666833719,-5.890479006056409,1.6083255160589354,-0.06210694332523442,1.2746342359826164,0.8245272331776257,-0.15569034163865414,8.655245916982366
34.0,2.0449501899136155,2.7256036727285604,0.6806534828148953,-2.4345266474592644,0.7135712930043584,1.6626229092332045,-2.994779597041188,-2.5445365407094362,0.715897786287767,2.718078228375828,2.494150556450581,7.445436420922048
35.0,5.051246587186501,11.134022836019879,6.0827762488332695,-8.062328801337005,-0.4959197012979779,8.6473274434278,-2.2943036854460352,2.532255138126817,0.41760753735754785,3.0150430523547955,3.0685129912739173,6.524254617835104
36.0,1.3504012772833796,5.163099365603315,3.8126980883198636,-3.225150925150074,-1.2999527896377838,4.450681848597798,0.13082867347630023,1.624820359486781,0.14429582422513354,-1.0131095452824723,0.42406037095193194,1.0281635980718393
37.0,-8.137192333666116,-4.795597568966863,3.341594764699301,6.420906376646091,-5.735704192656882,-0.7608056677607999,3.049262507168688,0.3239143344795349,-0.6923507708150134,-0.6605226215253746,4.104561728861983,-3.2882501315820307
38.0,-0.5843898091082167,-1.7180954441505087,-1.1337056350421046,1.1863206664921813,0.2772680801951224,-1.3777340123336286,-0.7185171677063986,-4.989337416093295,-1.0291324194274047,-0.27065769573616527,0.06693234781000601,-11.467653926030016
39.0,4.7598513211878295,1.6263017829870297,-3.133549538200636,-3.2350633251878653,3.95424483003399,-0.7818183373088116,-1.9004944107705257,-3.062942913720617,-1.3558852939836705,-3.080768932179724,-0.7676846249248828,-7.124808734997632
40.0,-1.2043037817460596,-4.53576706472921,-3.331463282983159,2.9080471055753607,1.0818063511396738,-3.8817773964553313,1.4756644509634484,2.374336918770119,-0.5033675532676067,2.4647032834728795,-0.5082883809994301,6.596004061101909
41.0,1.564346871323368,-5.512541616366848,-7.076888487690351,1.9338636576669037,4.353652284045779,-6.321433900116178,3.3297285642431067,3.9374316101449485,2.158391310526593,-0.019180192449971933,-9.159762396888402,3.970627158191953
42.0,6.0007518021572785,2.303152966040935,-3.697598836116515,-4.113994930061224,4.819619166227864,-0.7245576484806104,-1.771681937754698,-0.206412393172541,1.9532063058962097,0.6353489375563554,-7.665214536138334,4.025186852213946
43.0,-2.005051467389494,16.073386317532204,18.078437784921597,-6.9981184160217795,-10.056985106701822,17.04764466700847,-2.9930572868804277,-0.4558654868758236,0.17044102733320132,-2.0584236880692437,0.9288873408827771,1.4076759120921296
44.0,-7.2541734880246755,5.11882055730571,12.372994045330381,1.0216501945658079,-9.818964902847116,8.795639454176847,-4.101186508244388,-1.2152296997006364,-5.775778449252343,-2.8541498719894745,5.437766661874731,-4.41536985295326
45.0,-3.998656343437794,-11.375313269386664,-7.376656925948776,7.636641417984133,1.6878269428364217,-9.326659759944484,2.1463472971619124,-0.15619084122901838,-0.3787539437490075,-0.6502618212368031,11.587588673553078,-2.560448822143737
46.0,-0.7435559353762369,-8.524960699413825,-7.781404764037544,4.658393476517639,3.5168434563561344,-8.183065699390983,5.680120688975003,0.4076473647250468,2.9284194616655395,2.90533662798888,14.747096815912432,1.4280987836519172
47.0,13.119261403057902,7.243005316137893,-5.8762560869199865,-10.15984881178273,9.491608293547602,0.6521962658098888,1.7932649923995148,2.1507527143450638,6.554906339843602,8.106972638723555,5.604043621517265,1.9858087955708568
48.0,5.945070624573193,-4.908854789528995,-10.853925414102168,-0.4971571912208237,8.388682240497262,-7.915390294114118,-8.841922682076445,-5.839011764035569,-7.237308224032139,-5.783735761064377,-19.661626139639896,-5.8519732900852635
49.0,-18.933013765168457,-7.178281194812945,11.754732570355522,13.079026169979205,-15.279015534651943,2.328475585289854,1.9560383675486053,0.1476622491650741,1.614231211641399,0.22935094469583417,-24.09099827503549,3.8988277342026745
50.0,-2.322172513855005,3.159278836840566,5.48145135069559,-0.4694579435591857,-3.916189142612252,4.354920221960503,4.351358878538491,2.0143951233988444,0.7829904459229928,-1.5100571512410936,-7.232464227070951,5.416539494734586
51.0,8.710751484308528,2.8024478465517233,-5.908303637756751,-5.723511500618683,7.29680043482592,-1.6031114522696872,7.739470604799205,9.303610825975388,3.490862042026928,2.5845994574442397,9.746710353215617,-1.02120760448121
52.0,6.776042344271575,4.58494779227311,-2.1910945519984844,-5.72124251354499,4.473039878734708,1.220236487935836,-5.24837310239249,-0.9130041623879825,-0.6226585605556985,-1.2898097292519533,17.6606512026011,-4.974108979829482
53.0,1.9042119026216984,7.055054480527565,5.150842577905749,-4.516216201426701,-1.6330969193279825,6.122682420555792,-6.067091917264183,-3.242326978559312,-4.525415204447246,0.8259188791250449,15.156759468006308,-3.1761925891104417
54.0,-6.931352096385145,-2.8460526502574357,4.085299446127511,4.934591464059535,-5.5204920024518875,0.5594642712789035,-4.123794921385473,-8.800314356205714,-5.3767256183086545,-5.90305331596878,-7.592883480309473,-4.7672680484786705
55.0,-8.063601248255736,-9.678879580505054,-1.6152783322494857,8.921019627514445,-3.163962871897594,-5.626762381653672,2.8303048678567158,-0.7580372387553438,4.356552668716088,3.3251784938498004,-2.7296831749907033,9.259562819564726
56.0,5.233044389248008,12.251327143020191,7.018282753772175,-8.7667502314682,-0.9214039686624373,9.659666003381943,0.19223216208295457,0.9920227029556069,2.982470836749876,3.4803011567644235,2.6706525660607205,9.254410286196356
57.0,5.883602020661719,3.165687912353371,-2.7179141083082303,-4.544502707881088,4.2590732973716685,0.25543173877895875,0.6203574924600055,3.049828358358843,-0.8796444731536126,-3.8450426041058767,-7.606199002860675,-1.0695086326233745
58.0,2.675718050220504,-12.153285005813423,-14.829003056033738,4.723247615743979,8.77589975420521,-13.530783675558059,5.233746442320726,4.900651381760598,-1.8912385275557255,-3.0279118915631047,-12.640135639113044,-6.906699554560133
59.0,-10.307952067816338,-10.1538700917591,0.15408197605743368,10.218450069799161,-5.219127491091429,-5.032588298667532,3.8984775798729445,2.1544964600891663,1.1821682520645538,0.7472940489597587,0.9500094724582651,-5.931853767076278
60.0,-6.028553065259146,-0.6046191957103826,5.423933869548869,3.3839013225661745,-5.721754941061943,2.460769264075884,-1.709860977848885,-0.6750900852142401,-0.9802410426933046,4.913971376793451,3.0984239979732253,-1.9342880456688412
61.0,-0.06853227299717402,7.7036373877337,7.772169660730937,-3.830605911231808,-3.9173706763516556,7.712758313705482,-6.9099223472987,-6.561739250598632,1.2671334725213503,0.37593232675435706,3.245172386422655,3.3358291411405827
62.0,13.5721955020858,10.980278452941047,-2.5919170491447097,-12.293758073319221,8.089946331134767,4.1689795771482965,-4.421077377453207,0.1005158636671859,6.293483200965672,2.76761553780894,1.3919455421329028,5.260379793654307
63.0,8.860396750439891,7.49281126940911,-1.3675854810307408,-8.200992569681842,5.053752633829287,3.1141045556808313,-0.08677082731535135,0.9890017351987033,2.8699860074091683,1.9450744832850517,4.34424602021058,1.7406524087535225
64.0,-9.065626048918858,-11.535636307680084,-2.4700102587612913,10.268210403713795,-3.2648161593975074,-7.033343359468745,0.6009511862489019,-1.753140114189401,-8.362456694145754,-6.968885034563222,-0.08053222181903408,-7.2583316524230375
65.0,-3.495874942764303,-4.513812694776188,-1.0179377520120356,4.043731162205037,-1.190436343730917,-2.7213226406701247,10.001311930306324,5.511334165928586,-5.349130189534161,-1.9224675946613594,9.422373886090444,1.9323975002373706
66.0,-2.761544081024311,0.24519623709397598,3.0067403181180663,1.2918192470157677,-2.90112859840924,1.5883448681476127,8.760065234390082,0.17261865807848653,-2.7003520771453893,-0.1815989040200474,0.9252252512351891,6.093274674230951
67.0,1.334544125370047,-1.2465475576198395,-2.581091682990084,-0.012633443145534162,1.9484906000310547,-1.9540591973661614,-5.019151093134628,-1.3505553661718785,4.109093933964609,0.6911778235020345,-6.891907986801288,-2.6477010352085126
68.0,2.7185166669180703,0.24317776135929867,-2.475338905558841,-1.5279085615627117,2.587473483718272,-1.0789310372181806,-7.377973157297518,-4.079886452411431,0.6544469391892238,-2.0625850530197316,-6.596690273276787,-0.5213071641210134
69.0,-2.620536856185101,0.3172903559150264,2.937827212100231,1.106342466685781,-2.7968310622082555,1.6648010348813955,-9.63213252391943,-2.49290992444592,5.302869107547606,3.488487897946974,-8.490082675022142,-5.411897957144714
70.0,1.9473034394836906,6.120295925469794,4.172992485986307,-3.9983721677325055,-1.1447343163401842,5.106452806841143,-2.8662914479235777,2.9242311511393155,3.1583683195572023,4.434506337861179,-5.3289005305688875,1.5126750631244272
71.0,-5.163487129807688,-2.796298587282394,2.3671885425255104,4.01660386478826,-3.73487183209059,-0.1741328499524939,4.1292537586788285,4.057362596562965,-2.855813923083275,-1.0338618365049232,2.535818583133001,5.763003134626124
72.0,0.47051999510972675,-0.03896966634454685,-0.5094896614541187,-0.2574057248812662,0.5065143082559488,-0.3110222354374588,14.603794602873943,4.503007260944813,0.6484467486568957,0.10693258547105915,13.316980077506091,0.0038002512566697177
73.0,3.0250750680727507,-4.534526987037483,-7.559602055110199,0.7129894119527993,5.301130882931496,-6.083339964092839,4.0678031585416266,-1.347293298474568,-2.157659886787319,-3.1562098890349537,10.418796347587604,-1.8090441632193617
74.0,-5.030852852088643,-7.599321539577815,-2.568468687489215,6.352069660914297,-1.22207922927538,-5.042147710552255,-4.088721290375844,-5.824021728217335,-6.982146711535131,-5.954895474466059,-2.6353925271740435,-5.761815526399046
75.0,7.227315699491129,9.145703255682818,1.9183875561916262,-8.14913303720707,2.6712520373472084,5.572087751645819,-5.636254947986423,-3.568189642053027,1.1176183056454838,3.3748061379245216,-2.890022679947611,-2.9821059049401706
76.0,8.280687962661355,14.670356765646398,6.389668802985007,-11.437562181845577,0.8958030940901249,10.489228087334897,-2.712600299534432,3.3917840209040673,6.647192049397968,7.376561803041149,-3.2922969838658913,1.336375394641517
77.0,3.8188004536395064,3.7889926013725717,-0.029807852266947155,-3.844622370883697,1.966368945022273,1.8371186385799123,-8.210602739512174,-0.966233860052101,-2.873591897051725,-1.984552460578004,-6.879321738115003,0.2673372416692892
78.0,-5.128819442417193,-4.832238960153435,0.29658048226373057,4.938791304959322,-2.7391578343306096,-2.2321252842930566,0.39371685888430585,-3.4655068231452013,-2.8953250980203076,-4.465855134583956,-3.1729030441107113,10.739069742428418
79.0,-13.20010481507292,-15.041231719072545,-1.8411269039996907,14.077168141292299,-5.700724049076566,-8.40447555193147,6.2076101885827235,3.4084014209746405,3.8923105894024856,-1.3335173307627057,0.9485256256264623,9.979964755320182
80.0,-8.363005798761211,-11.521331439702085,-3.1583256409409795,9.976323924818818,-2.6236766517770893,-7.3793652911175815,6.162602597479626,3.791342662745437,3.0315940316187207,1.8078008355605955,4.059710940760031,-0.49598303175829095
81.0,-1.1680219714255964,3.0375217425839542,4.205543714009503,-0.8991091482275202,-2.633400868844775,3.66412714527188,4.429944411183817,2.5216691939421123,-0.2456021522330365,4.787938877541775,7.051952400479248,-7.152908280895833
82.0,12.270144863211547,8.463377850304646,-3.806767012906809,-10.325725818952318,8.007437661876574,2.295432974749911,2.2353489578368153,1.465914395898602,-1.279646477078562,-1.4395702963698083,2.2914564387486323,-12.290533063798284
83.0,7.947286027892655,2.6794057632326087,-5.267880264659862,-5.341870786374542,6.6502132666166105,-1.324786450044659,-2.312123675058729,-3.367486340114272,-1.5097318689536658,-0.08949373917423781,-0.554507025578818,-13.023558938472195
84.0,-1.011062200092356,-5.43113154042633,-4.4200693403337965,3.203876066832721,1.6649756423081565,-4.876407248272475,-12.149108584347147,-2.858515424025053,-0.2541346549680652,-2.3107496606028475,-5.8576924640904595,-2.358354397720917
85.0,-0.30068987463278685,10.284556116527034,10.58524599115989,-4.998358815176056,-5.40570827174904,10.405236696753674,-2.841912014312549,-2.076494547876591,0.422018687841358,-0.13853548637380309,-1.8410749183752961,16.661506086155182
86.0,-0.8445809824637049,9.876488986931472,10.7210699693951,-4.514699560815917,-5.747461952096203,10.268524447293403,1.5956304080166226,-1.1815229956662796,-2.609780940456322,-0.746459008013529,-2.383813113780108,11.737189679847043
87.0,-3.2291828509348517,2.254193472658084,5.483376323592749,0.491569530122942,-4.403191206191446,3.916777032570596,5.753316871635962,1.4978710200201792,-0.450643676680737,1.764688482209802,3.974590503357275,4.886941413563003
88.0,-4.222393268676122,-12.274196810574653,-8.051803541898757,8.249920293340153,1.8616959803791913,-10.115314677408975,1.3947834714805403,1.0573120961278593,0.5034527559556623,-1.7248604889733266,-2.7186986622214837,-6.1305893306353845
89.0,3.8137049863887293,-13.40620476885777,-17.21990975524664,4.7911350084871325,10.534499534254708,-15.344707941516948,-1.301068415162999,3.507746579286948,5.661656823576151,0.5890830763401869,-3.8048282113191663,-6.803217038462634
90.0,5.1035898398060375,-3.141854869390447,-8.24544470919651,-0.9949647242083133,6.684470042854988,-5.726903382130499,0.9762308379048629,-2.9058431067103205,-7.475206966424832,-5.990290435545862,-2.0433763586047795,-6.303894402419304
91.0,-9.012071735036706,4.443255031635813,13.455326766672584,2.261571296121769,-11.228060883187585,8.913001861089633,0.2584867678875275,0.18726378919385422,2.022792009339519,3.9193082186544723,8.721659091006101,3.1387438788936732
92.0,2.969337901561556,12.48288520231147,9.513547300749968,-7.67659167108674,-3.264679339822611,11.036521158286455,2.757349557859491,0.3960434002603988,3.7289134206490235,7.08256445035058,9.229868148029173,3.9882666954609705
93.0,-0.09474429327237877,1.2491897847368394,1.3439340780092817,-0.5307587809477177,-0.7030058458159067,1.330548480330818,-3.705263688487808,2.096159786222947,4.328771004098875,1.793479895205866,2.7189398107487137,3.199210115825746
94.0,-1.461380906096105,3.5007606506590547,4.9621415567552205,-1.0521066676492254,-3.1806568921241265,4.1833225225157715,0.7953283915436353,-0.1744810629043467,-1.7868155424901,1.3098233189370456,-4.3042202851343845,-0.8874553732479178
95.0,-1.4974283794949788,-9.852087296710842,-8.354658917215813,5.64368049585695,3.398306787989492,-9.074444822103237,-2.952026393361084,-2.7637306862741826,-4.975445439847567,-4.995132784396856,-11.139851234443288,-2.215834640363151
96.0,4.632915497373778,-4.095804673493718,-8.728720170867499,-0.29850394601698427,6.666098597883459,-6.38334987852543,-1.866553022365739,-1.3392448299285324,-2.205907416063725,-5.333629080490624,-4.810244692600337,-4.1057984495312985
97.0,2.373477238260368,0.8411275855408435,-1.532349652719578,-1.5587024392716087,1.9481109489675599,-0.39445913514740294,2.0411910717243247,-1.06296329877418,-1.314565908263294,-2.863428709095253,-2.741140028715645,-4.605896795009261
98.0,-3.574198798426565,-1.9537314347669028,1.620467363659589,2.7320814036745205,-2.60018158766494,-0.13575085141736665,2.826196733069076,2.032511809196712,-0.002368853387613723,-2.005814588405544,2.4245979802068787,-2.2852270742790637
99.0,2.2790553697871467,4.343218765754282,2.0641633959670553,-3.266942158050362,0.09857358027512331,3.155889783913349,5.062385380581609,9.256556907022212,6.396324258017134,4.883440856331599,12.098907085384758,11.25192789845072
100.0,10.318346593859868,5.949721517033779,-4.36862507682614,-8.17118347175364,7.322734634493486,0.8202170907226862,-3.247463148833026,-4.635847762871926,-1.1824172080113753,3.285695072003696,6.21223590596683,6.383421540967883
101.0,-6.484065174187324,4.558851374811703,11.04291654899903,1.0027377160350297,-8.71977058078888,7.828065134588692,-2.578741631777502,-3.320773681888424,3.675210051443803,8.40971649726044,3.059689728442239,8.57191137595249
102.0,-8.764252223120241,4.227052182952879,12.991304406073166,2.230425409936079,-10.847092856571285,8.554510790966692,-5.120180529981131,-4.7357796357662485,-2.294437116482268,-2.2135681274086743,-7.441298381888008,-7.085850704580499
103.0,-5.490865218232317,-8.634395127931667,-3.1435299096992715,7.027124620884702,-1.230741567024475,-5.867773442710012,-1.812507820105485,-2.9305160716403176,-3.9460733132595527,-6.360305126376109,-13.793810176163703,-15.433663082719939
104.0,0.0947530822552578,-9.89748421357864,-9.992237295833815,4.949117191196661,5.061485810500131,-9.925586770190211,1.070347888581931,0.031166294873248512,-6.561488734050633,-5.826186253511578,-8.430782799596551,-9.816685945108144
105.0,-3.6316619473325793,-7.198628414140643,-3.5669664668080143,5.4680003070170375,-0.012999399533660139,-5.363937346722369,12.214649392375266,8.527857241514907,8.289995307989942,1.5810683025661656,5.31415687725761,-1.2280073637796098
106.0,7.249792972591291,2.2793300567335457,-4.970462915857739,-4.7867287004360115,6.134367292394169,-1.4041671528587751,7.618653634933395,12.547430656240211,5.250571742019747,2.7197617892815433,13.224716482428851,11.222169440188363
107.0,15.106157821155126,-1.2934295052171492,-16.399587326372323,-6.928271891212387,15.70470502826734,-8.823406154408644,-10.9465548358978,-5.625169846407798,-2.641260609466438,1.8205380487980465,10.09333616236913,16.245685521744996
108.0,5.72636025274305,6.903264124300441,1.176903871557307,-6.341181722678054,2.2324583683194428,4.067658237903885,-7.119711716249999,-5.314718230522027,-1.3680685982191572,-0.887120923836821,-5.175539708708313,6.700495527996608
109.0,-6.042230789133002,15.896648282637123,21.938879071770007,-4.962375305344652,-13.949789792592037,18.87240971382918,-3.947320836731899,-7.865604320549777,-5.994556546736477,1.9116495902337525,-6.31556277555936,-4.860791336058039
110.0,-8.392448684854214,15.460795246365095,23.853243931219183,-3.501593074011325,-16.079732986632088,19.697390727578227,-0.48882989089142104,-6.96212297608046,-0.0160814538630647,1.7515706405296987,-1.0535140633267996,-3.6130570752599684
111.0,-0.16470132194610887,-5.619977972074643,-5.455276650128626,2.91484338246888,2.6103232531207574,-5.568169426951364,6.020898719440907,6.701281949818532,3.651193135762097,0.5890420052156367,1.8972910937645509,-9.285018827632424
112.0,-12.95760692452165,-22.087223054096427,-9.129616129574801,17.53868399950703,-1.9494841142391763,-15.630773078815771,5.578528305922269,4.637678109020333,2.584201381631952,-4.036500062602251,2.4117587760170283,-11.40163119688997
113.0,-2.120923834311652,-15.819380524379035,-13.69845669006735,8.98563824570637,5.8307265908698955,-14.694860063730834,3.1696667524366626,7.08710967470223,1.2909011314626828,-3.4239837252182985,-4.689107576108361,-2.4696906826112692
114.0,8.971585647031018,-6.413689124860143,-15.385274771891089,-1.3377159574008903,12.218532489631087,-10.908355498039633,-2.654870588722225,0.10723748032252978,-0.9597941937033299,-1.233747846084461,-4.3417152039842675,1.4571251685010203
115.0,11.964597203160187,8.763317016336718,-3.2012801868234018,-10.3359319777359,7.541920597795612,2.7745345787770592,-3.226671907484166,-2.271213539600762,-2.0634502462308895,1.8065702135287487,2.158488373106559,13.038995013145666
116.0,2.131411991255159,18.871056971417683,16.739644980162513,-10.46420735323849,-7.347953470583622,17.79645674009401,-0.23489834916350372,-2.959370513226129,2.558617507212553,8.310512564080733,3.6945576074591595,11.214742706120465
117.0,-10.072317943456104,5.84330814969557,15.915626093151552,2.0801954610155846,-12.96200901920518,10.862816269670182,-2.2088327525078366,-3.456941944560726,-1.1679179286664725,-0.42922767333701417,-0.897078298298533,0.13708382361934301
118.0,4.243818717074278,3.050701900059943,-1.1931168170145288,-3.6774277478860027,2.7479732318617565,0.8997268171831188,-2.6086363808946906,-1.4146657020498603,-7.117052222355157,-5.595780980000335,-2.202723583397563,-5.450594394072634
119.0,3.218141114823007,5.364029193267321,2.14588807844415,-4.3207153256467405,0.48564230276453246,3.7894199313270103,4.200455623491797,0.9889246505616909,3.3606200421582475,-0.47044110978753095,0.9877800347976824,-3.1524741697291425
120.0,-9.03570124128993,-16.561244948222743,-7.525543706932893,12.845452338979827,-0.7263351136576276,-12.024505705143827,5.7896959133959625,4.123831115074688,6.267425978958918,0.5944166259495072,3.8615991499732227,-5.4802299746753915
121.0,-5.9320076976371325,-15.139632872757105,-9.207625175119972,10.579531362902475,1.6687687793911195,-12.168341008420427,-4.116556546115069,-2.761856883079657,-6.725934603161869,-4.469559429628359,-3.4486829626364894,-12.626099219275256
122.0,-0.49173807236032996,-0.07770015271887942,0.41403791964152337,0.24665646396289898,-0.49722705320821614,0.16346555224848647,-6.479421115942648,-1.4059836358692817,0.07775085716609753,1.6965666170344087,2.978909639299742,8.961155798197188
123.0,7.2181190378013955,6.809742650190029,-0.4083763876112767,-6.975312272653058,3.8515110257369884,3.190413706167603,-1.8988876849874314,2.6742581603465467,2.7837305546362594,5.328167336990783,0.7209906631682261,13.648680090577406
124.0,-3.6307797930331445,4.458844186886042,8.089623979919251,-0.4551830539468611,-5.897245633638587,6.263013445315229,9.611978157014581,2.0808704489617558,3.484427284824832,1.396497752658351,-13.1917776856855,8.070750642875431
125.0,14.518182074459158,8.349154926816412,-6.169027147642757,-11.474919842245141,10.309114752111658,1.0823309489767299,-0.3005475209766084,-2.7806175454298945,-2.060087837005961,-3.9464019447517664,0.9210428623373161,-6.648534212047092
126.0,12.0843680041733,6.938000613849068,-5.1463673903242855,-9.47286066487892,8.661222028131824,0.8955558219022763,-1.613104122842449,3.4030920296205838,-0.42409553571552605,2.102486103965514,19.840298959567026,-16.132555175378346
127.0,-18.626091819990563,-13.517518812109769,5.10857300788073,16.112100260824917,-11.820676331042307,-4.194151651235535,5.436261322316654,3.56961709075615,0.7257474127841146,2.2934895773805746,13.79954782490175,-11.717717035792543
128.0,-23.566790140334465,-11.93877966502776,11.62801047530667,17.717711099618075,-17.62930304606693,-0.13287209301333291,1.0495108644454543,-0.6308794653459587,0.5487969234735943,-0.9876910968477521,-6.8627021166689035,12.708867545830259
129.0,20.496940381730127,17.008647018790107,-3.488293362940027,-18.782979954729164,11.96043136593971,6.794381264176426,-7.447417583404197,-6.373957043209975,0.194766484680243,-0.8886712510306065,-23.445109848129707,26.23961478971877
130.0,7.167688740852004,2.0073205406050585,-5.160368200246957,-4.5327282102237465,6.131256934431072,-1.6121357224821724,-7.608197502540039,-9.441422862681062,-6.644631348228536,-6.641307829443506,-19.054872825079975,2.4893962614206515
131.0,-9.72113932887287,-4.843728379176397,4.877410949696448,7.265526767141537,-7.253998947356247,-0.014178055171773396,-0.5304506620803657,4.525555482814992,-0.7532082800207207,0.5257556516844017,10.750446250708661,-21.933473445274558
132.0,-1.3843305737778113,-7.533854026760313,-6.149523452982533,4.449401465674953,2.427026167565361,-6.872574880784866,4.222016996233585,5.586232745440371,3.4843915766757005,2.498562156769864,17.046400255364418,-19.132118354925584
133.0,4.475537111931483,-0.5883828829320792,-5.063919994863584,-1.9467172299356226,4.733942298711537,-2.7810318623799937,3.1248105594259625,0.8320925399520789,-0.9958748648154927,-1.3714492943327166,2.5029043809978013,-1.8815291014400009
134.0,2.0135291143736462,10.754005894825243,8.740476780451598,-6.38180484742288,-3.3234104741630124,9.710704607067083,5.571424507766157,4.167213860293966,3.6027615285161336,5.020940211974759,-4.551307719649913,11.208151133685377
135.0,6.083860207426575,6.210080446992494,0.12622023956594175,-6.1420000496437375,2.935186613888381,3.209990735803933,-2.6365671229151038,-4.235455719329611,-0.0039875513291813824,0.8869309131309264,-0.8500080873870273,15.585701615227034
136.0,-10.762046249102811,-7.2937614612879464,3.4682847878148864,9.033325596628188,-7.165521463394869,-1.8672502513559004,5.192788908819448,-1.958710273363348,-0.5640158664070742,-4.878610388155546,2.593286339681762,8.943118142524781
137.0,-3.2571777856444077,-9.77790787185312,-6.5207300862087,6.520641391955322,1.653145132003202,-8.175276284505568,-2.6115037789504343,2.7573139854022592,0.710896145035335,1.1463033555025857,2.7003367799549975,-0.9579533477755087
138.0,4.086319237024762,-2.451486821615938,-6.5378060586407,-0.8192809415187008,5.328406073629543,-4.511647615122536,-2.6977753520345713,-1.0081772646572167,3.2934394733827856,4.284405609207061,-0.17756715546127233,-5.799919606683174
139.0,2.812704782684586,1.0285813595491706,-1.784123423135429,-1.9294899392903329,2.313891097412804,-0.38688559520142884,-3.1073597346439312,1.6347736857044057,0.11987599381594738,1.3449861597017214,-1.7241364392986651,-8.492634857059677
140.0,3.627146069693775,6.56392323582302,2.936777166129217,-5.1122367851676405,0.3649098515168797,4.745773500508621,-7.05508813325225,-3.2619586902676674,-5.943342829566967,-4.459922063017988,-4.693179817596807,-9.110562446150007
141.0,-6.651239487651136,-4.887456168937514,1.7637833187135776,5.745389490424325,-4.179226114702291,-1.5662087876017938,2.0305214300836028,-0.20390454330512942,-7.0559061353423305,-8.568706362477744,-6.172748118131265,1.0370344464527772
142.0,8.598428248054622,5.488140909038108,-3.1102873390165846,-6.993816560275454,5.814473242880759,1.180964379130704,7.401217427640415,3.9182324635012975,7.242994192408879,7.974000103562622,4.6572185638144035,8.67638190451025
143.0,-1.2320042484368767,10.894019626330454,12.126023874767226,-4.784282257404902,-6.709118978389272,11.496319983043609,5.294991955097876,3.7291214256980494,7.719552042965277,5.989430659008023,6.739802333576573,2.983456789202169
144.0,-22.662853302535034,-2.5909519630093865,20.071901339525528,12.594400335251649,-21.390723737676346,8.799542342116633,-2.331079336718067,-7.23008731028741,-5.4580771683039915,-3.911767483471804,2.389803017253731,-4.923215617389057
145.0,2.990001739238635,11.225113774289785,8.235112035051037,-7.139332725799679,-2.564306650757792,9.705503813698062,-1.6209460673977962,1.7858288982531136,-0.14344890033981722,2.310200611380201,0.38134258777246366,2.4719696090094683
146.0,9.719809706179337,-10.640836857279586,-20.360646563458978,0.42945068208926085,15.019145875689581,-15.450274538590207,-10.02884408912409,-16.50216622432105,-13.151879719273326,-12.044996881939177,-15.916093834679563,-1.2690820642167275
147.0,16.775683641378777,-10.366314848702567,-27.141998490081306,-3.1571628019509093,21.93512624277952,-18.785596159662084,4.745123226863211,7.494590660710759,7.8279817931823175,0.9212520804944138,-2.9250802883000153,4.255285777186846
148.0,10.204679491473154,-11.803107859333878,-22.007787350806964,0.7665629231197799,16.158137936197402,-16.940497472259977,-0.40354060319028606,9.261208381534088,2.8433494286682874,4.116853932538523,7.709472956620033,-12.527276263619383
149.0,-14.948514341072267,-0.964046662272048,13.984467678800318,7.999574880988115,-14.495836568699744,6.470683726568907,4.5330670486056865,6.642901536081586,6.523717642008944,6.938639673742657,14.606970418841515,-2.4301207144412045
150.0,-14.77635019707539,2.659879469480131,17.43622966655561,6.097225772526128,-16.058340211322147,10.082435112903681,2.339629302405309,2.2449924964682255,4.1303964812994955,4.771390150810629,2.565851344823721,15.027565762724734
151.0,1.6070415383724246,11.126437601222804,9.51939606285044,-6.412374499143819,-3.987569795026621,10.353186294429968,-3.9371432712340364,-4.10593277652509,-4.282601919724166,-10.213985925614928,-8.249325965805197,8.748332685017767
152.0,-0.6242859397397957,10.558490158662538,11.182776098402355,-5.0198545386609235,-5.935018795012576,10.898478772807309,5.911665008707235,-4.182970618741136,-1.69848725334381,5.041673443015802,2.5336980153857755,10.56570163106283
153.0,-0.02622853260988567,-4.663736311245206,-4.637507778635312,2.3637016994763376,2.274414213303168,-4.702072913586274,-2.5372407036974547,-3.081580513707734,-5.387715825589725,-4.323484536757581,-8.829685258485869,-13.152572436349423
154.0,9.540789285992487,-7.707726936628708,-17.24851622262117,-0.9034766999994106,13.442966668574876,-12.450178274624479,-1.3598274241800115,-0.6257262256591809,-0.838583387898252,-0.7864163991160704,-5.1126966076821425,-16.15665373208539
155.0,3.2079782608284457,-6.594508619644619,-9.802486880473005,1.7041478958913259,6.555044442528869,-8.169854562637479,-2.6863045934267777,1.8728503739767284,2.4117536915705537,-0.14346960733805847,-5.19252050264181,-15.139187160900526
156.0,-8.928566935484763,8.802525944006543,17.731092879491396,0.07638881995198255,-13.35674501517182,13.21657871986402,-0.8353216541456716,-5.218172512625418,-5.426998356494348,0.3433767781074351,1.2594718323041745,-11.371145486200692
157.0,-2.4440223586584535,14.645429468829299,17.08945182748782,-6.080326672775348,-9.791737445957036,15.816235433553578,-3.260528504417391,-5.185132014864813,-5.78892621905209,-6.167096093929084,4.474167434176399,16.39228747311273
158.0,0.013913877675450381,1.9300934472140394,1.9161795695385513,-1.0203112686357554,-0.9751202421641083,1.94979654127168,-1.5066790795604486,6.74261151628841,7.706750914643416,1.070499598374945,14.659788095015163,38.92796962827709
159.0,6.88396963220982,-1.2069639852270218,-8.090933617436985,-2.7972175291028245,7.541782107929162,-4.621717572356767,0.9798278826933866,4.698659684448107,8.194386174830463,12.562234620957128,13.261960002368287,10.708134965370284
160.0,0.9079835683825452,-12.671961592676366,-13.579945161059118,5.8538598648344085,7.217613875883404,-13.095853997600788,9.474317235626058,10.713343260468205,10.36931215517461,7.683601433488087,-1.9959957312257766,-15.592733379196202
161.0,3.2427460694842014,-16.477915667533164,-19.7206617370176,6.595732064510676,11.452330226597306,-18.064462626434192,3.9892974287895373,-5.004334187379069,-6.90774753089805,-8.72279009001685,-17.479708832473445,-26.56837931910074
162.0,-9.39262353713196,-3.66241205526092,5.730211481870945,6.508424658962798,-7.51552632089683,0.9948350468470473,-1.1493700193751755,-1.5971552677860572,-3.344412937889753,-4.0610693490866225,-12.270606792075986,-3.0563971860693897
163.0,-0.637047664345717,3.05232403024877,3.6893716945945414,-1.1482495189391142,-2.1994991311606187,3.334563761237288,-1.615949676069526,-1.2757807174700577,-1.807878566376278,-3.969663052520152,-3.2574174746741305,8.800771984631115
164.0,7.608611588615237,-0.718374261008754,-8.326985849623785,-3.4668625081689943,8.006993302842732,-4.559834123306505,-8.640010565607433,-9.701861783008146,-10.66523424447502,-7.191900814487897,-0.5096967630457316,-3.5902811386321924
165.0,5.536985852494506,21.229754831787687,15.692768979293401,-13.330057361877682,-5.042155746887726,18.498167093044216,1.0796098471570312,-3.4048594826044973,-3.47889423637666,1.0459682065204163,8.380037342664107,3.0854365963052333
166.0,-10.10034127309278,11.407613137072403,21.507954410165354,-0.6835726152463115,-15.85135070082077,16.487427233882762,0.7036050118059425,4.147162633926592,6.023697851156827,4.840125972283105,9.694126762518023,0.6400820303950896
167.0,-2.3106787203503716,0.5352086983512434,2.8458874187016683,0.8529238720612189,-2.6305910108856247,1.7124528866039785,-5.277248604931248,2.0783415096139466,4.138405395692218,4.278647439183786,8.039701814057414,3.7719761138102017
168.0,2.89395159992289,-4.0069078762605255,-6.9008594761835145,0.5171327509964401,4.9184048564312235,-5.516727237895244,-0.39523229420831396,4.477059936070152,2.884399703583174,5.413775137139881,-1.09461018957703,2.586900335322978
169.0,-2.4508559719265186,-10.740965812104886,-8.29010984017856,6.632183285464563,2.9361193433519404,-9.502090612692742,12.51381942469639,7.093717164197361,8.091693588888177,8.053136947145264,-1.3907931127195203,6.476669888388441
170.0,-7.3937774719437375,-19.85239375383667,-12.458616281893136,13.658633621257202,2.5467123446118256,-16.139926623404012,3.8073564662956683,-0.0655288082031138,-2.7183205009801674,-3.802488504483334,-9.691058955321783,-5.183974868320857
171.0,8.879525720660387,3.3248552199297023,-5.554670500730801,-6.064605198650662,7.232209991351646,-1.092501292268114,-6.255285323581353,-6.401539131946366,-5.508647578416725,-11.727065816851685,-9.683465611643035,-5.993754677459294
172.0,7.1139037831982055,12.269641328520027,5.155737545321813,-9.72872303400286,0.9976490862729701,8.666982096531594,-1.6817577977319793,-4.004470491991517,-2.6141795799648064,-5.609331165424228,4.851982526897858,1.5165508707000708
173.0,3.6050667196911297,8.264465927643567,4.659399207952524,-5.966557914165959,-0.5825883364566709,6.507712536402402,-0.2188631346166532,-2.4052852790676984,-0.7609085099510025,-0.6560432715477997,3.0842319640924654,-3.3382761219519153
174.0,-12.680770418528125,-4.058059496671052,8.622710921857234,8.342498411987552,-10.623993908181442,2.2620719762581336,-4.047363359575551,-3.899325896733158,-6.955386680312762,-0.7718470980027952,-4.0969532214820275,-4.830587692190403
175.0,-9.297113411754815,0.2634156362660327,9.560529048021003,4.572575351249549,-9.477006920015263,4.902402486318916,-6.616060252655521,-1.7177308413652606,6.044322456509534,6.936573631580894,4.903845387246955,1.3388946143268226
176.0,8.899870509637363,-0.49188792223854094,-9.391758431875772,-4.22418944076426,9.177165435947943,-4.9441599966793435,10.649092822491877,16.631943105826817,4.047544856269272,7.596198427361262,5.365161778000104,4.620984343341336
177.0,20.120492093981895,7.675223759184798,-12.445268334797023,-13.916073324800928,16.313388613394647,-2.384125602887523,1.2255407144395996,3.650870214362027,7.246688361778058,6.191088965698232,8.886306365977342,15.054913088454285
178.0,-2.433379824582855,-12.407965412830151,-9.97458558824728,7.482491173562102,3.7208038363930305,-11.190849103851292,0.8100079351445704,-0.4686781514954137,1.2063702218217212,-3.3686103416925297,-2.6153593723540483,-7.9922717226226005
179.0,-21.049453668487537,-23.442353977717122,-2.3929003092296433,22.2294233922972,-9.300578469954555,-12.920537972433529,2.4073306271942956,-7.06665826709505,-10.418890190611553,-11.306987116433167,-14.83039986591424,-14.755183107485347
180.0,-3.7777135256485304,13.515118253057006,17.292831778705413,-4.885846382396961,-10.50771273074617,15.395794498672757,2.443746757519,-6.241872833428561,-4.888900474080848,-5.0791480373899045,-7.114184095975384,7.797364302675534
181.0,1.60628788326704,17.850805630600448,16.24451774733327,-9.747525439741455,-7.3688779366120425,17.11167875992892,-3.7249981852252927,-3.5423034435935112,2.1678143577561793,5.053089367591426,0.09405604464679129,12.89012733918674
182.0,12.061036366225167,15.772493126328627,3.711456760103359,-13.938247392714851,4.2068650451610745,9.719650063358294,-7.861473170394064,1.45515269325233,2.0231759547455432,2.9731055946379357,7.583486331697475,-1.6587149830427848
183.0,5.815336222206215,-5.734206188037909,-11.54954241024414,0.014590168692803829,8.64032700876787,-8.672772924959915,-6.979510584188503,1.3621751471241705,-0.4647677352458026,-1.700180519070932,15.106303609454002,-11.228123119833958
184.0,-6.011477832218748,-12.2574064567581,-6.245928624539256,9.110348348131819,0.15946452277560752,-9.291845651483516,-4.534079452979288,4.329937830599941,1.7770289570750968,1.4982463399596067,2.7455416667642867,-7.247398262272265
185.0,-12.631778187802386,-13.769384615920393,-1.137606428117838,13.178383028928595,-5.777673885217132,-7.42417950013893,12.710573432884013,2.991429378677283,3.0275491475889647,4.023603434245892,-14.462629715628207,4.559042558459138
186.0,8.147090748805553,1.7331650200011595,-6.413925728804255,-4.879446829774709,7.333901017042415,-2.31929607265581,9.946909388249038,0.3263845310612359,2.2668955818750227,0.728135812890085,-4.932234109978501,5.715247990764846
187.0,12.3898727664911,7.103708101996635,-5.286164664494405,-9.759758897293958,8.816034098989427,0.9234369629620942,4.40911327159451,2.7662742105572433,-1.4384978109821782,-3.2544239870031775,7.313100704003918,0.18538170241149743
188.0,-12.032904013739063,-7.131786462047638,4.901117551691382,9.573382819402113,-8.488450918542217,-1.1050804805766092,-1.6864281320972316,-6.6824562140106725,-8.579592677068582,-8.88896666051697,1.7974223948445702,-8.21448616964982
189.0,-6.865995892470031,-2.9940517252600642,3.8719441672098567,4.921811709280233,-5.393042991718544,0.4464581107687886,-0.4354879093945683,1.363989731784161,0.4044786513039491,2.1108550261124535,-8.833546963901574,-0.7996369220631647
190.0,5.505785416153494,12.258341664719767,6.752556248566149,-8.894189350696713,-0.5739911110005682,9.432756768936752,-12.884511506321038,-1.6782260293748024,4.547617928908775,4.857145300801902,-4.3589742916256125,8.514477199464594
191.0,7.2986476212536315,20.807756258355926,13.509108637102218,-14.073944229147205,-3.1411948807137824,17.16445404891329,-5.667210429031253,0.21525631947889412,4.114221147673795,4.911147222571167,7.410729107665054,8.081669080941456
192.0,8.072549502327933,2.946924098280002,-5.125625404047937,-5.463611030337091,6.635681747587928,-1.0811539896271736,-2.976994600307903,2.1144165415925604,2.1776770385223747,3.431024673567492,7.858986110365248,-0.6413477643405829
193.0,-6.4857149399492195,-19.547416845773828,-13.061701905824506,12.971263699513116,3.2417271346376744,-16.29096907691864,4.0000235805067,-6.103971209191625,-5.739168661406055,-3.545681133123799,-0.24686903054835607,0.7792252346685293
194.0,-13.737668547923553,-14.295186147354027,-0.5575175994303088,14.039093295851476,-6.558491820664592,-7.403740756201936,11.756382384115115,2.0507691630613163,-1.8322884723120525,-2.387283535004083,-1.5714500577261263,-1.9799625997888124
195.0,-3.237139072474192,-11.315416729125058,-8.078277656650709,7.292098812610079,2.454768021101586,-9.662430289241527,4.847476649599764,-0.25819069211616674,-8.504116502583365,-6.83114708160361,-6.336601253070433,-7.969908839139379
196.0,0.10811972226473432,5.1741598860307985,5.066040163766129,-2.627462141180482,-2.517948173407722,5.088223853924878,-0.6405745183630156,1.7312483196480541,4.042847471724387,-3.1618625133154707,1.5875178838699644,-8.791829339384503
197.0,12.041335728101272,14.017275237514598,1.9759395094133025,-13.013710199412811,5.001000147081417,7.9750677730902275,-5.862372111755686,6.086509274525716,9.620370889728024,6.328602999649581,0.060181769793049567,-0.02366517271876445
198.0,7.645105298746421,5.51485161760737,-2.130253681139153,-6.638779054655612,4.942238466066769,1.676576699339316,-3.7571379618266256,1.505635177114918,2.2770397142033323,-0.9128663181255767,-4.640883254256149,-0.9262863387913973
199.0,-2.1149141838306464,1.8819695459930843,3.9968837298236126,0.14136288245485762,-3.073818089163595,2.9238058605777457,-3.7483568515696106,-3.4792770933436326,1.4167670910157937,2.9227738133008327,6.756403954475726,8.16599714536115
