Time(ms),I,II,III,aVR,aVL,aVF,V1,V2,V3,V4,V5,V6
-200.0,10.240567904336952,-7.164234175576725,-17.404802079914912,-1.5371311929881344,13.874482044608197,-12.243187403878686,16.00010956639074,40.02227589740248,36.264046717652256,15.918709267005063,-8.336382519142138,-7.234764737192318
-199.0,15.333367275445731,9.343797484746478,-5.989569790700084,-12.34144053843377,10.632162668396187,1.6408334286827833,-0.9437295954845251,17.57526120909767,21.748446010525942,-0.4111222417670426,-11.93344884669297,-3.325975996748867
-198.0,25.767758774365205,18.505795949725776,-7.26196282463977,-22.13840036794297,16.480793493923667,5.587840508876701,-24.41488495145489,-5.768600160722423,-4.916921675369485,-19.58850639451126,-14.676798098951878,-1.1311696531509385
-197.0,8.978229358693667,27.104096027059583,18.125866668366584,-18.036634403821065,-4.6147457905018,22.583996854046795,-21.344375735595392,-38.05204248540956,-10.373764829414087,13.806510309093888,32.5380989428765,35.622037863492686
-196.0,28.16324374105396,37.3032922354231,9.140048494370392,-32.719115083186345,9.542011602843967,23.273442295650767,-6.073312908808415,-10.585290728203798,-2.0631177457996763,17.382428063858274,31.68477443768193,31.40210436151672
-195.0,11.92095349263533,1.2271841958223932,-10.693769296811368,-6.549105409878008,11.331980317277152,-4.6768334058813,10.589559924232109,19.536573110459205,9.620278696095232,3.0834278191765954,-0.2591394367365003,-14.780070908205039
-194.0,-17.70519847564558,-58.35042068673451,-40.64522221108828,37.98357657843758,11.492151455604565,-49.51569702375316,12.644601417790705,12.52333156136138,-5.173710792657927,-26.79844826502584,-34.15636468806616,-42.63656983195261
-193.0,-76.40263407471822,-60.96390653782577,15.438727536891886,68.6455159853883,-45.89736243527271,-22.777933838230346,24.659293303621403,-10.183011670239342,-33.11983944960383,-30.76560837246243,-30.54232929109464,-33.52133187410483
-192.0,-53.189018173636306,-29.60541924081011,23.58359893282509,41.44095066970023,-38.4381215447377,-3.027196543398836,7.516636638086899,-15.748198218545937,-36.77232216119106,-24.691481695485383,-25.685041942185684,-16.25292822844746
-191.0,14.665312725918458,16.415673668564388,1.750360942644953,-15.576039698493222,6.488276735411144,9.0616528670743,-16.29987950273805,-4.598782917506876,-12.475133244844248,-12.12787283325018,-6.209744444605818,6.059629450670983
-190.0,55.86298451929785,46.88472988580766,-8.978254633490451,-51.33333736547432,32.37463458397323,18.923452437781634,-25.447621099823497,14.5323436122481,27.255887010718794,17.75746350935042,21.23034347662248,27.21332170472965
-189.0,71.7584450396547,31.30869180552395,-40.449753234130334,-51.49683555611481,56.135785683183535,-4.531294270552369,-15.044324403075398,14.964094611128312,37.859044193931766,22.226375932076976,18.38134049216255,18.039148256540265
-188.0,32.558783090866385,17.84690495424296,-14.711878136622833,-25.249206050061296,23.584470710643558,1.5981207735822522,10.144794696228182,8.644225882235165,37.794363147270786,27.52116541314485,13.486093441526243,4.384435368885512
-187.0,-44.99038598745146,5.679534255818206,50.669920243270006,19.682968836957524,-47.80717458439776,28.19954622516184,19.72453552239461,-24.595579475699388,-13.70254717812313,20.17518992713989,19.151635355062435,3.13398296721963
-186.0,-13.101620306956782,-10.43309331260836,2.6685269943485928,11.710759911283871,-7.865982495263239,-3.938717634319582,-1.593568422162388,7.655855897733375,10.108161201252077,21.911808448135673,19.940437824366246,6.258825796395182
-185.0,-38.493563410823214,-30.66513543296933,7.828427977854078,34.59583426890434,-23.14304513199152,-11.396050049275537,-3.5913250292596093,-7.806841125332801,-33.1859319121351,-17.822204015538887,-7.6042314213308035,-4.94006150309394
-184.0,-52.6624384135367,-32.2837304052516,20.378708008285557,42.48432981068387,-36.50042297951845,-5.929136038031295,9.209200208280274,-15.20701319871615,-38.03062596197934,-42.109344507300534,-35.87373652930378,-21.081604908456296
-183.0,-1.5141448778100397,4.570979207301093,6.085124085111847,-1.5210588831262655,-3.8533724362858948,5.273631547050805,3.5784128499696974,10.2315310244215,16.97455381611728,-10.030935954199407,-12.097409299643278,6.246515393855873
-182.0,55.17953625954961,29.798687174221286,-25.38084908532774,-42.48353765337848,40.3112154046267,2.2337470295368007,-7.714630859613013,20.11756040624806,27.609941260628407,2.222422747907906,5.12870918458567,18.93337995149527
-181.0,33.4383419826721,12.876846308000916,-20.561495674671143,-23.15140298556883,26.95772600878181,-3.8954903408176467,2.910000911771551,10.591243142566864,19.83068747372592,11.861884584343736,5.20372289269519,-4.245846224877117
-180.0,6.6687468136383,-4.371826202145716,-11.040573015784577,-1.1394138092042603,8.89517628426535,-7.678228519233804,0.9524930305429002,-2.0041576905007794,-9.569276633813459,-0.5139703361434762,-6.027990947388782,-27.7567268098094
-179.0,-9.812340572355833,-7.790872635421031,2.021467936933991,8.736584588376273,-5.953008560399219,-2.8515435746833555,-4.08452930731134,-11.812029678348225,-21.561457637849507,-0.9663590086910947,-4.588911018268562,-12.245875788005987
-178.0,-21.94181805770723,10.066003506827855,32.00782156453431,5.957707456351006,-26.93132354205457,21.078141005805822,-4.505358431230273,-28.878205924171713,-34.383018740445934,-9.115689962653933,3.2675499993072883,11.694006603724755
-177.0,-6.178418703762093,3.0906563484870575,9.269075052248963,1.5707245062872426,-7.7583845021179165,6.151907834757959,-3.1218056990848573,-5.617046755573428,2.600451973841941,7.193048145286189,11.397305327123323,15.552857481057366
-176.0,-5.021023902852379,-15.342388091279652,-10.321364188426882,10.216014643172127,2.6169709506708188,-12.851219936341554,-2.6011270041871186,8.095643964613485,12.77807119432687,7.847306770344099,12.031572598799174,16.742643382724644
-175.0,8.82724236281379,-24.48244488649563,-33.309687249308496,7.790257930324035,21.11680226391854,-28.9102371714049,-0.07656534299420992,16.835168055157805,13.64992180525216,-2.167068316144057,-6.600915519110492,-4.149985960127232
-174.0,12.037098266050819,-2.011013421243871,-14.04811168729396,-5.044570184741032,13.09464348715986,-8.043499980027391,2.002133621559274,15.310266746232488,11.485278794996628,-2.838538266477973,-14.319084067417817,-11.911600519264756
-173.0,4.022806316476632,20.88908109182335,16.866274775347105,-12.404932508623443,-6.445257431779449,18.85907022582274,2.775791254373944,0.43341292206789817,11.236071538838033,9.654015415108454,5.204124455744786,-1.4476742867090424
-172.0,-5.006835155488375,10.467715086197515,15.47455024168585,-2.7567245672541514,-10.263400687872567,13.02310631442607,7.039392403825401,-1.5947531517933244,4.712702177916944,0.8842072811916614,8.44493864206326,-6.2620990018621665
-171.0,-10.15534679611608,7.533460775201188,17.68880757131678,1.2839781309440355,-13.947645804908598,12.653571923026377,4.919564354237357,-3.0147230864664705,-6.390815273263584,-3.5258240486762844,-1.3980973583852128,-2.851680382694041
-170.0,-7.309222804474892,1.2253240610736267,8.534546865547977,3.091489966619993,-7.953849686350699,4.834888339727263,1.1727963637744026,-10.881392183694029,-9.130090829676131,-5.33931453306218,-7.776984294329466,4.887114184488722
-169.0,0.6853289997265435,-7.370457665852778,-8.055786665579607,3.310218391494173,4.409224607764656,-7.764316918131593,-1.1456736276451627,-1.0576973453579832,-7.365836481484834,0.14180638782580957,0.6886096267864374,8.69074967192147
-168.0,6.729864781485988,-9.75798383657256,-16.48784861805846,1.5569515107130778,11.64057730266431,-13.097703406147012,-5.870900905085754,-3.997283625036291,-7.400245295471816,-0.9535358092501198,-0.42191495971292214,2.0915956800881963
-167.0,5.435390468968525,-3.8542093985227677,-9.289599867491004,-0.8300773485040929,7.312551948839548,-6.544755695111844,-6.937162313762677,2.0917221127133248,-4.417796361439073,0.45070353532602825,3.69315248662238,-0.8581361702042369
-166.0,3.907810798892384,11.185675183208224,7.277864384316159,-7.511112390174116,-1.6533955369579392,9.264645665460444,-6.529546946645063,0.2002183165847966,4.546662467561481,4.222014680991515,6.289535282120516,-5.577549567668019
-165.0,-6.102464410373561,9.544944173321571,15.647408583695345,-1.76778585196732,-10.834880603705535,12.558328625013965,-2.0444195898284487,-3.757483877890854,1.270588168177671,-1.327300764817274,-3.8851501743279773,1.33368833110057
-164.0,7.627699269242703,-9.268293736398986,-16.895993005641643,0.8497816002098995,12.235165407975007,-13.111832335342507,4.6966305760952665,7.038478708765218,8.05597586861976,-1.8812445570700793,-3.0191840321081065,4.141509118028118
-163.0,-0.061021953375577184,-10.10813432837395,-10.04711237499843,5.034060504041815,4.9787269071467,-10.022486243117768,10.097229667922843,6.211180553496308,6.612963414260242,-4.708571239832008,-3.729998471214891,-2.9213940176041406
-162.0,-11.468579219862296,-0.8677544154851171,10.600824804377027,6.197311337587322,-11.039687419801556,4.8453162137130485,6.344935750381314,-1.4314686650068236,-4.3633804476827285,-0.9968561917814757,-4.127080976803001,-6.454339334134631
-161.0,-12.131035251013603,-0.38130591288388826,11.749729338129544,6.288532510004165,-11.941468395025783,5.661183985323401,1.0411998279248236,-2.4584213732886786,-4.309486361639905,2.401224395124756,4.9987688373742944,-4.26947668658482
-160.0,10.20720460895229,1.7103254332268505,-8.496879175725569,-5.921636466113053,9.348716534678916,-3.4216382061879558,-3.956099900641203,3.998576320475027,0.15470522733927883,5.489040461054131,3.5258073347102354,-4.217024148155252
-159.0,8.48989700181661,2.789901862559132,-5.699995139257518,-5.676716020881653,7.084348488756751,-1.4119350467174145,-6.445263542111864,-1.78920031514068,0.06903765404956141,3.331330984992894,-0.7170305953059319,2.8838963259420574
-158.0,3.8988487004393475,0.1310023290092488,-3.767846371430044,-2.0484807224650528,3.812859343233892,-1.782675513014191,0.02278240980276447,3.6340750782838622,7.203188062756785,3.042228574013423,2.330677272840056,18.355774646576275
-157.0,0.8359803703926127,7.172537688123911,6.336557317731348,-4.036889032873099,-2.7017369862606513,6.705543419343116,2.802332527277946,-4.871403586641888,3.1777194347317783,-4.418268830789796,-3.9883873695462153,5.947260924149379
-156.0,-4.999338134952196,8.787583489515324,13.786921624467555,-1.8489519236661132,-9.351921064453048,11.31302556847206,-6.707040019593447,-8.616917838114077,-8.36603519016712,-14.037310664207194,-4.163405443014199,-8.475628789971235
-155.0,-3.5604377538424883,-1.978559240323313,1.581878513519205,2.7345460761559823,-2.6127478370678627,-0.1745862738583246,-3.6706999362599197,-6.100244535181627,-12.146437786955717,3.4916686739175926,7.048012149460482,-12.191580649259281
-154.0,-1.833389829174839,-7.454744323786107,-5.621354494611263,4.687655522171742,1.8512474007826079,-6.593533637796407,2.0218832626566163,5.085479657791096,1.1610485240922666,5.95391511299529,3.3985636593069093,-1.8637669699226755
-153.0,-4.089906477469988,-8.206430878792444,-4.116524401322491,6.1935085489694295,0.04981403652703209,-6.137475754526494,9.103321012384743,11.273724563287054,8.606044788541155,8.00366227943553,4.340422831178366,12.935105611659914
-152.0,2.9981556076304408,-1.3150718090444107,-4.313227416674925,-0.8717002718077826,3.6928003332566,-2.866871191936359,4.588678722722924,2.1477761752607503,4.355931095036704,-1.8159813672434701,-4.041092435445769,5.731303321980979
-151.0,8.25482211647073,0.20202599381894215,-8.052796122651873,-4.255294267643455,8.11167114677452,-3.895755176274919,-4.991190751287526,-3.3441622191817038,-1.0866949272126272,-3.644608484614466,-6.244900775129438,-3.605637465308664
-150.0,1.875065035208019,6.274397210569492,4.399332175361473,-4.099955397458594,-1.306388814476783,5.371669602323989,-2.8400607428341345,-3.20842787901597,0.27049279962847006,-1.0849245576414888,-2.4731915527938413,-4.0816083900984905
-149.0,-5.290298571473016,-3.5801696745244618,1.7101288969486292,4.487717891266819,-3.469173080752863,-0.8942523656709822,-0.7679823165956292,0.1429718982836783,-1.6559493144902888,-3.5137059102062485,-6.183424514190262,-10.152344268524867
-148.0,-1.9171096786399247,-0.8435806841286384,1.0735289945113902,1.3504159295869642,-1.4682343150286923,0.08213288830188459,-0.1770606723154775,0.5964944641313674,-0.21818631476117756,-5.47903687702729,-1.0996420355263559,-10.190812031755687
-147.0,-2.1811242391071097,5.207263879395123,7.388388118502309,-1.5481453089973136,-4.7612387643094225,6.2674651241088934,3.3412090889279136,2.6499262354694766,-1.2486368150219915,6.197521006926311,13.644235434256554,-4.785543254631756
-146.0,1.7951727899428047,8.644108380501203,6.8489355905583995,-5.180872419671395,-2.5847853263229217,7.7148557370349184,-0.9834683064993408,0.0010968347517774368,1.9409258042943915,6.594108942140068,7.835537424261596,8.78487381241158
-145.0,0.9601876672218976,-9.344356493834233,-10.304544161056164,4.227765408880458,5.651425466852005,-9.782174840357179,-0.2509645911218457,0.13535176864305398,1.7383303160771455,-0.5959503905280847,-7.575680245768958,20.591592257240677
-144.0,-3.404963527904939,-6.4646277393275025,-3.059664211422622,4.891215045370746,-0.15487237670549892,-4.805232207051441,-0.1630637415064225,-4.185325475045012,-3.5251895692215225,-6.1119149946040245,-9.681937924960565,28.230118660356943
-143.0,2.194424732560214,5.131377690295272,2.9369529577350546,-3.6260659033736835,-0.35471815751882607,4.06383172538672,-2.268601151432106,-6.960691361681833,-5.601906525443537,-5.518730339813875,-1.9645881336403255,-0.06569561899625675
-142.0,10.254415549865204,2.716704490873177,-7.537711058991932,-6.5250371949511585,8.832469304007939,-2.384128180344485,-1.0934062230428014,1.0903662688193174,3.0862470347419246,6.514725725207938,10.614035608947386,-27.568225814902764
-141.0,-4.7943162980936025,3.7873128791104493,8.581629177204235,0.5441007286167885,-6.674115589965549,6.211148839996273,2.1404711125625844,7.009769975650205,1.6206429744938144,5.755625416029576,8.473493489338686,-30.92420507443181
-140.0,-9.055100283343561,-6.302481563688133,2.75261871965558,7.639194963543991,-5.890529194377789,-1.8237142337361205,5.439337566756103,6.8709260750653085,5.645399766763026,3.939667040887824,-1.5912060447232226,-6.031847322022184
-139.0,-0.3964717189086251,-4.003864274936562,-3.6073925560279245,2.2343175386255507,1.6198332745823976,-3.7710757833632007,-3.6481694836537373,-0.5488565820825553,-1.891402364656571,-4.958071211269354,-2.2848558223382334,11.630927039359705
-138.0,10.748463356510973,-0.42497174410994276,-11.173435100621045,-5.21442553314955,10.978408818132198,-5.8394295131096365,-5.580380730219966,-3.8939583141678416,-2.0932838511089225,-2.251278057440445,-8.52406792419108,17.742831099818194
-137.0,0.25606647971300545,9.089235426283047,8.833168946569831,-4.6559778427096505,-4.3448684594539895,8.923049514027742,0.707049578172724,-2.913150572236901,2.7949931668182977,-3.449455859523275,-7.0432858604274164,10.76862537386553
-136.0,-4.036039464242866,2.5625392219212846,6.598578686164015,0.7452739516074507,-5.288852362532708,4.621089512719646,4.9668053062080775,-3.560175108627583,0.10145769162576412,-1.7860090935504962,-0.34330394649441387,5.423639162897901
-135.0,-1.0989316598144063,-6.280941982310388,-5.182010322495975,3.6941201747022907,2.075748688540814,-5.692500312379768,0.6778095987275756,-0.519769622580537,-5.997960119255962,-3.7372187859157684,0.20946574306799937,-6.006806499636776
-134.0,-3.3730669855590403,-4.11456614367948,-0.741499158120393,3.7491440982785216,-1.3562906365421097,-2.469801149107718,1.0615810805070798,4.427584454384206,0.31501659238924296,5.502627276403687,6.492228215903117,-11.78218581644322
-133.0,-9.503236464722974,-8.928963437563628,0.5742730271594028,9.228240888248592,-4.999284743432711,-4.141837285728148,-0.11250003851794366,4.122209387218865,-0.5260152739570461,1.4177299919563247,1.636817024454933,-17.013081125697454
-132.0,9.723710095558296,6.717879612385644,-3.0058304831725873,-8.197568278576972,6.32367848822256,1.8124674360065254,-1.3389393123113829,0.31913040695080497,3.1124539132401257,2.681093654767,5.913456959303865,-1.6960504062919135
-131.0,11.786376298470216,18.841202386661724,7.054826088191589,-15.356468417835103,2.320733488967294,12.984368859723663,-4.107871397085512,-3.5637728965457725,0.5511710192391237,0.16473166151921248,0.9602198498918235,9.270565641370911
-130.0,-2.8000771084108367,1.068144519443365,3.868221627854256,0.8350857630807313,-3.304703945980499,2.4285214210065047,-0.9788700021031538,-1.9390899010997171,1.7999663232724168,3.7490862059870333,8.251021444646653,33.0159205774571
-129.0,1.5544712991927496,-9.623258324889317,-11.177729624082048,4.09075434149689,6.3929787182335165,-10.357161183930263,0.20686669171506733,-1.8190136528530108,-2.743808622419881,-2.517057588645817,-2.336289249300453,18.300586111063268
-128.0,-12.465353289932144,-13.942084655089769,-1.4767313651576792,13.185326929487786,-5.467067701813416,-7.7392949983977415,3.3784451712217645,-1.5669780005563905,-3.9686101116214036,-2.899587892853683,-10.777471418220646,-27.415047199674085
-127.0,-0.7454381482683967,1.973136862101339,2.7185750103696456,-0.6327335823945894,-1.7016119148035884,2.3223288626070397,3.520393079216656,5.394811137320152,3.674169454503293,-3.909915270605738,-11.934526026323665,-28.297819069636624
-126.0,1.7065129080263644,7.813613172430664,6.107100264404275,-4.782972979492192,-2.2440786557020953,7.021999680069756,0.1525539368097686,2.106936952164282,5.593458599265834,5.604562851441342,-4.123200799718757,-8.214353027160483
-125.0,-3.341330269570956,-0.3731023078494302,2.968227961721603,1.9069174967483797,-3.194303212643544,1.285842443092935,-3.61595511350986,-1.7979487563900975,-5.689797412293647,-8.262279247492312,-1.8808316216352559,3.9878803769538154
-124.0,12.922407659832938,-3.5183593729709717,-16.440767032803837,-4.659236545893343,14.644924587441981,-9.988171841361869,-0.7064406547889641,0.5638837397960902,1.654887397689282,1.0469977528692607,11.482405019637211,15.474771059599021
-123.0,3.842969351078536,3.2236328099948035,-0.6193365410837437,-3.576036332503195,2.2747288455639962,1.293381716968844,0.6495826163536161,-0.8106844295750408,3.6129120569728355,7.040052590718421,14.24385984318522,13.649194392243455
-122.0,-3.59042430455699,10.762844015280372,14.35326831983728,-3.635057119204885,-8.927314517237445,12.545576615132521,-0.4965351479919883,0.3623062858336754,-1.6976164054243037,5.78181120394386,11.69562863003518,1.0692905022260586
-121.0,-9.617923361723967,-11.415282070684535,-1.7973587089606937,10.541437698927306,-3.9431969172012047,-6.625384393109341,-1.1011650363548058,-0.9438860191487382,-6.300629916117813,-6.1241637268127,-5.326482940733524,-7.900207976475942
-120.0,-6.122965833039108,-3.873266975600339,2.24969885743864,5.019350701475405,-4.138570632088122,-0.760021344387827,1.7332751750235045,0.14565637268850073,-2.176972451759365,-8.12491879770961,-17.056430511516158,-9.019611708936019
-119.0,3.781881487933423,6.7963079994642195,3.0144265115306674,-5.269596572609682,0.354847181243215,4.871037607496602,-2.0922480920669893,-3.7379404827553913,0.307213169845034,1.126258366275744,-13.661325168714514,-1.484231069757402
-118.0,12.516342663070724,3.547441093777375,-8.968901569293461,-8.090838567047728,10.715285587072335,-2.6713372473681747,0.11382598265331574,1.810543073886252,7.246726714601316,8.667840763614251,8.885768303735027,10.097523186802892
-117.0,1.1699712310099804,-2.564707352244386,-3.734678583254403,0.7193215799382378,2.42550081859216,-3.1906522677058353,0.7106049349653434,2.660819690160847,4.785695174237436,8.830640327531722,11.276823095609629,11.292451355785996
-116.0,-9.23047847614173,-12.282233902587212,-3.0517554264454,10.781695285884492,-3.037799668845218,-7.627079291002061,4.390065235663253,-0.8088770065263045,-4.985994415031229,-9.14220011520922,-2.6708105769793242,-3.3170782056512627
-115.0,0.6890669188862604,8.222524914988302,7.533457996102191,-4.426764839992561,-3.449938044937028,7.8445429232306445,0.114610479662683,-2.179282426183808,-7.437861954032479,-12.942875876236421,-8.721378279757323,-15.751489318311362
-114.0,-5.969042744747898,6.534815638260771,12.50385838300882,-0.3295822985412028,-9.185360033083532,9.493458667250874,0.7140079745233978,0.5177947695156134,4.572017195986838,1.8820924979466467,4.305744560599143,-4.558526354393048
-113.0,2.0675791626437574,-7.557994502656439,-9.625573665300106,2.7002416926249917,5.820223035939101,-8.530677424344741,-1.5388901339960919,3.171697860555007,1.0947272858277712,8.813879652767607,4.068594218467236,3.6397075328978126
-112.0,13.654194102320922,2.7015205667994575,-10.952673535521454,-8.143631460908725,12.279781847568165,-4.136106185226735,-7.184244279876116,2.216774812147855,2.527697023648744,6.678419678279777,4.462034080943068,4.112425954303381
-111.0,-4.789270451856171,-4.118981170804795,0.6702892810513301,4.488050363962571,-2.7495605803019663,-1.7306656056478429,0.3273767510292447,0.8597001089439136,3.7608449226510854,-1.5584663273661006,-2.3428454315242733,4.384109864354636
-110.0,-3.0823349673366534,1.2600542100474694,4.342389177384032,0.8659148106616715,-3.6489206075496665,2.7948606454537503,1.7439778345327945,-3.3650018802288257,-3.3373830874949255,-6.951372898389295,-3.0221432718548944,-0.3108706758597899
-109.0,-1.3587651551146493,4.730368038541542,6.089133193656069,-1.6525330338814626,-3.7350585581777818,5.398670624376006,0.9807225344882378,-4.709110752264861,-4.711009047072414,-3.8574157879033204,-6.923453109626466,-3.666916742085722
-108.0,-2.510522989065819,6.737887925868989,9.248410914934725,-2.0809270834282887,-5.8876994969773335,7.9734741265985765,3.214163889184076,-2.3026055241881105,-2.7109997524363285,-0.6370165706262245,2.7286396660155594,3.971478930023822
-107.0,0.817034763227312,-6.630780229254402,-7.447814992481725,2.8592366763517814,4.124837516720284,-6.990738732055711,0.06617782185976373,1.763818864085778,-1.3899183596474707,2.1830677431894756,5.594250344668666,2.1741686378609257
-106.0,1.4901179307039718,-8.5307759765852,-10.020893907289164,3.5478661686856903,5.745960619999487,-9.31581898717892,1.007449799506112,5.333441257223588,3.3446341769372157,6.121090735158734,-0.1614296823645871,-4.558588302120561
-105.0,-0.012734691575630341,5.032992520294819,5.045727211870473,-2.566959050851495,-2.5429475590131725,5.071678544484985,-1.9149558503742397,1.756372906566595,5.434820791556566,5.179860224798934,3.718114873884864,-1.8112443732525096
-104.0,-1.9139994929603712,3.0538381023913823,4.967837595351792,-0.5546860465170242,-3.4600245641298866,3.963163512573298,1.6185519237443886,-2.484853613117406,0.7515906333917197,-2.513239797942532,-3.2873873526174773,-1.9946026617938484
-103.0,-0.6966150850578839,-2.7858481005624394,-2.0892330155045102,1.7506038335636946,0.7504346808738922,-2.402012736363465,-2.4854543504788293,-3.0049752284710887,-2.963468952449804,-7.817131368110253,-8.91788078147225,1.8814309555104125
-102.0,3.5347947675333207,-0.9947442348803145,-4.529539002413547,-1.2635307481084095,4.081254161188809,-2.717641630400024,-2.649531731736258,1.5047038395261343,-0.4521515132104388,-1.0836017267652043,-0.25134794344853484,2.8535867918792643
-101.0,7.906058714315273,0.573100035591322,-7.332958678723835,-4.231423952340456,7.585192410670926,-3.403340337989378,1.3175358158149413,4.103176012653959,3.4294672080098625,3.7843625767301106,6.130001449289072,7.116586166099917
-100.0,-2.8148150194920665,1.6775762209716312,4.492391240463749,0.5832747704114829,-3.692648647022608,3.0709091405500084,3.4622778813100257,0.06198101384559862,0.3192161073281795,2.992824663973191,1.7598575895858968,-1.3645334878549473
-99.0,-7.093169576941477,-1.9485082112021954,5.144661365739221,4.545753248089591,-6.1629408332770685,1.5889040612108005,0.7976535211556901,-2.323156506202496,-5.267886151098854,-6.273144662008294,-0.5359124827676949,-9.107310668282606
-98.0,-0.27486791514978925,1.9030981245272094,2.177966039676836,-0.8559261365612136,-1.1964032085832255,2.0304240329137224,-5.197697052847749,-2.5643796192695523,-4.015854623652341,-1.9997904972124974,3.1238581244318513,-10.369176698585605
-97.0,-0.21143744669713382,-1.800031277975107,-1.5885938312781716,0.9756317824157271,0.7151563885430336,-1.7105397594058822,-4.760358720246367,-4.115754385169556,-1.7980507492081892,0.7487995569737657,-4.334375376841557,4.7864034125243435
-96.0,-1.480722473073393,3.23512171868889,4.715844191762153,-0.8973451401367505,-3.0730429433835473,3.950350723148571,2.6701421877460674,1.702797679361578,3.51859113423376,2.0636382413923244,-2.58230736459228,7.4626169846042325
-95.0,-2.0258693143459476,7.354788892539249,9.38065820688519,-2.598188629407399,-5.677215457903791,8.412712905158706,6.999189599971389,3.1857587379968892,5.018145667283855,5.490112342546064,4.863322261341725,9.66370024020721
-94.0,10.590079048869137,-4.739992689039069,-15.330071737908085,-2.932074498152521,12.909549534612765,-9.996066238221468,1.6461695185913006,4.82095825608806,8.435648623791034,7.528663439877981,8.213005364371238,-1.6013871790486451
-93.0,-0.17371536196917337,-9.070587677736617,-8.896872315767236,4.618525436734468,4.31348680227793,-8.947625454590957,2.0793334880517413,1.8448852301400378,-2.7223438846880392,-2.927842663036702,-2.785407951590472,-5.294058097395098
-92.0,-2.589327938254362,-3.4826208023618426,-0.8932928641073428,3.033658418642396,-0.8154849671598177,-2.2316127942769155,-1.6310615728399644,-3.530727167405443,-7.228424369640199,-7.970591340898061,-6.87677887774039,-3.0444319046825723
-91.0,-7.711026825801957,-0.9845805004727382,6.726446325329274,4.344413315219267,-7.185117248813851,2.8258662144958873,-1.54851729897539,-5.486800076544696,-4.501752066287461,-5.871146641540097,-8.388848245526436,0.16902471490548043
-90.0,1.0669348035969142,11.407366811926003,10.340432008329056,-6.244302660481386,-4.681360006285201,10.904010363108414,-3.520873313062192,0.49419422677190283,0.8974857332085899,-0.5934712089925389,-1.125482241865653,-3.4270691616002322
-89.0,8.995406020655249,3.008104030909532,-5.987301989745758,-6.015405030299186,7.525754610728715,-1.5441107938716678,-7.086442267948076,4.012636869767355,5.692381011003339,5.665122618796107,1.2927769937686533,3.9164405996647815
-88.0,3.0852162802745577,-2.8977135955215245,-5.9829298757961045,-0.03749981581098982,4.56861713394208,-4.422524544948282,-3.8341979004759903,-5.290390193280384,-3.6267896007134297,-2.6537624867978327,-4.245760459933039,-4.943040957372714
-87.0,-5.791904276104949,3.0378333852740917,8.829737661379017,1.3442360783266536,-7.355033893287317,5.947439968516015,6.840663294857913,0.28682427939953625,-3.370358630812348,-4.860794673105847,7.234420261097894,4.468964601424105
-86.0,-7.249534952214843,1.7242527405825525,8.973787692797359,2.7194782436990614,-8.156018349006795,5.363473055198374,6.534281500488163,2.0934312457214483,2.8987595201318186,9.32148005592575,18.414071047120398,2.3931626639278063
-85.0,-3.7929463677998303,-5.605566685459934,-1.8126203176601319,4.7261414877282055,-0.955788941934443,-3.6878249897077606,7.084178094955649,5.689066566032572,6.219674336526981,12.71873624079065,10.034021125934176,2.2647570083333557
-84.0,5.977207630576379,-12.905409072187238,-18.88261670276362,3.485647176179627,12.464870526059556,-15.861095158486009,-2.8917208208402427,-0.20515945584982376,-2.080410310203555,-6.757553612620645,-9.280708962638005,-6.133406876292836
-83.0,4.371402761722911,-2.5977325085759135,-6.969135270298795,-0.8660641737055434,5.628086582391995,-4.815915249971461,-3.339368043754569,-1.4944381793121155,1.5507062647493495,-4.036813615881485,-13.832821656708052,2.109523052271556
-82.0,7.351842942586372,13.529114786831773,6.1772718442453955,-10.49436292871445,0.6265622443368764,9.831896444414294,-5.562277739774787,-3.333824814486019,-0.8875533570225795,-5.04098665032523,-8.920480924888647,4.9370383257807
-81.0,2.0710532786195763,12.635182045846554,10.56412876722694,-7.319994755039355,-4.282569667444632,11.584342512114873,-2.1568325005625333,-1.6147403858595641,-2.140909336672867,-0.9046704451731769,-2.645257539437014,3.116293588848714
-80.0,-16.531112142124933,-6.546742810760804,9.9843693313641,11.504123195143741,-13.211509366527121,1.7032877643542816,7.259192650005357,1.1221884692804014,-3.9786296606754625,-2.957450655813908,1.0752774093485349,-3.9813782589683644
-79.0,-0.044517045448479564,-6.244198264009039,-6.199681218560577,3.199487103571024,3.048006144143402,-6.242536635356743,-0.8079499143895905,-0.12521915190432464,1.404866174583888,4.470197803004508,6.158541480446498,-9.25892326253826
-78.0,5.999617567210523,-3.060849997978275,-9.060467565188745,-1.4838804574977293,7.502523973205026,-6.00947014197005,-2.489284211166013,3.742948330471664,2.1752379994228734,6.154067739490058,5.571413595172167,-6.56359378906666
-77.0,-1.0835566637326717,-0.03397983883197098,1.0495768249007957,0.5492252376152907,-1.0927922155412269,0.55340415703881,-2.818111728011263,-0.1553014502227401,-0.8707467913448741,-5.807696048990593,0.17978096669116983,-7.7967173377778725
-76.0,0.4201958107799689,-0.13732204257698988,-0.5575178533568383,-0.15140359905452233,0.5422424890637618,-0.3824581428493883,1.1786550862454814,-1.6713474987858825,2.4600908888262825,-1.700840378415457,-1.5674750579077816,6.02479778418286
-75.0,4.5838783089183694,1.4287336153083072,-3.155144693609967,-3.021940644204618,3.9234312990395668,-0.8957939115147454,2.2058367958964187,-3.893723178618152,-2.062794312533401,0.9644897498949134,-0.4647062195479994,20.352190407380352
-74.0,-2.6850688084103775,9.506754364843173,12.19182317325362,-3.435900460192126,-7.463462668763583,10.90129575841618,1.2505270802661401,-1.4830811332559437,-0.4519697065797662,-2.155125821285271,2.5299662909196754,24.137460582527645
-73.0,-2.2410094228260222,5.103023269214981,7.34403269204104,-1.3881519244470022,-4.819110852213376,6.2040528407277264,-1.2529249421480904,2.5198968802220736,-3.8559423475581127,2.4402723839662093,0.16821316240316264,-2.426133773358444
-72.0,-1.0712346608648637,-6.7048740448775686,-5.633639384012756,3.9210274863183043,2.251348607355164,-6.182244580352756,2.8198707852274723,5.217070727778759,4.089287275217122,8.179668594833077,1.4983890573249479,-24.91485941752142
-71.0,3.302218135967556,-16.02071694273934,-19.32293507870702,6.384992903396136,11.278360627936058,-17.680798890534415,0.292610432835386,5.157367209517229,5.427354246418968,5.00139467944757,5.167690465233862,-14.772708317441381
-70.0,-3.186503358961187,0.6247961376402005,3.8112994966012455,1.2240911909719658,-3.458406076044083,2.2098904536555546,-1.6506695556977102,-7.297175014611373,-2.2285384234471146,-6.075370641427789,-5.431014474894067,-11.982313665507506
-69.0,0.6235555554042596,8.225861895962861,7.60230634055848,-4.48151864456328,-3.451067738313351,7.90379076912983,-0.5202275371414544,-3.1172399246514173,-0.9222468398199075,-8.140848283070305,-6.993821127256987,4.5595418331399555
-68.0,-0.2829263672109078,3.899960557885006,4.18288692509591,-1.7829070431913414,-2.194210444810224,4.105627459855046,-1.3489617165331391,-0.6233280902981355,-1.8365137632518,-0.4014487751706728,-3.795005588277338,17.326309712903647
-67.0,3.8157061943520905,2.6159450476632555,-1.1997611466887026,-3.1830417504667903,2.470115139633791,0.688072132748947,-0.6521116666811733,1.733072719177285,-0.5520579848619089,-0.2237560772977969,0.34099372845709497,11.870443787467309
-66.0,3.2836834863424085,-1.970100931784752,-5.253784418126983,-0.6141233357536149,4.234114536843266,-3.638033724100708,-0.06589578433090348,-0.23180691677869592,-3.360929764107311,-5.2475239877471465,-2.2034801178092556,-7.423778222992104
-65.0,-2.6083761952744604,-10.300282036072902,-7.69190584079832,6.429177852078412,2.5090640067036025,-8.949738314760737,0.5638259730897371,7.378071934862042,5.577266569370701,5.823284802345339,7.633825037624189,1.2868398130015692
-64.0,-3.034509079766578,-2.7004632700652453,0.3340458097013612,2.8519746722867323,-1.638474660371146,-1.2217600352359406,-1.9483282496326022,0.49560935901099334,3.296495663438336,6.103419461823123,8.153555642850144,2.2372568967123323
-63.0,-5.243102741264592,13.771014431567515,19.014117172832055,-4.273436077976271,-12.085460797854216,16.348658870272114,3.6963902073541304,-7.420240937254912,-7.1256122151445656,-1.1159820352739658,-0.5414738074243957,-5.283503034332226
-62.0,-0.30193538498195305,9.569273526613797,9.8712089115957,-4.642202430428173,-5.126743623800762,9.751462779854796,0.7799038622795977,-5.664802785160467,-3.8916155758194746,-3.3294513196307745,-3.7126399246872124,-3.5667551669396356
-61.0,7.737709988631815,-0.43050043864478926,-8.168210427276552,-3.6663937312762,7.907258261303135,-4.2691547090525255,-2.609423795330939,-3.330856785928009,3.7840003400728,2.2440334971113605,0.4487735188504707,3.75334453275761
-60.0,0.9381963660066464,-7.0336699976713275,-7.971866363677916,3.105486013395461,4.482692330237665,-7.470682610287594,-0.5421663036869793,4.872061831824403,-1.0142560081403722,-0.3668301896740761,-6.259418943968604,-10.194527379308765
-59.0,-2.4241187174079624,-20.193415317791313,-17.769296600383317,11.277782085776764,7.695846399121988,-19.023769843760814,4.336021042937617,10.969193764028493,7.185803491240026,1.4402435446045279,-1.5082424191416024,-4.322008199989741
-58.0,-3.2508436090367963,0.4267284851370867,3.67757209417387,1.3717928775807788,-3.4442003579431284,2.0151091889070134,4.069320591198708,3.429111215017141,3.7170254296470775,1.610609785478477,2.776073989850157,6.807421124221733
-57.0,3.9947029820651307,10.019694754858588,6.024991772793383,-6.975204460687577,-0.9978589536553304,8.069040722789717,-2.6166881898886922,-0.4396324499973516,-0.31489570489410945,-1.0076747015048229,4.6285368794296815,17.699116206619102
-56.0,-1.9584158567596819,7.488825908569013,9.447241765328636,-2.735818474582542,-5.767544228505685,8.439261334722351,-6.797903413640851,-6.289385626656946,-3.1571081944402533,-4.274560994531043,5.35018175078314,18.1822105316416
-55.0,0.4444955221252068,-8.337735176759173,-8.782230698884403,3.9770585930905242,4.622855306183185,-8.50928788932458,-3.6731700436915338,-4.764065153511695,-6.419931284758974,-0.3047970218149896,-4.7395150868722355,-21.171341730989482
-54.0,4.917183067232859,6.52582551562347,1.6086424483906736,-5.76648573328008,1.658129604058448,4.0371201496964995,-2.761329834410556,-5.513063257016629,-5.672881737164115,-0.19889290852557365,-7.455373264930818,-21.788359387759204
-53.0,0.25611152425564865,7.416554354349952,7.160442830094406,-3.877599896767627,-3.453645242738224,7.254086820483067,10.080946875505937,2.186065392154594,0.9772738356051991,2.2019954543857527,-1.4084601656317708,-5.763444149320019
-52.0,-10.336858254517091,0.43670558885977084,10.773563843376955,4.990068994643542,-10.559523320055622,5.6442113659348925,1.0442755557271113,-0.25741084588303864,-1.2916047386848428,-5.079029988924335,-0.6320452564005357,10.03601123810294
-51.0,1.2303928694856996,-0.5660640886157002,-1.7964569581014098,-0.3703668039799708,1.511036449684371,-1.2254148023021594,-3.0969120259500476,4.194131606128508,7.917390260455344,-1.0282013576390838,1.1387289086786851,6.195934069351829
-50.0,1.9680663111677867,-6.922971152264509,-8.891037463432378,2.516738729574988,5.43518360711168,-7.87444136535937,3.05878971098452,7.869635733303489,8.843348079946963,7.2955280201580095,6.713022422763011,3.5335766747670423
-49.0,1.060020608383087,-17.19516903092598,-18.255189639309194,8.104503911002578,9.67699569156722,-17.691252665535963,2.68129545252305,1.9225065216866812,1.132042193897684,6.249552992618965,6.516044109276903,3.9178860794596124
-48.0,1.8659991325884715,-1.1619016157713364,-3.027900748359966,-0.39638518424725966,2.4834832097607675,-2.1351716329228516,-1.790954969405511,-4.52349736695119,-4.558500359795065,-1.699955313192866,1.6209146960009275,6.887457606253495
-47.0,5.284901000125797,12.389675488971415,7.10477448884556,-8.883398936074318,-0.9355530430144432,9.792100580282485,-1.8481911206601491,-5.518017554401952,-5.108784086038224,-6.63948603135895,-7.977398770718151,-4.590056458525978
-46.0,-0.9810931966506051,13.440044663843121,14.421137860493769,-6.197182945163894,-7.715033609834721,13.90297889720356,-4.877751144367865,-2.784901958622153,-6.511290410225368,-6.206690872446956,-7.9904420761946815,-7.489235267057569
-45.0,-5.508380781540936,-1.667077522556907,3.8413032589841762,3.621347510264835,-4.685267177787448,1.0638066998605282,0.06731429062258387,3.3119807201060736,-0.11716252039014918,2.6023654763370834,-0.41334669519495204,-4.4544381470056775
-44.0,0.33757393376214884,-5.648190227629884,-5.985764161391885,2.691538101799759,3.1455404059174654,-5.83889574251706,7.271135958938035,3.5012605200677913,9.163753853694065,11.43437833332768,9.284182044753788,6.70805577988609
-43.0,-12.494555035715868,-2.5737566389218536,9.920798396794147,7.494621422551515,-11.236905074167307,3.729010275951607,-4.360356479100751,-2.092681538574375,-1.0664466638147099,-3.583021142844593,-0.680742434256937,-7.31658582910077
-42.0,3.877827144302157,-1.4655908284943928,-5.343417972796535,-1.2432402447292632,4.643708833271836,-3.4307268827790263,0.30912504412347913,-0.5109558793057426,2.0071807908085306,-0.32282682913476163,-0.7007419048234633,0.820812044686307
-41.0,14.102840204218449,-0.6952406044957211,-14.798080808714277,-6.739486398220896,14.46873779370349,-7.776036209973196,-3.0631726952107226,0.43876977772992737,-1.5351769242821738,-7.575459305556859,-5.5993195828199696,4.075804479939758
-40.0,8.576961932096314,2.394467402111277,-6.18249452998512,-5.441857956055512,7.389032535545722,-1.84691981046941,1.8890923602514278,-1.7430856465033067,-3.7361543763609997,0.8805194564842707,4.834055044351782,7.768569389030066
-39.0,-6.839427251076802,-0.0721270839367405,6.76730016714001,3.500475902008702,-6.795039135058492,3.3934983674818717,1.993582175355553,0.5473366174680778,-1.5408439911027791,0.12736465884402445,0.5517577118884112,-3.705103951267084
-38.0,-8.159815334110647,4.271900984450588,12.431716318561252,1.9111835740683445,-10.280805993146945,8.318256243467651,1.7950703139463478,0.19221710756466354,0.31755952444076785,2.5182095046782544,0.21955377122175834,-4.373569081442817
-37.0,-2.771898200834288,-3.088816212621943,-0.31691801178758183,2.977721583646514,-1.2795193253121875,-1.7376665122476433,-1.1175230278906345,4.557880180003979,5.601014223657341,4.261452931141695,-2.116033433534008,-6.07367811169107
-36.0,-1.9495859124331667,-4.540237108225813,-2.5906511957926557,3.2141509525376284,0.3606071634255752,-3.6026672368716914,-0.859334325200139,0.7893908338839972,3.453420163608465,-0.7502821861534557,-1.0459312268270995,-5.403227477590808
-35.0,-2.3536863203722755,2.859596699193817,5.213283019566061,-0.2846470683691402,-3.810533494283784,4.074551959320637,-0.049308634317762,-7.341194391177319,-8.385636614824461,-5.487407563116775,-1.6123011760062984,4.540466905889025
-34.0,6.431032224844469,7.737973397619573,1.3069411727750881,-7.118739723001823,2.5427899125592277,4.557078627993629,-1.982294994346993,-3.814515328710146,-4.101668274300999,-1.0398627298621697,2.6698234657387268,17.229851532981442
-33.0,3.3540208066299346,-2.5222095945749414,-5.876230401204924,-0.37464721301531334,4.599381168380431,-4.245832313150229,6.051886546704956,4.5514437037369095,6.234714101892557,6.666198997431145,8.820748087305049,13.256686780261543
-32.0,2.879657734774769,-9.397589084932054,-12.277246819706923,3.2977551163151944,7.641698260203606,-10.806130781150916,-1.2515556889205115,5.146831679122839,0.932082162682713,-1.851146524947981,-8.027059744929677,-10.459444543660783
-31.0,2.7057969885826454,-11.886707206364607,-14.592504194947335,4.550181732293016,8.632411211343488,-13.207693500641046,-0.582462981729791,10.824598714407651,9.261812914245686,4.861177432652159,3.9143386026928155,-9.240375186565208
-30.0,-1.2394131276422957,1.239128567600659,2.4785416952429937,0.041088933495807334,-1.8766654358055748,1.813280886630272,-4.457682747175437,-3.0995784827350974,1.0390477812676555,-1.0788055972457071,-2.6672676113756686,-9.319580161417754
-29.0,-7.995165862529126,15.761818235317817,23.75698409784717,-3.9162225490216436,-15.893343303227125,19.793575987280978,-4.936100331600499,-14.50097785551989,-11.70743598990625,-8.271021533913432,-6.586873648290866,-11.993286411951564
-28.0,-5.976796232818569,17.815172502318955,23.79196873513782,-5.945902410812918,-14.82104912263291,20.759208410849233,2.9994806613904528,-10.299267171903605,-11.021712458962856,-5.56586765708651,-1.2178654173508856,1.3260519027837097
-27.0,1.6708818878500096,8.63448897514167,6.963607087291866,-5.094808490089249,-2.659427601147323,7.75457421651638,2.0144819824277085,-0.7665692775853019,1.434354707430196,7.7593318971839285,8.80619842508479,17.104852057568944
-26.0,8.113875025091943,-8.89779796757313,-17.011672992665105,0.37492409215158606,12.551045385198423,-12.919710803573672,-1.2594494743005784,6.191359621793449,6.010844057338149,2.7199847890316176,-1.0233565891666125,6.650398219313681
-25.0,0.04177240208237709,-18.42770985840516,-18.46948226048756,9.176436666804765,9.242843455970398,-18.41076532988442,7.105193687532573,12.890743218798491,4.448118298736619,-1.2472365757587034,-1.6872424204668492,-2.0020129191403617
-24.0,0.20574084738348541,-19.350669953466372,-19.55641080084996,9.552463137788376,9.864344644148366,-19.410529820567586,2.6438021293319687,8.704321178153346,6.275981946254592,1.6709536310473885,-0.37660742401602043,-4.280825046111875
-23.0,0.7058932427438802,-7.8993006036091185,-8.605193846353222,3.6482570370825753,4.632704522941719,-8.281445639343278,-0.932864177561779,5.5976730421947325,3.3721569557608606,-0.19117627212102817,1.0327940547311236,2.5083815552332376
-22.0,-0.9427103348125397,9.27965016063063,10.222360495442949,-4.2054374497808285,-5.5331950268488805,9.727726888155415,-1.12824326219374,-6.879850864048003,-0.7348591790856069,-0.679559784717021,3.796668492188549,3.6151236605160766
-21.0,-2.69197193246603,11.295885421833795,13.987857354299678,-4.2706571427554465,-8.374492911956368,12.621915668753747,-4.41498389899375,-14.128664896670696,-6.680393029543478,3.171671900182753,-0.047057328892550876,1.4457557601607713
-20.0,-1.9820489075849927,22.520540978291464,24.502589885876382,-10.325650316414237,-13.200831151306502,23.491364564628643,-4.608833396151505,-13.685152988620656,-9.604545048405456,-4.6295933482571066,-1.853469970591526,-0.5744382618564128
-19.0,-0.7490059973873129,12.747335537205824,13.496341534593169,-5.982102086829923,-7.0816911342797875,13.177078467051768,-2.6282104265455852,-1.1281254733526778,-3.892111577320236,-4.4079416253429295,-4.074551194880757,-10.672542124807926
-18.0,0.9994618711874851,-14.940088094175298,-15.939549965362604,6.9872085603571845,8.431793713764622,-15.467968728563221,2.682949689841215,12.896825540095724,6.364790961031406,4.130177142668142,-3.4326988033414887,-11.15783206754409
-17.0,7.30781842856788,-10.423256091452473,-17.731074520020123,1.5797512229421367,12.480210763482987,-14.109092586778955,5.580308755566952,9.388565803637235,7.535445129730004,1.4165399087987494,0.9164754803811861,-0.5399375966565749
-16.0,-2.313157812433723,-10.234034972945445,-7.9208771605114805,6.3047892292729335,2.838734671384369,-9.031848894805638,4.804052268736133,7.260579490636325,1.5253157707542666,-1.8192444554440619,4.608493768831223,13.127216726545731
-15.0,-0.30301556418628767,-2.6318853596012346,-2.32886979541475,1.4307161360536567,0.9612543837514096,-2.4329901697725766,-2.9954840019146998,-5.3902461308513026,-0.476118533371074,3.197373202371552,4.343088070462893,9.968826251175297
-14.0,-2.986149863608204,0.575974471706683,3.5621243353149517,1.178322767182586,-3.2563468569377907,2.041365451863312,-6.4518398809403585,-5.242870237594252,1.0694788968732123,2.054308648839839,-0.8923063776481546,-2.776968253691601
-13.0,-2.7614111659754745,7.433467311042801,10.194878477018168,-2.3553253078576675,-6.468307422995315,8.78986504498838,-1.66076271360278,-6.086413128867423,-7.537347333160334,-10.516808374027486,-7.1279144762957785,-4.9020880816517245
-12.0,3.152621259172105,11.596070639271428,8.44344938009916,-7.388903137208468,-2.639307706443491,9.996189572015421,2.6903546922653976,-1.3001090883168311,-3.2482727519489325,0.9072430094132353,2.389331898084134,1.3060121876599458
-11.0,3.7803107305254082,1.437231683771854,-2.343079046753802,-2.5415802046487252,3.0700733567242184,-0.4010623238133526,4.625919596635744,-0.26947173341183106,1.6450955113475794,6.801701642736553,-0.9571143553043605,-3.3849437499650805
-10.0,-2.293305354474049,-6.878737541566282,-4.585432187092571,4.577117581816127,1.1626212763998873,-5.766167761925734,3.5114727188498382,8.00629136185963,4.081736442352821,-0.6255551245960089,1.2777365807180303,-2.529714628668776
-9.0,-3.462749035504749,-12.659592576851091,-9.196843541346734,8.055506308955634,2.8956757321292383,-10.971537775170308,-0.0071048812567551245,4.779274620336379,6.588281541869975,3.557327958352497,2.939507899923785,6.467561643852379
-8.0,0.7894673569165231,-2.332589178609727,-3.1220565355265224,0.7696638413178856,1.9184037193253782,-2.7002745372914148,-3.6089848221221597,-0.6553638178938752,1.8807706876778685,4.809668853938348,4.676116643737778,7.12977149792968
-7.0,0.9708797426680807,1.719633467896866,0.7487537252288947,-1.3438803296639974,0.08401542143850249,1.2565884341570825,-2.4872461905011685,-6.773908956693564,-8.084432536670544,-8.270284478586188,-6.0770460257548224,-2.67866347161137
-6.0,6.046167345281664,9.303609052838118,3.2574417075568403,-7.672289352000741,1.3732571423240607,6.303636630246497,-1.6019019837639272,-3.255754158180711,-3.040839595421198,-4.542596520938404,-1.9534596449964554,-6.911912880134893
-5.0,-2.5960381441523914,-1.5118922643623263,1.084145879790674,2.0542744697874835,-1.8597759187251848,-0.1850513005662564,0.9545001453429345,5.910737212001295,6.711558549574726,7.485768202680892,6.318765279892558,-1.2485603488213997
-4.0,-11.643677470816979,-2.679304724130665,8.964372746686868,7.155249183583694,-10.246797234986039,3.100977427212153,1.7687933472333128,1.623540126483496,-5.501295361010758,-3.724033186511943,-3.100404226667886,-7.886775335513871
-3.0,2.0495344054396023,13.076316372040383,11.02678196660106,-7.579615340466014,-4.434782150455847,12.01763800798067,-1.1968766354384135,-5.0936620784326925,-3.8018825516538484,-5.58581776182333,-9.516548678928421,-6.512281068568518
-2.0,10.139300455519267,16.277435132178347,6.138134676659065,-13.237915995532703,1.9719785298992962,11.25641966613928,-6.161084429939709,-5.92665189485223,-3.007341741448792,-5.952301316305299,-2.8440018513475858,4.654772139305571
-1.0,8.182959238703214,-3.158527977847106,-11.341487216550556,-2.4761373099273416,9.730020053666065,-7.281885415702803,-1.2688824521946618,2.492871199317078,4.91691310711498,10.0299938158922,8.114372297217514,20.861086915150644
0.0,-5.28592451281503,-18.950778289315497,-13.66485377650094,12.143054628495499,4.153584751639328,-16.346746628107958,2.364652030050208,4.753712421318998,4.141715944284469,1.5128292039350546,0.6370491723818414,4.107666573150565
1.0,-7.362000394534968,-14.740418625253476,-7.378418230719036,11.067435792364135,0.04703133321710018,-11.02987729290772,8.178106636608216,0.670393441980039,3.893568387356183,2.392023896211143,3.200146353235384,-5.01141822208574
2.0,-5.858600736423655,-7.730927274749409,-1.8723265383261785,6.805445302507869,-1.95885516807109,-4.782557645475609,8.198642511028575,-0.1855940842636148,3.7507074833682936,7.151989862101184,10.944422996818465,-1.5736679669170388
3.0,-1.219807451756647,-10.971611242094589,-9.751803790338016,6.024322898975847,4.216595946856831,-10.350444374456655,3.974747303952263,5.492780586486413,-2.064731093171744,-1.920215684773425,-1.9093412300936765,-7.595198077489885
4.0,4.318261950281283,10.814673274316496,6.496411324035491,-7.560907151096755,-1.0647585154914936,8.663385467455088,-6.174469643741361,3.034688093828458,-4.244357908458843,-7.110503567096956,-12.690513820447379,-12.021890628368029
5.0,5.13389420419304,23.574705387282435,18.440811183089664,-14.34917977524284,-6.633756241065296,21.016739626518568,-10.360058301586019,-0.8424854834459241,-0.17536792013074454,-2.7849785462792918,-2.031355206082237,3.9310925914415584
6.0,6.647082212685069,18.518942978033785,11.871860765348984,-12.576523498281162,-2.674873398675901,15.130167742891722,-6.91510627948187,-8.149388007667401,-5.4895943494742765,-1.150546231896159,-1.6995789375882748,6.365086248109223
7.0,-3.3195589459177133,6.547112916128452,9.866671862046474,-1.603526613461038,-6.578197244925937,8.226435094553558,-2.7172734403219665,-6.8256475511221275,-4.330578548185086,-3.329085940872096,-1.1580861951315091,0.02901676667567088
8.0,1.5625461941940197,-8.41916161078464,-9.981707804978562,3.444815940528029,5.788554555847477,-9.175393331769868,1.1987356473968094,-0.39705915672504144,5.1833593859103875,6.080801860255992,6.598448088912027,6.937788959840714
9.0,-6.621626577232296,-23.69405347769521,-17.072426900463057,15.182366163568144,5.246401090859935,-20.354884666662638,7.607453067999733,-0.7424247065132333,0.239157267889337,2.0817032031428235,5.372900655283863,2.218937938155191
10.0,-6.182569387653341,-12.979790306385905,-6.797220918732815,9.535258636465624,0.33532177111952155,-9.938688227798536,8.421212035411738,2.324089461466789,-0.35902833833389325,0.5771818725742142,-1.3927718604027648,-3.703195266036019
11.0,-2.875537343231533,-3.57054472391064,-0.6950073806791224,3.1839751240575973,-1.132984600613562,-2.1069532203405963,4.861662789431979,7.671572596167756,6.306493741320811,1.2543555966771425,1.7508730860513428,-1.6464168976261764
12.0,8.020287379846275,13.512804573160324,5.492517193314284,-10.722886894409314,1.2286386984325308,9.445396410907295,-3.9605500068750263,6.024413335781988,4.200195851480247,1.7301428163940458,-2.7455239575274786,2.2702997262419355
13.0,3.8808918237566195,9.496407929464743,5.615516105708314,-6.644670083169021,-0.8180696164753256,7.573849790686464,-6.982808904930409,-0.769866545487297,-1.2424713773711182,-1.7826451856909002,-6.587186763464429,-7.276047497400622
14.0,-0.11445310019027133,-5.322720086381983,-5.208266986191683,2.680502660946096,2.5210572880875386,-5.247907692934318,0.001029200722523882,-0.9789263839480868,-5.186598921517799,-10.494560751621915,-7.866082727551213,-8.98674987725377
15.0,4.634849627595313,7.314997256937119,2.6801476293415503,-6.019118151508811,0.953528960240799,5.01991458113525,-1.5851032896561024,-1.0516876688794894,-1.5640595538529167,-4.799421581286262,6.677199386801506,3.8313278496223915
16.0,3.0211739909050235,2.530965116155779,-0.49020887474954655,-2.7488481392480892,1.8118749423130365,1.0526843408071573,-2.9692382761803238,-4.721459763211257,-1.0801274491397312,8.788825075120691,14.226053132139631,15.481483976227453
17.0,-10.8280433451811,-6.685962409944906,4.142080935236053,8.777679894476764,-7.506421360902868,-1.3048526390409052,0.03363042050292564,-9.310687566758258,-3.3406501884786426,7.764230188355796,-0.8511103516161187,-0.15008639131256807
18.0,-10.639698583520147,-1.8056619790157504,8.834036604504577,6.239534436814283,-9.7569226803303,3.4955240439699193,4.537302255298734,-0.17638400178017477,-1.913838590497189,4.082334219527569,-6.1770566023894355,-3.782504337884227
19.0,5.765770337430507,4.4939116167382505,-1.2718587206919638,-5.191543864458207,3.578330386390967,1.6042971649159712,-0.7356073830137424,3.863808632789025,4.296308027966034,-3.5208065676686218,-10.191331276865338,-8.354732955546226
20.0,3.846386809151573,-5.548639905591863,-9.39502671474323,0.8726369483369114,6.600740960885373,-7.471182885710422,2.5978044495296575,7.40740293403924,3.0421989402488836,-3.4406508034577508,1.8789401737346996,2.097392716652414
21.0,6.811319107436423,2.631424277295706,-4.1798948301407135,-4.692077018135708,5.47235357884772,-0.7716881344218907,1.1758402872605462,0.9035197595807967,3.8924047780739803,-1.3277314480806548,8.881565184787938,6.992975969466455
22.0,-2.890940084676041,-4.911685677459504,-2.0207455927836393,3.939700203303085,-0.4644825407841404,-3.466904229056021,-0.02222434875511925,-0.6132378312240072,1.854668767163556,0.4005062095975114,7.820175007113416,4.41627552947409
23.0,-2.775851056276077,0.7016432103439566,3.4774942666197273,1.004618578646684,-3.0854542565714405,2.0817176366769283,3.257033718499089,0.9109212455824648,-1.9520819925879442,-4.8988253726872895,-7.012718982935539,-13.990544631483631
24.0,9.958515648601196,2.33870778715069,-7.619807861450587,-6.176540994735297,8.743308942588996,-2.5792181162785273,-2.5223440017014744,0.9489107994728989,-1.9685588509597363,0.8388208054677777,-0.8959998339447273,2.4303513003443187
25.0,-10.299455341204363,-4.672942683336083,5.626512657868572,7.458754806762341,-7.936361402668586,0.4488534378477891,-5.071025254789882,-0.7559181716181842,-3.786924170025165,-3.778096764684128,-10.33799126706074,-0.5392306846240636
26.0,-4.334619476086356,-1.844890066465468,2.4897294096215017,3.0597132893442667,-3.388055690939526,0.2843392246266807,-2.097046577935091,-2.0710972811699326,-2.277596479179206,2.575371846945269,-3.5970221945407137,-2.435030601630176
27.0,0.984239693537885,9.18812427185778,8.203884578320302,-5.040952410909858,-3.5839363147274876,8.728179102565944,-2.001068352888039,-1.6268596095223584,0.0010559075256999506,9.818668344624136,9.950359271093603,16.10644205255475
28.0,9.955531415073791,13.769857284688008,3.814325869614231,-11.819651060202277,3.0228375437435964,8.740008255695871,-1.3094046021385837,-4.43846523200742,3.6785457850821657,9.821949957217182,5.750032019972615,3.273014077412066
29.0,-3.0627272466147835,-0.5585216056963249,2.504205640918071,1.8536758566991223,-2.746022133816256,0.9981459472243284,2.9001731535818873,-6.1340008077162205,-1.272033886340697,-8.34612816058035,2.739822920152202,-12.136820617874216
30.0,-4.852224888444994,-14.549812437076598,-9.697587548632095,9.666675851627554,2.387029966631568,-12.095104463096916,8.198484902422077,5.4436934271856785,-0.8008316342664028,-12.907517971730167,-1.3615472000259476,-6.196721163234715
31.0,-0.8567271919167045,-6.634300791056888,-5.777573599140497,3.7118835994788477,2.4281127966124316,-6.169977859975152,2.9942023459860554,5.9560061734598735,-0.9745114005133861,-3.96057472617363,-4.516941146704225,-3.1557696635856893
32.0,4.79276184715638,1.2732962741555847,-3.5194655730009234,-3.068426422657878,4.203218101089249,-1.1561575536534514,-2.617709964819002,6.1807844325185215,5.83690274393469,5.567332244523579,-4.646137613741621,-0.31113343716028896
33.0,-0.9980473160392791,-0.5427256544216557,0.45532166161773957,0.8090079755511683,-0.7596159575978001,-0.0670575655931378,-5.0090631660755776,0.5873724456414435,3.680896681198047,2.3410215028985695,-10.040478314692573,-0.04292925447469753
34.0,0.9418367704811788,-2.4602269261877794,-3.40206369666868,0.7126667027933127,2.2158413758283686,-2.9469626498016317,1.3897046874554837,-0.8542396102638639,-4.2660149475952185,6.17429502815256,12.191094415559842,13.136074516916366
35.0,1.870670332415466,2.808642196114585,0.9379718636993459,-2.3129425197291384,0.43014961548167774,1.8615131779796865,-0.810633456522496,-4.896152551758634,4.159441186568747,9.404713293932145,14.335652120776157,14.138296448673449
36.0,-3.979051142120714,2.0043150613801655,5.983366203501016,1.012132833312518,-4.938787115166055,4.061019571172533,0.7753239660549147,-5.531205431252175,-4.122973131102714,-6.12400084150887,-3.1352017960600183,-7.059098428788323
37.0,-0.9450211331065566,7.066105000739542,8.011126133846112,-3.032638134847631,-4.513488326250769,7.5240227510631135,-1.4081034033831414,-1.3188936783789158,-7.867474961965653,-13.674106118377034,-12.477810851602884,-12.654529510352306
38.0,-0.7544501755358485,6.565632531340556,7.320082706876251,-2.9485874014281586,-3.9927592460439696,6.923062483372793,-1.2003608944029862,0.2099138274021629,-4.589072205313121,-6.521236596463853,-6.126846166713927,-11.827529655974892
39.0,-2.5612592486577066,-0.9656966796423863,1.5955625690151125,1.8095429285381932,-2.112161542175539,0.28908187142860253,-0.46187027241804013,3.1574885450711716,3.099879478670589,3.813008365478823,1.9811950448134263,-0.4533208338188004
40.0,3.1884514868988787,-2.82945414281694,-6.017905629715916,-0.20273476617515462,4.568689945798885,-4.376269592629233,-0.04952295170754195,7.339190138640456,11.048586402980048,13.728978276737138,7.567049146734956,13.445087391187705
41.0,8.210796630639102,-12.605564890632818,-20.816361521271894,2.179564782145449,14.556062502104538,-16.745911934005377,-0.9576714970434541,-2.956564407191128,4.448424009908583,6.688087759603952,1.2136219869072664,8.440167399890788
42.0,1.0124406622689044,0.9630896224112888,-0.049351039857517875,-1.0060455577362915,0.4927003658867992,0.4998971558415093,3.7926997109923666,-4.963600920792807,-3.8120965265672995,-6.158307978013641,1.5788385132541067,-4.692762689500913
43.0,-5.134626401048045,3.825630639228196,8.9602570402763,0.6300056147364983,-7.007828513802867,6.359680409276049,1.5327544635476562,-0.8578048165276788,-8.341934251201154,-5.958941984930274,0.16762193362411115,-0.43303024952456554
44.0,0.7616433662048703,4.060241018147581,3.2985976519427256,-2.3666809826124893,-1.3068366721281466,3.651587140613984,0.4471783266200574,2.510653846749353,2.691293508915906,1.4065328616907546,-3.0574853954017307,-5.271379210902107
45.0,-9.533498641200499,-12.133918196543462,-2.600419555343014,10.867178622211547,-3.4238860740938906,-7.308768502022238,3.5768309907688653,5.8902083379311465,3.298194838693097,-3.429640862280022,-0.35597725139453273,2.7465810902000714
46.0,-3.183016610935562,4.207926915876726,7.390943526812283,-0.5663889529882518,-5.241926760397124,5.787110496691063,-5.871718710674737,-2.8123142266795567,-1.3509647502360067,-2.303365277451343,-2.3778150497210806,-3.4883509803291615
47.0,7.994176445485383,6.6421406370405744,-1.3520358084447617,-7.297877259249418,4.63992575985035,2.6394106283955487,-4.009664921195435,0.7086299417217821,0.7894651470446815,4.118114631286895,1.148664125691775,2.7824122728259493
48.0,1.6461835939500236,0.8233024556655515,-0.8228811382844574,-1.2142818592040774,1.1982642452553574,-0.0019441446028181097,1.4852219671783362,-4.743595673594577,-3.54870410817073,-1.8626471750906335,-2.5086368862363244,-3.8095249485807714
49.0,1.1447939499283222,-4.164823057690434,-5.309617007618738,1.534646006446716,3.1838867703077627,-4.740383439415457,4.904119981460571,1.07960108169455,1.2914450872688374,7.890807232233308,2.1978924807147564,3.7540850060611035
50.0,4.0047184562078035,4.811472679326655,0.8067542231188396,-4.45560097236814,1.6249270043445851,2.800144906109104,-0.7327313069010546,-0.026002299800414158,1.3057836127447584,5.184558824204438,5.120559120084809,4.76236195903295
51.0,0.06549936117629995,1.3263109037154244,1.260811542539116,-0.7360044400778964,-0.5806284869480176,1.274855790411819,-0.6775183421563167,-2.6445728035360645,-3.2866549138439205,-11.523928881484345,-2.448624857929886,-5.5399597545659
52.0,-2.127468713751247,1.1711502070043875,3.298618920755695,0.5238523814981744,-2.7010704105294,2.283095358499054,-4.490175297678731,-0.029924474313073157,-0.8323442522031942,-7.150374829031488,-3.126864240885097,-6.422411261208567
53.0,-1.7444894247765972,-0.6395445334040013,1.1049448913726936,1.1651473000723083,-1.4117298878921423,0.1905433426918865,-2.353704017055258,2.980968533511339,3.5813168938346465,3.1365306853993467,-2.136865626649171,4.025899151369376
54.0,-11.910775723504884,-7.606174268842761,4.304601454662199,9.815606578757219,-8.08742494361771,-1.6234097131381415,1.3686480624043345,2.703474218833711,2.483251333935994,7.154942055473313,4.673599094902295,11.558565629972835
55.0,6.2709760562827634,-3.007855770608297,-9.278831826891057,-1.6489234356802145,7.728040510267361,-6.121243627256362,2.723169928905971,-0.3861047945848215,0.7447310674608232,5.7456514425463965,5.039725643132257,2.5115812711664702
56.0,10.807709023053034,4.089090857833167,-6.718618165219931,-7.46275395701087,8.807695084621882,-1.372156873302863,6.948039715618025,-1.7035549685065223,-2.363977049752615,-7.567044459783833,-7.589733890203246,-12.749281316054422
57.0,-7.234790807834336,-6.297012208038519,0.9377785997957258,6.752937070942861,-4.110380867504291,-2.6548800844525164,2.40684090341679,3.0861242985969506,-0.15238605306541997,1.0562412761988647,-0.053370468157253104,-8.594804225523191
58.0,-0.05220122650674902,-1.4208143830477,-1.3686131565410058,0.7230131388915677,0.6391743498884378,-1.3637541557976296,-0.40026386268777897,0.09653459928168884,2.442359176376508,5.599183206031064,7.308833757470376,8.974264595927398
59.0,5.9527224141572646,7.8495554296734955,1.8968330155162385,-6.8384153259846165,2.0082210004471945,4.832594663741605,-2.09272353964963,-1.9600277447771945,-0.4179764234090488,-1.815035581602371,5.2737216201799,9.200205653984849
60.0,-7.310245574548242,8.370372782579805,15.680618357128093,-0.5504355383214432,-11.520374882937876,12.06974936646606,-6.474369331036366,-2.9422100156538367,-5.741335996727755,-8.734286811296844,-9.12860866276315,-4.068867109030502
61.0,-0.14353605347714504,5.297895394980978,5.441431448458175,-2.6032181883150547,-2.7459800592232018,5.3384657937014275,-9.997544432965315,-4.410566740132636,-4.835664435874056,-9.14750315325548,-15.993484334305977,-11.056792922654417
62.0,1.4794889249659189,0.7577284054361988,-0.721760519529691,-1.1508065797047393,1.1401989808856732,-0.013614130529206125,-2.9552979025238124,0.42042309140476974,-1.8599835393450124,-1.011877611480847,-5.409518611624611,-2.9844684515145476
63.0,1.3641285329238881,-11.744540868690692,-13.10866940161458,5.231174576707895,7.270850164958357,-12.383377492491922,7.136883956186461,1.7846052827825112,7.966695345242391,10.024796488595024,11.151304231255184,9.206911319915484
64.0,1.2720885997411155,-0.930860915937946,-2.202949515679099,-0.13363577236930624,1.6900168432133125,-1.6087668076500075,10.208797511690905,4.608888940404844,7.815069080215992,10.753546336999202,17.920808404820313,5.453917602467625
65.0,1.2381074233356597,-8.927602285904294,-10.165709709240016,3.8012028020370927,5.652478690494084,-9.516962252895336,4.026124265099626,4.6520658184496195,2.810946959793512,12.80311809782969,8.495517876104836,-2.2421040169971374
66.0,-2.6109799971010563,-6.32111369720848,-3.7101337001074817,4.501775926387614,0.5777815311272283,-4.992578706569995,4.155068723096399,3.6749728751457966,1.2902952142890207,-2.9695043509519383,-5.3985717293573,3.161637408243191
67.0,-4.003874598171212,-0.5532354866624727,3.4506391115087003,2.2380012911590823,-3.777784032226412,1.4664504907266704,-1.1693550110294273,-6.859217552469863,-9.842607125801097,-15.841150265010993,-10.235042850700166,2.597384825337055
68.0,0.8889125555022064,20.24742504930994,19.3585124938077,-10.604883483409104,-9.204471325991609,19.738171177054515,-5.287318506079066,-5.382661447681869,-5.817858606975641,-12.459771822791108,-9.064219488684092,-5.746518780964075
69.0,1.765874265840123,0.9218606994455829,-0.8440135663945565,-1.2973284077379192,1.340260580626266,0.050336002534450586,-10.276367135435947,2.428205981966071,2.5042297220796117,4.311534716034934,1.1193212329969802,-6.846131332711807
70.0,1.8365446988710843,3.5020367700601995,1.6654920711891,-2.6185185246396365,0.12846264776903227,2.5936055448722146,-4.729260554199182,-0.05154458235851617,0.17740897535121591,3.4306872771911308,1.2732143460597465,0.288690226360782
71.0,1.3568159569508889,0.07180421346412072,-1.2850117434867734,-0.739541924049703,1.2937089230157208,-0.5975029643209915,3.5455875988022663,-2.981274282090887,-0.6731207712160723,3.2821529263270093,6.341995650458799,4.501343899157372
72.0,-0.9999905216016539,-8.746933197500828,-7.746942675899168,4.8482353830032,3.3533369420879415,-8.237715508578349,2.82507752539724,-1.9433594345278615,-1.7085566203841243,-0.29927787011658946,-2.748286549371139,-3.8600795451584893
73.0,-1.9852488051717456,-3.0771753451081914,-1.0919265399364422,2.5024852975285556,-0.4635819471336444,-2.0741709581724033,0.20111994495411167,3.5878288068891515,3.5007535550724227,-1.5342628687794404,-4.8581856463017825,-3.8747806010022954
74.0,3.616719401972556,6.0754874182849985,2.4587680163124315,-4.802889010883845,0.5604453580965305,4.201271635780118,0.5532723538607831,2.893510696918475,4.73042827487922,4.041844915142214,1.8327071876510828,3.807657033631013
75.0,-3.84902289307942,1.7419021128495105,5.590925005928912,1.0091411837816626,-4.744144519599353,3.683588536327821,5.732623214712629,2.9059536276279214,4.795144024035382,4.977075711402713,6.468181722253629,10.188711710521593
76.0,2.3698653679335395,-7.654016323936754,-10.023881691870304,2.667312027291195,6.243920091695635,-8.815473468492106,6.386006387615173,1.9285231281145014,-3.030734423164513,-1.941442608551214,3.5902712361204983,4.169384637357439
77.0,-6.574420517776795,-8.996000656822348,-2.4215801390455542,7.802952364133239,-2.036396994405743,-5.677300911988063,0.05922784085987498,-3.5747146293181133,-5.588003033409596,-3.736797277019903,1.2930722107442287,-1.4647809974182324
78.0,2.9930069381459017,-0.8888923251748336,-3.881899263320733,-1.0390825420450862,3.39375160855196,-2.4240736887849015,-4.415088410180714,-5.4404691796283355,-2.654296073380783,-2.380275379819615,-3.037899557589667,-9.360080312185554
79.0,4.992233610664039,6.033898747779091,1.041665137115039,-5.501958242272979,2.007490387432085,3.5851555963090993,-3.891833678024944,3.494003080878339,3.7212544605501447,2.153265576631551,-2.5880236888956825,-7.492393206378135
80.0,-3.4958918455646075,4.066805607585706,7.562697453150305,-0.35267253094253936,-5.4989633854021935,5.787447475139196,-2.5604808971152266,0.45300565425927525,0.596833745120084,-1.9189374013111056,-9.149409924096831,1.0377517823491615
81.0,-0.09922088211515595,8.775079691472282,8.87430057358744,-4.324616363898067,-4.537631042141208,8.79702363147479,-5.220947797976868,-1.7812358485679447,-4.2699914196606095,-0.886482876774638,-1.8950748530138912,2.996607067994376
82.0,7.849515546303296,14.07988044674179,6.230364900438527,-10.949140333969815,0.7548393498128236,10.122857098537956,-2.005401031949587,-0.6448888841573772,1.506053063866898,3.5476731362436564,4.095697621914365,3.278048326242187
83.0,-5.637555586699214,-4.836280443831157,0.8012751428681149,5.254496364342559,-3.200095142019052,-1.978150970174115,3.7566449496479795,5.329704253257885,5.089577344793505,4.479600441900962,7.552971109678566,3.2853924821710585
84.0,-10.333389080954372,-22.077325931620923,-11.743936850666474,16.22421903605262,0.7209837624391031,-16.878306265913768,2.8731295279207685,-6.8648296015853285,-4.139491277511102,-10.42320863513346,-0.7071748759977687,1.069200668116952
85.0,11.110820068859857,0.09900127085157351,-11.0118187980082,-5.664570863856477,11.076836975899349,-5.507161950436515,7.0606244338014115,1.9581299130164793,-0.5526560343377118,-1.2241733580554968,6.224809389423537,3.710088220499644
86.0,-0.9332877210163919,-2.8075371733034453,-1.8742494522869988,1.888678820401125,0.4907737188264152,-2.312944839862584,2.3945048981662644,-0.6863762460806877,-2.74086236507945,1.7618039049883487,-3.24360816857665,-2.8411965975788314
87.0,-6.875838143463992,-0.8864019175086015,5.989436225955429,3.8979425927983,-6.402681310615346,2.58368693098194,-3.9607325476943123,-1.6272534901697533,1.954953511952933,6.158864077760069,-6.997696326432253,-5.090446890183275
88.0,4.605605645916707,3.906581580184472,-0.6990240657322166,-4.240518992231125,2.616311182109664,1.564061835798181,-2.154229869525021,4.730158990992438,7.419540544624232,6.832323839864672,-2.763158243054635,-9.431304307656145
89.0,8.643256020308883,10.771154807718204,2.127898787409334,-9.770443446365064,3.234868535222229,6.495369649238233,-1.662672439289338,6.231166269299515,3.2309201449589438,-0.2833527828650353,6.064269268994847,2.567688502573241
90.0,-0.6871468943264079,3.9030846474590506,4.590231541785437,-1.5905090630410879,-2.650544689820655,4.217721040344722,-1.8973899335103281,-3.3843497887306966,-6.981847359049709,-5.942542005820624,0.568996863716849,1.4811645339990474
91.0,-10.601386229870451,-0.8338803980274321,9.767505831842971,5.7392971574402285,-10.18933850950904,4.437202131346723,0.14333606289536593,-1.8115714251688673,-5.195247012683543,-8.957982821845007,-5.980440180368514,-2.9662577154062415
92.0,-2.5590777806030185,-8.071155013073698,-5.5120772324707215,5.342556257246101,1.4739370675152061,-6.826643151800969,1.8281269523101482,-4.252152462445592,1.5299863524801838,-4.0562363033818345,-1.759705275654012,6.006847261978429
93.0,4.355728769968198,-2.616045920367921,-6.97177469033614,-0.8366660416927343,5.737809573814802,-4.758736149028567,6.4589394573470384,0.13747652672658228,2.1414108174604296,5.071829015041324,10.750155121388058,22.046479425987318
94.0,3.3643045880760116,0.5201329776213988,-2.8441716104546098,-1.9840575780558498,3.0935273515518413,-1.1359599562829774,-5.842361193589737,-2.320350269483217,-3.8879648465950982,3.7259005047189433,1.4522997322166233,10.70683701484215
95.0,-1.030382942366166,1.9426073387572338,2.972990281123412,-0.49749829311332017,-2.021477238211062,2.476572544079159,-1.4310544268985386,1.693920462250757,0.2885875700596233,5.6481468351850115,-6.417141869393088,-24.837255206397966
96.0,-1.653452358274447,-6.995052978126387,-5.341600619851914,4.280325168268036,1.8134430535787818,-6.153684969436885,-2.635246609184146,4.042992979882765,4.965603436692334,5.294597143306641,-1.0843022969229712,-20.15021969093655
97.0,2.128642867332625,6.267102187698066,4.138459320365487,-4.166609554232622,-1.0461390097444445,5.13768835441631,-1.0691021469477688,-0.45773943438544995,2.416191355461291,0.7111638210441686,4.391009456873953,-1.6918355815334305
98.0,1.072225677235606,5.718116304272071,4.64589062703651,-3.3657266989874137,-1.75719728839335,5.196843754355848,3.2968371905013085,-0.015079402577430123,1.6330738813194101,-6.829500251365185,0.8215575583385761,8.40538867440962
99.0,1.5932947415520666,-2.7972974635611685,-4.390592205113216,0.6334201346902211,3.0185260523278963,-3.5770828097081115,4.295732554685414,1.920764914360502,-2.0271059184288163,-3.921182699569023,-0.23978114329752598,8.293440024857558
100.0,-4.413600345070213,-0.2981934553371129,4.115406889733058,2.393209852780295,-4.235453672944949,1.92721265495113,2.790316089019419,-3.2849984894049924,-3.0897931381316965,-4.822728367271694,-5.458995171338481,6.608059459772771
101.0,-2.653413470347245,2.2294650991492664,4.8828785694964205,0.17832739363652705,-3.7324700353767932,3.496930991956056,-2.9827337227616457,-0.442541020916402,-5.033500029149146,-5.630343122757573,-12.498243131440324,-8.744928687158112
102.0,1.7094263771670233,-3.5939876112152547,-5.303413988382383,0.9150551132058864,3.471062657076448,-4.429030357150843,-1.2560758676668582,0.841282175630063,-0.061136448911046415,-0.022236901834847743,2.8567057219610446,-4.093039818757761
103.0,-2.744233049586245,-2.924601912802963,-0.18036886321677503,2.8092676510677177,-1.3119774345168786,-1.5327689242736926,-0.3978287290033107,-1.6727427807961606,-1.4524376233870275,9.605874966844963,13.409500990149095,3.01441846446243
104.0,4.6641653955697295,-3.278509459079437,-7.942674854649154,-0.7216108140608808,6.273963634047343,-5.590117673851624,-1.1217807457926503,1.7217134021747493,5.545019557206685,5.766481561006366,4.400003717725545,4.188935191039548
105.0,6.068128515077493,5.471947600131368,-0.5961809149460593,-5.728676390053513,3.2984837614299733,2.3817341142220627,0.07422752468417926,0.38174842946060134,5.523393204601129,6.142363119222207,6.937514930507811,9.775691940633639
106.0,-1.4204702578159876,-1.2814426211478418,0.13902763666823506,1.3811234837797954,-0.7415966794286384,-0.5448914773974853,-4.277917682849456,0.31953450835228736,2.363568096452698,0.7255260151073477,-3.0882585468466197,6.409135934059906
107.0,-2.4968706515932815,2.041067935652066,4.53793858724544,0.24733468231462663,-3.485790250773661,3.32080222727227,1.85550098292773,1.5294087648199441,-2.035112374968589,-8.171240270022654,-4.4958627076089295,-6.242555864829408
108.0,-3.3789756189885596,7.014192921315256,10.393168540303886,-1.884435306216801,-6.8580944029277395,8.661666469680114,2.2933696212932304,-1.196600250204657,-4.289153784217299,-2.659409004068748,-8.890571526699304,-17.620102762532856
109.0,-8.37571768089384,-1.378812135768146,6.996905545125715,4.886752032039256,-7.658302639295561,2.8505785524206972,1.3857372413006064,-4.055267495263595,-4.7944094537245725,-5.01016756557075,-12.016785291895342,-6.270378679352391
110.0,0.6153126294300137,-4.94138688465198,-5.556699514082023,2.1757681234085284,3.037852041229369,-5.283139223347942,1.7975408166273308,-0.03345342979361199,-1.6766858873180146,-0.7365521625439717,1.697580070554232,0.6142297107149512
111.0,14.243481548451566,-1.2362808257573215,-15.479762374208951,-6.482726737788398,14.816460871546214,-8.391300029537051,-2.367599887628355,2.9743014769478275,1.5923246574793946,-0.039160852742821106,9.987772386992864,3.266425156248941
112.0,2.7931827660703314,-6.773526347211127,-9.566709113281533,2.022021264249519,6.214969620723597,-8.126182758172817,-0.8575168271454515,0.8761679069448229,5.449544931313155,7.129854298687224,12.65109151786823,4.040976609006644
113.0,-6.279060784154316,-7.108771677141714,-0.8297108929874701,6.657977906400945,-2.7694112450677766,-3.9287071574363326,2.703974268157189,3.1197347369931943,4.039487614516393,-2.287720825791367,-0.8781985438095337,5.230415744398935
114.0,-1.414447806330232,6.727708422465817,8.142156228796015,-2.6843782815319863,-4.74738073498913,7.39232727864046,2.104620030857473,-1.0022480277890253,-2.6173957662544365,-5.091505176702833,-6.118861239824796,9.496116682581839
115.0,-0.6986207401261233,15.556932128771038,16.25555286889717,-7.453254856863905,-8.450191231349724,15.85938443230351,-4.091939936910278,-1.0282195716009104,-2.8520880849710677,6.315163677535622,-0.7022643666487838,7.874622202199956
116.0,-2.9047933104375505,6.297664794470075,9.202458104907652,-1.6429701600688542,-6.030441695615813,7.779058172092223,-5.520717511947204,-5.730378668453539,-3.7432312133933276,9.124667971523097,3.5815720515150096,-6.57392411356237
117.0,-2.2313280744190482,-0.6322622003242433,1.599065874094816,1.401544426874615,-1.9733003540582188,0.5118977185699336,-0.463090057924747,-0.7143007594774133,1.649999176447055,3.2282925108017118,-3.763817922943735,-11.97859679840239
118.0,3.319493769503687,-7.395166236380404,-10.714660005884118,2.079390636550558,7.0367382277333865,-9.024036264488352,2.3513589053648385,-0.4525640632369048,1.3384544207201892,-10.304434754513373,-3.44688789763336,-12.289938684256827
119.0,2.8572927816824016,-12.404350357096291,-15.261643138778764,4.729247441517251,9.07977280016423,-13.875868331096324,6.752438346159729,3.379353100568377,0.8693029630211204,-8.262388377332362,-0.3928064084064611,5.62943821562299
120.0,5.71864298347746,-9.41001425843567,-15.128657241913231,1.874252504965917,10.367459772230418,-12.305466218525718,2.524543765531149,4.226561047598441,0.5675787233008689,-6.266927817527823,-5.487737068754599,4.208096943213486
121.0,-0.013490214148624169,-3.425049864745525,-3.4115596505969874,1.7436731623877333,1.7254037026347624,-3.3683693017421943,-0.31547359969149436,3.986249369152292,2.902969191553044,2.7532708161056725,-1.3056318916084964,2.6663803249189986
122.0,-10.466594734939743,13.745690497407287,24.212285232346982,-1.6964981717532284,-17.307933550059225,18.956898966376393,-5.626642687339364,-0.37884637458345627,-0.8609125132590584,10.145865749678661,4.914666327044732,6.199733713002921
123.0,-4.478389242797945,17.456429395841095,21.934818638639058,-6.468909191932863,-13.2479903148758,19.678613396305522,-4.527573916912209,-5.026225217252746,-2.208978360338051,10.613783362803876,10.322781310474454,-3.112955816619194
124.0,7.165304334907358,5.127296670080657,-2.038007664826628,-6.127716517612239,4.6444909112552555,1.6088881745881967,2.392822417621519,-0.54848763432582,0.5150721960159288,-5.772065992797042,11.477429932743252,3.918502891058014
125.0,3.140183557686223,-15.056295592879557,-18.196479150565708,5.9747576995601985,10.636024877863361,-16.64165087252997,1.8426474133107236,-4.32620874097076,-2.173230863302593,-3.130931039973264,3.4364884168975895,-3.7215750499530897
126.0,3.3443345338080572,-5.018400429438939,-8.362734963246975,0.7727239123954752,5.90026878684221,-6.71000966829911,-2.4306158682155403,-4.488447514368045,-3.121330888274918,-5.726887908252517,-17.695529213858304,-10.159717335383247
127.0,-3.5887845209079194,1.4413255997780547,5.030110120685934,1.0861024184308214,-4.345366584094663,3.209403846271176,4.284447715840621,0.02565584873582083,-1.578863639033425,-9.512980366579026,-28.29671330441899,-5.440049568950929
128.0,-4.039230662329316,-5.749959484278775,-1.7107288219495451,4.906085323996767,-1.2080495061444572,-3.764490047560699,0.6285953208346295,9.326832058370432,4.222257495265124,5.939246652233324,-2.4060215431189977,5.979395301163717
129.0,0.34669706509267373,1.1094166544764503,0.762719589383682,-0.7153080261427367,-0.18341248456812098,0.9742010582613501,-1.9052955387755115,3.8650070546570143,3.181647693715541,10.29968231198814,19.73824678423931,10.197374870360301
130.0,1.8537650477848338,11.1393233439577,9.285558296172818,-6.480007734247577,-3.7016624550981576,10.24744869606268,1.3343574883050924,2.9700672306920435,5.840586857361278,10.792707631203841,26.17010367382519,11.892068289785257
131.0,0.8969147362337662,-0.14173380001926628,-1.0386485362530111,-0.35519398702414984,0.9742863318190917,-0.554280821498498,0.17450400718005438,-2.897565526151345,1.5297555091578765,0.15701199218869188,12.37054811691128,4.928489425848776
132.0,-1.3936890380602884,-6.307427610286293,-4.913738572225962,3.801000966785713,1.7633870696451812,-5.649538144498374,0.7198779515183865,-1.5786248783217482,-5.420234861513188,-9.196619683150088,-11.8140240515822,-10.575456906436239
133.0,0.10667523459598041,-4.539158104070257,-4.645833338666189,2.1730815323883776,2.3817152363795406,-4.626947072021702,-3.7213175147143778,-6.825282538796987,-8.355524811156013,-15.332130479311239,-22.536325287939505,-18.380781213407097
134.0,2.048667032807418,2.9818591804022545,0.9331921475948945,-2.4747576552475485,0.5697789574333711,2.0042855344219372,-5.537267131096525,-4.837939132307081,-2.6617165139404215,-7.901086536784747,-17.88128275429618,-10.662472187225134
135.0,0.6248456595663745,11.159893812822821,10.535048153256486,-5.84910883925361,-5.012577564073259,10.81404348747418,-0.05613649894793915,-0.8199892173655159,-0.9983840988714667,5.381894143653284,-2.694628749027803,0.7984687071083432
136.0,-3.870673896092525,-0.719277814212993,3.1513960818795654,2.2597275725804202,-3.480180502001793,1.1769577604917338,7.362394747949798,7.345738619902211,3.8617270416703393,11.58243646510721,9.512941142265152,12.472852462933535
137.0,-0.5934997530022361,-8.738423747871455,-8.144923994869226,4.707119992246076,3.814345274980403,-8.410678179107697,3.5000747158912984,4.413304488973331,6.5945991543845395,6.905810084491033,16.67736527465605,12.023502834143923
138.0,-1.7207158640531948,-5.838654413457634,-4.117938549404476,3.737550552334805,1.1629891691132488,-4.956618855670607,0.39486080432596915,0.9778785865670274,3.203166823215116,-0.3813636101606095,13.000174092105796,6.11469447406455
139.0,6.803425344715649,2.7700033338197336,-4.0334220108959915,-4.834522724462655,5.383557015198119,-0.6175197778333348,1.9920899398308562,3.744063222451411,7.114683235573508,6.972131669185796,7.422303260443263,5.538399669579001
140.0,1.597311486816691,0.1131005315608693,-1.484210955255941,-0.829359363570205,1.5823488747271255,-0.6751366547999009,-0.9917540316081047,-0.922557129085963,-2.187172485767721,-1.1866739648918816,-6.17300566520789,-5.87461863220274
141.0,-4.763103776031,-5.813960775692809,-1.0508569996619277,5.311703814418914,-1.8970392590490248,-3.4999218267294125,-2.545333891513858,-5.778171630744898,-10.602940202274977,-10.74797443225251,-13.786147919648963,-15.938532585371222
142.0,2.1386219597518217,12.564990409508606,10.426368449756675,-7.327721986325257,-4.109332954133173,11.512144690899575,-8.448448223398957,-2.3704784528992833,-3.6275069205518555,-3.2188871023699335,-7.271684089075965,-1.7173683247053528
143.0,-1.0271807755700897,-3.0875915904568547,-2.060410814886829,2.085848505148623,0.5498565535362556,-2.549008812987549,-3.974762064600076,-1.7333954659634123,-6.355761456673773,-5.329392199600291,-11.684230935919642,-4.756402347068947
144.0,-0.5798108303231342,8.91012432395102,9.489935154274141,-4.209011635335611,-5.079045352042684,9.234969306220979,-1.5405908840204077,-6.772959808124565,2.698890209879727,-4.132474014985449,3.3284758441734823,4.870942045643288
145.0,-5.310166905459509,16.922397209527027,22.232564114986587,-5.843526426873307,-13.733173858794858,19.54268543589758,8.56779123678938,-0.6541776609992576,-0.03835424682874855,3.6326462580097965,0.37092617879154055,-2.491734320685989
146.0,1.8464378782942916,-9.270114589335805,-11.11655246762999,3.757876999148012,6.445773377126262,-10.22233676972298,4.002439038641032,6.332070846185943,6.6895376377727,2.812790975965192,5.7094113514652225,8.731018294172753
147.0,1.1779382058648151,-24.66886200465554,-25.846800210520232,11.714921871919184,13.481427417354295,-25.207075069182075,4.098595566989378,9.846956270067034,5.748917886994555,5.9587349222607084,9.185748718210508,15.929086381602227
148.0,4.245580563913226,-17.449530044359243,-21.69511060827237,6.571399061305438,13.021753486246933,-19.60438187925374,4.936975694462946,6.440835282327923,6.629973559858746,8.689336255058873,12.56904304512755,-3.3274238820530533
149.0,4.778807452023078,2.198284958395896,-2.5805224936271163,-3.4415792222030728,3.6539238066877333,-0.23120539038834753,-0.8438236559828467,1.081050823677252,2.748674728976729,11.387370141026269,11.024542772705184,-2.2483214591236176
150.0,-0.7265840640620036,9.442261384079526,10.168845448141525,-4.312162879108051,-5.395612526315764,9.834422784859866,-5.982735137973871,-3.2271625942178934,-7.583810839321858,-7.171716640408288,-1.2960562077892468,-14.344308918529826
151.0,-9.631707421347128,15.304445315895236,24.936152737242324,-2.870222390899703,-17.314140664278078,20.14009366285798,-3.9261392233061585,-11.783577945891322,-10.8317890828429,-13.912362642737552,-14.103992292953548,-15.20895403107198
152.0,-1.8510742872780899,14.691791508693136,16.5428657959712,-6.454505217596598,-9.23300755534048,15.630642730487052,-8.151067439432524,-8.605146892130694,-3.9735450372211503,-5.589137405943816,-20.195637946297822,1.3932963876055844
153.0,2.272147260494393,5.523676722604911,3.251529462110506,-3.8534824997069608,-0.4539632007974461,4.397661460286889,-1.0182711890905596,-2.2028176094950176,-1.8849769406318089,-7.4122382899088315,-16.746400363298022,6.747402035512249
154.0,-3.077470440510783,-6.898329701395887,-3.8208592608850758,4.953226185134289,0.3222686357225397,-5.350206419562035,2.368297150246354,4.005289122592381,2.647284271926197,-3.5801158643422446,-8.490626439332,4.86683556138389
155.0,10.092962856972493,-9.255075444079937,-19.348038301052366,-0.4541574079951243,14.745900805093232,-14.370347581318939,2.9148535742378674,5.941472523527075,6.622242833588477,8.705419150517397,9.421375731392143,16.730643136230814
156.0,4.109147240775991,-12.246247595105293,-16.355394835881192,4.111542093879869,10.257546964666734,-14.29029924207425,6.7451034244853485,7.412159326310073,4.6963352113823325,11.840582074513554,24.714906282917028,22.4005437957411
157.0,-2.1555312042762584,4.165165833889029,6.3206970381653385,-0.9623412569000562,-4.209081518420904,5.253412454250293,4.5140021182556325,4.922142643528965,2.319097793950154,8.750679590391387,20.538515199968863,-7.526655462698213
158.0,-9.392411414718095,-3.6559812000039074,5.736430214714239,6.487036040286785,-7.607851106126356,1.0501846543715772,-3.2478912513377054,-5.0525716056090095,0.2745251426898907,1.4152762147051439,12.983920948908068,-12.0835840381739
159.0,2.496784833361879,1.7927667836672858,-0.7040180496945823,-2.1051976966063126,1.6422175901563865,0.5538437650349115,-0.6718190430753181,1.534061181455448,3.1318895291918665,3.8619602315465533,11.6813973372067,-12.394436463382963
160.0,1.957760483295562,-4.9170205258639585,-6.874781009159496,1.436703105712295,4.383710046786999,-5.8863987670051054,-1.2342686674581325,-5.4611716277611455,-4.048652377124052,-10.898083741968168,-20.88000591821532,-34.55435460284765
161.0,-11.949350196585693,-8.53327881289145,3.416071383694281,10.193025927423195,-7.714344609566885,-2.5482660128496013,0.9567630697997402,-4.115245587213882,-11.673437076648534,-21.0685841545603,-44.15554381920539,-13.2568039974201
162.0,8.158868825755274,16.88239484542779,8.723526019672546,-12.49595768857951,-0.3162207673197357,12.736310222043763,-1.8281660837202507,4.0237216605820585,-3.4083733603662667,-1.0846226146697067,-18.864260246052655,31.723250302966196
163.0,8.014582421433584,9.7942139876269,1.7796315661933306,-8.884037722320029,3.1585277947361394,5.801808156985504,-5.091025088276132,-2.05380050923993,1.5263256024472387,1.7673870572106618,6.754696631877497,28.01022771241344
164.0,-0.6176715608423926,15.48883437277948,16.106505933621833,-7.416264493274619,-8.32429281870338,15.816406621371708,-0.579795366055047,-5.136046085393323,2.469620524236522,12.007973291289828,28.655175993020364,9.16906505055682
165.0,-4.654897103381455,-13.352279432977014,-8.69738232959562,9.02597818502096,2.0577698962087565,-11.001421426999457,2.607828118237704,6.440416513892788,9.479187100151886,6.969619445498279,18.420394124957298,-1.6625182400843581
166.0,0.36224068221395234,-6.215811494135095,-6.5780521763490825,2.877117416328498,3.4287720199321727,-6.368762496194972,-2.310056491535472,-2.5887977421379476,-0.45691783173378475,-2.503788228923976,-7.299521255575236,-18.5271599035019
167.0,3.73344742051484,-1.2166795634753633,-4.950126983990168,-1.2206037830518515,4.302339983696341,-3.1302647987755208,0.6892223912112359,-0.8698070386805337,1.2969148488114481,1.952398572010987,-5.4035147959852186,-6.0415412546529
168.0,-7.682925454706725,-8.060286093309267,-0.37736063860243885,7.839272643142923,-3.611947306891481,-4.264098339430681,4.586187879441981,4.383345901586736,-1.4486937140251444,-1.1138900952187791,-3.56733467381001,-3.888229338744976
169.0,-0.7017802061798322,-22.53511736621063,-21.833337160030695,11.592904426544917,10.527910253234005,-22.15188368890325,5.682386139384516,7.541510122846785,0.23941883444636458,4.662048953562396,16.72852800142644,7.542907021642641
170.0,5.957846356313205,10.932396326938704,4.974549970625579,-8.387976052473414,0.5308897112446165,7.982081738173113,-2.320509266900768,1.1213173129054104,2.5081498113372405,8.07352110015785,14.032652035970187,10.190582757477294
171.0,-0.5300288885219253,17.471421885987443,18.00145077450935,-8.491280964326066,-9.307817240142116,17.759398651394967,-0.9666492314663981,-3.5006596084817505,-2.487567801965376,-6.206707984675443,-13.196085693045188,1.6322537807236897
172.0,-0.1995378260249342,11.810759453145412,12.010297279170256,-5.827406790002876,-6.070328682853912,11.848233533320794,0.30979791930957035,-7.196101002916517,-8.689315915474138,-22.545984068039683,-31.642707172206336,-9.677027093508602
173.0,-2.0613806572991202,-1.9262549219073595,0.13512573539163597,1.9696340982911487,-1.142495380880867,-0.8852204533927868,-2.230740565623128,-6.142592612152976,-4.847347909991029,-15.449434410082768,-18.585949269937068,-19.393580776077084
174.0,2.19491053801221,1.947660974995323,-0.24724956301698842,-2.0193671191590887,1.25849258274009,0.8561534443401944,-4.7500233337411295,0.7162841734036083,3.780601745932132,14.223889105252745,16.322199923930786,0.3038583563170931
175.0,-0.8500050050812511,-13.398373182929898,-12.548368177848696,7.173528299426148,5.892431298148656,-12.968994596173092,-4.6543283903244,2.2330406779647722,7.989495576708075,18.6101085184993,20.22484250690147,12.662984534404423
176.0,-0.4983727287362658,-3.8190133494612333,-3.3206406207249604,2.126402548334445,1.3831953714562033,-3.5636636359986227,0.4434998475196511,6.179906402546268,4.053010071554801,9.638537818106766,11.279473817710578,14.183440269765548
177.0,1.3793707389177865,-8.240168937170969,-9.619539676088708,3.3942602215878304,5.478829712093525,-8.91885780246669,5.355960602459886,4.257529312645798,-0.6295674237335716,-3.418863497452609,1.327681745873921,4.169255301851191
178.0,-1.7757198836906822,10.970772463810835,12.746492347501567,-4.638767009379334,-7.276667047611062,11.876368441453355,2.5801216030269165,-6.028350771436425,-6.820494669588751,-14.179539656043271,-12.576214545027973,-14.043335344180056
179.0,-2.476489372822363,11.014801154380319,13.491290527202764,-4.237445736712273,-7.99796049472741,12.199071713074412,2.531511169888845,-2.22883830918201,-2.1261487986227112,-0.6016856343951398,-1.5236241270758315,-4.168287519528208
180.0,3.9355500624908952,2.282072452339607,-1.6534776101512243,-3.082338810097508,2.856790131083243,0.3448915702468849,1.955759616899698,-0.8626038511665202,1.3355891746478825,5.735705189901686,3.7841208751930235,-0.4409194957747644
181.0,0.20380414782487621,-8.168281113381749,-8.372085261206607,4.005358542975941,4.265782786007817,-8.314708180046798,1.086266840760668,2.7144123199702017,2.5332830197908214,-1.384373902408674,-4.262517817835799,3.3714300535466015
182.0,6.516943463454277,-12.205366345161826,-18.722309808616135,2.787802194896609,12.589732629803255,-15.42840480353252,-1.1676972506064505,5.689219106819907,5.0935431135384555,1.3289518802666804,-4.536009562658435,7.180991670159173
183.0,-11.933969895830375,-13.20850120028911,-1.2745313044588062,12.595042657686731,-5.289090364519654,-7.206938803241886,-1.9449888930932149,2.9789459466390262,0.5419747289062172,-4.65823261658347,-7.491438277810864,-0.25435842439291956
184.0,0.9164757315037302,10.083516919014333,9.16704118751054,-5.473749230806828,-4.170579130325065,9.578869436221899,-6.910886026693547,-2.1053986492588908,-3.0018167858450973,-0.49951650168616313,9.103299696621516,7.178406723283523
185.0,3.9637107364851762,11.277196057199127,7.313485320713878,-7.592531811194093,-1.6463282783635762,9.32486646962305,-0.7751194429365915,-4.588111920617246,-1.0392281778661714,7.6113493527656875,10.779328291972678,-5.3870079037441805
186.0,-3.128868949941622,10.154092411991233,13.282961361932795,-3.56396260332873,-8.179343659368378,11.666740218010599,0.7236315431114491,-8.508129850309173,-4.879522650504267,0.4904704884033033,5.061320254030841,-15.249004376353968
187.0,0.6333839867342026,9.405324515000608,8.771940528266395,-5.073733239022461,-4.120664768924373,9.114050205543846,2.393805567684558,-1.3652720421301412,-1.48090212592329,-2.309805605425355,-3.639558931365139,-8.034585214548924
188.0,7.911442484671275,-3.0975688925753326,-11.009011377246543,-2.386875019250927,9.49035239514677,-7.027867078604993,-1.8682923373563551,2.672579478077426,0.5419055608984508,-8.760756616918082,-8.391506350343548,-5.8121539418649135
189.0,-1.0505865176571465,-6.949888662887768,-5.899302145230565,4.017097152032536,2.4580252655232995,-6.397470796710741,-0.1553176904230833,1.0566852255289456,-2.1897757070161687,-1.132713278706123,-10.097874314344033,15.782357843781067
190.0,-2.2575772934831457,-15.906564805066395,-13.64898751158323,9.099295756463949,5.653828151412929,-14.82623703586951,7.006299250498513,7.142176963835978,5.724664422279719,4.673217649991927,-4.339111889099729,19.961431654774696
191.0,-0.0886664008509852,-6.023139110461377,-5.934472709610415,3.078323578023001,2.8833034722494015,-6.023047550845571,2.6208447898290035,5.359659644331132,7.110134371403948,4.279883931358368,8.383032847654674,10.956287716235407
192.0,-7.757600927873719,-4.031214483450823,3.726386444422862,5.926168264593201,-5.701342726500771,-0.11301801361227248,-0.7076895784076346,-2.086052163414548,0.9883491594579641,2.5656150110502507,12.157277297410364,-7.351350430622826
193.0,-3.45139058822072,5.6755386268341095,9.126929215054762,-1.148040054830304,-6.325841805045363,7.445806105806174,-1.6084839549016212,0.6998498721184718,0.36087486913759836,2.3500468841228654,5.554493105702237,-10.725368454503691
194.0,4.7041260036991,11.234447290153968,6.530321286454772,-7.995753197306877,-0.8690360996354034,8.853119252110176,-3.697022613764064,-6.2463753791424885,-6.511055613353078,-3.3014271595322846,-5.409520319687465,-21.48416279738605
195.0,5.203529825532469,12.012861289068336,6.8093314635357665,-8.629309690180108,-0.7562515410575148,9.385666927349416,-4.0916030396227185,-6.299649687155956,-9.366106726237716,-0.20476055219898415,-8.63025858898654,-8.733618954529117
196.0,1.7958555340280284,0.4415489384172462,-1.3543065956108622,-1.1396954977765468,1.5453248241574236,-0.40121119837500796,-1.5340981775326363,-1.1096685038075997,0.18812629808023207,-6.866025561307497,-6.538111342419336,5.260224887159002
197.0,3.9994376607116906,1.6990984802290297,-2.3003391804826947,-2.796009994608497,3.1209257660957452,-0.3249917949683081,3.3780571947647395,6.52588230684249,5.435873841093825,-1.5614440654271142,-3.6870770800813015,11.433404781984525
198.0,0.7675359678425876,-12.541465620442938,-13.309001588285446,5.932862801019356,7.007546737360873,-12.953043423976892,0.4169003101581108,1.76379404428498,4.464435450232593,-3.2823993574604495,1.893195097377617,17.003344010192063
199.0,-10.084455004224097,-12.662687942010272,-2.5782329377860282,11.332610364494421,-3.709422183791443,-7.653574571983055,9.126383657569745,5.18112571976062,2.9102124693994513,8.1222886814992,11.96150090058234,26.304572488053424
