Time(ms),I,II,III,aVR,aVL,aVF,V1,V2,V3,V4,V5,V6
-200.0,-0.6048549461672563,3.2231444577539023,3.8279994039211607,-1.284194204494417,-2.2369184270865308,3.4887589189328376,6.601479163089662,-0.17388461411359957,-0.13484867238296516,8.200276334676193,4.081084827252348,-1.554470391596347
-199.0,8.26156642193999,9.635918692285543,1.3743522703455544,-8.911944118196923,3.428136623803999,5.469757877924342,0.07489949835481502,-1.6453212984379364,1.8854714861523523,0.5339014827659794,3.474358431172419,1.8514510950539211
-198.0,-2.2125372607240767,1.8507139809856445,4.063251241709715,0.1505322572904051,-3.1507419994173578,2.999614033421589,0.7418398817823533,-1.5906834361115822,-1.7220130244394143,3.3024669336166155,2.5658584530900876,3.535519533493743
-197.0,0.5028328830471669,-0.9160146505336881,-1.4188475335808601,0.1842946679477948,0.9488525160306591,-1.1262331801890593,-6.4805943014069465,-3.306420787513882,-1.6889540964846925,-12.3541234154515,-2.729526962847797,-0.7009807511592261
-196.0,3.5610036682849024,-2.7930730733802216,-6.354076741665131,-0.40416983061198575,5.024295738228755,-4.612002423263553,-2.0713629941748257,6.03878584265852,-1.146951668022824,-10.634619414123147,-5.49359693267316,-2.1149699310022645
-195.0,-6.280085087050496,-4.436761554634346,1.8433235324161474,5.3335889984924245,-4.073889619424014,-1.2561517025785887,3.687176295203399,2.0952128663657623,-0.974934162883188,-0.6655490058481801,-4.494817202684777,-0.9226141459137001
-194.0,-3.1862316828547357,-3.4608413031801875,-0.27460962032542147,3.367466050932288,-1.468163770074622,-1.9046501541302197,4.083443639229207,0.12620843849664864,3.1597939341569647,8.024683118015366,-0.5097970946467463,1.4206019256243052
-193.0,-4.426234495642573,-5.377719258778352,-0.9514847631357399,4.933532948971933,-1.7500389475921247,-3.199674895965054,1.625429157854031,-3.1288546307070124,-1.3084024499291529,3.820621760593543,0.8950517284051474,-1.0909505695311252
-192.0,8.312394486413085,7.027283915978583,-1.285110570434444,-7.72820874102872,4.785413202298027,2.9168501907080433,-2.971767011453611,-1.073467872679214,3.3549403605060606,6.702381952674063,6.7706761336227785,2.0777809349783127
-191.0,3.0939007284006843,4.6500983412229004,1.5561976128222377,-3.8584607249119918,0.7544462282667963,3.0723196013967824,-4.584413001736728,-1.3011076796009136,0.7614381375487597,5.032925153463068,6.607062222070608,-0.1292947722277914
-190.0,0.26613327173809154,5.2335686914173,4.967435419679173,-2.7370024650322535,-2.2876110006805415,5.1505705729278795,3.086188657499757,2.9437562188565822,2.1998661228597114,-3.141443902691276,-0.09149171453545879,0.26644585429338746
-189.0,-0.543430738564469,-0.2933802180951641,0.2500505204692258,0.43668704708393236,-0.4138641612243322,-0.04840243060484095,-2.3729781289658507,-1.0997363397468403,-6.644760893383796,-10.605616011264294,-4.080725613715647,-2.481741004409211
-188.0,-2.9108362722981926,-0.7856398227130417,2.1251964495850864,1.8761675495286405,-2.5367210117272885,0.6444086556519653,1.4386001602713738,2.6182867272909585,-4.31017790131882,-4.694760670485047,-5.5451870919820205,-0.5998403450950526
-187.0,3.205817553070714,-0.5146087267719857,-3.7204262798427385,-1.3857832888452095,3.4424342582350906,-2.0637996694281817,-1.5120213579804105,-2.8071468981316703,0.3425509596898668,1.1867268837479963,-3.1295879010331618,-0.3720063674757169
-186.0,-2.1607113779435356,-7.165262789251178,-5.004551411307658,4.630971079506626,1.477329241447645,-6.110957295193206,0.974036112839278,-0.3101967341626817,5.243379338551774,5.923487271232484,1.2076769086127945,2.0809179250520224
-185.0,-5.074350807503257,-5.740446448628364,-0.6660956411251138,5.457268998463319,-2.230944138503859,-3.2316601846451443,2.7663312140035297,1.140896646423574,3.001434608917572,0.7012334937936622,4.2833005513686615,4.232372560458593
-184.0,-3.170897371631319,-3.870364375821592,-0.6994670041902511,3.4890734652211055,-1.2667721954393265,-2.237665528170105,5.670702183840829,0.8920139176097961,-0.8252560358576448,-3.4153072620617277,1.5947144674173224,-0.642725443267937
-183.0,6.880564334558007,6.2403133339419075,-0.6402510006160629,-6.599313392459303,3.803384203070964,2.7656907751443267,-4.137843137165814,1.1150244104180271,-0.4314133222509506,-3.8794602539811245,-1.8207004049293194,-3.725140136141276
-182.0,4.824923118897198,5.172632492865397,0.34770937396819646,-4.968206193591522,2.1980789276426114,2.724528154903678,-3.6747807471500256,-1.8166886702941825,-3.9567161527856705,-1.8170143845584241,-4.6294934770005085,-2.6075697206236095
-181.0,-2.7709596608846403,7.869693827527721,10.640653488412324,-2.5269602486249823,-6.671956527003311,9.299521725675929,-2.0959517096633435,-2.477487470673272,0.7396604640646678,12.659222169334807,4.0448251563684945,1.471017977047689
-180.0,1.4905297574397636,2.8200678678143807,1.3295381103745783,-2.1374626721371652,0.11061484612664163,2.123127820541523,0.7250854079520741,2.3066223636820724,5.521510909575756,10.879918315570233,3.578782818478832,2.0915949926754105
-179.0,-2.0286688287700394,-7.376227200770113,-5.347558372000091,4.720301090228247,1.6078293672509198,-6.386536028821705,2.7629084932547765,0.23682106780552192,-2.5045255439247667,-1.4730365455247005,0.4137066800331013,0.23899062917807257
-178.0,-2.8219314491394996,-6.123495641884943,-3.301564192745427,4.415847424912524,0.26484914248896807,-4.73144805693498,-0.045066058883296733,0.373170863247584,-1.3713202258335553,-11.031686453939155,0.8728496619949504,-0.32066641327370904
-177.0,0.9609352718006201,2.5630497754251076,1.6021145036245423,-1.7336741985737758,-0.37515743525416934,2.067208012344004,-4.471242371463548,-3.295738473540613,-3.9502871949204335,-8.749357967486809,-5.539786647989998,-4.609236448772411
-176.0,-1.1984402679820074,2.465095547505978,3.6635358154880677,-0.6767726316135099,-2.4058101571995785,3.0487150467195314,1.8830368012069263,1.7897727976961204,1.6205144119970605,-5.276107027137442,-0.9014394176311127,3.095236484563834
-175.0,2.7911977607646685,-0.6838076457825395,-3.4750054065471456,-1.0123038628263255,3.1616445010363314,-2.020775213725761,1.0340675558996308,-0.08480079547642283,2.147997723316108,1.8943947405445711,1.4452878406466976,1.0631117338613472
-174.0,-2.0138205153370756,-5.644594004456943,-3.6307734891198638,3.7962438576379878,0.8427976974577209,-4.665951693355263,3.6819712502823947,3.5765968146884517,2.790936199626832,4.838403865309301,-0.656214393580652,3.922176463037728
-173.0,2.837509828738561,2.956342920281983,0.11883309154338006,-2.8486441592192833,1.3224756671531093,1.499151528480529,0.9315558288642186,0.0632479985408756,-1.9915746997212995,4.798222223477608,-0.7109986009867009,-1.139504683824617
-172.0,-1.253172038026183,-2.3085082085304176,-1.055336170504306,1.7510865363859651,-0.12752630980749682,-1.6516757661245614,-0.8783480660276917,-3.1573370720519263,-3.2860804743246446,2.7031477175841614,-1.4634781011515199,-4.076158856408858
-171.0,0.45253937080537926,3.9144988791144395,3.4619595083089862,-2.2141558401005716,-1.5255313544565283,3.7105847380268466,-1.4654132023916877,-0.26274400917143437,3.049707879423411,8.065291531099808,6.704203436545598,-0.5476954531826834
-170.0,0.4432075083234458,6.764208250072331,6.321000741748826,-3.558008441528569,-2.874545933373991,6.56075644957569,-1.5256322184664195,0.25179966110921803,3.80271966261295,-2.926972877588944,2.962570492348957,2.6728499097987966
-169.0,-3.136916958395489,-9.680608576108305,-6.543691617712843,6.450416226201066,1.6934588263625874,-8.17260362718369,-2.6959212858751562,-0.7330278172480618,-4.946548308599427,-14.422963361656532,-7.190182967131336,-1.5211979248825847
-168.0,1.100977190316497,-4.930420233046115,-6.031397423362598,1.8718337137190633,3.5584309301528325,-5.458285048503449,1.8705287613576058,2.8225821058078813,0.16814624274423107,-1.5849169465589812,-3.770953221306181,-0.7058508358711993
-167.0,1.2668295777715977,6.283079814584717,5.016250236813171,-3.825147613937269,-1.8827054226212458,5.680029044039776,0.7665551529468961,-2.4471651753153694,-2.941973733370606,3.6051209515797993,-0.19911051469961194,-0.12148674708698656
-166.0,1.0967055322092791,8.592675171680556,7.495969639471346,-4.824044437997034,-3.2100661251517675,8.005960611340946,-0.7569057694544536,1.2286804354020784,1.642219833514323,7.252296029231773,5.038316340935302,1.5270001452252433
-165.0,-3.8322080891404395,-3.1157538232957465,0.716454265844757,3.4876769678238677,-2.2888350013134673,-1.2270209410293011,1.297957987149667,-2.1611275982971,0.8552960717073894,3.3256930179603237,6.63171030844053,0.19116258564220323
-164.0,6.975687701373998,5.902891292524208,-1.0727964088497668,-6.429823608000147,4.083595277323875,2.476950786169019,-3.220975557085181,0.7065091336900726,2.6585079691200977,-0.48191199734766776,-0.43440415741763605,0.9135155160351566
-163.0,-6.264928910045013,-7.746581605560063,-1.4816526955150757,7.014984112900482,-2.415925284103819,-4.622429394299441,2.3571063528127296,2.3547819931938,2.601433478629602,-6.127067151953348,-4.851952748008115,0.6344373518300879
-162.0,-3.2827624286333608,-12.497530500117733,-9.21476807148445,7.903411263897167,2.9375080090827734,-10.85942612493555,4.408158509316934,-0.8117903929555493,-2.7766866083289767,-6.342216338621122,-5.2528864056812115,-2.8207945211093532
-161.0,6.144350743211945,1.2367558569580739,-4.907594886253985,-3.748561535992544,5.573214959604558,-1.8383457940279646,-0.3958510009000382,-0.18809391309765658,-1.376908986463871,-1.721477323909649,-0.09615502678089527,0.3161444873039765
-160.0,0.11741749387853129,7.241937013879028,7.124519520000398,-3.649718950619885,-3.536475876641434,7.175558936139531,-2.8509449990097426,-0.17022067574300526,-2.4414855425760598,6.331774364537981,1.8766766165290416,-0.49486548480672177
-159.0,1.1267410517190886,7.444009964475482,6.31726891275637,-4.246590996701479,-2.627709210424179,6.863860023644936,-2.0742016811261514,0.13521795462048553,3.0679560977721496,11.842669840581081,3.028726354509492,2.1929307099117463
-158.0,-0.8190275025402779,-3.1591621015155,-2.3401345989751547,1.9555207113153363,0.8093038896657281,-2.7780519044954315,-0.6624723076120775,-0.14517467984998908,-3.1802321865584777,-4.2409329754114236,-0.31554307837053,0.5880726508740093
-157.0,-3.2903898527916677,-1.4538520362847547,1.8365378165070316,2.3410681753965226,-2.5894633086551604,0.2300370295498524,3.2740716290375502,0.9451580695605291,-0.79194462069167,-6.098966287458998,-0.8771502971079568,-2.667539914347162
-156.0,-4.334371637489349,-4.711581071629852,-0.377209434140373,4.568928173888293,-1.9213690468459181,-2.51508570043587,0.090623719690345,-3.1303747001279163,1.9815671970302646,-7.001176615607887,-0.9072543538278618,-0.33176576354651655
-155.0,2.240643209021426,-0.5671634149398916,-2.807806623961214,-0.8747351568801629,2.505926509978287,-1.6639389868993641,-2.0963140688881703,-0.15776609780540407,1.1701879689905281,2.513459079751225,-1.143435950527067,0.3650740743953763
-154.0,12.492386798111088,12.170868728691424,-0.3215180694196311,-12.297676375418432,6.3889008736073265,5.867463644983589,-2.3214722467741193,0.1655168834564011,1.9947514092210037,4.497732557207901,4.599327337087155,3.0483748973856786
-153.0,-4.383238544797527,-3.391037119152955,0.9922014256445213,3.8363023790609887,-2.7096299657433964,-1.1769131112458693,2.947256405445354,3.834179410591108,-1.0403860152185596,1.6859749091426333,-1.6567217816468216,-3.0384072460750255
-152.0,-6.649817526277715,-8.287343369253703,-1.6375258429760917,7.493417923559268,-2.535888399841895,-5.015843216590009,1.167332635082533,2.273463861696277,1.8772477599048243,1.6614471606340833,0.793725765777465,-1.3291413042470772
-151.0,-1.3866718305937469,-0.6646835217050757,0.7219883088885846,1.051678270023935,-1.0156979601482905,0.05773057314825403,1.7920084460493162,-1.015397335357613,1.1984114565101698,5.541512060975781,-0.5659518689431743,3.8527263381447225
-150.0,3.633695255092169,7.64418430908138,4.010489053989161,-5.607668622585549,-0.16047346622524894,5.86029639652459,0.9839802058705772,-3.283810526460486,-0.28018613669928505,-1.6177216159159582,0.9465152831387054,2.4197312664560426
-149.0,3.452034576283889,0.9678127937527661,-2.484221782531135,-2.2495715213433045,2.9872144127221887,-0.8007110533890314,-6.058712663622385,-0.5321050614031453,-5.150896526034831,-8.65071845674433,-1.386327768457724,-2.7031765785290123
-148.0,-3.4650735509544925,-1.8867515409542392,1.5783220100002873,2.64426452322842,-2.5867432080580013,-0.11620698006566196,-0.9382711974707387,-2.07424674535575,-3.5997118613291432,-3.20661210225681,-0.9079671076380841,-3.2386259744510855
-147.0,-6.31143173853199,-8.731561236057878,-2.420129497525827,7.574436936048423,-1.9331625183077368,-5.5386117465892175,4.132830085458366,-2.975095647837008,-4.890250423062593,-5.781533287164082,-1.8850576506423558,-1.5663212507981086
-146.0,0.47708125158705705,-2.059561199032089,-2.5366424506190612,0.7676904417319896,1.5221379341189192,-2.343615722259785,1.3153106690586536,4.670349655704723,5.476406829324349,3.4465283095432593,0.07015293671647266,1.580729689990114
-145.0,6.547594220757917,4.146897051942954,-2.4006971688149066,-5.372130689409788,4.495254864755917,0.8206212166268966,0.04442183635515695,3.384262830245853,6.726191351660008,7.641912022051131,1.277160508978867,1.4147304421479203
-144.0,9.152146698077564,13.085233927953468,3.9330872298759036,-11.147155930173046,2.5591330818735205,8.527079890582069,-5.286729816995454,1.023245692352305,4.092959639580235,8.08621697931365,3.290249988727161,5.4160346482263755
-143.0,-3.55975088422172,1.2338450167587904,4.793595900980462,1.209559391673972,-4.141736984837127,3.02457006180357,1.0135283698173554,-0.803218092612263,0.9204065255846201,2.185395088034478,-0.43578675882481743,-2.455637086825019
-142.0,-5.009357277544917,-5.706916294454751,-0.6975590169098917,5.40298824620059,-2.1171407624473546,-3.1943310982569924,0.4299282576068955,-1.1972780462363979,-3.04544926398046,-7.129447255124862,-3.3728528715853834,-2.053030492898465
-141.0,-4.617719207515564,-5.237327327971814,-0.6196081204562984,4.894818433092034,-2.03955772122322,-2.917573372548757,0.9454126563997551,-2.229167480624011,-6.726807295311251,-8.097811841617917,-1.2595876555294927,-4.235935047470695
-140.0,-3.6433081590340213,-6.307109378364419,-2.6638012193304226,4.9462893309297185,-0.5355612493000306,-4.465806845316232,3.5634908817243303,-0.1405428914675122,-0.8239019444319782,-2.8837288633699156,2.658264871509702,2.5794363058194403
-139.0,4.922626966722296,3.9425260742145047,-0.980100892507803,-4.377876897380927,2.9752039537620836,1.5130820930261115,0.3754651839460992,-0.04211478235790089,0.2728215456022689,5.211010041905996,2.6386697803237333,1.4103634649167727
-138.0,1.1835740472225793,0.6626243873768993,-0.5209496598456725,-0.9431742295347225,0.8655226415444837,0.03596227019276238,-1.309095096108608,-0.42838496742112764,-1.2743869238139036,4.249451627200447,-0.42660739222934885,2.5966958471670485
-137.0,2.75290155311032,1.95174811114966,-0.8011534419606324,-2.370928571593197,1.7812072689203202,0.5485625362944377,-2.3242496229966587,1.3031523745936153,3.8969882540118688,1.6639913862997293,-0.5517105974935163,-3.4919428628628224
-136.0,-0.6334943036916068,0.5925037076614648,1.225998011353115,0.00030141921261650495,-0.9304416944991074,0.884645138284313,-1.5850331346799924,2.6677103147824086,3.2279368469450844,0.7466251879686434,-3.436277591655871,-1.448601139499785
-135.0,0.9470589226673836,2.4351259945029198,1.4880670718355722,-1.7151946596648047,-0.27024041936751536,1.9332817908399864,2.6182137357512385,-0.3331013076766016,1.1543708784441127,-2.9722216713196747,1.8094549431005638,2.840663089236826
-134.0,0.3843686293833632,4.239989754518562,3.8556211251352175,-2.2620547848349153,-1.7284607447897746,4.090934979258344,0.08894689868636951,-3.642197296583896,-4.445405328783906,-7.670457156890247,-1.0647184643966499,0.29238705071296645
-133.0,-2.8226636831179395,-2.8364114345086393,-0.013747751390690066,2.876420842050251,-1.3858434358508487,-1.3897072624116626,-2.2911586661651224,-0.376672103823364,-0.05578307433932439,0.9235214224875059,-0.001579467233411435,0.03884165147151308
-132.0,-5.043684586094569,-6.809671592947229,-1.7659870068526624,5.8941914098861155,-1.685447873128488,-4.258046120397523,-1.4054616604648007,-1.9779190056039968,-1.3808312851487559,6.323960070361114,-0.03543154541161175,-0.8017868614792252
-131.0,0.7190416947721188,1.5211980343826332,0.8021563396104758,-1.1501744055352439,0.0034160836376007087,1.1104320306524764,1.3698971567922305,3.614456675808816,0.3951175354862131,2.5978855030600063,1.0545173051341887,-0.8751605899790169
-130.0,7.49073457448806,1.1417494383727436,-6.348985136115356,-4.3412026563111805,6.8958403728635425,-2.575507856594518,1.4627131450429798,1.6457719796665389,3.181654007208898,2.755216361028733,3.7010870783666285,1.9790375490247065
-129.0,1.6977628652482584,-4.018365415614816,-5.716128280863085,1.220888123769634,3.688341788120554,-4.915783807442542,3.2825771390478593,4.060795710649204,-0.5065369760420682,-8.718148146653174,-4.043361360442886,-3.2622596215568316
-128.0,-2.3293911223819883,3.351173372221868,5.680564494603885,-0.5218826129816657,-4.022439658689722,4.5481824038272585,1.7438999152314492,-2.268114329713204,-1.1786647924848253,-2.4618194147032995,-1.149464939870252,1.8899133658438279
-127.0,-1.0155567621091397,3.4122016904437693,4.4277584525529825,-1.2033012941275518,-2.6622680463717474,3.8746498981490483,-3.2093813312249453,-1.3854005315949194,0.4097618949103894,2.544436283320831,2.629467744048438,1.9610904563613483
-126.0,-0.45185884373183716,-0.478617946892113,-0.026759103160177045,0.4636512350337444,-0.2349913238235528,-0.21945080963477315,-3.1913076852548277,-5.0904551956261646,-0.5623618466399921,1.9892702794516763,-0.9135722528423406,-1.1552246127554382
-125.0,-3.8107808941328996,-2.3389272854697745,1.471853608663193,3.073038724493614,-2.666202107963783,-0.40156507846012124,-1.884373852136098,-0.9748080070314469,-1.1341515901450199,5.599721757635104,0.18961788272246982,-3.3365145707489665
-124.0,-0.8754945922743173,2.1595108271624506,3.0350054194367924,-0.6478512842616595,-1.901944426466048,2.5484797397053223,2.6769586044439286,2.1093248288527913,2.2104525869029046,1.8994510291786115,1.5863076525692057,1.7435351148439422
-123.0,3.267317522163533,-0.9713261437526517,-4.2386436659162205,-1.1608970999248427,3.729254326665347,-2.5775134814471166,-1.1113896512535741,2.1773582335463537,-0.3209220248446728,-5.770122237156456,-2.5510446569212393,0.5297893569358167
-122.0,-0.400244628841842,-1.9142340013236776,-1.51398937248194,1.1357580903462758,0.5366702079020178,-1.6895640588935503,1.3542971230044218,2.5552663598725998,-1.6124099682231603,-3.3411603414695548,-0.7535775223175397,1.2834011954844526
-121.0,-0.9091261342062167,0.5884297383623938,1.497555872568489,0.20925197844280463,-1.2193711759343246,0.9855118072423292,1.9659698636559244,-2.604140985704214,-0.6748759981565898,-4.003291688246697,1.5687028828171423,0.9814359115596216
-120.0,1.6528521904031293,1.1993141453859946,-0.4535380450172458,-1.3839591673685252,1.1191637132251104,0.390806291361838,-0.2422534219735626,-1.816273206461862,-0.3380235263704619,-2.201201359947693,-1.211857975852099,-2.07420006028327
-119.0,4.060085932467732,0.33477868312356224,-3.725307249344211,-2.238597627243511,3.880594177125114,-1.6801284152759983,1.9937005084757664,2.336986279838655,1.822896075874842,4.016955756658796,-1.4626361378446588,2.1866147559579785
-118.0,2.1400422493195164,1.0720556318824015,-1.067986617437136,-1.6494937075931266,1.5887504785079762,0.015921625953432827,-1.298372002979836,3.285056894387737,3.989137950707107,8.662915919324877,2.5672663826905393,-0.3915121106030762
-117.0,-5.034234893846123,-0.5615862990245599,4.4726485948215835,2.8329358028198874,-4.7760748357439295,1.892028478012959,-1.7988935432905109,-2.7138998586889613,0.2508078253709738,5.933574125951503,2.7329485515598315,-2.127513163143618
-116.0,1.416762114216315,-0.2692679642478873,-1.6860300784641824,-0.616022301037874,1.5180794640241806,-0.9576032475653291,-4.6233468703869,-0.7395470175280512,-4.376953581521168,-4.67349152696704,0.48348513731265774,-4.493553287041241
-115.0,-6.4066340176688295,-5.009498748425857,1.3971352692430226,5.7473992920062855,-3.8684195470360097,-1.7777571531039604,0.6953954281186487,-3.729766356284162,-3.938689405161793,-7.075423892348487,-2.8892626464983637,0.7613974299914856
-114.0,-3.8350493967646333,-4.079073184462756,-0.24402378769806332,4.000038368544452,-1.7728045082826642,-2.1220744707545065,3.1573174398428456,3.198823919847074,3.040200952286986,-1.9305794749219114,-2.5695153643676645,4.59027244118977
-113.0,5.411186330149434,7.432734364367702,2.0215480342183083,-6.454370563686048,1.710035292038133,4.699614554640886,2.805141699529693,0.4210650515031308,2.2602794252933296,-1.230225073114616,0.40032555071322395,3.9966718378817827
-112.0,3.4311402712392103,2.9336003179125063,-0.49753995332672996,-3.213009350725693,1.9762720367569542,1.200443515396873,2.5997574162657395,2.473385666071952,-0.2873938722988012,0.14559804266631204,0.2618605494973715,-1.2003118397087773
-111.0,3.6472556349187903,1.646815194392043,-2.000440440526845,-2.5997934584278797,2.7576667933757952,-0.18842829409532413,-1.2236310705935076,-1.8169070229692998,0.07412495365230098,2.1731641573087197,0.8731683862881625,-1.9089444902836668
-110.0,1.8580369418604543,0.6653384649361869,-1.1926984769243918,-1.2969706425544596,1.5413339657082261,-0.27429898434330824,-5.576872334048436,-4.472620985545127,-0.24729709455997223,5.536724815665088,2.3029650820214336,-0.6256904530025962
-109.0,-6.6081867808576025,-2.6000651827043466,4.008121598153169,4.562906312111138,-5.287541691807794,0.6898811604789381,-3.44530572206593,2.0615268072412203,-0.845065335787706,4.257902359532512,2.56399197497939,-1.8581164863888326
-108.0,-3.343850722653578,-2.9762512875804648,0.3675994350730807,3.1909973898178774,-1.830641948535039,-1.2461944576697717,3.078409615207633,1.2275317425961054,-2.218057660849187,-4.422463513392836,-0.29173026730583795,-1.30999957464658
-107.0,3.318146534209938,1.0545109415421974,-2.2636355926676917,-2.1609834127224024,2.7405020418273374,-0.6326037019393183,3.875065984899552,0.6214125743565988,1.2760665727642886,-5.336397477537272,-5.719977867127154,0.6121549287888584
-106.0,-1.0030619722245113,-0.016360851763063677,0.9867011204615581,0.53142662487067,-0.9648043389371619,0.5291891498853063,0.2679304149589099,0.5752998312280522,1.3560128897259234,-1.0347936172693344,-0.828550784932585,0.4946447286646478
-105.0,-0.689745754328116,-2.545222474981337,-1.8554767206530822,1.6374860665907898,0.5347336557021896,-2.240061559097869,0.4110399818450181,0.741021777530735,0.1614569059113432,-1.3274117902161988,-0.3523418808235631,4.271419789325419
-104.0,-2.662107458559611,-5.380107207608455,-2.7179997490487606,3.961716647676296,0.05892534749960382,-4.091813112569919,0.5644111060729055,0.5943138399812526,2.01759586501129,2.0397548661549916,-2.6263006889803737,-1.063534216804117
-103.0,4.76894680764201,3.6671144247701712,-1.1018323828718695,-4.199115840482467,2.967743877441924,1.317124252905069,-1.9072465651011294,-1.4196595554858082,-2.6290296231517596,3.44230908137109,3.4737772093719084,-2.4763834539965996
-102.0,6.604258831667002,7.249541843396698,0.6452830117296429,-6.987104840501121,2.9363680730805384,3.981053542291564,-2.276743428845708,-0.9895586077244964,0.012767391165625863,-0.24162375635526123,5.56782341778906,-1.5517500623603748
-101.0,-2.795653605881225,0.45351155134071774,3.2491651572219222,1.190195861789308,-2.9813891685539295,1.8836274538816729,0.9313243032811847,-0.10226869501884706,4.33240704847663,3.1753815095877633,3.6895113517825235,2.838842406220791
-100.0,-3.0888679322890056,1.6897986427301332,4.7786665750191615,0.7215632074884413,-3.9645481651101755,3.184847601288771,-1.7443235508503476,-0.032989724568337125,-1.656015999630281,0.7050294314750625,-2.0182656250685866,1.643324356729629
-99.0,-3.070937665171761,0.7517221188522037,3.822659784023995,1.1877790637711012,-3.4702517010961893,2.2329861341655697,-1.1408062330756958,-1.9605559643039525,-4.2405938345206415,-2.8786835151973262,-2.98529754156286,-1.1843793512080025
-98.0,-1.2859243434627357,-7.926977042151932,-6.641052698689169,4.643627899923281,2.7390403090468083,-7.265296601956306,3.792793316859268,0.22082494715392326,-4.594188410658132,-7.401847694189383,-7.355947169924871,-1.5487209550732097
-97.0,2.4240351928086596,-3.60412860169416,-6.028163794502809,0.5585449927651496,4.212322857703292,-4.802281299313414,0.9630971575546305,0.09857086938834703,1.8248104559733898,2.70552663405216,-1.206990778762226,-0.034430511634780614
-96.0,-0.47584397855739624,3.176349024283266,3.652193002840672,-1.3731271737993116,-2.0781126784066393,3.4265288227714894,-0.505559567475051,3.3257558658006623,4.985725646900552,3.367269047575673,3.024193163984739,-0.12243532374347782
-95.0,3.2722976649824638,3.1288572595320283,-0.1434404054504171,-3.2183215127662703,1.6893238620803004,1.5080767924633633,0.9952236794582898,1.5063888676548323,2.6339757061303763,0.9509603171501344,5.234607226359691,0.025567012035535006
-94.0,-0.04921384164762932,-0.2866732098828959,-0.23745936823526026,0.15118770964677797,0.0677249979171336,-0.23900776384367317,-0.2744026148468562,-1.5703413718815793,0.7838956751144817,1.5126999967845147,2.7295410498854937,0.6331704134697058
-93.0,-0.9820054721587326,1.5033558385663233,2.4853613107250423,-0.2796349003779173,-1.6909487811410533,1.9490725116954608,-2.9925073272627554,-2.9911085639401596,-2.6895496528350535,-3.578973423918277,0.8326885628324576,0.9159722711669969
-92.0,-5.230373411644647,-3.726827762222557,1.5035456494220723,4.534880127468883,-3.3335920550635474,-1.0680228388701976,3.8603918009876157,4.402455294991273,3.3098570319665357,-0.18609370511401757,-5.247917412161575,0.47076585173630425
-91.0,3.301278008887766,0.5377327060922339,-2.763545302795544,-1.8663227516718717,2.9796603890921967,-1.1411095894603474,-0.6148249148097794,-0.7831592576311968,-2.0763374163973634,-1.9858272353574056,-5.649191811908951,-1.6938693000714764
-90.0,4.18964130893846,2.6311611357418716,-1.5584801731965932,-3.4379599432222907,2.895711411043006,0.5099769590854923,-4.7197387942019535,-2.3723010412074403,-5.472964421037849,1.7728464686468686,1.0383462793264444,-1.1953703207066328
-89.0,-1.4191917971703314,-1.286842196502504,0.1323496006678202,1.324105232963567,-0.7552912904303976,-0.6069164028011442,0.14156620033071077,-0.8499439531253853,-2.92937460589342,1.7870896059075325,6.025483629549748,-0.27917195601537637
-88.0,-0.25268230834437644,-0.8290570936895828,-0.5763747853452075,0.510198490120477,0.10497986787038899,-0.6603759345011015,2.2853524728248926,-0.07294698260795518,1.4955109981207058,3.1299257149207507,-1.2421511499138984,1.2677330431536915
-87.0,-0.40757256917360607,-0.09027780885052344,0.31729476032307796,0.29403596957120803,-0.337701213715264,0.1484090648990118,-0.7102538324647194,-0.1934214761286419,3.9378280359439404,-0.9208015244584244,3.2176592290861965,1.4922301332015118
-86.0,-3.0810975088510246,-1.1408864552805622,1.9402110535704473,2.0731632057224023,-2.483021154070904,0.35032257934105565,2.307085703104963,-0.5744769661079463,1.443845143495385,-6.178477621804441,-2.11991022520896,1.4305154950329806
-85.0,-1.4044400335881833,2.574401540113382,3.9788415737015277,-0.5486383478984103,-2.662386793635827,3.3040831031228937,3.063439239014918,1.815523232172783,1.5133500939082276,0.1441932162548052,-0.1471078371918314,-1.509665617152622
-84.0,2.729282968884738,2.3126754813896593,-0.41660748749513266,-2.567037840395463,1.5229474253986286,0.9771298230849766,-1.2911485246800185,3.607686784022202,3.2329475893183677,3.416535933711051,-2.61010953121386,-1.5351298037444168
-83.0,3.5340497227742134,-1.8058385508679762,-5.339888273642255,-0.8329176784978085,4.3844308369400276,-3.6187279407797566,-5.173346645444987,-2.544199560861,-3.810936871857082,0.9896309115155854,-3.7208315854344303,-1.2443168114938916
-82.0,0.12916871097416194,1.6840756503192131,1.5549069393449901,-0.8742500813400964,-0.6900878385762015,1.65600499277661,-2.2463559138659575,-0.5923178312752989,-1.2789392298066642,2.6839050706889247,6.346528024867405,4.6767912764875526
-81.0,-0.306966729341264,1.4155179552653996,1.7224846846066413,-0.5972729120235634,-0.9945017956583696,1.5278956635701249,2.624331144259104,0.42518608105716105,-1.8883697052704131,-0.9940816990204406,2.4021141484703534,-0.24336423172915045
-80.0,-2.818479610054323,-6.576318949979829,-3.7578393399255146,4.737262356533821,0.4896588768494205,-5.132289704253387,2.790575136260591,0.4758445489525367,0.06416566394839673,-4.307716648142528,-1.117289456321594,-4.2849270907275425
-79.0,-4.1605745346475285,-3.0212722629006317,1.1393022717469417,3.5549196322917487,-2.627688832118953,-0.9918460797177,0.16529936873260875,-1.6196916039675398,0.4556623621937772,-3.578450262173812,-4.178431230240061,-2.9543869486894865
-78.0,-1.9462826466895298,-3.2614188778285653,-1.3151362311389432,2.646562113695772,-0.28986553088265055,-2.269868432163191,2.524665723836814,-0.5521206562924709,-2.0589184930659616,0.26632182673302207,-2.1005948351406003,2.5644942521255603
-77.0,3.219951342580135,4.768917528852406,1.5489661862723625,-4.034088246899508,0.7848092221179849,3.1678548918232727,3.3994028080570096,0.25073181412105433,1.275157554826776,1.7329332133721627,0.7075232124151807,4.548271182970101
-76.0,7.452108837217582,6.387469477177174,-1.0646393600403785,-6.965807790730933,4.206870601762166,2.663649041235077,-6.778402744086915,2.0346520696551957,2.093003704505601,3.4989409610095175,1.6919314357257678,-0.6520928233463057
-75.0,4.269322437590633,5.4069752179751,1.1376527803844219,-4.8123136970129075,1.588321193948041,3.2728501034874578,-6.355705608952345,0.010268048007758379,1.2399267529961457,3.9711041825173288,4.142189807683742,1.1785508584227142
-74.0,-3.578213456660607,-1.828791227980863,1.7494222286796337,2.7247562602243844,-2.6490238731868487,-0.03510165517879016,-0.020136919874933046,-1.378352556129542,1.599827661010083,1.8063308728913192,1.521649645254184,-3.2556428803615853
-73.0,-3.014256669309815,-1.9645684604077918,1.0496882089018835,2.510721756850037,-2.0254230231389303,-0.44398703053708677,3.528625253521561,-1.2242578463909046,-1.6793696982961093,1.3803865086698397,-1.1104938190360598,-1.4962553707993236
-72.0,-6.012024285885039,-6.92938879049389,-0.9173645046089456,6.497497698482337,-2.546777834554019,-3.8985674570179087,5.9177952503632225,1.758412249801952,-2.0674539181097535,-7.437014457287249,-2.6006353193781306,1.5534797316205158
-71.0,-5.4854433352698155,-2.791881388331407,2.693561946938412,4.096504398916817,-4.090518520265024,-0.09224989973665743,-0.3041342499202302,-1.3543353941977685,-1.873306602776659,-7.09842783242876,-4.302226741495109,-2.8120791834013565
-70.0,1.7257582799121778,-0.601031573625253,-2.326789853537334,-0.5930079229048628,2.0289331842345093,-1.4992949419613453,-2.5076657449190893,-0.2928193640941932,0.9138840392823848,-2.2675601736998114,-0.03614799815140879,2.48978901454561
-69.0,9.180519150613273,4.921129726375367,-4.2593894242377575,-6.992694875590101,6.73069242453543,0.3773591638836098,2.0676667295044595,1.597423965362363,3.537362118742029,5.388775138730604,3.1617411193459373,2.494164111178513
-68.0,4.839326519554637,3.1712772809959455,-1.6680492385585122,-4.020171005106048,3.274651868268881,0.7180044327140291,3.4004774656127896,1.816003127962561,-1.675069398579282,4.106018021955604,0.4376691418517227,1.3627928770633262
-67.0,-0.46628631888920413,2.993856510724586,3.460142829613957,-1.2787009994801224,-2.0116074478356505,3.2677444914759373,-9.048085343609001,1.866079797925837,0.08366295286664702,4.356211294877022,2.744258771394812,-1.0469835049456426
-66.0,-1.2594998777944708,0.6629428281355514,1.9224427059300824,0.2777403041270835,-1.5547843161301795,1.2493506869686384,-1.7899226290998547,-2.299645536633431,-1.009595569945846,0.5127215929557791,-1.1812062937376262,-1.5333364530400624
-65.0,-3.5778528627022856,-3.5245899420349045,0.05326292066733096,3.5214233078081807,-1.8573935793407645,-1.704497609741336,0.3760412643415165,-5.393245554581625,-0.5321395562517204,-1.5089997775943145,-0.7337105584156564,-2.260364796926188
-64.0,-3.1645759236765154,-6.545979337393752,-3.3814034137173925,4.894328442540285,0.14119703401112504,-4.934327884092284,5.3630360600664035,1.131427613229881,-0.021571655919068483,-2.611537957157395,0.2053561527896003,-0.599912962884191
-63.0,-1.9624009160556424,-0.3485211520883058,1.6138797639671192,1.1869112906250616,-1.841045727707802,0.5842633321073931,0.9288784277544591,1.3661508188005704,-0.9026174076068634,-6.592896027657994,-3.1415379621051756,0.318520965979857
-62.0,0.4676827705944162,0.42663056375723335,-0.041052206837371985,-0.4192029376166302,0.27372407874654614,0.22623804886919882,0.24697721332655775,0.40358524046824096,2.676759291380601,-0.18297783327855877,-0.19773725932909492,-2.021064825045727
-61.0,-1.0081998166231545,2.886822392120443,3.895022208743544,-0.989345193007774,-2.434907379579021,3.349628215697697,3.4395333661968186,1.082554482498192,-0.6354206091103326,4.299387018027817,2.354789338447298,2.2972683458336043
-60.0,3.6534905258410983,5.598573565944671,1.9450830401036296,-4.593495938348882,0.8743827241247006,3.812753883218081,-3.9456481141062074,2.636809082810034,2.6313491383693046,4.630671740622251,2.1083728302280376,4.902442224684717
-59.0,7.31578139302629,0.7573454693369674,-6.558435923689171,-4.077598968950834,6.967218086366434,-2.936651361336116,-6.411072007378156,-2.019639203333073,0.722503493076993,0.706254525954245,-1.329787674113074,0.6023485179426875
-58.0,-0.9541576550587685,-2.6053880759623222,-1.6512304209033561,1.7439774760658846,0.314496893126178,-2.0864234310164473,2.061466611820073,1.6187703754409244,-1.8185341049929749,-2.5294144783198065,-0.07615423908033891,0.13335996325995464
-57.0,-4.727875292140983,-6.022725729812322,-1.2948504376712044,5.423126250414637,-1.7345341078781094,-3.6989693294442527,3.2480551429580298,-1.9193435341164131,-3.073000067286524,-4.683363433960751,-2.083212053377469,-3.125145957024229
-56.0,-1.3778493774303953,1.1575100306262112,2.535359408056687,0.08402446376686257,-1.9608134218949131,1.8797201332855096,-0.30511722629225724,-0.4817821156340947,-1.581293945068921,0.8481222068442933,-0.2722102747362397,-3.525196324174366
-55.0,-0.3321385752531927,2.157844426753725,2.489983002006875,-0.8551642047487631,-1.4065878759971682,2.2723482521522786,0.6248594314586192,-3.815687942699223,-0.5454304580776785,4.095706325198316,2.1042494375767467,0.478011871945742
-54.0,-2.1256478163549697,1.4892678347273016,3.614915651082155,0.302440878058697,-2.8638243698013226,2.5737519514768197,0.2877451029246568,0.24709743686948937,0.7937208903457922,-1.1316656613320626,-0.04107547026452285,-1.299678279447343
-53.0,5.32130906639781,3.8871413276932754,-1.4341677387046377,-4.615211785142481,3.379444322189807,1.2443701718968567,0.2857364200747987,3.5388851128115353,4.845900181469225,1.0474081650554514,1.3354229190681086,2.4549755558453787
-52.0,-0.03864725769599042,-4.526913177380429,-4.488265919684527,2.2747588959754577,2.216297412730244,-4.491241764519338,-1.2967643084222136,3.141212911691677,3.5902972992972844,-0.9937261014736374,1.1366735019409324,4.153759776638326
-51.0,-1.77751385929948,-4.178676965473828,-2.4011631061743923,2.970019804653282,0.28974160711953556,-3.273229297454628,0.8368557255055611,0.35531113963718397,-1.9486135243373552,-2.4072910107124637,-3.2209310097739783,0.2029502780876422
-50.0,-2.665037027942354,6.236812481431388,8.901849509373767,-1.7977737511629708,-5.741321729859571,7.508529242987209,-2.3605736131550517,-3.27558409911142,-4.666136824301185,-1.2133240737043578,-1.3386567961801532,-4.346287379734172
-49.0,-2.5135677929935847,-4.671576039817957,-2.1580082468243007,3.6518587959439746,-0.14907282338295125,-3.3956568211840192,0.05845760936569744,-3.2810420775237024,-4.058075581297945,3.7508928815880234,-2.0684883949969954,-2.138483478138091
-48.0,6.148795849114166,2.811839317783676,-3.336956531330387,-4.510384970609154,4.682053611644665,-0.24273720779106697,-0.36290569699260194,-1.060972329577876,2.3447076445237727,1.6249245137156767,3.982738988303259,-0.23872975066312163
-47.0,1.595561251145433,-2.7525971071750774,-4.348158358320425,0.5362045440290724,2.982509309814472,-3.6087491332645985,2.4897546915890825,3.9912527801559436,3.065459736400853,-0.7378144014852586,2.686449195178713,2.661992953534295
-46.0,-2.2860838501419396,-0.7123125957762455,1.5737712543657296,1.5235658181690654,-1.9226782267305869,0.4524983930715657,1.8566903641519654,3.443382968301274,1.1281246393506033,-3.3589913011793215,-0.9647501605275928,3.284652436971288
-45.0,3.8251838162737264,7.562618508591532,3.737434692317749,-5.679540319842148,0.05163182398933386,5.67498466658833,-0.32447845427714805,0.7638794089000245,0.9146857078891716,0.0855715573122311,-1.3029775365263478,3.674168811885628
-44.0,-2.0393217730012543,-1.8720877231795918,0.1672340498215421,1.963600553691367,-1.0913670616217526,-0.8221980424999251,-1.0902300613279847,-0.29145906512474085,0.41595126677665145,2.560405793558332,-0.48247668856502635,-2.752815828012859
-43.0,-9.10680161696939,-7.85598839525305,1.2508132217162693,8.487066866234796,-5.23842104904411,-3.3445645026379585,-1.0882444787797168,-6.457022567822855,-5.756229030907117,-3.6132476650096566,-5.005956878889388,-6.027201790755107
-42.0,3.526217553480012,4.678265531324605,1.1520479778446102,-4.094709635416066,1.215565372995537,2.957983147201581,-0.8600066256830587,-3.6830351940430424,2.6580729336321562,2.1629627272213967,2.6036377907293273,-1.679901712309539
-41.0,5.008351879803701,4.07984115141904,-0.9285107283846676,-4.610161737863462,3.006938732080834,1.5432401733195997,-1.7247363057783376,3.828869972359841,-1.0040673469275494,3.1864648791969143,5.624420554611258,1.791818099872791
-40.0,-0.6838871622588143,-4.05478151601258,-3.370894353753735,2.3893517547856953,1.3120235681933246,-3.7458020848328215,0.9945307365150572,2.218391812031374,-0.8654535902159035,-1.8161617910762982,-3.1550722262604323,-0.08120236794159541
-39.0,2.2060483349843807,1.0953583308803152,-1.110690004104023,-1.6224347025532273,1.7109298692682027,0.0333407241748116,1.061269626749168,2.642235866605012,3.3479050165958917,-0.25451030507708716,1.5113864281208196,2.5428222510042033
-38.0,-4.162995175685457,-5.183535173816903,-1.0205399981313523,4.70930907624073,-1.597424856691341,-3.147514503028579,3.1292883805965506,0.0446295093218938,-0.25690248031883733,-2.9510542065862215,-0.9415493873735356,1.6950510410846098
-37.0,2.194337512591164,6.117777716424954,3.9234402038338674,-4.192932998113588,-0.896628878779151,5.045599792369158,-1.5929998889754464,-1.5349115684692136,2.8461866935554005,4.127971972334756,-0.7572717620989436,0.1441111980871399
-36.0,-2.8516528915522685,1.6750963656113647,4.526749257163694,0.554024975763337,-3.73167983354976,3.11982274034807,-0.7349341948762583,1.7869499550762453,-1.7964696885313651,0.2570077637630839,2.225943610804457,1.5919252133094943
-35.0,0.7465711974529388,-2.9594610317957017,-3.706032229248647,1.1497113345428018,2.2509054474728285,-3.315553688866252,0.020669550861954877,-1.4336449335561627,-2.263150041737773,-0.20908994624533117,-1.4984835303580835,-0.30636052681255577
-34.0,1.9435459012197374,-1.1443389026069823,-3.0878848038267477,-0.43990003714847314,2.531610504462334,-2.174006359673772,-0.8258243752771768,-3.0372075256665547,-4.292797658649039,-4.803494857263188,-4.279380949183975,-5.623732399693273
-33.0,-2.0430201750557555,-2.7022544527877552,-0.6592342777320697,2.4038733359130013,-0.6781164448625643,-1.651338430019478,-1.1874565763884166,-0.6883565940640142,-0.40842853511175115,-1.0467789313491718,-1.3167688531669381,-3.977795398258549
-32.0,0.20873773223159509,-0.5557819931536135,-0.7645197253852838,0.19694740441665182,0.5063887693980087,-0.6191097987630488,1.0105692691031996,-1.7998066542823041,2.130112559674038,0.18404333589395505,3.121519949821176,1.553461924386324
-31.0,0.40443584855549175,5.1102381757374,4.705802327181789,-2.8190324859531204,-2.1182258543206536,4.882400146087412,2.964258922580678,3.488456935685141,7.1824699784732715,5.175404682754817,5.659343701325204,8.391933119619582
-30.0,-0.39025519812026555,4.0939366898124225,4.484191887932635,-1.8379113424615698,-2.4680501386225533,4.273290881863382,1.1080847763744825,2.025181070494929,1.2612536389692073,2.911851090349482,0.07761068828903195,2.392273986541812
-29.0,1.7405186758289397,-2.759538105997062,-4.500056781826021,0.5246780335942111,3.1025593312810513,-3.6398880662521513,-1.913395414541359,1.6330781812752744,-3.972083987527289,-2.875514723727596,-1.941696524080073,-4.422165932331421
-28.0,-0.32652717953880006,-4.160185250567662,-3.83365807102886,2.264162180249199,1.7420805996320716,-4.006054472603603,-4.278707500911745,1.6064135884654875,-0.7623164281508226,-0.15600000641037415,-4.63904154700641,-3.297988363910773
-27.0,-1.2811094577561093,-0.0234607030316778,1.257648754724559,0.6819431744638935,-1.2837385637512133,0.6050455460221218,1.188626460782884,-1.1068802367333244,-0.5427435530298874,-0.0013295922947806904,0.5792347791576633,-0.17487487273584756
-26.0,1.0711495055005809,1.3039759551774042,0.23282644967693925,-1.226668851868772,0.3934708986877119,0.830069008706637,0.06749059518540679,-6.603474123461827,-3.234688052001839,-1.4794206941011585,0.42515993581206957,-0.17060995789261013
-25.0,4.4666862464905055,3.7466754030498133,-0.7200108434406647,-4.136915294679283,2.6298176620526386,1.4909520600523292,-0.7526290250324216,-0.2649875425982744,2.5071589973136916,0.9149890475037388,6.726359258770398,3.804410932956067
-24.0,-4.650496813190133,-5.131764132586719,-0.4812673193965623,4.867011553981072,-2.0655147828584672,-2.8332257446314264,0.8045591961083741,0.343173614902915,-2.639774827039308,-2.8265630511223536,-3.5426105683514266,0.34617195255451283
-23.0,-3.9433586818035855,-0.8910261769372426,3.052332504866356,2.4745311583260863,-3.4926954941062984,1.1295842943449355,2.811692831357464,1.3197473226145537,-0.1398263205307697,-1.2237370602373014,-3.8078556671099797,-1.380783963776119
-22.0,3.1337264760190533,5.312877710093421,2.1791512340743973,-4.2452264273722555,0.4745592822133702,3.713652891208234,4.297861727888413,1.4168965111208096,0.8250706365549523,1.8956378792725694,1.9587016670231925,-0.2987886373889962
-21.0,-1.0254503393809637,1.4870359080907374,2.5124862474717853,-0.17711577123225752,-1.7729712092496572,2.0430440841371484,-2.6088842577647497,0.3947814260548905,2.5040818824245807,1.2423945421319245,0.015308105090985347,-0.10065237057549997
-20.0,-4.331314138063341,-5.424290138682586,-1.09297600061916,4.8475944346145985,-1.619260554678785,-3.298725358959672,-2.948985461040251,2.243311927312505,1.5549984265943966,-2.8881127750041466,-3.9286148767651574,-3.4391222743973926
-19.0,5.401756224911068,-5.073265042642847,-10.475021267553926,-0.20087879298052091,7.9447467311804685,-7.820558704344419,-2.0539216546150887,3.245364154674062,1.597837363692327,4.819961119751267,1.6088288513722393,0.13500722395352072
-18.0,7.865578273503149,-0.8619333005145469,-8.727511574017838,-3.4665031011316323,8.308999676873206,-4.769559601812467,0.789856215496505,0.49529809066683356,0.7356473850878056,3.7398959752452,1.900642787972039,-1.0667650340890087
-17.0,-2.4133258755157465,4.198349010477442,6.611674885992958,-0.9418905366804966,-4.575227894953215,5.4237221532451905,1.4508239355390449,-4.5109017184472995,0.8217234256372441,-5.8130186644569575,1.8507281586132664,5.923467224614988
-16.0,-7.069159259450858,7.1384798312750695,14.207639090725769,-0.009092594580738356,-10.622166760700242,10.687582639534908,1.8771387298685864,-1.9331525639949274,-0.0029002579084693725,1.9803177887897412,3.8700008249123323,4.600015486638725
-15.0,0.3112509043890199,7.151068389025738,6.8398174846365665,-3.7063642312296095,-3.250589675947454,7.008835531234706,-1.4121240314214938,-3.2614582515569346,-2.9246432518419025,0.09828591236441264,-1.8374604231282572,-2.8322451432419147
-14.0,-1.2590015924210298,-2.4766392372961814,-1.2176376448751633,1.8948847102682551,-0.01068324048201319,-1.8320760243609775,-3.2177097114334137,-2.331862628223675,-3.9960387421358288,0.6350225861634828,-0.3908036047834995,-0.6976493555810572
-13.0,2.154490104623913,-6.129759253178234,-8.284249357802045,1.9402717864908339,5.226359159100931,-7.267228059907221,-0.4889564217059995,1.22488841573342,-6.570837006296648,-2.566203897239185,-2.667220855745043,-4.686040056973538
-12.0,3.5502903149373566,-4.588124676848743,-8.138414991785858,0.5550609410506602,5.850466257596576,-6.340596154744196,-0.6893261797727954,-0.24388665194873171,-1.900049791388069,1.8958724541896133,0.9838383293292181,-1.310939830888557
-11.0,1.9518938199208324,-1.0211489112281664,-2.9730427311487855,-0.5043596023790077,2.470586910307107,-2.0490102438351174,2.87063702261847,6.436034612541123,5.392604075681558,-3.379717669485014,-2.976992351690532,0.25804782405813276
-10.0,-8.740494579584476,-8.45129208680795,0.2892024927766885,8.558495915694152,-4.580521495475157,-4.050176069572686,7.1940418407309545,2.550061999029542,2.798200389806782,-5.267612356640171,-5.67471136209279,-1.2301792812389245
-9.0,4.238842539661265,7.376270674725949,3.1374281350646207,-5.766616372982539,0.5712539752553716,5.291613252803383,-1.9668959875792322,-1.9896902375964376,0.40204777140803394,0.13174147247466383,5.040921154265253,6.31336315860913
-8.0,-2.2600432206913705,1.6773011528040227,3.937344373495135,0.33060531424160633,-3.0690299148057045,2.845452374965838,-7.4650050787362385,-0.355791664677086,3.0825611914235704,0.35020805976597447,-0.20934999150055678,1.0810971852200764
-7.0,0.12190881832033545,5.44947500255639,5.327566184235655,-2.827315386950966,-2.563661343424972,5.349793791374108,-0.697033681404899,-0.2756671015097969,6.815810208966381,7.063253431725511,4.8436842481532985,-0.15397383981647295
-6.0,7.437052062939643,2.4622715255502565,-4.974780537389692,-4.914379170304753,6.174726045694851,-1.2956658863295,2.7683864091731927,6.435097816244429,11.312072481110395,11.144472837338434,1.80660072216314,-4.48656684717484
-5.0,-1.3173896696205896,-7.30377585673466,-5.986386187114235,4.265854092640263,2.309290469849394,-6.609564248868878,6.170478708266241,4.543206201746105,3.9448250660516937,2.8181807612999332,-0.7527991439038988,-2.752142083095384
-4.0,0.5224488863736877,0.3653001259095543,-0.15714876046397386,-0.41044629275820377,0.3175930560599709,0.05441219820618226,-3.091666956763717,-6.86868371959889,-20.422496959412456,-10.90197328112463,-2.012324266937728,1.61865189401168
-3.0,-9.74866229257453,0.20537865440488012,9.954040946979664,4.726412691458504,-9.873156955093348,5.101379533497257,-0.8104624181091841,-12.191882906607965,-19.429412067540827,-11.081678843006149,-4.8980939466668385,0.5770632691608985
-2.0,-3.4893095746103064,8.006200530514178,11.495510105124756,-2.224117131459889,-7.436679293287706,9.766282003638475,-0.5412159923700824,-9.475056610447131,-7.521826085965842,-3.199758648904952,1.6731380074179065,3.7579825259081567
-1.0,-9.134346367080399,-6.096447376558117,3.037898990522393,7.651274801009196,-6.03234597185084,-1.517045191142827,7.590891482438347,-1.3413811966336358,3.8349932332136145,1.0155606836452336,0.2343325995213319,0.3462537656757104
0.0,9.19522373819662,-4.998202710972306,-14.193426449168882,-2.139079113881884,11.666846312357084,-9.582829453041885,-3.4134545557471587,5.287221662218547,2.565720904304481,2.939259729650148,0.7955726345107381,2.4704147727755585
1.0,20.122289835764583,7.091906166544945,-13.03038366921962,-13.644567480670545,16.54531284741829,-2.9517831298620845,-16.911170328324364,7.828957024773758,14.823188558272392,10.907277221490062,6.803134212789706,1.3070365794124257
2.0,15.416876271596411,9.486360533012613,-5.9305157385836775,-12.406343700990059,10.637488664995203,1.7237846676959205,-5.570183473979674,20.0157759975898,29.721891192425563,12.717101191765945,1.6405154708617622,-3.7970260826581774
3.0,0.8162339959751828,-7.636448635220893,-8.45268263119598,3.381561016596228,4.670135683422574,-8.090056332653715,3.5795209066167155,16.693652556611546,16.003602045646197,0.9877116918123257,-3.9881640366780076,-7.211652226421251
4.0,-16.31911626335474,-4.929541989864456,11.389574273490215,10.680136525446121,-13.826393149537799,3.27249092810316,10.816589036691681,-7.976473021616967,-12.557414180663192,-5.731621270287931,-0.5402323932055801,-0.25584211424595305
5.0,-27.657215192904275,-9.77960840197603,17.877606790928017,18.701032365247123,-22.825279527321527,4.100613068018711,15.296278616472039,-26.4559315093461,-32.43821622501579,-16.012668787647577,-5.805186352355469,2.876256524667221
6.0,-18.846301395297864,-3.5063631947577067,15.339938200539894,11.163434147091714,-17.076954624356798,5.898062800214211,8.80794408174145,-18.011842377137228,-25.74674611847646,-11.780542743558268,-1.6389520540137774,2.4673300319124034
7.0,5.824705664565674,11.505658718696594,5.6809530541307804,-8.675649954536388,0.08692986749583298,8.58143068464469,-8.038071364663873,-8.98770840166488,-11.044716977788578,0.7313397412074782,0.8101899103390289,5.909204411285469
8.0,10.347678286861623,-6.678767979196035,-17.02644626605746,-1.84501150257901,13.704853482446454,-11.860052824286122,-5.907414145264251,5.703205585245674,2.818862420559917,-10.225124889926462,-10.107698302893628,-9.186536532046823
9.0,16.833847165001124,-0.8529477229784947,-17.686794887979303,-8.003401183084678,17.28370471242236,-9.275820340599417,-3.818388835611117,17.61882217457289,27.724884967463538,9.528295800301006,-1.811617120326316,-6.049005179433342
10.0,28.61312287522867,13.66481000969659,-14.948312865531776,-21.077148816293303,21.731849958769182,-0.6490278499907598,-12.970755383539133,21.947429049858133,29.192900498758455,21.133009539082714,15.427318025788939,6.471696554064952
11.0,15.29973150573527,10.300482967068815,-4.999248538666265,-12.82175507694225,10.184634805355273,2.6398993195947975,-3.9071164009767694,22.197288213619842,19.138303413506605,14.251749153251115,10.94013915630792,2.07893121499513
12.0,-12.076046860844258,7.945845856426017,20.021892717270344,2.0386670374723614,-16.08996792641137,14.047361050669483,-0.6891032093989391,-7.085842327904736,-4.952316295264067,5.9177657030905975,7.637980631529125,10.021939868979056
13.0,-25.416318445896692,-14.930175766966062,10.486142678930534,20.221097443385766,-17.99235771811238,-2.241959391795063,9.121909089074652,-21.69387961117821,-19.73787011292667,-8.742153476148719,-9.32610229923838,-1.8319111198618043
14.0,-25.30686194084919,-10.116540650454489,15.190321290394525,17.676880617235092,-20.212585441213452,2.5128035792387506,8.498578285476716,-26.70436264865293,-28.40684969806464,-14.131093044243913,-3.3262650006596868,0.4408450257197054
15.0,-6.987148513348837,-5.911761357228492,1.0753871561201658,6.41147167897671,-3.996437155450776,-2.445458563988612,6.323076271142417,-11.212611565408276,-12.231134581455802,-11.566389308548183,-10.558555176845106,-12.106569257056865
16.0,7.679378235609555,-6.593312021188469,-14.272690256798091,-0.5044359012718802,11.011821709576232,-10.383527837751128,1.7472858430633567,8.74696381652535,4.783782505762188,-3.65991805670304,-0.9293175400794365,-6.412318365110198
17.0,20.129734540851125,11.337955868906558,-8.791778671944469,-15.696295384813263,14.421681271526932,1.2429893038267599,-13.488024516313894,1.583080184674925,-0.7319789685830305,1.9532973320017524,2.87974030893583,8.230321979059362
18.0,8.423974768677349,6.765332735312967,-1.6586420333642167,-7.6359128065785935,5.008858716462436,2.602063253247192,-4.878807363883058,11.728532838401286,8.486384166289346,1.058189129768346,1.4824667355040897,6.370108870769606
19.0,0.997728264690414,5.4587161665456385,4.460987901855627,-3.1901832328713926,-1.7555930212610438,4.930205178071842,0.5104978892911722,15.035731061154076,20.30865417353008,9.637547813126009,-0.27373222041110656,-0.9275767264720005
20.0,-6.588888677790929,-3.9123128574390504,2.676575820352274,5.210659369030287,-4.568844040834978,-0.6474656815060862,6.629410916922967,10.2544051274128,13.128776285935563,4.019858958110416,-1.4250289331733565,-1.5038947457913332
21.0,-7.452522385871725,-4.67597309169925,2.7765492941726033,6.025204521550727,-5.121168486529762,-0.9012928582331667,7.166685220857238,-2.3385969138433866,-0.7432227305242902,2.008417414755942,3.228598951154387,-2.089564193699079
22.0,-2.510744586994824,-0.6872670839831035,1.8234775030113304,1.6400222901884236,-2.168040320767591,0.536211886245946,5.4704548459262625,-0.9842885687314631,-0.7660046309562674,1.2005802277746187,1.4117892864777302,-0.7218493945300684
23.0,6.577497235824258,-7.848450134416604,-14.425947370241662,0.6786394740702153,10.502421719573931,-11.171147820448468,-0.504729433590573,-7.152144506520628,-4.684028540166893,-3.847532827082471,-2.2705494322686066,-2.6728487155332754
24.0,12.009410739610894,2.630990141786641,-9.37842059782494,-7.352617151900088,10.69124703010838,-3.3309994528118976,-15.494455777690328,-10.04883834595038,-15.295587313845118,-2.0668168197089374,1.12687703496015,0.5607038931803618
25.0,-1.6252069829954658,3.9965455840367667,5.62175256703195,-1.2141814261330919,-3.6342378339536165,4.8499893321804946,-6.933809760062579,-10.59975970506634,-23.584459349256115,-10.851675805671748,-0.03303064038712389,3.373762089145709
26.0,-4.910956584966747,7.55617718675105,12.467133771718206,-1.2684466380987778,-8.710847449442184,9.97188353061543,-2.087076698624926,-5.5567594708240815,-8.970095267134166,-3.4829033863572567,-1.0904415500526856,3.9770240739227987
27.0,-5.696757215152743,5.488277791460503,11.185035006613973,0.08273597427568391,-8.47370335676974,8.373309641732337,-1.7713745674870534,2.0890814179726735,14.12241483800507,7.035018320167266,0.881222830931571,0.30784807598759834
28.0,-3.7769243568213184,-1.584795929466725,2.1921284273553097,2.660919263369792,-2.9462309507645914,0.25852621171173595,9.944489209727388,16.67889300063012,37.37280177270592,19.29545305104287,2.3299016041961353,-4.686383321647058
29.0,2.579413633557606,-7.22370115600722,-9.803114789564274,2.302017335595126,6.227623222883426,-8.561832926381694,11.45003081240966,12.089937096609134,13.27483804743721,5.988750911944674,1.1317110945106021,-3.9884082666818554
30.0,-4.387359267389945,-12.106934702203475,-7.719575434813513,8.304115132928786,1.7065332103232302,-9.885154693193309,4.699437346563183,-3.222142667407388,-19.81379501879694,-16.982988485916557,-4.279580710476951,0.4551104168810953
31.0,0.6684822347446837,-1.6182922072546146,-2.2867744419998157,0.4506117236391143,1.447326558031678,-1.924003085258513,-2.7171249579360253,-9.46236102529722,-19.723215229670597,-12.590801452255679,-0.489098681071519,7.3737751644343374
32.0,0.46937166072807734,7.351332865034687,6.8819612043060046,-3.9373606030605535,-3.2282054624193264,7.149222796531276,-4.201968850532687,-7.742330292640484,-8.463809809850654,-3.36189669414229,-0.4572499183518972,1.8677470977767132
33.0,0.4293078209893775,3.6249443713614182,3.19563655037162,-1.9778813986735964,-1.3999336752059306,3.371338714866302,-4.216028406647016,1.7175149659674203,7.390078083886811,0.34742309832606444,-1.7781626502577283,-3.4321502934024877
34.0,5.919825404826287,7.506170016296998,1.5863446114706967,-6.744731868693162,2.1497067079513617,4.5944996578419905,-2.3781890710964744,4.420035590098637,6.812781958553831,11.007134879192542,0.6522965636037303,-4.808806276846834
35.0,3.6263077209537076,-2.771893050690974,-6.398200771644483,-0.38243787255002504,4.989629245510318,-4.608708150790046,-3.3176913129412453,4.622204914608578,9.940743085185318,10.632013270100868,3.0249033963711036,2.2591828645229097
36.0,5.720412774872352,0.6538414819498821,-5.066571292922329,-3.223773458282157,5.440788012371781,-2.2273147206850448,-0.7695191469130087,0.4647805925458216,-0.3293368524888507,2.961551696218005,4.637699071498858,-0.29892034669006917
37.0,-0.26534709075238805,-3.5436911225308796,-3.2783440317784387,1.8645742216188266,1.5448290446216992,-3.4345226004175036,1.1927669189847048,4.601665464164057,0.9707997057917819,-0.0516503389772075,1.2393362754286137,0.5558802596441478
38.0,-3.897923545544323,-0.1297411191620914,3.768182426382187,2.0488695524937732,-3.8796823795099904,1.7887251637950778,-0.8737859922268219,-4.301667845129122,-6.790953564947175,-10.142739123271163,-5.310312869442767,-2.4553655694211587
39.0,-8.689676512277789,-3.0429499245978278,5.646726587679945,5.897568262603949,-7.137768221592102,1.341180831376557,6.562469031048822,-4.89871570861581,-1.5413844871808289,-6.047323204831813,-4.397638346955661,1.3657364933156664
40.0,-7.221781033471119,-5.125266867427868,2.096514166043262,6.122667209415415,-4.70436918120073,-1.4830213743773708,4.9872254912447715,-2.968600740035959,-0.71315210062872,-4.534397178250005,-2.52349791295863,-0.4066314652548183
41.0,2.248768667310326,3.822486515329491,1.5737178480191765,-3.0105869052934713,0.3777518002632543,2.7247520832081804,1.253320245331833,0.0749708904885269,-1.7972036498949904,2.729828431868851,2.570656589271861,4.431053974764089
42.0,3.4243378744012496,5.788274300572077,2.36393642617075,-4.583999320388476,0.4997068138353512,4.023077564449209,-5.697291909522144,-1.5505724059951702,0.06442639014992624,6.859591394741308,6.890832109502604,5.091033374687714
43.0,0.8086732127231357,-0.2228864664272101,-1.0315596791504666,-0.27391159104846974,0.9749057849627238,-0.5998186234891905,-3.4518795298110336,-0.6593042610989301,-2.565891463933271,3.187532579929365,0.5699077378312825,-4.911071014870805
44.0,6.7300941189435335,2.327674376327797,-4.402419742615816,-4.593157099628685,5.544651937826188,-1.0078450513744726,-2.634500119704608,4.951814055561435,3.0151500137830585,2.099420811228943,1.197222645319219,-2.730588497092336
45.0,1.1265338601917154,-4.6602209250428395,-5.78675478523458,1.775714704146059,3.4314857581730696,-5.272214473801038,1.9921139940806922,5.9955608389775,3.5547316678377574,-4.16932107500681,-6.175068058159759,-4.062115155740146
46.0,-0.8031260370044493,-2.2323287947339843,-1.4292027577294766,1.5209686479055078,0.27830601665875365,-1.881573902416506,1.8157881229084045,-0.6459695693258172,1.3090808777108167,-5.343025088242633,-4.077758150978506,-1.4436500736653368
47.0,-1.2521864320671625,2.35971622783397,3.611902659901249,-0.5542491094971917,-2.4018951997101845,3.0097324611847345,1.9070705865947681,-0.8766379428038389,1.0909507871435637,2.0264225551135038,3.5591162347772447,2.8179289956996847
48.0,-3.9551896278066767,-1.791229975798502,2.1639596520083075,2.8730476241763263,-3.0444467564320417,0.20621952361291074,-0.15103107965654128,-5.086420159992336,-2.2423301965017255,-0.08241842431650462,-0.5808621998588224,1.4031847887950544
49.0,-1.5784107447201152,-0.9194525513405337,0.6589581933796671,1.2546202320971707,-1.116088400212154,-0.11237477595314838,0.33575534211627767,1.463160205295702,-1.3727791146916113,2.825706074990372,1.0638583761574885,2.750664824832098
50.0,2.063503871468433,2.4034900602318165,0.33998618876335596,-2.216368272603706,0.8574300463781422,1.3909948112856636,0.04291337708490531,1.3501440882420297,-1.2825139219274342,-0.8876746615126854,1.7622875490413161,2.888582866056372
51.0,-0.1932169367875221,-0.8740548352501383,-0.6808378984626898,0.5661221377549895,0.23996883849185824,-0.753602345959381,-1.9602160605343064,0.44443240556782254,2.7764598478731277,2.1486687697274216,3.8174199234982855,2.272559478293536
52.0,3.3607135127725227,5.503456822205465,2.14274330943289,-4.4621485736113105,0.6131492341185829,3.7745909355571166,-2.4636834097025537,-3.9604192940866407,-2.6462361262752103,-0.7110829841275098,0.6397609414059163,-4.011506426128394
53.0,-2.390661979259374,-0.16761312322890087,2.2230488560305193,1.2625546592650336,-2.288742067377134,0.9856143415927017,-1.2261022444544638,-2.336196034764981,0.46763136831174634,-1.138907930905442,-5.167990548158573,-5.077787788379845
54.0,1.5317271100580647,2.7575046788384476,1.225777568780432,-2.1533370702970775,0.1093367484017844,2.033392514128397,2.2615667237755686,1.8094076129200438,-2.6564610958843007,-2.9755751701672963,-0.5157615464008614,-0.3159799872454232
55.0,-4.751712362671599,-10.567380212203009,-5.815667849531518,7.651727993070796,0.5835581132866658,-8.225074918155965,4.265548715168736,0.2880213050612823,0.6866470182773546,1.9611527538299474,-2.593244690632617,-1.9337761857018994
56.0,1.8833661650756317,-2.7157541917821684,-4.5991203568579895,0.40280994218002864,3.2265515966540836,-3.6099952298632156,2.7157167341496646,4.303977970162633,4.142300799990196,1.5083623138891937,-1.2809296990453163,0.9435543865817254
57.0,1.6769240053646537,0.41494259893942775,-1.2619814064254211,-0.9906849526875428,1.4607569511569252,-0.45306433786891165,-1.6959293585032449,3.994614562333681,4.1239344309298875,1.6455737634787693,3.1947138290019685,4.649760611014904
58.0,-1.2903830873990805,3.5662027271147263,4.8565858145137,-1.173554646319686,-3.0834785659686528,4.26232817634562,-4.799640555980791,-0.5734178691892531,-3.18871222346833,-1.0173867421301457,3.1472708467435373,3.538169248321655
59.0,4.805526776500626,6.8092377524514145,2.003710975950849,-5.776135757418508,1.383511591828342,4.3802482214889995,-0.544051142269466,-4.50353855859804,-2.257200711376648,0.6525779515812006,1.5579824639153421,-2.9440041259954857
60.0,0.01814635699036793,0.4494260948015789,0.43127973781137774,-0.21252049564210695,-0.23457147520813137,0.41500839321180205,-1.8258345325983474,-2.452443590045996,-2.1807367770100132,-4.798450711238933,-3.950435166018681,-1.997395553272753
61.0,-1.6147190016764563,-1.8842004444606326,-0.2694814427839294,1.6846831635597472,-0.6320367663446297,-1.102754432535592,2.39607032737581,-1.6776500011497306,-0.23141448978722678,-0.507176313044567,0.5537443314806871,0.7101103345861828
62.0,-5.510136508243623,-5.801185428794309,-0.29104892055043957,5.665289542716173,-2.575597078502595,-2.995951978627282,1.3927643420210811,-0.836546131467344,-1.6930202741082891,-3.3129304302923863,-0.7075473194925668,-0.6404111536179334
63.0,-0.38273317169678034,-1.152461607488037,-0.76972843579111,0.7757918531979433,0.22572079868478934,-0.9161204384316364,1.966356939742808,2.1117912032846555,1.4751837024543821,1.7044817804064833,-2.2132998287673633,-0.14765283863194378
64.0,-1.8577904831544643,2.252775218100937,4.110565701255317,-0.18806851498438326,-3.028222715861114,3.14015339016888,0.8233645200003288,2.8530245763333495,4.352413162937982,7.888784450690859,0.7724083943604605,2.851101822322236
65.0,6.987263395068677,3.4703303402622714,-3.5169330548066875,-5.215991194657872,5.212453144984027,-0.07448803221545708,-2.374007745488899,3.4808343658929717,1.8355524966811454,3.653085654839451,3.65260578665322,-1.8503645472111447
66.0,0.8415189347120289,-0.46731908196948113,-1.308838016681831,-0.16953193053395,1.1177964881557223,-0.870600670750317,-1.2085726828700984,-1.7851765046173074,0.0679054483386422,1.248009686975191,2.395774025471182,-1.9097446763804244
67.0,2.4646020724205204,0.41063219423681246,-2.0539698781840006,-1.4934941275157074,2.223528311131161,-0.8124201505952445,-3.2698313736289863,-2.3677741978239846,-5.74198585784768,-4.516055297293667,-2.4990406320689607,-1.9597603032162272
68.0,-1.590464013207594,-2.1231999670752284,-0.5327359538676837,1.8849629801531127,-0.4896681893497692,-1.322692170158257,1.3478813262092797,-2.4673687839502683,0.5949619730456148,-6.045604131843136,-1.1847672866472456,2.2051511155137447
69.0,-3.5677893640525378,3.557910519076752,7.125699883129495,-0.04060734487963069,-5.393909800383771,5.348988407863986,3.9421105696118146,2.483817595259466,2.033072709083515,-1.8485204161902855,-0.16149691067417749,5.009002168602832
70.0,0.25872492455228624,-1.66694072033685,-1.925665644888773,0.7424190103014657,1.1138426380235624,-1.781222940625822,1.8811297097604005,-0.5736739588676617,-0.2649485859637534,0.8612818898545782,-1.1991374029160256,-1.0553363194035779
71.0,-4.494054027573361,-3.784891538871082,0.709162488702545,4.183169462123164,-2.5901495735942506,-1.5105079256218457,-0.7836264883034826,0.07630541408059843,-1.047139210909401,2.2839813992857225,0.0020030496129643804,-0.8397568229447318
72.0,-1.9586959848026677,-4.281257252870607,-2.3225612680678727,3.0905195192702375,0.18496354037173401,-3.339519118427753,-0.36324905029709004,2.038362160418127,-0.7217948783773531,0.31372787874152896,-1.7766142263714046,-2.470286703557791
73.0,6.954567742288317,5.167016422326196,-1.7875513199622595,-6.084890868581853,4.36882977855073,1.6642267215102882,-4.782060144455354,-0.7879075195611446,0.1360386874435379,-1.013709077248052,1.9692059692300572,-2.9408003347928173
74.0,4.722971023415389,3.340674365688062,-1.3822966577275353,-4.051434616029528,3.048835711454582,0.9616271936429815,1.1635183130507312,-0.2369678143266299,1.840735884886483,1.942010708613719,1.6890496058062532,3.573596650400094
75.0,-1.4930469020068937,-0.5252221117568956,0.9678247902498252,1.0713381745113923,-1.2324442684911598,0.2851643747738992,-0.37807844020061215,-2.842157278540377,-0.4486659743700485,-0.9967334935445338,-2.3203657141590175,-3.137295526893247
76.0,-2.2506313719877276,-2.4734844583932425,-0.22285308640559176,2.34687035181299,-1.0117036896101654,-1.3652580818733027,1.0881553401783597,0.5616895956960084,-0.5596856186287827,4.3474016526480685,1.867939131325987,1.625266726018517
77.0,-1.5077460347361988,3.990360170850627,5.498106205586859,-1.2567645953366176,-3.4953649628498002,4.721672929901803,0.07080442008498244,2.0516582692222665,1.4945042748711694,3.7692739815771494,1.5362427195289698,4.044326803324601
78.0,-1.3805820588142226,-1.6858998997408239,-0.30531784092649117,1.516381520119269,-0.5246261793989722,-1.024598846117698,4.613034515537979,1.1386373461928025,0.29935977105147243,-2.322347675139392,1.7129332520029443,1.0082898877928512
79.0,1.1187018010721588,-0.07013616082753615,-1.1888379618995952,-0.542831402424663,1.092856548912832,-0.5847485281712022,-1.8860950599092474,-0.4799482553936776,-1.5520505445819381,-5.267623697851906,-0.7186527505200357,-0.3690434181011668
80.0,-2.3984086714542183,-2.333338445089926,0.06507022636434567,2.4249860935702365,-1.2097920174265693,-1.0912561947527846,-3.676479371646156,-1.630483548415662,0.11758960327720813,-3.799896282785669,-3.486817266116917,-3.943499545840158
81.0,1.844134945571501,-0.6642870403415035,-2.50842198591304,-0.6095973081439586,2.2019746747649664,-1.62026325971468,-0.5236923925187695,-0.4166269218177078,-1.1864604028113124,-0.41408119712023805,-2.7227857264452013,-0.8075978649501132
82.0,1.8578374908903896,3.1643136088834996,1.3064761179930133,-2.5301074189807737,0.3052708223334335,2.20677566135387,1.2863052911644814,0.4201697947229194,0.05489086451669839,-0.5869781645499563,-0.2760783003109055,-1.4867579732910006
83.0,0.6275881386046327,-1.8369004893372172,-2.464488627941938,0.6644431964007289,1.5012618429689824,-2.172065383397162,3.9120312643473585,1.0527996946692428,1.0327359244086884,2.942967216879795,2.4177667558414626,1.260719012915911
84.0,3.3305061277260353,2.4071948926517,-0.9233112350743595,-2.890038623047756,2.0870288571235758,0.8066934072477419,-3.6294542625738724,-0.6375697748685303,-0.30240436227453704,2.3166063449225462,1.558760083554028,2.0086802769959635
85.0,-4.689929642725413,-2.352563356253923,2.3373662864715667,3.4940912759406655,-3.469708741221403,-0.016058425408603583,-0.26147639905285436,1.8074289545298878,1.1636791667853175,4.8145352375124695,0.28792646096191965,2.2773609812370768
86.0,-3.057592821581541,-3.6544331728953714,-0.5968403513137455,3.318760958045714,-1.181929068725425,-2.1321278910790675,0.23033013542173764,-1.7559419365494078,-2.175594888762186,-1.8230167806717383,-1.0496491838599316,-2.1292185259903835
87.0,1.627539727148455,2.5156395087641443,0.8880997816157329,-2.0432174743371405,0.3422930022198656,1.6927093127633692,2.6214432409427024,0.0816447232304548,3.3607535334667396,0.5088285279970275,3.0547274777522864,2.1673554058983764
88.0,-2.6384503613223584,-1.3250804325314842,1.3133699287908618,1.9963763667939194,-2.003216623164188,-0.02227098030082797,0.8397227678570461,1.1156243024411994,-0.1559109568800442,-2.1121607185275924,-0.19680285159799327,-2.2063277180472465
89.0,3.0518094047795112,3.8196042953994853,0.7677948906199465,-3.4325476849473615,1.1113619440945994,2.2668055801776488,-2.2915409009481627,-0.5325671947764323,-0.6252419124746971,-1.6951233255627822,-3.1061302233029457,-2.2179246422819197
90.0,4.9459264935293925,3.869734008284201,-1.0761924852451772,-4.411250042446188,3.0524591802994747,1.4373213842529213,-3.0299774005669398,-2.699544021656992,-2.303324124471993,-1.1656162202849907,-0.6996264797735192,-2.117662651546021
91.0,-0.6045173815683991,-0.6081140958340339,-0.0035967142655781714,0.6026169233345335,-0.26819263417671113,-0.2747123042009609,1.1110705361917323,1.7685185855031766,-0.5292323579264524,-0.005924834736777518,0.06351844177955468,4.435744210431084
92.0,-1.6429736969428423,-2.62708297411841,-0.9841092771754588,2.1372588803143433,-0.3859382577161681,-1.858489113570616,1.5609424087459356e-05,-0.37109792225479665,0.5198763631447254,1.2595342053379117,0.34273153252692545,1.7345701113672143
93.0,-3.7851471470964686,-0.06298650016887919,3.722160646927691,1.9368567712747518,-3.7405602263593085,1.855387857925275,-0.3705096223285411,1.1278424333511827,2.3166580985330625,-1.7970966438615297,1.8627550229789618,-0.29852772629293534
94.0,-0.055004487455801776,1.2739170856720416,1.3289215731278867,-0.5841194595394421,-0.6855229263386617,1.3321728190575977,1.2132646317720672,-1.6470324772668103,-1.5998927309180582,-0.1386882928805271,1.8528555615451858,-1.090995744591579
95.0,0.3471132400116831,-7.4670572288477,-7.814170468859501,3.5181233610366514,4.084048134320491,-7.680019909220208,1.5551896911496692,1.2439088798696623,-0.7935942807083353,0.37685612652756173,-4.776884750560933,-2.154432578934092
96.0,1.1805756807762815,-3.6562333599522154,-4.836809040728642,1.2041219998156576,3.01302171805984,-4.275767114902267,4.338999203978608,2.7568316261773314,2.407541188826025,4.0171528215035845,-0.2651248344384771,0.35599183619400876
97.0,0.21767336868895326,-0.5851017848358128,-0.8027751535249077,0.23223365726396344,0.5188983632380307,-0.6349175715660696,-2.3624192098121974,-2.6947759498940824,-2.4016173803112655,-3.4776755238735673,0.838565124198053,-0.39530304663003185
98.0,0.6850697660623515,7.673664313575165,6.988594547512784,-4.210610015233608,-3.136527402954152,7.318410206296069,-2.8215805689236553,1.6073691107948544,3.29132416153492,5.672422425239324,1.7100219234741907,2.8095607813837584
99.0,3.519261817934792,7.646900370297645,4.127638552362923,-5.539727724205525,-0.36035821567396886,5.8779196340321676,-1.5478705670869,-0.3485717263632851,0.30042851723409236,-1.5318253326886246,0.9978238266350302,1.153176840619822
100.0,-3.0037293475164706,2.918159023496547,5.921888371013097,0.0020836575634386456,-4.433269339390497,4.410256385827285,-2.0683658161091354,-1.9251627334825823,-2.7099193934733816,-1.7262921516687948,1.945851869749948,-2.341431577617681
101.0,1.6932639389136177,0.4170504202127572,-1.2762135187008101,-1.0215139787180925,1.4414681347392393,-0.44266280439331096,-0.6020150080540783,-0.0669095427541534,-3.6819302458352117,-2.7358402531269634,-1.740200593658355,-2.4099240672407696
102.0,-4.229796073168604,-6.819263092060431,-2.5894670188917726,5.477521289637244,-0.7799447002397771,-4.722019810587482,2.3662584285487234,-1.4259961293274384,2.6193881127186325,1.8007915324084558,-1.5482008428189542,2.1592389783172736
103.0,-2.5906952030528916,-8.859550376387194,-6.268855173334318,5.758238406366728,1.8827779461674687,-7.5071977826572835,2.4156030535846726,-1.940341401482957,3.4887058049554835,-3.206740072918496,-1.6185394858487943,-2.357471189105749
104.0,-0.23548830422856515,-3.4107865186551063,-3.175298214426619,1.860632444090566,1.4368296534592264,-3.3173087598704667,3.650986565656205,2.4986800329625063,-0.5677963545717994,1.9533164196307884,-0.402351164234803,2.9069373108989396
105.0,4.1095961372737975,4.1825135017062625,0.07291736443239882,-4.181168400976824,1.9853257422291901,2.1811786511760882,0.05380136549259307,4.249090661354133,-1.0558656738553083,1.9615645803505424,-0.5764685859426122,0.3776622261510958
106.0,4.429536749780949,5.574976579191015,1.1454398294100683,-5.031285073764465,1.6856329954681197,3.334267724682652,-1.4806917932994945,1.2871071075336107,-1.1810609078471321,-2.152066640825845,3.6552889154497326,1.5299895990562005
107.0,-0.24856182749639677,1.9137225763203531,2.162284403816818,-0.7785976043108844,-1.2447911628652575,2.010257821253742,-4.3278035370974965,-1.4095317773799192,-0.23702358960104442,-0.8748601357147694,0.0049017679587841645,-0.3494936659294583
108.0,-3.5285967416924566,-3.0817338490058224,0.4468628926866316,3.281737128164519,-1.9538117162064783,-1.3491097844784932,-3.5673680241317123,-0.7781216563920748,1.689450766046247,-0.13886638591840098,-0.414605279004853,-2.708192014948969
109.0,-2.305976330135124,1.2192212733855623,3.5251976035206183,0.5183318475090954,-2.9658415104158147,2.413465111926819,2.1197540746234838,-3.1083985512797563,-1.9434162872061742,3.2933157674384788,-0.6353352866409263,-1.066390071320213
110.0,3.958768814454485,3.2827880182025035,-0.6759807962520559,-3.6493460601892505,2.3419318157362694,1.2596508356757987,-0.7628057328778659,-4.235467933472274,1.3798996353940458,3.508924056097292,-0.6859330401624264,-0.15786753940208975
111.0,-1.9459631239383663,0.48139468273701314,2.4273578066754102,0.778770861058474,-2.163491592685115,1.4847271005722789,4.874103722202063,4.375740726666512,1.1745691422829008,0.7686152636549907,0.6907592377950343,0.870713994502384
112.0,-2.9553445099637496,-3.1112630743256506,-0.15591856436177343,3.0776127124177868,-1.3751389276937078,-1.604549019323898,4.518449396633153,1.2729028633906259,-2.0237572397060477,-3.38259480650105,-0.3820491138674059,0.5365649411934528
113.0,0.4562801957314113,-4.68526195963894,-5.141542155370202,2.080360755761319,2.748223859234981,-4.8816704238795445,-1.236243144383466,1.407363224159452,0.8318065471523846,-3.376410194565248,3.364364749392731,0.6262944763460827
114.0,0.9419727401862186,4.148665232746571,3.206692492560405,-2.576687300394857,-1.1001042057783272,3.6367729758820655,-4.696053695991639,-0.6356977925966278,0.07055022286939173,-1.5405663596103312,-0.13371540912244617,2.057409248458257
115.0,5.164576156922743,2.4087161057867124,-2.755860051136041,-3.7348980936856857,3.9171187552727376,-0.20632278455529124,-1.6767170680829349,3.3621088090496896,0.08514001803695682,0.04691005287681438,-2.1766943058496446,2.6796652010794397
116.0,0.36007206673369474,-2.056127120269691,-2.4161991870034676,0.8258380933428437,1.4252794017424042,-2.26020549163243,-4.159128611917173,-2.9805765110563556,0.2919844820249164,-1.730600524946522,-4.249756261177662,-2.81994991933065
117.0,-2.3427656971031254,-7.543139223689197,-5.200373526586185,4.925074173675096,1.386359227191023,-6.30890800461899,4.321579543568694,-3.554772058834771,-0.6062904362651771,3.618398177495934,1.0620099666639047,-4.397028323730382
118.0,-2.195329978922865,2.4960820664809287,4.691412045403658,-0.16485199601464484,-3.410014436425723,3.5847061415736525,2.0133327928480176,-2.7742979423097944,-1.6325427832001749,1.22118610856143,-1.7991611330965935,-4.774102648971811
119.0,-2.767862069147186,2.3866838535864465,5.154545922733551,0.17872482817602267,-3.93225655257009,3.766621728439703,3.683616226632337,3.572963275560659,-0.34779407115121524,4.17844239160962,2.5185493518609956,1.3372461435574592
120.0,0.05478913179716538,1.761354901010591,1.706565769213411,-0.8390819076110436,-0.8807352646323459,1.7326561087101289,-0.37782579587055465,3.5468748760042317,2.6917670594385594,-1.0537871886979475,5.763937672387869,8.861133915066372
121.0,0.5501631610413863,1.8292809774540908,1.2791178164127637,-1.1979046652497463,-0.34541485179931086,1.5526696306458478,-0.5449719450454366,1.107227738602291,-0.5321600961377597,-1.5852896178385993,0.3584983451113075,3.314323763584152
122.0,3.374755852363511,3.246749158022094,-0.1280066943413453,-3.3184150732796707,1.7665968360152042,1.5542892364517897,-5.564000297777176,-0.7911360564207073,2.6480698962634244,-2.2417448172804617,-0.6389579484878309,-3.0658106551554756
123.0,5.817094404887754,-0.506524748374754,-6.323619153262451,-2.6642628849929846,6.083431794045464,-3.427115512728269,-1.1920972509873522,-2.716951973120223,-3.566319403251629,-1.7847476761348753,-5.669310373092893,-4.071273299223171
124.0,-3.040515948040942,-2.1948639220174715,0.8456520260235032,2.605122090262304,-2.008606610697947,-0.617877340848938,0.22424278887233484,-2.2657229805286776,0.5269773860253105,1.8699410927701905,-0.7487347007138907,-0.5236622734090104
125.0,-5.275007723307324,-4.530997137638492,0.7440105856688242,4.884988112218934,-2.993503437148657,-1.9275441388782217,0.6393362699189994,0.9352784117519058,0.2437594482017318,1.019885112933716,2.1569340508607246,-0.1481884678735219
126.0,0.2962102875631536,-3.559091789396152,-3.855302076959343,1.6074719674052358,2.0969942888854103,-3.753767012663917,4.523150466472022,-0.2875332676152918,-0.5246632306531078,-1.809320906327241,0.6519809882741519,-1.4250565553310692
127.0,-1.0065231696151886,2.9943816899017324,4.000904859516879,-0.943809495720705,-2.475747425313724,3.5188238422022518,2.3469827787484094,3.247829761639019,-0.5447664906785243,-2.247973893749745,-0.743762975514274,1.859804740148948
128.0,0.158076248656695,3.000120144686861,2.842043896030087,-1.5308861309737596,-1.307555963444123,2.9347964170668455,-0.032626509064758835,2.7014595808913335,1.767320816684054,3.336016425018652,1.9904744196827902,3.573016766960165
129.0,2.31778400900079,1.375627379404091,-0.942156629596762,-1.8759117766612046,1.5897865614673945,0.22786002365159286,-1.3461592320982827,-1.5501173281962992,1.4247870624941332,3.4443571757570357,0.07142269065636031,0.6284264608361885
130.0,3.8418002390987653,0.799829048157056,-3.0419711909417337,-2.3460404103295653,3.4021328580443915,-1.1075761265887238,-6.2232597580330635,-1.7657139608510108,-1.937430488216472,1.5034132679435572,-1.170476094523809,-2.6179138432432767
131.0,-1.660822531668964,-0.20973056055320938,1.4510919711157821,0.9154181330382343,-1.5988060965703887,0.6401921300419414,-1.2963664496576812,-6.245040303826079,-2.161726485422303,-5.370644223761992,-2.779162591287683,-2.0699596656362242
132.0,0.34968613540443466,0.44103495992230524,0.09134882451794285,-0.40985817052975515,0.16037856197347738,0.21437078483703517,2.329620760481844,1.6604682035120684,-0.4269272675477216,-0.311423720611262,0.40183751881305974,-1.1179867117415565
133.0,-4.519566254978045,-7.753908682245481,-3.2343424272673102,6.205131987608321,-0.61478646054522,-5.460661963582457,4.331235000226551,5.5727860633823045,2.6053834617581235,-0.6515298479915214,2.672628812886545,1.1601153722176392
134.0,0.7971659113138141,2.520545312146992,1.723379400833259,-1.6672553897616678,-0.4348583576795498,2.080906239813496,0.2882722759735463,2.8099623286363755,0.9228205010696102,-1.0432656330383152,1.4351210595654065,0.4880541977349755
135.0,-3.1908083057887704,-0.03313503216794944,3.1576732736207993,1.6026711598557681,-3.140845828592522,1.523040514280448,0.21033405322623477,-2.116692624054735,1.2364101810032577,-0.44592326946445393,-0.1756149333300423,0.6897524350953624
136.0,3.971048260658749,2.293615374046914,-1.6774328866119848,-3.145536530484187,2.7877542317962494,0.34803563407522087,-0.12971734379413943,-3.1685977076933147,-2.232395525293917,3.1119539543245156,-1.4922213133294002,2.902618835477768
137.0,1.1590217781716992,3.313279053866207,2.154257275694352,-2.2555989240866356,-0.5237948133887134,2.774027564160604,-3.078424576587641,-1.709433902568674,-1.1176410110730235,1.372092183363818,-1.6139718238192011,0.19692851519751764
138.0,1.327175196991041,-1.3295474619634593,-2.6567226589545805,-0.025325250272973276,1.9751132619606036,-1.9519557866266055,-2.8923288814114945,0.9486910695556945,-0.6003885487896234,-1.4145282630415985,-1.1034589821123453,-1.1182261563468885
139.0,1.2096880414775764,0.30982519979218315,-0.8998628416853649,-0.7134260392179306,1.0447440480828836,-0.3313077870826485,1.5399414025438845,2.6196770268991147,2.185699147727709,4.092312156549699,3.0781284480421083,-2.5009681775262718
140.0,-0.23319775550219693,-0.4736575503664582,-0.2404597948641788,0.39669220168101066,-0.0025798887165378592,-0.39251318141651526,2.741693212428273,0.8583372373609228,-0.4359358343062678,1.058626614161113,0.2547910332448634,-0.4633939309797588
141.0,-2.9955040440308145,-2.2073218068965956,0.7881822371342866,2.5664165515330444,-1.8182037758677154,-0.7451845629205732,1.6013640714622006,-2.1848595498097065,-1.0335617086255853,-5.173299800623849,2.1109429270423616,-2.0855338129898064
142.0,-5.143825083074391,-0.526353113046385,4.617471970028037,2.8036192616010034,-4.8870886147918835,2.0878697806418476,-0.2420855458222979,-1.0448368414970541,-0.24401447923137795,-2.9722899476046343,-2.48762814228973,1.3004399707250407
143.0,1.0143652092649194,-1.6458590478366364,-2.6602242571015426,0.368103324571861,1.827005564883975,-2.1898227554929184,-2.622594870275441,2.020520179343745,2.818023067380801,-2.3274770476940674,-2.4110829716518385,4.294737263905951
144.0,2.6051408028242684,1.268853949236681,-1.3362868535875592,-1.9586399037603401,1.9537367570590913,0.00966624135801225,1.3654681640633846,-1.406853431701008,-0.7811608081979456,2.3355518085950546,-0.30425260320336944,-0.5172736683210837
145.0,6.7438475972034935,0.7973976602112848,-5.946449936992173,-3.789459351871792,6.318646810300779,-2.527444896800458,-0.735176597085004,0.5395609248862354,0.6233738551185533,1.9648822596288529,1.7388628165072364,-0.2593102802583499
146.0,-1.7494051066397445,1.9533594680267132,3.7027645746664377,-0.12082522188135081,-2.6853560803161423,2.8016833567433395,-0.38847648096091225,0.6230420187103654,-3.190850946136934,1.3695866519689253,-1.8125926023292962,-3.523159441572967
147.0,-1.2982313750067276,3.372969218197012,4.671200593203658,-0.9802171578969532,-3.0344468037197054,4.000887689844612,-0.6543603000501085,1.1669164092700934,1.226069855140842,4.5649825415203455,3.940558043385977,0.9044024232471908
148.0,-3.2791235247208155,-3.174255279802141,0.10486824491856783,3.200503581540361,-1.6724985674437083,-1.5527442058159808,0.3344549525909709,-0.10553583298951535,-0.6385408290555284,-1.3724758551759513,1.032856679222127,2.0036948681505864
149.0,-0.8977189976293711,-1.2467651831528328,-0.3490461855235466,1.0409933385825827,-0.2599766231151408,-0.8161254107223432,1.1467934026812767,-2.1676923319134818,0.23880953294462595,-3.276761227916792,-1.2150254860306073,-0.23804986243069148
150.0,-2.8330743346443192,-4.321414030967522,-1.4883396963232347,3.6205654244501053,-0.657565607580224,-2.8479744919106684,0.6331637266939228,-3.1822087363229574,0.7954478703716977,-1.9408849155476964,-0.647892068854457,-0.9660078977109393
151.0,4.394649155646294,0.15610284986196277,-4.238546305784339,-2.3132119538946845,4.337089222046499,-2.0692197880625054,-0.058124145400758664,4.546520283609953,3.0165492931248012,1.876401150672776,-1.7269979078989368,0.41473332452625616
152.0,1.858289478841551,5.0792854084450845,3.2209959296035633,-3.4284334266628145,-0.7305058068245129,4.11501405907545,-1.5850793372190293,-1.199221732503237,-2.7815449551088007,-3.956385630112164,-1.9115217739428054,1.0402822310158575
153.0,2.2431107420315364,1.4217708351832226,-0.8213399068482653,-1.7915915787918881,1.5715937233442059,0.3372448176575491,0.5301638534695117,2.231617826475595,-2.20254392026534,1.173384743892523,2.076755693429498,-2.0900253872506918
154.0,-2.0126350389706595,0.08162996876855622,2.09426500773927,0.9278828130123267,-2.08518803378397,1.1198308010274398,0.647767223702493,0.602052343848789,-0.23606729007349392,4.423485059986358,1.0086363846966904,-0.607581732344157
155.0,-1.368221817352877,-1.5049292756209491,-0.1367074582680391,1.398022302240638,-0.6439983567712338,-0.7925609183588452,-0.2683164180059674,-1.1235009894001244,3.623923258265849,-0.7340820753379114,-0.2845390273654804,2.700778918207019
156.0,-0.45701433084402177,1.488147682078936,1.9451620129229756,-0.5562920940242144,-1.1520105383303174,1.663555938502903,0.17717917460769547,-1.7276278618319778,0.4029643245764827,0.7015512679135256,0.49698094952182764,-0.13456240649877527
157.0,-1.4844520839764206,-5.412354196965629,-3.9279021129892033,3.48413010863532,1.186166620882394,-4.725218000822361,-0.4675064320002287,-1.8045590357945114,-2.5343130359941135,-1.6927832583288387,0.09429837903092009,-1.1772532530628999
158.0,-2.473512612477955,-0.794809342249559,1.6787032702283886,1.6691265515998395,-2.0418534684745087,0.4645330475025353,-0.6667838051883344,-0.9144134444749711,0.25198194330769164,-0.7403641999754439,1.025782562571525,-1.4849411107087809
159.0,3.329876877687039,-0.44953730921375956,-3.7794141869008206,-1.4032216902283994,3.578811284619783,-2.090975193042122,-1.195771111437921,2.8493885823273217,0.9588697403048079,0.032505972194497246,-1.6203823560000408,0.21560720247559306
160.0,3.284756181807841,5.239805760598458,1.9550495787905873,-4.299377278725219,0.6010670256295703,3.6251095407518252,3.5106302693965667,1.4448715153537695,0.3026154601125655,1.2426897561878645,-1.093519563079751,3.2584963661985906
161.0,0.7219928529196573,2.36480071665072,1.6428078637310422,-1.5744110591845353,-0.45184013182541843,1.9608461116012759,-0.01757462372124019,2.4841881668043335,-0.49006158336708827,-1.149255181671945,0.41583511792864347,-1.7467367699008098
162.0,-0.5145055948060715,-0.7486084893224698,-0.2341028945164061,0.6846365066817961,-0.13370756317332438,-0.44407738001616215,-0.9848684376467061,-1.3445749549516852,-0.9269894898594413,-0.5638483857918354,-0.3421105104540587,1.2686731844691648
163.0,-5.639431815201601,-1.8840752818754438,3.7553565333261556,3.738668611645756,-4.687930412291588,0.917171249790987,-1.0282826856011062,-2.630098226370121,-1.251012986061514,-0.4562861183094656,-0.134057152163981,1.1047760010590377
164.0,1.3828324662838565,0.9778889766365719,-0.40494348964730054,-1.2047541364076861,0.9108993238591285,0.2797690799257073,-2.2458076889035876,-0.8982401167233884,1.1598362006666056,3.9206681023486105,4.111333019692515,-3.7966260475807725
165.0,2.2995485520185386,-2.6612282605793536,-4.960776812597896,0.15142675910649772,3.6575328529290254,-3.810058070224403,2.2411592835839205,-0.4968387344151096,-0.22070546235083377,-0.8195652256837604,-1.571758032502039,-0.5733758739843289
166.0,-2.014845938089431,-3.430894327891289,-1.4160483898018479,2.7648900315299976,-0.3403089169113842,-2.4211461174613165,0.2205950943068058,0.9268828280096733,2.825244284749616,-4.3265315595462,-2.6704861385920946,1.5416509379733085
167.0,2.9207276926545758,4.63177926380266,1.7110515711481167,-3.7417845292061704,0.5716581796385247,3.1681344733759964,2.5619325313969035,0.5893700607874572,1.8890789972438817,2.745846858596864,1.9273074892710798,-0.13468645677141056
168.0,-1.1292648917917671,-0.6926779483188696,0.43658694347293736,0.8608261534054054,-0.7344838155551017,-0.14287630611243807,-1.532510159821846,0.9124814173559115,-5.2186073953175525,0.21876412112107885,-3.5177566160753306,-2.582898740640524
169.0,-1.1840465577720722,-2.9784679958766915,-1.794421438104559,2.10683384953127,0.27212313645706065,-2.4161271219769027,-0.40988456267050055,0.8108948689785729,-1.8282995323666147,-3.1975381634882547,2.263115946248292,4.261422413175733
170.0,2.0633839163462593,4.200349993590677,2.136966077244466,-3.106348868513514,0.0012668745321363084,3.2031295445010475,-0.39417345696442474,-1.6519250109545642,3.0631395011842906,4.0911493352424495,1.6056518216539983,1.6960605805988576
171.0,-1.3435009478738014,1.5573065486283435,2.9008074965021557,-0.15796667815347032,-2.1732900697788025,2.2526232984442736,1.3657810018527123,2.564728306171448,3.6484495998805406,2.228453141672482,0.566945438690383,0.8285061864041364
172.0,-1.0217544354523063,-1.168167668132872,-0.1464132326805646,1.1258055831275422,-0.42049871410813766,-0.6386467072534273,-3.2145255520634106,-1.125782821043923,-3.3001267284902873,-1.7816712690338101,-2.271885068089473,-4.15740354346074
173.0,-3.284324057597405,-2.5430880867645356,0.7412359708328539,2.868653905024164,-2.0032133194610418,-0.9594228565731104,0.09504576862984049,-3.002843346361063,-0.14224062931620507,-2.0341870088224243,1.5375841589435484,-0.7951338959667074
174.0,5.044689026188692,1.8000211344707238,-3.2446678917179943,-3.3871518065040904,4.151530364162585,-0.6951044782661593,0.725105277826848,-0.5011118130805121,-1.5864006999668387,-1.5013852414583768,-0.356682652144087,-0.308430292874066
175.0,3.3511684769475547,-0.7382257654751103,-4.089394242422689,-1.2717556190148969,3.729966999296841,-2.376626008882868,1.2096567494570791,0.055180641637847916,0.1215138743753108,0.8066275062449363,-0.8874611033362563,-1.8266849047369849
176.0,-1.8356225280691956,3.3962094012762614,5.231831929345442,-0.826982164162683,-3.516580663667021,4.282726005445909,1.2135684857684765,3.5679178742580735,0.5186583387561895,1.2187793230695583,1.287151902976972,3.8052685115611418
177.0,-3.117633556098827,0.33428991269697983,3.4519234687958065,1.419310446344232,-3.3364589505034843,1.8702619279987465,0.16379810127640626,0.4287908782257266,1.7685782713514488,3.051347203693971,0.250912120103187,1.0387199028864442
178.0,-0.19354162654683615,-4.315243104818422,-4.121701478271538,2.198138473090724,2.000852380891869,-4.23558334497063,-0.08130700883846273,0.020108953496322468,0.3143599745860155,-1.857608665470691,-1.2444394498581628,0.5798040966708066
179.0,0.21152738296468154,-2.55000332338956,-2.761530706354122,1.187437093263061,1.4516763891663849,-2.669395058715897,-1.9768659892869807,-1.2625796024720959,0.06663901279543455,-6.117521341044754,-3.450506069079544,-0.8095622768806041
180.0,1.0792967366822082,-1.772961263323269,-2.8522580000053375,0.36320213091272124,2.0128758881016284,-2.244950451663201,-3.2723808748202994,-0.7621126863690961,-1.4660364145884515,0.5268690808024066,1.0259128634384433,-2.3496171606908836
181.0,-1.129821235458758,0.6064378165827994,1.7362590520416403,0.27971632285540005,-1.4653701490420963,1.1630841494699833,3.4898374934235363,-0.3819543917108662,-1.0331395636914422,1.7742216472682808,0.9715202820254579,0.9466030213890442
182.0,-1.711412123251456,2.941127639838058,4.652539763089372,-0.5918076968677171,-3.2174354330142307,3.7920569945210283,3.102619548284744,-1.2040161378652188,-0.01164969396197646,5.020287582033314,3.926350046574428,-1.0720753546256279
183.0,4.98342018880794,5.721671755188471,0.7382515663801676,-5.401150127853835,2.162672002459091,3.2285746916372133,-1.991731518905694,-0.34586041013032875,1.4428359301005256,2.819075272161145,-0.6099168124374728,-1.8767940380154395
184.0,0.45733918108431326,3.2187142375046367,2.761375056419909,-1.8007232956074797,-1.1914773577642985,2.9903977422732853,-0.04412851325513323,3.8050985320921065,2.3676544336155003,0.28258409657895456,2.42910020491504,3.7672993258708507
185.0,-5.194570325774082,-4.881844242823927,0.3127260829499272,5.002043516860701,-2.711222666043507,-2.285732907224145,-1.0044435829991416,0.20899546032045668,0.39266527641742166,-3.8531756368617622,-2.3211779084033957,2.7717142808104653
186.0,0.5764161918758688,-2.0018750509510492,-2.578291242826866,0.6788102704211028,1.6265738368255493,-2.296941710898788,-2.321444680062304,-0.6678089986742434,-4.43258484702535,-5.678238667060474,-3.6589378187316486,0.27569526945630907
187.0,5.709648439485747,-0.1168367862890336,-5.826485225774379,-2.7524418468812435,5.7467450631940995,-2.987976347058991,1.4499589084506284,0.40894053609682207,-0.4528772462319044,0.15950824816923959,-0.36251278520186325,-2.816923565756758
188.0,-2.8043406697917788,-3.7833536698188044,-0.9790130000264545,3.3347125267545508,-0.9278533100697235,-2.408988516076623,0.9774316605764646,-1.890051385819168,0.652405200076274,2.9297672239784958,1.5901932726132544,-2.343497289462153
189.0,-2.503674332557029,-4.816682808349865,-2.3130084757923326,3.6183807143363116,-0.10977492189303723,-3.5248146435295524,1.0816097598410421,-2.123773136929537,-0.08782257589106679,-1.5082357707239746,-0.7179893854392813,-1.9892710860963398
190.0,-1.889287465212869,6.995815712386715,8.885103177599916,-2.598291466156412,-5.407901727437054,7.972737816663858,1.4805803144179726,0.5115609766220814,0.913655905948566,0.5313303087608173,0.5214248201728349,-0.5212867257641751
191.0,2.8957526436251744,6.1499617909180895,3.254209147292803,-4.490510286434234,-0.21228161098380394,4.652649264756208,-1.6436627641522585,2.008294066198301,2.31384546863253,6.248727397196814,-0.3526961850893837,3.2519836591451075
192.0,1.4271120697409696,1.7040245514147538,0.2769124816731927,-1.5322772351459877,0.6056686978783107,1.0217048160651743,-0.9718187484460797,1.0572343470056538,-0.8081674664886696,-0.5952162589306287,1.6778693746179452,2.31468024815276
193.0,2.510926895878117,-2.4780267932133953,-4.988953689092216,0.019639902458960856,3.767078474537947,-3.696851634284033,-2.2616209210441447,-0.21824122166059645,-0.905123607299885,-2.9382697843538925,2.3843541297235147,1.0033491853729901
194.0,-3.797182594361419,-11.182954780518617,-7.385772186157807,7.4508302568509155,1.803644498820044,-9.319909769033146,1.6673003910233781,1.5051424662385071,2.697466529676816,-4.09911327097292,-1.6625162927772683,1.0845441239570677
195.0,-1.305390823612571,-0.019268671246589264,1.2861221523657287,0.6257540085270201,-1.2866444016753833,0.6033273702085546,1.007175674316107,-3.1018701560888804,-2.275376831251541,-0.48537612044136136,-2.520175115391061,-2.313143963388402
196.0,0.5030191236028352,5.018631734599116,4.515612610996507,-2.7962928982889528,-1.9906923820963165,4.740001271687528,0.5960156640497007,-0.5544002379980393,-3.4919133195753154,3.460768568842497,0.7552126889803019,-3.5951844931968857
197.0,-1.25446942296355,4.306426107821916,5.560895530785941,-1.4830089050375612,-3.3820217390629397,4.985795426862341,-0.7393310283271535,-1.1479982247538645,0.43615430036638236,2.484193999142962,1.2292893110821752,-0.4541312378991038
198.0,2.1424382310102246,4.7785791850767865,2.636140954067056,-3.4184975374862088,-0.290510711149784,3.67987103085763,-0.1092722051455737,1.2074317329623918,1.9984538418424707,1.8208579898058663,0.20616484035635055,0.8429430172133451
199.0,2.1472670755017518,-2.4928024983659545,-4.640069573867388,0.13518570548447695,3.3553301118599093,-3.5159432344186814,1.1095674355339278,4.088318113255205,1.9071807500974334,-2.9743304412853027,-0.7748652521361523,3.7317807369415026
