Time(ms),I,II,III,aVR,aVL,aVF,V1,V2,V3,V4,V5,V6
-200.0,2.706758101758323,-11.233061199850159,-13.939819301608546,4.244151969823902,8.351773203651614,-12.602846678260372,4.3363035047748,3.326898847467241,-1.9960733609053358,1.5873287716369662,-0.9914481775874844,-6.624158369831585
-199.0,9.188929110460315,7.859770232999432,-1.3291588774609364,-8.537903526606206,5.2738016953453615,3.2597750754990873,-1.5769305394265771,-4.857747734404865,-3.08012828081266,1.3772087463153966,-1.0840698775971758,-0.8027602486099492
-198.0,-5.273574348630305,5.065203848447266,10.338778197077618,0.09364181537790178,-7.802666676730514,7.700233351316118,0.1509598178832383,5.754272720556106,0.18887023876016518,0.6600592750754575,3.204175273522735,5.429870142287835
-197.0,1.299727255441403,-0.5144361948229692,-1.814163450264271,-0.4037129524118761,1.5532666782260254,-1.1689377945620558,-1.5842191025560757,-6.292575655997778,-2.7453428278084155,-3.962571566651885,-3.2375082231459933,0.12560497048479746
-196.0,-2.6732884182928314,-5.914664716015611,-3.2413762977226765,4.279064631429522,0.2777118072693492,-4.589854617646198,5.022059550688711,-1.728195411495692,0.24725168458681113,-2.4693354225155497,-2.7931556713081216,-1.3830082170706794
-195.0,-9.811875698595358,0.592601896095454,10.40447759469092,4.667693259256238,-10.113137068723997,5.557240901103023,5.517560199721016,4.009566831425137,7.754155853019117,11.281607802600645,10.225107563231367,10.526979011769125
-194.0,-9.151887538289074,-1.7947749703789198,7.357112567910296,5.446899043477177,-8.25523933492956,2.7550377200699856,0.38694640466495933,6.973318314175818,5.80139404214381,9.168213231760385,10.299946262221816,11.649556230618778
-193.0,-0.5706156448105633,8.48731944060357,9.057935085414279,-3.9886257888703716,-4.809425324035265,8.74464217828641,-3.6592814946205627,-1.029025414938507,2.38452971940466,2.764271731966121,7.093891580068557,7.30661261310356
-192.0,19.916321438145044,3.29583276608844,-16.620488672056563,-11.558444103697367,18.27875476308023,-6.608633484320667,0.1473015115429912,4.643051390197132,-3.926606667412866,-9.226901581961506,-9.099932740224116,-11.571872719990449
-191.0,3.633271370414631,-6.780660343317098,-10.413931713731856,1.5446993429251172,7.038221189473373,-8.615638487961077,-2.068555175454359,-0.9246271868705827,-7.9489115103897925,-14.317854613693438,-16.14453089969109,-18.055059682356323
-190.0,-2.341872353511228,-2.87281058968531,-0.5309382361743316,2.660974763747312,-0.967133022164373,-1.7118824831999353,-0.46350830226174367,-3.0495003551467743,-4.32169516551394,-5.325011133980207,-7.927629561297436,-5.176661481617778
-189.0,-3.131917862554759,-13.505101300218742,-10.373183437664169,8.29703056810835,3.638472563834213,-11.941845729174895,-4.5945794313798825,-7.40746058611754,-4.454190399038087,-1.3275239996433754,-3.002089289953227,-8.444649590594508
-188.0,-7.370965899864622,2.7406107236151085,10.111576623479715,2.295073676417876,-8.723756996056524,6.427277783656477,0.44279588353318244,-4.351300633930542,4.899278021343161,6.901613955295374,5.68322747945197,5.851404478208491
-187.0,0.21927755060263276,18.082655573410623,17.863378022808146,-9.173138794966842,-8.805157674244898,17.973156642123957,10.975789244624927,0.0366345050956669,8.996608166784569,11.490223586084813,11.974460386574908,8.582211368184566
-186.0,9.591623585316198,10.185903403550949,0.5942798182349947,-9.916250122818921,4.515195835324149,5.383933810118015,-6.548243337827517,-5.071641430480678,4.060810471594523,8.822210331940298,9.528058260767123,9.000135262042734
-185.0,-1.5145494319008939,5.720983627094462,7.235533058995551,-2.059049716913715,-4.437250463592114,6.46140998399684,-4.036209732789252,10.739691800275946,2.616877783837499,5.2331250700121785,4.197216050341821,11.777192667118126
-184.0,-4.559696909792261,-0.6049506879762877,3.9547462218161282,2.6196280492849464,-4.240492139470525,1.7234625594727573,9.209214481225597,12.389710555816745,-4.933353749471541,-6.206243395372872,-2.3553392440521623,5.478674280170637
-183.0,-2.1168621969925656,-29.25439239769474,-27.137530200702113,15.639198506809377,12.527038687104788,-28.239961862475063,-8.571822083210984,-4.6427843550091294,-12.829236907339014,-23.864684533761316,-20.957268690348837,-21.013597500639925
-182.0,-2.423274793774586,-18.78497277374116,-16.361697979966504,10.633994128003515,6.985274283987147,-17.550767163280035,-1.902035648440267,-3.3723152616747774,-1.3512251720551163,-2.897145709447406,-3.18004059725142,-1.9335081835870884
-181.0,15.902129033844204,7.622469462534619,-8.27965957130948,-11.732764388799108,12.105437076269936,-0.31486720558372294,3.895907927301656,-2.422705691769036,2.1292575217012755,4.231067659766115,6.402797461977604,1.1535969898989498
-180.0,-10.423147547484572,7.009614837073511,17.432762384558096,1.6582750113337559,-13.994443648371078,12.23055817734865,8.999865797161862,5.839502187390338,6.68393244681451,10.8792525028163,8.366125335209261,-4.104225617410787
-179.0,-9.34085911870688,17.99285121422091,27.3337103329277,-4.3737534151552655,-18.327365349212766,22.594601065685918,5.93985695773285,-1.967128259522317,8.985569026279098,9.035511347569681,4.675192007325055,1.7235254113885632
-178.0,-8.395640772697583,10.779973942792855,19.175614715490216,-1.1609956728972834,-13.776877070787915,14.993665205271745,-8.062369368822829,-10.752863815654715,4.861934239002616,6.7071931455158955,2.4618368216445607,6.004000577946843
-177.0,2.880506529841605,-4.838468537323744,-7.718975067165596,1.0097341701779645,5.309830280567036,-6.252539043627348,-14.257039418261787,-3.593617597187481,-7.788482417049888,-9.62862567558337,-9.546727252309093,-3.4795324844155218
-176.0,31.65843001856759,1.9543583070297204,-29.70407171153799,-16.776481619107795,30.695979911653573,-13.835258354834075,-0.7774230957183113,6.013023881032534,-6.386497517726648,-8.418360649073527,-6.9216350224050815,-0.20265175708401495
-175.0,16.75323722160231,-4.004204298846733,-20.75744152044888,-6.424539102435219,18.777774817877678,-12.40571293561496,2.4539355179755304,6.288116069846831,-11.291130423992854,-10.324225269325611,-5.925327755101539,-3.9712555215871146
-174.0,-15.690212218897171,-18.095843132388275,-2.4056309134907785,16.92018751467423,-6.68912700201547,-10.263247589220315,6.218546294254645,6.312822080721633,-0.4977882284785915,-0.5997774868691144,3.218996333534182,1.083762816643887
-173.0,-19.893566333115075,-9.247956551752347,10.64560978136312,14.517288584266709,-15.228323494927178,0.6943706094479261,0.0552400555607262,-6.0484954154943065,2.765936829607741,5.025888101742588,3.779796181471481,2.049773124734771
-172.0,-17.5168990947262,9.448351305893523,26.965250400619887,4.057718524125569,-22.271113613267143,18.204722372465795,7.178569966879771,0.5360052910295248,8.223087332337066,6.559520877741328,5.260289517066692,-1.3019038581345752
-171.0,-10.979507548809181,12.60450605110505,23.584013599914144,-0.7902120064160463,-17.30726623080249,18.08909505928742,3.792419777417286,-1.7505988138988404,15.899958338999932,19.18671769927492,16.273130333381516,14.4158150084736
-170.0,18.975521836440073,10.372507629098411,-8.603014207342037,-14.651561063639157,13.765392443696502,0.8727364582490811,-7.16511249038976,-7.1517790515828805,6.142511540033225,3.5153700769089884,3.4278468596461917,5.034341890809495
-169.0,8.327789628078689,-8.80753149338113,-17.13532112146018,0.18549920287258814,12.785915837989066,-12.991469789391939,-4.43717648796509,-0.8495425647063937,-13.135397989886547,-15.569610981893632,-12.171952910232726,-4.131121448951204
-168.0,18.136469822519214,-7.3029197639540255,-25.439389586473368,-5.388602162097547,21.840534083613505,-16.31920413525345,-0.2318989837952543,4.767480345111297,-11.630943844749213,-12.261774522580012,-10.570304822219363,-10.017272473163327
-167.0,-3.119094447175593,-8.72492302285433,-5.60582857567862,5.876857941034217,1.2147715117108042,-7.117479690537536,4.35057269358173,8.572834848893073,-5.352868805857326,-0.7438942601756544,-4.609879783717651,-11.23290419114694
-166.0,-0.09566983700253762,3.771332413614825,3.867002250617648,-1.7978201850108477,-2.012896798122906,3.7869055766578654,-3.334441390547762,2.32166169477526,0.8161258171290422,2.595500370219715,-0.49446266498458247,-3.017053016183014
-165.0,0.4085035354301514,11.896999500534934,11.488495965105145,-6.10645832860558,-5.57481742020843,11.660490586965473,-6.667569145576488,-6.216597788855765,6.255524659208632,2.3864111223216913,-1.0202550041189822,2.5996886443426828
-164.0,-12.658306875313645,0.9062405246833904,13.564547399997274,5.848268821171771,-13.070392655523396,7.202972633369142,2.756622794797559,-7.6641290380616605,-0.48536937807782987,-5.1661961298413095,0.7967093646788843,-0.88918388401905
-163.0,-13.1671162832871,-6.901130993500619,6.265985289786393,10.008110102080607,-9.75571616596848,-0.2726811589824134,5.786185839322936,-0.6829800945012323,0.33771150028562547,2.123577000021443,2.083713626237765,3.533963879832127
-162.0,-0.22178670880169182,-5.981821025259325,-5.76003431645801,3.0739998728132534,2.8097090243600036,-5.907759644813423,-5.266947572244584,-2.158107087046068,1.6457060859183654,2.0022554343414387,7.532875884236964,7.6760596700360315
-161.0,5.965373384898489,13.269244141126165,7.303870756227242,-9.571079678667068,-0.6249054120950173,10.324378992227938,7.071041937300531,10.71973019342656,5.037711030277911,6.273283916492745,2.068668969324098,6.602642953592587
-160.0,5.765848391206668,2.9065535996220246,-2.8592947915848734,-4.374573142498196,4.28395927718581,0.05691075530138345,4.4428510362114855,8.39194840406892,5.64631762899013,11.64243242107056,10.325323671004139,7.3866952419824115
-159.0,17.20691222282825,-9.271766626860945,-26.478678849689103,-3.931773498614921,21.82047432201889,-17.925047408866895,-3.2247266245180546,-6.190615823903494,-6.036929616384895,-4.662728243544555,0.34654501084302863,3.1565380855411576
-158.0,-2.518378515251495,-1.8392918578269515,0.6790866574249126,2.134736424136837,-1.6160045487746206,-0.5548222565754184,1.0633222356732661,-5.641155363597786,3.1199564711795436,0.8841565169401644,-0.2698403723020055,-0.012854989811322604
-157.0,-19.886946093549753,-6.749793029853438,13.137153063696772,13.35635553179064,-16.52682246256657,3.1378207532328375,-1.9109653653786358,1.9125921141954243,-5.26961612850977,-8.471975384799716,-12.691681799248656,-15.871213015192762
-156.0,-2.0555895699307962,7.044216165774821,9.099805735705974,-2.4491034344393654,-5.51435699734478,8.094364083558611,-3.106341989865908,-1.613032534422401,-4.842555030777696,-9.654010592108865,-16.08553264667436,-18.792141589141636
-155.0,8.070700954421978,9.975068520621761,1.9043675661999044,-9.047509175522716,3.0640480785047215,5.96382807197798,-13.631994479880325,-14.102302210907684,-3.8343073487794017,-6.180140123461477,-4.72888166798132,-10.652344331564585
-154.0,2.5536327094268945,-2.2088868191934035,-4.762519528620473,-0.18946888066006728,3.6326729703162086,-3.4575971594973316,2.072014912737318,10.429503772121738,1.7847627784643154,4.713565512578997,11.233514423846675,15.428768696615055
-153.0,3.92615144413154,-9.950155632263781,-13.876307076395745,2.9982601581442956,8.946520870836288,-11.958387138151956,10.26787986938817,9.575813718810165,1.0171814177128682,5.466142681964525,8.17098609337291,13.05853283795209
-152.0,-6.092922763815057,-5.897769340981097,0.19515342283333847,5.979395599785988,-3.186209976935329,-2.812001264591884,5.684597453843093,-0.8377412931868164,0.17534241618577573,5.796881363195744,6.8476131653710555,9.817540371831509
-151.0,2.0243166089005635,4.296003110217339,2.2716865013162506,-3.1833528775757673,-0.09503090443795392,3.2490343659567396,1.579441419069398,-3.8658514256461514,1.4243441853213845,-0.623187126954682,-2.726828998047348,-7.362199365260883
-150.0,-5.585928709778941,6.6025542637008146,12.188482973479468,-0.4628864321403666,-8.942741658541244,9.363450663364056,7.4025660537951,0.6675086556927714,9.587429112696352,3.6615885541289073,8.277668965900377,4.7474517405036245
-149.0,0.7663005007829167,1.6349529540659917,0.8686524532833344,-1.1653799466355224,-0.029286426019707434,1.2992930820394557,-10.115654333354911,-2.660706390183239,2.6197845220890508,-0.1616578468051419,-5.71306732107201,-2.313378378484467
-148.0,4.687219253369303,1.442324150782543,-3.244895102586095,-3.1160427235496497,3.9917834383568542,-0.9330698600271206,-5.1776198293330165,5.54003014871739,0.49514589587002206,0.9657805289850483,-8.750139457067611,-5.397750213433255
-147.0,0.06372901642496287,3.1741343454136355,3.1104053289894917,-1.5954774136253154,-1.48867668643883,3.188203568193882,-5.142290098396987,-0.008729202814132808,-2.969729212413358,1.4403618260584046,3.8455687988611906,3.798386082497556
-146.0,4.786350186016858,-3.5028094174450812,-8.289159603461442,-0.6186134030911444,6.5063245925520485,-5.929743802900054,4.229654922209118,-5.256667376774068,-11.43084467515795,-9.63223529430717,-5.775630629094022,-4.52147149166405
-145.0,1.3126990530533023,-8.838827796559956,-10.151526849613223,3.709801424210492,5.714682329021565,-9.450914826734547,-7.84408213847551,-10.534099027906395,-11.078745180790108,-7.220745585526517,-4.230955238393318,-6.330000566086961
-144.0,-13.393595485379207,2.5466665748614066,15.940262060240293,5.452287560699877,-14.67171923828396,9.208189570754552,10.489512074365713,11.555915392879381,8.003589207456567,0.8979891668791926,1.3866534946357296,-1.681223073775043
-143.0,2.081022343629536,2.174073563003159,0.09305121937326888,-2.0958621830649786,0.9981706861975272,1.0970568388300068,-0.5300547216998801,0.3144485861042048,5.454599483990211,3.441371057623356,0.276497602642535,-1.0252689938404793
-142.0,0.1379391993455582,-1.981624361644112,-2.11956356098996,0.8764110793797919,1.1367915570133775,-2.0102151235665087,6.769992494973339,2.903265310567938,5.312813960059354,6.688488998435199,13.671076639850515,12.394954765533345
-141.0,2.7380301072321442,5.8667835162070405,3.128753408974752,-4.347146604892831,-0.18906239367021382,4.53580715569248,4.279079632896836,1.7651855841804283,10.172558858176615,12.959074769044584,12.38161969872143,13.630568480118537
-140.0,0.14917827060779576,0.11788386088027636,-0.031294409727652184,-0.09854686487229314,0.08962541852982087,0.0002879658868089052,-6.0446676210318495,-1.4710819728882887,-5.13182633757312,-8.219293704575634,-9.50108351222421,-3.4704435980425137
-139.0,4.013883116650723,-5.690406192284687,-9.704289308935452,0.8760548551011156,6.8475570148276645,-7.741803670666351,-8.206250889941767,-9.27345177500724,-10.965533809463283,-9.55291999168848,-11.839161693888018,-16.29331863509159
-138.0,4.708553760982577,-7.553933637045952,-12.262487398028476,1.3873819926175477,8.4607358309257,-9.873618608254292,-4.683947204497665,1.7571952150910612,-8.896824256327246,-5.430571889122053,-10.460285904490721,-15.358579175901413
-137.0,-7.256551791310206,-1.6283526452479196,5.6281991460624665,4.49413536205554,-6.4021265590601475,2.037206799197436,1.3834417811068644,-1.5005369971869849,0.7043408527286914,-2.084464752283946,-2.876330860740638,0.632137060526679
-136.0,-8.730014684799023,14.215775367642228,22.945790052441332,-2.760753590478739,-15.810100872674214,18.54437495883919,9.532750659114923,7.932885363718962,14.865114185601783,12.276226195867153,16.119120217318965,26.71098573638348
-135.0,-1.3198793952310925,4.681175521695756,6.001054916926821,-1.6908878527843472,-3.721294812712853,5.389977113501599,7.255793322011415,2.52766876646983,8.199430100162704,9.196480238302295,10.264457200801033,10.099634582747692
-134.0,17.332857629578513,4.501146347777505,-12.831711281800981,-10.92358963974887,15.093640190712444,-4.188749884467153,-4.711497489994296,1.6269033105903918,-3.8716146634803055,-4.867348390949958,-5.558262342793314,-12.838498834062468
-133.0,4.148943571188194,-0.6396742787734152,-4.788617849961251,-1.762885126167447,4.477064276455497,-2.732894248725775,-8.282288285720234,-7.23996099250702,-7.610699677092258,-2.2518058697702488,-1.4420490581038432,-4.201672288053217
-132.0,-9.428251636498748,-17.32998456083297,-7.901732924333698,13.364239553193858,-0.754915281842667,-12.632534352620599,-1.177105061823851,-0.7922815992225818,-10.199996399618644,-9.566177915850988,-9.050434888878813,-12.782552582273297
-131.0,-2.450737078839556,-4.425393071921924,-1.974655993082017,3.413546467163582,-0.22735098193904002,-3.217153450219338,3.601438834565304,2.207393937653772,-1.988285539508989,-3.7618307234752923,-4.717187535316846,-8.27479779019326
-130.0,-0.1660079460932451,6.182913379315211,6.3489213254083126,-2.964076046189856,-3.243276871546438,6.325631051431403,-8.250777968608858,-6.659637729503029,9.773410309112496,7.1126969112247735,8.67231041115046,16.284115507344797
-129.0,-7.297285449633876,7.778595117967294,15.075880567600581,-0.203844235429947,-11.247535287660716,11.406298620570434,14.475252921317644,5.2248003976986075,9.89722942374204,7.450751496507774,11.099826443160094,16.09504158695469
-128.0,-0.9266932521374531,-4.820914307455678,-3.8942210553188916,2.82778763590541,1.504736418869936,-4.379251472590933,1.409046819991639,-2.172127164076924,-0.5203621469040449,0.5572451470201814,-1.694811744158975,-1.3502070120145468
-127.0,-4.115798127369125,-9.462965652746034,-5.347167525377303,6.8210138471614306,0.6395319947715441,-7.347214333082832,-5.58477442432096,-0.45258257308183414,-6.697928609711601,-7.2088366130721635,-15.170785096508999,-11.399762497894985
-126.0,10.54883499015588,8.749130030365835,-1.7997049597900365,-9.6173431372492,6.122588252650119,3.455646406727607,0.8417722072972014,5.589484583368208,-2.6129287197775857,-0.7754682106625261,0.36826103919943076,-4.90178193713185
-125.0,-0.7452159721689204,-0.27799394798702615,0.46722202418230285,0.46337279286613553,-0.5748969915548243,0.07741109965644588,-3.2062456809645212,4.628463459701995,1.7716710025807672,5.598847322368005,11.653941516316074,10.96197033659681
-124.0,14.476206264359964,6.352663207180489,-8.123543057178926,-10.46635820098094,11.336657492083372,-0.9017272661095412,0.8206521784338552,-0.5406871476814819,0.9960125544658266,0.8806622982167492,3.3745268360477607,1.6154163537686534
-123.0,16.464034227160845,4.559745824360518,-11.904288402799935,-10.491155377313037,14.148169772827748,-3.6890302999657654,-6.493120612689435,-7.799845138329465,-8.95222033209372,-8.287124305257121,-14.33560026688922,-16.941933874010168
-122.0,-10.329454168277596,2.6799982351751055,13.009452403452691,3.83877102203743,-11.62168650722425,7.905145871687699,5.333593964976773,2.3458656994489893,4.955603375084314,0.7910777951693326,0.7829247138952127,-4.940060713362755
-121.0,-18.726216819264437,-5.024570081025681,13.701646738238512,11.884780142173032,-16.242588256069205,4.318391367743596,2.229448037460441,-5.750975204165696,6.403440714217894,7.095628733007355,7.695409018950262,5.2831346094402925
-120.0,-21.04826906105882,-8.159553580389442,12.888715480669212,14.612947907942498,-16.998629833751593,2.3434298552948647,1.5197536016725297,-0.04731365629687834,3.358510017125542,2.7983361247273955,2.2190044203984955,13.19806789585698
-119.0,-0.019673520585326898,-9.096620206677223,-9.076946686091858,4.572039809983147,4.4933345523893,-9.107231775518317,0.656354677553628,4.050154644251223,-5.51335003970901,-8.28621056920688,-9.037230542521435,-1.560290642624354
-118.0,2.974373075543347,-2.5058928109563388,-5.480265886499508,-0.21113466349665666,4.263397044215509,-3.931976474124308,2.5927440581459966,5.135401221349802,0.5424371237098695,-0.7731151431355827,5.095261550316386,7.527019402204143
-117.0,15.725146005766709,7.112366183145977,-8.612779822620535,-11.463071492215224,12.197728245639508,-0.7633065586967014,-5.047664642280702,-9.114185901193622,-6.4102608650748625,-3.981258071065628,-4.652761395717285,-9.15456064772756
-116.0,8.532654391881026,9.476392451978768,0.9437380600976333,-9.038141666387755,3.8180920916622068,5.202143359262662,-2.5563749645342044,1.9868204135710326,1.0213765601825207,5.670977615454814,4.044591243808215,-2.931271680460535
-115.0,19.694157850854694,4.5643258918228975,-15.12983195903213,-12.07633798895519,17.355132162711914,-5.286448582339874,-2.732648709420936,10.42188259732208,0.02006546049556518,-1.0573239264859828,-0.38172270048808454,-0.36073266725117437
-114.0,-4.347689517955228,-1.5878331196316253,2.7598563983233184,2.945574493787194,-3.5302457107919407,0.5840713401108197,5.236552124475325,-0.8696308521525582,8.17779360000281,8.697316318458288,7.2464063663654095,5.341884915024757
-113.0,-11.64490900480621,-8.133687611817505,3.511221392988607,9.866751767981272,-7.550495675869107,-2.314818405809645,-0.9830822530087104,-10.534394502566673,-5.3143463699436015,-5.8316141488813535,-10.548291181254601,-13.284355912359116
-112.0,-13.445263464839737,-3.2221559773893658,10.223107487450484,8.386684897002677,-11.880372684375082,3.4918099270672243,-1.8856759329334174,1.777927948110495,1.65653493813207,4.296232541218844,5.233086177387315,8.24204167801031
-111.0,-15.33434947979471,6.783204815554934,22.117554295349947,4.24544030161755,-18.688755047104546,14.43402192109925,3.7012842130484,2.4498315075839847,3.9077022845155125,1.4719242557406433,4.005446768349382,8.938399347257068
-110.0,4.183875752172581,-1.658006686369367,-5.841882438541555,-1.2967848637957502,4.974925547692177,-3.6965162454837133,0.05082855950959453,-1.2433081338493284,-6.280107214340884,-10.03965224189453,-9.06608052953432,-7.004625092816536
-109.0,8.404963447359453,-2.403531859848203,-10.808495307207274,-2.9576355057079438,9.571479237582157,-6.64021037064059,1.2336562963367346,-1.9698061864837761,-5.0846462856590575,-8.787916467511996,-7.317678200584329,-8.576716750463827
-108.0,3.1503625174471255,5.482054352549815,2.3316918351029283,-4.272684641384583,0.4553398492531713,3.943614719968287,-0.7021070835468056,-3.326004893309854,8.7373444259471,10.71648034850027,12.860149945548692,8.301976972564407
-107.0,11.618794092659485,4.287289136020685,-7.331504956638858,-7.986177335374597,9.524132886743756,-1.5704354771922004,-1.800947822661034,4.109490332420844,3.808194619930167,7.231299196756037,4.418352428925292,7.861750816425158
-106.0,2.5994511136586507,-8.19972781070721,-10.799178924366192,2.769452052789582,6.673081421466975,-9.473880026647425,-0.7407619050488095,7.522954667281991,-6.986495334496666,-5.3065381175340365,-5.508530455668341,-5.308531821932208
-105.0,2.5420873378268976,-6.284879934003513,-8.826967271830878,1.842107115023896,5.6616813697099495,-7.533974654924665,0.9569291251816363,7.110130108876735,-2.540870968528699,-1.711182779699759,-2.0814981984007366,-2.071279937531619
-104.0,-3.1564507970298132,3.054962350651816,6.2114131476812275,0.09947832773818499,-4.704730825321837,4.573742718338444,-5.727545343029654,-9.479532494376858,1.127426926355529,3.9765674917181713,2.955977000717331,-1.2127602077173312
-103.0,-15.788460958375104,-1.1322272791737487,14.656233679201137,8.505679937241755,-15.164852410217769,6.779519635649918,4.609461564687711,-7.510788306289157,1.1049910812247146,-2.1338917117861893,-2.984238984693438,-6.492491629617928
-102.0,-7.806908475833047,5.304893573974188,13.111802049807254,1.2115130049088965,-10.484209852668219,9.224883475152506,8.477979381902747,0.7835694753195872,5.0158015313669955,1.395099135627837,-1.011721653422613,2.8207021753214354
-101.0,1.6573957085799433,2.0059096812396504,0.34851397266003126,-1.8793475490365095,0.6230397504254173,1.1934488316667213,-6.170514397394225,-6.441114306062389,-2.730681377321057,-2.6141359874205197,-2.0479340429448496,2.5494442700521525
-100.0,21.409060636696537,7.985700835115998,-13.42335980158012,-14.675483194671205,17.455184628212155,-2.702512875021001,-0.19842367855017762,5.986565509361005,-4.091578809319144,-4.354883364094216,-0.28861830918082343,2.3509245048423373
-99.0,-0.43337387727216203,4.8826500111830855,5.31602388845565,-2.2112752968021994,-2.92283112459047,5.036987836558885,-0.8474721300922691,12.141015557388066,6.50281573510541,8.29091066293663,11.564152511277442,8.882420825419596
-98.0,-5.402924120063424,-13.007098968780792,-7.604174848717132,9.211988618797054,1.1249837196607944,-10.289313147314775,-5.595536950693482,1.5175153749387649,-1.0813893642666979,-2.0426964488165944,-4.718579034297571,-5.879681642869622
-97.0,-6.236537171153808,-16.067218318799107,-9.83068114764531,11.155539802103707,1.818916225688905,-12.932592686493116,3.345028405848671,-7.848757242160106,0.4983110947186553,1.9071825038323846,1.9232303766477128,-0.8878201652933748
-96.0,-2.5208847655851616,-5.5341628884914496,-3.013278122906488,4.030940895823048,0.2699133985075224,-4.25650597468164,-0.45912692535392075,-7.662142881869743,-4.964973092397559,-3.8929536911962117,-2.896822657023681,-4.2623941335457225
-95.0,1.2448107425624486,13.093543239873929,11.848732497311042,-7.163763307782542,-5.3513130495073975,12.41221151241221,2.714844204502014,0.18821697654565162,-1.5856013597333534,-2.7295078481803294,-3.741712080335135,-3.0197327652315153
-94.0,3.6256241915528165,12.55143143852304,8.925807246969775,-8.08006797659596,-2.6127462745817533,10.763576582995594,1.212114459560213,0.43864277817291986,-1.756166753839894,-0.35715473612700444,-3.766993536318952,-2.8738729240043197
-93.0,-4.12888579059622,-5.926393229021684,-1.797507438425785,4.960495353538892,-1.1988127253288114,-3.829133128687122,0.04424777708879302,5.412490305780546,0.00291585096266872,-2.4349573724616547,-4.1000751071858215,-0.8064436901713743
-92.0,-2.949917199265077,1.4264052976888473,4.376322496953836,0.7763227921583331,-3.6893566804680913,2.8653101330005253,0.5155516469835195,2.8483729076545727,9.179874736026227,10.051274762453577,10.203586385587824,8.198904578169314
-91.0,15.107664485238221,8.968050252421104,-6.139614232816971,-12.02015523145283,10.680481438845874,1.467130947767987,1.5303931304460012,2.063855635365487,2.2436425254633603,4.288005177614277,7.607331061894699,8.48342286815285
-90.0,8.133411156823147,5.08699104688172,-3.0464201099411965,-6.588640735300071,5.569231966591259,1.002712287869386,0.19105166259511341,2.612647913837441,0.7349952493813936,-0.5687329546146964,1.958416403060368,1.318367359005698
-89.0,2.785714152492294,-7.664938847030989,-10.450652999523058,2.4659265292368615,6.595538147998344,-9.071193427829037,-10.72780439464296,-7.764986214937263,-7.728605017623596,-5.527664750215088,-3.8447528625507017,-6.102627568566924
-88.0,-13.973176072755203,-9.75681933481879,4.216356737936581,11.817742638390015,-9.04360492247784,-2.7846259091065733,-2.8163781722796046,-6.274512024862178,-0.271833474289247,-5.515826883463752,-6.765046489508491,-4.696431117691924
-87.0,-20.027415375183235,-12.816502514281767,7.210912860901453,16.45816690103699,-13.654271596571627,-2.822788917657907,11.6166486902533,2.7971607069813347,-2.0080111347220915,-4.890220910124047,-8.861533726645066,-9.330464625377786
-86.0,-9.123149117158635,-0.37035016669673215,8.752798950461768,4.7076632626247585,-8.903774354100133,4.1631845098091445,6.442337583422589,6.329153360151194,2.645344853938778,3.4532474906518913,1.7931983092768888,5.207746248583681
-85.0,20.069085587416073,12.662470893277886,-7.406614694138464,-16.402869156484126,13.68295761171623,2.6710416653356046,-3.6659264773998714,-2.3395069650506386,2.78413874897302,8.237705450595456,9.842040327946167,7.447043284123122
-84.0,12.54987921761602,1.7949776996365472,-10.754901517979738,-7.12973375941073,11.666468114353224,-4.441666553091489,-3.5077364280675267,-3.4705362896517524,-2.1443397443176737,2.2932105260724915,4.757348631190751,6.233535323890106
-83.0,-0.2979343029697894,-0.8478450914518865,-0.5499107884822498,0.6165505905805535,0.13259004679641873,-0.661974463365703,-3.068774895280721,6.140288008999255,-1.468973999095046,-4.419057740904563,-4.747642077401462,-1.7636081959251033
-82.0,-10.108124114354302,-3.80616936455252,6.30195474980175,6.923721851525901,-8.202011267865549,1.206758905410517,-5.279154644967493,-3.3136289244620563,-3.0118455186425246,-6.216357526923944,-6.66885440088728,-11.904400759026423
-81.0,1.6802907416230681,8.562317499098828,6.882026757475867,-5.152105314243076,-2.5965945479062,7.681293456180035,4.40115606320739,-5.597602847983052,1.1148139992962633,0.7427846718156639,-1.4390355968068929,-6.856403928217789
-80.0,6.881592299294693,9.582470495124543,2.7008781958300205,-8.180837583497457,2.1005279876581477,6.17688790199303,4.172687067553745,4.46132726646697,5.707267889327295,7.544927555890085,7.116104078856934,8.522862831675292
-79.0,-3.338805333072845,0.9991639451646934,4.337969278237654,1.145326701076662,-3.8189687335137874,2.6183702296682467,-0.9686545450559296,3.979688964326439,3.401648967988918,2.2735846445261076,4.4819863503909945,5.896057163347189
-78.0,-1.227310779296292,-5.243332867439374,-4.016022088143072,3.212679388513905,1.345545240455241,-4.610907674702984,2.3219083987201223,7.840251752917385,1.8472506660400358,-2.062266722955716,0.9233542905893293,2.345740782350524
-77.0,0.6706933676290485,-13.204772763691992,-13.875466131321119,6.322824240664081,7.312614749411413,-13.531656486392894,-2.9553118747542095,-9.353717146719607,-8.925687003350037,-3.9309170413470977,-2.693290209767523,-2.3346440625425666
-76.0,-4.064207254406385,-8.075951199106612,-4.011743944700286,6.044019256535884,-0.05841130752459289,-6.042816676651606,0.8913622828606806,-4.132568440960394,-1.8047949764790254,-0.9544419483468309,-2.3413162829732954,-1.7350610745368253
-75.0,-5.925754251102526,1.7063345303393538,7.632088781441848,2.077828180631553,-6.807253695424762,4.668648877153927,2.6835852803124145,0.7181602725160294,1.127769643658101,2.2465241786979697,-3.28355261175626,2.3261334232649014
-74.0,5.9267914614255925,6.811737781598022,0.8849463201724337,-6.330105738263817,2.572405753729411,3.853438491502726,-1.5986977792064287,-3.8965502216688024,-0.5983923880896623,-3.1524805657529695,-3.6198351941734743,-2.663904881716035
-73.0,2.953301129944404,3.239390010660941,0.28608888071658534,-3.1439868773528223,1.3056951831831114,1.7799645221629063,-5.062408649728694,2.960476760904214,0.09691543517018497,1.1820931255579783,0.7382133897162124,-1.4099626157596878
-72.0,-0.08489550090266595,-0.39592616716083384,-0.3110306662581266,0.2649974560318551,0.1627474079884345,-0.32059232534332427,1.0713268627979544,4.226777556374868,2.2641216808984153,-0.5977868594588513,2.715808812457037,-0.5520271932340666
-71.0,-0.5704217363663711,3.1793168878127642,3.749738624179131,-1.2832477065191088,-2.189944770832248,3.433563225969715,4.522113171519365,5.296615505343042,2.2528982004680267,1.9794144777573772,3.3474028587201303,0.40953866196333544
-70.0,0.06270103804418614,1.7124128478299983,1.6497118097857402,-0.8658031298336739,-0.8233912297208699,1.6599366305504553,-4.12826739665393,-1.3815361988452026,-0.14437120697039973,-2.0222309632976145,-0.9620406024186225,-2.867481212772799
-69.0,3.567504262398965,2.044291612284889,-1.523212650114155,-2.8586393733556625,2.594995392848231,0.24131613375883404,1.2524033811491437,-5.292646862759487,0.7416820672962494,7.513380788330724,6.05572626933719,3.00778176939616
-68.0,-1.4197983638742633,0.3285368457879758,1.748335209662176,0.5784577747540925,-1.611811069393005,1.012637648929962,-0.5974406253958139,-2.669612825173722,-4.653171701198561,-6.06751257284629,-5.728732388874677,2.221493722126045
-67.0,0.7543763959162315,-4.223117287138782,-4.9774936830550125,1.6962092468382606,2.83986445200732,-4.560597403517584,-2.049338073638207,-2.552257035358541,-1.2273822790111457,0.019899377250258476,1.2071299819366166,2.197510831526969
-66.0,-7.900994619313616,-3.36192405022043,4.539070569093259,5.679108931831895,-6.165716219596299,0.6117119767046084,6.87054587886188,4.742532264695106,0.1479502703227591,-3.3336505884260896,-7.5545977065375824,-5.264085891509991
-65.0,-1.458371671691732,2.686643776265242,4.145015447957078,-0.6401855385169992,-2.8249338365967698,3.4227740593397056,1.275262962684869,4.902669164071185,10.282238359677148,4.670494604870431,5.567498961393707,0.066366645302951
-64.0,4.209019279908992,-5.026510021279881,-9.235529301188764,0.3849879081760704,6.699307795522167,-7.136803978916536,-4.3627661564037,-6.100916310156341,4.925042903512542,5.665559016480784,6.176945591430123,4.496766066867883
-63.0,2.14172142656209,-4.39244470366164,-6.534166130223694,1.1797912776793393,4.392610937441022,-5.47632044046205,-0.6741303925931068,6.789685467768485,-8.44824906478221,-2.6600827972326924,0.006828054030882935,0.17233769797118437
-62.0,-0.5754027580988952,10.2848854227245,10.860288180823346,-4.8819573716064095,-5.744729210275697,10.55882291496731,1.159011158659993,-1.7721986520748771,-14.720854534600681,-5.65519329842021,-4.442282341914406,1.249012775446686
-61.0,1.5426854482213876,-7.166001420249348,-8.708686868470876,2.7802030829757043,5.094420203760002,-7.945270747912462,-1.9699958533222641,-3.078656526196127,-4.454114381451589,-4.356536701907576,-10.138052047518753,-6.376576671088213
-60.0,4.694595837921574,-0.7181928245203877,-5.4127886624421055,-1.9452881553009929,5.095881363872946,-3.061704756841304,-4.257349007211843,-3.3908055201329814,8.170728049103738,0.6114744312816967,-1.2708989601371794,-2.9007147735059844
-59.0,-8.004434565302873,2.5008125333936095,10.505247098696366,2.712508796603438,-9.29639270206341,6.522790372831487,2.509193227988847,2.134389326282677,10.828198135852077,5.179672708629884,6.836603835498986,2.2704791569094938
-58.0,-0.6088360153198429,12.192993832695656,12.801829848015451,-5.754634484152424,-6.671332957994665,12.534845641037275,2.2098872912364196,-0.4787403344296358,8.071633015242323,4.034669766760705,10.15372764996328,3.853239945533912
-57.0,1.9198235119105642,-2.2690197564492487,-4.188843268359779,0.21131502045812195,3.0094483928921454,-3.254119497841251,3.2216193794315684,0.4662260603951456,-4.436603558258562,-0.09637107970917835,-1.80531367248634,-1.8097746430047756
-56.0,0.4934940435005759,3.8968700574165065,3.4033760139159903,-2.2374794158957796,-1.417654409038431,3.6363008344018906,4.122054940082567,0.3118154652858529,-0.19798123312320337,-1.2608395558032992,-0.6057244483097897,3.1034598274653704
-55.0,6.001435301987356,-1.023114543358012,-7.024549845345278,-2.5322601957420496,6.556568186386773,-4.033291461280684,-6.028026791096692,3.9060495915740225,-4.891227308257502,-2.3991488977682027,-3.1198016076883213,0.9282910907631253
-54.0,3.9113191341797293,-17.284636477676916,-21.195955611856547,6.720315173692374,12.525740119467207,-19.25288946133256,-7.468943444135901,0.48296888879091715,-10.591256820942444,-8.027335146705722,-10.253043977886502,-7.505727497303971
-53.0,-4.402804671705143,-6.746136144309035,-2.3433314726038112,5.604968697716985,-1.0519241653283036,-4.566512828424223,0.8943680623550456,-5.937336686916342,-4.409388261740371,1.9874859738010788,2.227466564556426,-1.7535481051329218
-52.0,-22.42247723487646,6.408911359252881,28.83138859412937,7.954909129656694,-25.647325259436805,17.66476429753638,14.6440492789776,10.618920208010667,13.693155727512764,15.160705727402012,14.547792529483445,12.790655166258366
-51.0,1.4059831907155713,15.752026011805734,14.346042821090196,-8.555096564159555,-6.415052107060694,15.081450431782942,0.7574993348576031,-5.744993975497218,11.635401046573312,9.152795455406563,8.092654964174487,9.41080791637729
-50.0,16.45616373059868,-8.67214171880015,-25.128305449398827,-3.8692488972322217,20.760250961761518,-16.955852606494936,-13.17890856981502,-10.6083673260653,-8.779840440080939,-16.262352786956768,-15.08935202095211,-17.243827640497692
-49.0,8.931796642966162,-7.669681814082679,-16.601478457048902,-0.6855360727341431,12.723556964350262,-12.11738219051458,-7.093894540516597,-1.0927355420357059,-12.152528464704567,-17.257364389065152,-16.23563712644097,-17.10969940526853
-48.0,-2.782827925405649,12.885045015922813,15.667872941328385,-5.022514168866944,-9.200650675996151,14.294104363925939,6.230797135585452,8.958622994121908,5.536286202070776,4.720614176221268,6.321508158381686,15.078921331854126
-47.0,-2.3782060407356482,6.89911844664436,9.277324487379968,-2.2254496364565957,-5.810797707465575,8.108473059579147,6.430988776814757,5.9929710134201315,3.2826859082318123,9.167691486074753,8.358488505865848,7.61514655510172
-46.0,-6.186971819020943,-6.2687392910481545,-0.0817674720272139,6.191040599130057,-3.0380424869302245,-3.2298128697401003,1.1461435851323278,0.85025337338016,-0.026542978803849593,1.7264692495877965,2.436127239367897,-0.9478232959449917
-45.0,-6.351646525209739,-5.276767538721424,1.074878986488329,5.861548985574025,-3.69552825049433,-2.0731775089353937,1.6143994341741827,-1.8396421272058965,1.1544829540353905,1.9412865834834245,1.9022785420713646,-3.1503567393674468
-44.0,3.651461185101943,-7.644347488157463,-11.295808673259433,1.9671280877643298,7.498487370437822,-9.518801657326062,-2.2615735188127473,-5.93033553563696,-0.12926788037975018,-0.572535370581656,-4.3062900727430815,-5.164238086930291
-43.0,8.469345254022041,5.621543443505265,-2.8478018105167973,-7.076725371933394,5.61295990345606,1.417837471019951,-3.421032706862451,-0.5993742152311481,2.1606337151125787,2.3705489545516762,-0.4532889658036461,2.5616981825930036
-42.0,4.151679486564635,-0.5559164308331535,-4.707595917397742,-1.8343910918435526,4.3908000318601434,-2.6004760230996795,-2.724397667985375,-3.210299696746998,-5.010166721081002,-1.3181961423555697,3.604323588612969,2.111081168156745
-41.0,-8.078503252130313,9.126734428661635,17.205237680792038,-0.48819591856535216,-12.676944367424241,13.119059988824919,2.804583511647595,1.8257322264510087,1.654712559400397,2.239655200713167,6.335924511097389,8.136148111546099
-40.0,-0.2724486062683269,2.833846820551251,3.1062954268195826,-1.2495101511553512,-1.6449691019470016,3.0031896501467124,1.5886525553378006,6.41793673462155,1.9133073666273226,-0.12906574543748883,-2.9237753393332935,-1.0054436478784594
-39.0,-1.5420855277588372,-5.4871423614399255,-3.9450568336811394,3.5447042169018568,1.2444913812455973,-4.680983029916282,-1.1905447203599955,-5.453293009029763,-3.15344061661951,-7.613008753404541,-8.451088094558775,-4.588413945382317
-38.0,-2.0273576005417717,-15.633423534306878,-13.606065933765182,8.784840002783145,5.829792572141898,-14.661172042356835,-2.089321486614306,4.484732965263728,-1.9116148827335753,-4.464944199548217,-3.0453659356736114,-6.332765652065722
-37.0,4.748612185948761,-1.985081392647559,-6.733693578596331,-1.3422298636678947,5.699556551695007,-4.398969736978051,0.993589714487712,-1.379378706233267,2.055282577634416,2.03106160611168,0.21620238326160002,-3.1489819969520036
-36.0,0.6753494135010212,13.694925464085493,13.019576050584512,-7.216718486244262,-6.217595348660879,13.397630266496215,0.7259633218521391,2.8595472580238313,7.456460684376927,5.118831580550885,2.6100370252429106,2.9544071419510423
-35.0,-6.255906179919961,8.102566105772503,14.35847228569251,-0.9479382456595089,-10.278015427555303,11.192844142485308,6.790069848426578,-0.21405795201202737,-2.1749476712534856,3.369334220222837,1.7212657839814507,2.993689987678815
-34.0,-2.9746318828162663,0.6831090336654215,3.6577409164817256,1.126234087491461,-3.368936827930319,2.211934861210949,2.1624257887210567,-1.2365665803509398,-5.865488438272964,-6.413090527796573,-3.9107222429485295,-1.6529341911720694
-33.0,2.9069214438358317,-6.952762225655242,-9.859683669491076,2.0850903184550766,6.408774796582543,-8.36451427439081,-5.706497380561736,-2.7846559674227906,-5.85166728133911,-0.20433845334477585,0.5285297604646506,-0.072165156278021
-32.0,14.07035980335162,-2.862192459116958,-16.93255226246862,-5.619356972821735,15.530641739165675,-9.934815619620199,-8.48491065533641,-4.600566212638347,-0.2619824828120032,3.0698763047322046,9.232014012975773,6.157711799144762
-31.0,2.6139410333139663,3.8763298142376987,1.2623887809235974,-3.26003493105711,0.7134603360666265,2.530377652368312,-3.59863848269425,-2.480772073777756,7.559378931150805,7.5445666798771045,7.8652103796642425,7.552713195353747
-30.0,-6.041928423548242,4.313680087692426,10.355608511240517,0.8491049097869932,-8.227610576721869,7.371465529117339,4.807606934512156,4.032220307794575,3.6093227962323255,-2.278662699115249,-6.8662879917585595,-3.7641982986571842
-29.0,-7.344100369716996,-2.33388413796579,5.010216231751083,4.90201422350348,-6.192569913576785,1.2921753376193257,5.844213911369578,10.161495861029092,6.657950758135534,-2.3409520946961835,-7.11215888493888,-7.039852772316748
-28.0,-10.613246802237587,-17.933604336962553,-7.320357534724989,14.255787436601034,-1.6504291346025983,-12.598607329742073,3.3447371459390403,-0.47095562650499545,-6.293025663605315,-5.024803860365779,-3.1131936980874997,-5.790504623658624
-27.0,2.498495114313436,-1.3229120869349522,-3.8214072012482765,-0.6093503882042874,3.162484466586874,-2.5475977370507485,1.1592909528943913,-4.1438568697815565,-6.010795064309906,-2.049613076355266,-0.6501512940260885,-2.6431018246392166
-26.0,11.771822334572471,10.044143369845909,-1.727678964726406,-10.935965130348997,6.752111435435161,4.180128048569623,-2.5829572990599265,-4.102119853249732,-4.51302678536991,-3.047914123168603,-2.596560781664561,1.231200305153747
-25.0,6.512127769453087,12.169680878193363,5.657553108740391,-9.298799963519198,0.422557793623362,8.85530619670705,-1.8355320526504721,0.1327743551022711,2.4828823096024695,4.330370372542433,4.305066758609761,4.4408959966930945
-24.0,-2.3174178971874824,7.360374875002547,9.677792772190058,-2.5679255720850485,-6.015014429658507,8.538991050195342,-6.38726671525245,-0.7760733536424687,7.35130260126347,10.44017733517681,10.58108679766713,10.68748350755094
-23.0,-13.372655120824096,-8.076071223799293,5.296583897024776,10.747322158636358,-9.289025882284367,-1.3697408892883103,2.424964924966097,5.66404466744514,3.8648509289837634,1.8873260122432018,0.7764718993143829,2.3185783308672177
-22.0,-0.4573613939521284,-9.548906808813905,-9.091545414861976,5.018681528239817,4.26821596649296,-9.378306274099074,3.4826611509455208,-0.7465393531936089,-3.910217676962519,-5.478690275797431,-3.5319281041300363,-9.242891751535094
-21.0,10.286981369843236,1.4614003914036262,-8.825580978439909,-5.8633514067700405,9.573397226076036,-3.659991536421474,0.35134843285377504,3.004829237056049,-2.759992913295096,-4.494378142983345,-4.534878094080648,0.023323677743797067
-20.0,-3.7605246467938223,3.0707911453933074,6.831315792186909,0.3535250411064006,-5.286529216246878,4.97553720727654,5.858748540775234,1.5799740657888548,2.709822545287925,2.108866059042756,3.202334378741658,4.202066219231659
-19.0,4.378388577340417,-1.0028954588194943,-5.381284036159828,-1.6796147109159654,4.887231891600467,-3.164391465254867,-9.074266534191835,-14.42790909179862,-5.3104348861521995,-3.5538263324669517,-6.508792090473186,-3.6301210164851447
-18.0,4.45851173632133,-9.986435633565698,-14.444947369886794,2.693537405683027,9.462031232608535,-12.263296002902099,8.230225940238945,7.216224742634795,-6.446119627080144,-10.863963971286198,-12.336853667188333,-17.002512422617198
-17.0,-13.621798696455285,-9.770855647617626,3.8509430488380456,11.70520245344882,-8.720287311683634,-2.9260098193498405,-6.566495793164311,2.5352625378002007,-3.733556371368781,-2.8312847034316415,-0.2716089273790101,-3.648715848070789
-16.0,0.09338581754225395,12.95796404634362,12.864578228801623,-6.515474263183941,-6.442076094032796,12.867908608598912,-9.39155959033628,-5.242993958770317,3.574576824693831,11.47510744802118,13.280479710693976,12.903178448845917
-15.0,7.135619323208327,21.26557364002281,14.129954316814596,-14.187463052113378,-3.4703195275979364,17.73312954589033,-8.841614323971198,-14.935007408948112,9.945582133620901,10.897173434788854,13.148887973918926,16.32295065047758
-14.0,-0.3426612747043447,6.573804866848086,6.916466141552275,-3.0973691128026397,-3.679392666549775,6.700964545419206,14.333665979332569,13.943671682374312,10.780728131744631,8.155998412341527,4.485947644802861,3.8531536353060716
-13.0,-3.112594909270112,-13.323432624062065,-10.210837714792323,8.243064305460031,3.577949985071344,-11.732795941739273,12.073538347408974,4.823505111368421,1.1409384580936908,-7.245377543384309,-10.573929602280748,-10.60398239148249
-12.0,1.8814779016716474,-12.541388971874724,-14.422866873546887,5.283570955712336,8.179885764873227,-13.524842286540498,8.827022523113008,15.30975650674369,1.7149516992465026,4.638703719771632,2.1763584590779583,0.9031869745570233
-11.0,2.0725610143181736,-2.5783580106147426,-4.650919024933335,0.29129885882222606,3.388579445017716,-3.5742073912785965,-1.1288117801539879,0.9542714183144025,-6.760407655353665,-1.3664020332033049,1.4382013534994584,4.261108515979593
-10.0,-7.315484392888048,0.41427897292298255,7.729763365810883,3.4136645800429273,-7.574306858975463,4.119109904820877,-9.611863983517463,-14.043994670968027,-7.8977658611800186,-9.026794016719947,-4.915243198507385,-2.0896600520792226
-9.0,-1.5577689822494691,-8.926259242803159,-7.368490260553557,5.205648072419507,2.934072128827153,-8.171855716866402,-9.683613437358655,-5.823686044050525,-16.058135426779444,-16.53824103011582,-14.547395651544603,-15.131341483123059
-8.0,12.007609404201249,9.022535007347383,-2.985074396853482,-10.473826513897468,7.449286235681222,2.9994553093610588,-5.886618202418092,5.470147679641707,-10.521251366819648,-12.129500035196202,-10.122020536683097,-9.511119344508206
-7.0,13.134934058642704,24.221443211901835,11.086509153259698,-18.716518864992356,1.059929700476644,17.635692215536878,-6.148767793218832,-20.24175620792975,12.478330861150443,11.035078104579458,8.164875708370083,5.648412557943898
-6.0,-9.377839464168012,11.530687135602719,20.908526599771502,-1.0345534868864004,-15.1816664830151,16.19710704888354,12.537190322633133,2.7023837946428095,28.23468032017742,24.35327293059503,18.62340022578895,10.819385481290778
-5.0,-23.986505371895976,-12.637916996398356,11.34858837549824,18.358711027663084,-17.623070039897303,-0.5971034922218674,18.707611451774184,24.409124639852795,19.186876142541657,20.83202328565981,16.925514039363456,17.708508918024716
-4.0,5.607580651343827,-28.64118055922233,-34.248761210566,11.491662821156591,19.97524796301806,-31.487094448903406,-7.304843565632476,10.932155876980627,-13.331019575184934,-4.846135623737627,-5.8752636855966,0.8345360115804965
-3.0,13.276752412049408,-23.56030292892039,-36.83705534097013,5.124169624743883,25.024831108091103,-30.172280616590108,-14.483942826960224,-6.09581568939975,-30.36266202523045,-27.6731580222919,-19.988992227321663,-15.848259982976952
-2.0,-10.355885539797345,-4.670128758010965,5.685756781785733,7.500788975149987,-8.057125590249576,0.5274117193732692,-1.8732929321481837,-16.562146521522447,-18.656963845885453,-21.68468459162824,-12.072503467445863,-12.435994773819349
-1.0,-10.959424463956543,22.00831582620846,32.96774029016409,-5.535433427968374,-22.007482359890638,27.505974814151294,2.915082006424806,-13.566858109359375,7.839060656600509,2.2229629258065504,1.9250189509576003,-1.1566118357810904
0.0,17.777475066879802,35.26029120335835,17.482816136477943,-26.533548344792266,0.17324455371358916,26.314634108852225,6.247712823940701,-4.452096515943735,12.956543403022497,10.061833774658247,6.522283051983113,3.518710477275617
1.0,17.949867625241968,22.444815869956564,4.494948244714541,-20.141201730039164,6.746110936076577,13.500281373614675,9.723404654018584,14.642608701148985,15.692612210159822,15.796266775187362,6.3114805976239845,6.534928773562495
2.0,-0.6096386062008339,1.4316683269874932,2.041306933188872,-0.4441673625971312,-1.3096276732544765,1.6996673501634838,-8.960853895833434,2.769120990652567,8.243383235749747,10.592222210440166,3.011365807874094,7.388965818255027
3.0,-18.271254865201247,-23.756293967427432,-5.48503910222579,21.048363935714427,-6.374279044109711,-14.566442369329714,-11.03285865183264,-5.528185255647787,0.4857652877866776,4.109101432076601,8.046648269739558,6.618478943817179
4.0,0.2367991253521673,-34.17447739747692,-34.41127652282901,16.915282247429786,17.350910632615278,-34.30664521738672,3.58815362508821,13.862019450667646,-8.281023904308181,-6.800771211384781,-0.3348293834206695,-4.835746335797242
5.0,-5.884520428301725,-13.341692795427733,-7.457172367126347,9.632146584964259,0.7450739854651172,-10.40598605872044,14.299725356928032,20.585955884463704,-9.134546079188576,-9.99990751621884,-0.9916107809336214,-5.612463152471595
6.0,-1.7177165920955164,2.5403190150455526,4.258035607140732,-0.3942814359593756,-3.019109729928203,3.3950334376982667,9.912551887372341,9.287542946500594,2.4861527125061222,6.18217191795432,6.435357356175215,7.897240416431119
7.0,-6.295207454040115,22.162029747712463,28.4572372017528,-7.914331279668672,-17.40073445553956,25.302952837009187,-8.352343784058665,-19.38091844766662,3.1792202247043857,-0.20598343126280305,-6.646475592033456,-3.479845496533274
8.0,14.159924724996767,17.500534783369186,3.3406100583731035,-15.884772738575794,5.465912786434862,10.407489950235382,-13.350706259401978,-23.228758264237094,-3.9939545400623673,-11.164843765138285,-14.500537265040373,-6.918422809719811
9.0,14.850299019506966,11.26395816193189,-3.5863408575743865,-13.026473477769208,9.19312605328987,3.8174473543711294,-2.9559895190175975,-9.567429405798025,-1.9377737205026295,-1.6260850463617647,-4.244891184491795,1.17893193297103
10.0,-11.513880026559844,-16.434597221599482,-4.920717195039362,14.01061897731966,-3.2494358993695194,-10.628215652113306,-9.691116003959454,-14.291392643613507,-12.736984946620819,-9.630656815736515,-6.49696333941397,-7.206364366429587
11.0,-4.607965842715133,-9.022039944156084,-4.414074101441155,6.775838186926793,-0.13712346310021536,-6.674584277547114,2.1262384973704456,10.67016877613538,-8.201497341770631,-5.092673237814793,-4.23978572323574,-7.017630954310076
12.0,7.801220006424639,-10.716287538217422,-18.51750754464248,1.4180311006365827,13.188978267754841,-14.655564602975202,8.223325707865317,11.93437898294228,0.061300311418204245,-6.730562633134779,-4.587421743890259,-12.180169013648037
13.0,-8.399916774184035,1.1532331583112105,9.553149932494737,3.658794183698985,-9.033157511820402,5.31333132540031,15.681368428942925,19.642936837364978,26.5579922445394,26.221355170391615,25.311253047027215,18.584724686597486
14.0,-9.752058498610229,9.913586528129997,19.665645026739718,-0.05139961651348024,-14.690977381098257,14.828639980885166,-2.4194724570838364,4.413539481599713,19.003381020451563,24.570750804368636,22.11106008915589,18.45965182502242
15.0,2.7256059365391243,4.5089161881105095,1.7833102515710415,-3.6731873751471578,0.48937291097687385,3.1070496191035897,-3.2105790522744977,-5.789227711109071,7.219200425746997,12.632200597128884,10.564614498138477,11.727739332024733
16.0,10.82031889618685,7.449540682798275,-3.37077821338863,-9.117193062269456,7.119259639740999,2.0798290171740383,-2.457348877253632,-0.20684781972741817,-10.689481765230315,-9.804546310706264,-9.116544668822248,2.190390534751992
17.0,3.6810571891164994,-1.4805551332700935,-5.161612322386388,-1.0847967236088172,4.376296842145301,-3.3586016446142013,3.7088132243643646,-1.8601736938389761,-22.85323773676259,-26.497167617956094,-21.347652966515277,-19.553855083281093
18.0,2.619739531604186,-4.699114691429249,-7.318854223033192,1.0560017309895562,5.015754674679,-5.966889561006525,0.7334986778502905,-6.241321935098292,-11.407589851727927,-14.657976741870709,-14.138297339241616,-8.257685732672549
19.0,5.791154905815758,-2.967220743943986,-8.758375649759419,-1.392435533684374,7.255428166445203,-5.898575557252252,-6.117196641510375,-0.24513668210983752,-6.475516401790884,-12.337671545365668,-9.622640048302848,-9.41134926809705
20.0,-6.124538128592925,-3.9233157299068218,2.201222398686446,4.968723767162477,-4.171701716233679,-0.8175013630456545,-2.2511305383909246,-8.369550682105256,5.89108257275392,10.445418481463058,6.01022987281628,2.2718272186118975
21.0,-20.693629098641264,-3.9830474888205547,16.710581609821034,12.365050409373119,-18.704903447426062,6.328314070001421,-5.152990080415832,-3.352741160351698,16.527461706677578,21.06801808480285,18.84403664778088,11.294381735601373
22.0,-6.696986371237811,-1.9978239197919014,4.699162451446051,4.29663122449891,-5.700265133221506,1.392443397004838,-2.752828246440077,2.4195083476368606,9.366443378420893,10.049055555773295,11.127708107248607,6.726053960743243
23.0,6.1065057849081255,5.390681022880937,-0.7158247620273057,-5.721376899149909,3.404544290009306,2.2976160519892077,8.048345983163623,5.137616573592636,2.656738187665967,-0.3174925491788283,-4.9072983988334045,-6.109408092456764
24.0,18.3724668939953,4.410728591048748,-13.96173830294699,-11.366497503208546,16.15244938497033,-4.818843847135902,2.315366224018419,3.694471262577517,-8.966298250819094,-13.916267078154366,-11.41424784356673,-7.927703848838949
25.0,7.003827284691496,-4.677969051394123,-11.681796336086151,-1.1402820391673378,9.397206261302959,-8.147486072173585,-2.130285527095177,0.8766241486497535,-11.789968151090818,-10.641652712313054,-9.165830779960404,-3.58379339579745
26.0,-14.105925842226934,5.411082699212972,19.517008541439495,4.289479787081323,-16.845413550756867,12.495248919995545,4.2546019058714615,2.8354849916146,-2.145462361628142,-2.61699690097313,-1.1335415833158988,1.9921448040739063
27.0,4.92065786042642,14.958805460979006,10.038147600552517,-9.919483945384524,-2.5222541511995065,12.531078191091957,0.5591822392335107,-2.571659967903218,3.993834102023643,3.3716783380232704,5.1052617364842074,8.473369153453588
28.0,11.952124074956464,-1.531412259714246,-13.483536334670491,-5.189069948284034,12.668964505835364,-7.549807209800305,1.3749024338158617,5.490522368520256,7.003707138977061,12.150375869269556,13.333299453852666,10.43292152649742
29.0,-9.877826911727798,-20.781543341309003,-10.903716429580854,15.274798448363828,0.5378104643216095,-15.879780308941458,4.398838903899365,2.4578376873736345,6.02451420865028,12.926282329190196,8.784060555563842,5.080889288759832
30.0,-4.936729750414222,-5.383757531794416,-0.4470277813798855,5.187700414508888,-2.2237449115594288,-2.8687406972193,-8.063562152635273,-4.83121305250585,2.1121494923689985,1.4529484380220818,0.835079322270776,-5.760842802156465
31.0,-12.337955601494208,3.327969296208795,15.66592489770315,4.536006896080262,-14.062321333995884,9.468310501914836,1.1662308377766957,-4.744947841462792,-2.2006146890575717,-5.92987081478456,-6.516866365501327,-6.574922583465737
32.0,-0.9188676425694862,3.186331550714653,4.1051991932841725,-1.1006630361831475,-2.4953881221534457,3.696684745183067,-4.40038411191419,-2.5325991942861616,-7.747098471102349,-12.7582810361437,-12.404782089584895,-9.961600812252716
33.0,1.4164045033248795,2.193090025599613,0.776685522274676,-1.851300032281031,0.33591676089151545,1.4547942838167818,-6.587700317358839,-15.4973302157439,-10.470628991398172,-12.762234126937738,-12.422257757918477,-9.29296779253491
34.0,20.647993633571033,10.965118664874522,-9.682874968696616,-15.857571897395827,15.182025071453298,0.6061229128609233,3.3759681218628916,3.744762121573083,1.1731443346990895,-1.5352935970451949,-0.8948303339501713,2.751291746722764
35.0,16.590933029492604,0.4185510535347454,-16.17238197595784,-8.484360313617366,16.3995220075878,-7.8394137567412105,3.6926815477259103,14.959715872367688,5.405084192424585,10.737800251758445,13.819400596830457,13.816601372550888
36.0,-14.285853376494197,-10.448328262353645,3.8375251141405524,12.379339544129227,-9.121294277629334,-3.352347992939641,1.4558823693257557,9.964794117239439,6.408163116311165,7.577539354192682,5.791202672384098,0.3644854608462662
37.0,-21.162363695115584,-0.954916268054677,20.20744742706094,11.064836178724892,-20.665278159989075,9.654797558103246,2.300147945220336,-2.767720051079066,4.061353971229067,4.406865655958979,2.8170981664311787,3.6967358463323317
38.0,-12.73373357663406,-2.1469977846413553,10.586735791992663,7.44514564441454,-11.64142738958952,4.248652580022779,4.402356281649209,-3.777479042396612,-1.1289340414978253,2.0925590960825975,4.746670390840412,9.925467969518785
39.0,12.58973529727911,6.958172292031431,-5.631563005247823,-9.764676567831854,9.12740609883516,0.6956477344080159,-7.968035313125379,-6.535986219698544,-4.340935329120013,-7.449925125724649,-7.993658638386393,-8.323686791026242
40.0,16.358485717059697,3.0344565656820883,-13.3240291513777,-9.677289379638466,14.77673676198777,-5.185826219529831,2.691374368260769,-1.2706637087608659,-4.867130160240313,-5.46472618774801,-9.398319092074889,-17.668662203686534
41.0,10.872490399250527,-4.697197619442988,-15.569688018693423,-3.134075807944593,13.23363746720129,-10.169453095935149,3.6833011439851946,8.225904090864434,3.028476683964545,3.610055116926569,3.0611315653149243,2.0086736718690545
42.0,-12.812761878905244,-5.067486767029705,7.74527511187577,8.985637244991564,-10.2657933753807,1.3844752255791075,-1.5837583816260972,-0.7155609083955599,2.407822343830142,5.164815086787918,8.99603340074565,14.03660160026168
43.0,-15.523357509331507,-3.641451585442609,11.881905923889088,9.55918245764566,-13.685287354272814,4.086903765899185,4.077413581180541,-1.4398654820902381,3.735821307581988,1.4493341784909535,-0.22562715889409013,1.4675181287800454
44.0,-0.7156908160814126,-3.522643050610891,-2.806952234529371,2.1004486794568678,1.070604149429494,-3.200820997505513,-10.40607704375397,-4.1751156835268555,-0.35220221962482956,-3.9535862870031093,-4.3513369950826535,-3.753267445449571
45.0,28.13309111151785,14.573646597767144,-13.559444513750794,-21.373885838922057,20.802459219087126,0.5459058274668547,-1.137469836032806,1.6145209221456274,-8.014515697892957,-6.596228946521697,-5.2144631925382905,-3.318493214289297
46.0,4.347792759663773,12.596564454520438,8.248771694856435,-8.421152433741184,-1.905325541196425,10.457754956745724,-6.255714117811273,-6.160912463435432,-3.909679184378104,-4.435896062799638,-0.6203794858843561,-3.2952319192477537
47.0,-26.284565674052946,-7.972072556948279,18.312493117104474,17.090184536999246,-22.32387442992989,5.202577364474821,2.203661595644406,-6.492009813782018,-1.9596494533897966,-1.7639238017028045,-3.412230449914089,-6.996580447964825
48.0,-7.955294736205748,-3.6288016212270664,4.326493114978691,5.821858607091658,-6.161491388703057,0.3006394310696332,7.154531277033335,9.2431703990331,5.298944891027718,7.6295222931152935,2.017563728597273,4.463422960913656
49.0,11.929558822113389,-1.8975919985989007,-13.827150820712134,-4.9947027485024655,12.858819767359517,-7.912178092886621,8.489765059956468,12.42785235286992,11.602275251593985,12.482769400161095,13.078592133060498,9.941080540797177
50.0,6.160790568995473,-3.597281558341268,-9.75807212733655,-1.3435197040035403,7.938401590948628,-6.6507584755623705,-0.6077304263660319,-0.3124976172569687,2.2178096475219915,3.2790267686509402,5.583997998611117,4.349262820236388
51.0,-10.400937141322661,-4.496742726856594,5.9041944144660246,7.466678841739483,-8.097107335082834,0.7279865388334557,2.4444563272243407,-0.1620351936494231,-2.5059981305364554,-2.7802255540392693,1.1410136713819423,5.628034158796091
52.0,0.07028226721044772,-4.677232339142422,-4.747514606353093,2.327059578445133,2.462790522711929,-4.691134684311425,-3.2717108361724625,-5.996094893674213,-9.696728640721506,-11.347584376913304,-10.249476337309174,-5.112528812035302
53.0,1.0650695233397631,-2.0256688124871465,-3.0907383358272154,0.5131497340332216,2.0525794883901654,-2.6185571813400386,-8.869262452041294,-7.528543824127139,-6.939396789285607,-10.273889147076284,-12.772478278865915,-11.087376502098703
54.0,8.895699179731574,8.156932179169049,-0.7387670005627089,-8.561584545116528,4.791871747871888,3.725392109796468,-2.8020738960105334,-1.8475133511071151,0.12714366929036203,-1.4631692791588433,-6.497547501596929,-10.763586017431933
55.0,7.6621627105815335,11.223039587078727,3.560876876497257,-9.468199883348603,2.0245800190898593,7.407319950061068,-5.230627283499637,-4.884772116014698,7.564678186449339,9.760664651177274,5.969032073895693,-1.3760655788896674
56.0,-3.5845642311448946,0.9746304873637364,4.5591947185089925,1.2862642565844533,-4.1000222958454335,2.782464395535695,9.218439620243537,16.31847828858605,10.725211881142844,15.03767383613464,17.286033770839502,14.925417905859321
57.0,-11.791155052440137,11.873958133945395,23.665113186385888,0.02191415392174889,-17.68090749980491,17.785971583979062,13.050457479606242,12.007746713122813,5.936649990511941,8.85690040114,10.692681940109438,14.80000802762001
58.0,-4.703039944464679,-7.425128824654021,-2.7220888801890375,6.048457140334541,-0.9472080840959807,-5.135045709302594,-5.1454329206529135,-10.169757913076563,-8.651067115784082,-12.500790089257679,-9.464627332031181,-6.511419805771565
59.0,13.889341555980103,-21.16216694034839,-35.05150849632843,3.6181044113514735,24.43132564284547,-28.089242292173836,-9.026689422269294,-10.633248742212515,-18.581954097826085,-20.050698743544334,-11.887854813525149,-5.661973339654483
60.0,0.1618931273116493,-15.281882770222301,-15.443775897534193,7.5379813015876636,7.76119446784303,-15.345687422774587,-9.543535479465604,-14.158153362729333,-12.364110228425197,-15.077570470999557,-14.249323813404835,-12.074887359314094
61.0,-1.382668911442853,7.556739249768748,8.939408161211247,-3.0334315228773785,-5.125039546525894,8.264444320692762,6.983383712911015,11.7360349149639,10.550478666608548,12.401187817866873,5.905236883049247,0.5567665632224346
62.0,-17.258214056758728,24.757380960371282,42.0155950171297,-3.7759569949627827,-29.600681631837123,33.323857009810226,15.472691560271802,15.068864378375235,28.103319385203314,28.661503755553472,20.71203991384909,10.852607731589938
63.0,0.7658531285762118,8.313960625116694,7.54810749654035,-4.564896631433346,-3.43260969688626,7.9483427188107445,2.9073983093648597,5.52485150740767,9.93549405768347,9.890902248172846,6.04375785300411,1.1975356222090952
64.0,7.846813655149865,-5.616235181573849,-13.46304883672372,-1.0576711410156125,10.693328302414006,-9.51916502090813,-5.446517580112552,-8.330925208058549,-4.1019016377757564,-4.4447482511708865,-0.09836750735992705,6.166601484335581
65.0,8.740980269679378,-10.180630769728507,-18.921611039407814,0.7040740400633518,13.79156191429643,-14.525792791424003,-8.193294485944893,-2.279159255739627,-25.55336246642197,-24.335521823254183,-16.97710292929074,-6.414626050739251
66.0,15.785265276134464,3.083763513064798,-12.701501763069626,-9.444821736896532,14.203636447497173,-4.778274657072263,-11.80706226315715,-13.2783158795825,-9.424528403254394,-9.566822518761757,-7.613784049052929,-4.378659735368492
67.0,-9.428619029438908,-4.135466059509933,5.293152969929025,6.775796935987867,-7.322131248999012,0.5345487020556403,0.6587065482576859,-3.41983309529277,0.6885975887096185,-0.2438930590795687,-3.8359174904998836,-2.9816237066804936
68.0,-14.068190209235235,-8.435012923216163,5.6331772860191265,11.24714965904712,-9.811821822635928,-1.4442427518058507,4.055652150730258,5.964830322504157,3.494834747777604,7.3401332836638,3.071802595590864,-7.926135424439513
69.0,-6.276511390575122,-4.407403306246403,1.8691080843288939,5.3370182390481204,-4.11195163735174,-1.2359037617159148,14.40437745195165,12.788028096405522,8.423568796180449,8.078926078088216,7.783453268467156,3.8166356475218404
70.0,4.546366108627988,-1.3799802268982257,-5.926346335526154,-1.5901198571312518,5.277012450389083,-3.7027053118135322,0.45142184518226713,0.03413393428234368,6.98914559412129,2.996502196071863,6.473740503537233,8.88603439766581
71.0,-3.491513905059936,15.971792207171577,19.463306112231486,-6.249433562575652,-11.515009309510347,17.74322543181281,3.623832325967331,9.158599465060496,12.136238291976332,12.576031677351775,15.02015810804406,16.00588025469851
72.0,10.357639261938045,9.310452266497661,-1.0471869954404855,-9.766494482044326,5.7426089522550186,4.156580382638853,-2.3767378711276246,-4.8443333514292295,-7.612007594990712,-8.196907159309799,-5.997655388257161,-1.9580278108381597
73.0,7.2774135763030925,1.4750382615424096,-5.802375314760727,-4.388756303210256,6.498607972749714,-2.1356009832421057,-10.423570873680404,-11.315657004573989,-9.973193029874066,-9.225667556186101,-9.328159664509332,-8.195266465790464
74.0,-6.812178827040543,-3.098941150340881,3.7132376766996638,4.941645299873923,-5.30785674360424,0.34135918435982493,0.01725507843136409,-4.437775084969826,1.088391364955947,2.4060223486954477,-0.7301865018540736,-4.589974339060745
75.0,-6.303416355373561,-5.390175709000352,0.9132406463731648,5.830568883479355,-3.57817344478,-2.27616898812986,-8.249062590150887,-9.226991550026407,-6.46741004199858,-6.208572077327644,-12.955967218620131,-15.091304896432895
76.0,7.756920458806911,-0.2559092505953249,-8.012829709402306,-3.7704361613702124,7.913806189226092,-4.167146577339623,5.60672801425205,6.045943633577618,0.2351079203323172,-1.979941753221567,-5.493115641257141,-2.6793107598965262
77.0,-6.789295780801671,-3.9207134125278884,2.8685823682737484,5.330318708015643,-4.797854767856947,-0.5572820611539955,8.82293008517793,11.127183139785505,8.874831703592495,6.972349080178645,9.90629752646569,13.272418987995284
78.0,-6.219275203602878,-9.210881880866893,-2.9916066772639773,7.764323055708731,-1.6561430892504798,-6.1337537515606755,-2.523475269293171,8.16411441640846,-2.2494666837459327,-0.6770401541325928,6.8038610962655675,5.930647984174085
79.0,13.746960520658472,-1.1463717164793383,-14.893332237137761,-6.254875909546842,14.36361218818986,-7.975626409547897,-1.604866419251345,-2.980598478123741,-3.9896118912535723,1.9342440229160394,9.014569486845549,5.381222526971895
80.0,6.997660397434073,-0.17636506921942852,-7.174025466653343,-3.446271865874934,7.056986689726631,-3.631271509893608,1.832015690090237,-0.27244797417712263,-3.7792262521694795,-5.0487661640592965,-6.180182161001778,-2.2894306476855357
81.0,-1.5374057561087908,6.25045680531406,7.787862561422995,-2.3931056060569444,-4.687675157926365,7.065720311451744,-5.593946915529142,-9.299084778211418,-1.1119182734764446,-7.6305783542832515,-13.591571332327545,-10.48721125772634
82.0,-3.988179699998775,14.654393494932549,18.64257319493151,-5.291287118621865,-11.340134705365552,16.621101721352105,8.507233737850921,2.050478305293585,12.588509859867722,14.159191731921371,8.525720961331274,3.296696691563013
83.0,-10.689306709492614,0.8738456936583878,11.5631524031512,4.870169900974139,-11.074983106470945,6.19575647137413,-1.3196626500297257,-6.582094405481774,3.4980590444145485,7.0313521501373275,2.8789621271403263,-3.5404410897068095
84.0,-19.50961602904569,-1.735170093685666,17.774445935360177,10.661937582620418,-18.673686804240436,7.998811746650373,-5.0446620785234195,1.232109336469339,2.80717363894234,3.8931967167340726,8.429233224268076,5.680048178506254
85.0,-6.6077874933303455,-10.360828073983399,-3.7530405806531304,8.442010912607344,-1.383834752156937,-7.079846075061987,2.6485232395524974,5.094042832761361,0.5378374380491624,-2.5774239673856147,2.108609316403767,7.364138409862992
86.0,35.386636459984054,4.856297501037716,-30.530338958946572,-20.089645233277587,32.9219205398689,-12.86523010681765,0.1428829411605924,5.903869119978631,-8.421991436014977,-7.35334339198519,-1.1501368187517915,2.271087442957576
87.0,30.734834245494714,-0.5840727130814143,-31.31890695857633,-15.049491056292027,31.070578462799105,-15.906901076316696,-5.392143826426178,0.8383549789489422,-13.040505100207564,-11.145702749876648,-14.469179145192484,-10.513481453063884
88.0,-10.946934680047892,-11.581965698211986,-0.6350310181642307,11.204931396182428,-5.186954475357114,-6.0673980564053505,6.015508034812806,-1.8805141385248578,-3.2366710001358534,-8.617181739215045,-14.002757885028682,-7.778626696792234
89.0,-24.602136528070645,-8.533972891365444,16.068163636705243,16.58080228523811,-20.36078639352668,3.7306219685269495,0.5583112918492377,-7.631728463278523,1.6474155726791868,-1.4186501715810056,-5.290271731058539,-6.595880901111557
90.0,-9.255280621178565,14.020903399894305,23.276184021072993,-2.3752537160691904,-16.20749700959226,18.696921245844486,1.0702436239130528,3.330817046534156,9.367588825038005,12.582386430767965,14.847527475540051,8.3891756347413
91.0,2.68876731460516,13.145255928581346,10.456488613976203,-7.912289840162312,-3.900950970970456,11.77969578960904,-5.26942811168032,-4.183415848805276,7.919099761104776,10.57653330907192,17.49624369919865,9.711840157252063
92.0,-5.535366735351731,0.10693158613396392,5.642298321485562,2.719095678917296,-5.605057559460032,2.8625295585294035,-1.7547576820763062,1.4590193658970319,4.075407261580077,9.664946938331902,9.33384461028985,7.213503495419082
93.0,5.801250815490982,4.394004200931248,-1.4072466145599964,-5.089644632594098,3.5863926095484757,1.486942704626621,2.967136331316988,4.920572839567818,2.480929381175641,0.50866278948887,-2.2241577851735403,-1.6707869981479355
94.0,8.335964326961046,-11.024385770908234,-19.360350097869603,1.357519340840243,13.827186674672413,-15.198829814882457,1.227337992493398,2.5145586149289167,-9.263823356292148,-10.2300061338264,-12.556469744499914,-9.602502891478647
95.0,3.877940564313894,-16.50037220793288,-20.378312772247007,6.252171298361972,12.18286627835012,-18.45185200344446,-3.1232600537555744,-5.466261248013,-12.279981878968353,-15.860302469227516,-18.14961617432214,-9.787077737831945
96.0,1.6074360137779466,-5.478300124670563,-7.085736138448381,1.9614093753442177,4.320986407320224,-6.304998558865677,1.9721547733240894,-3.4714518775764,1.4039770562419083,-1.4548101287868924,2.1461188051649245,1.0020314702044644
97.0,-7.521211657914746,6.79896162977154,14.320173287686657,0.39230359733792025,-10.86717839965073,10.603330360744739,5.0069436840299675,6.533786703794482,10.180967250440812,10.490787499752653,10.8318638536715,9.38004456681589
98.0,4.954178239012633,17.684060017471218,12.729881778459127,-11.363130347793488,-3.9114108277959607,15.240283047779249,-2.3362500949068963,2.2535067208143293,4.193373836718614,6.904794419285311,6.06763611009703,7.959328369710823
99.0,-4.965842829711478,8.424270765440284,13.390113595152176,-1.6927546087369567,-9.20001963162078,10.85510038990725,1.8335818604598986,-4.0794928202300085,-7.7854326455710945,-4.648007720120621,-6.590544312895613,-4.566952240283518
100.0,-0.02156347931334457,-2.145117728376161,-2.123554249062817,1.041053386839035,1.0287208285735474,-2.1097658539243795,-0.9178439232078657,1.3018452687739772,-3.1568725769717365,-4.5098641483942945,1.775628600487705,-1.6622482268504402
101.0,-11.691057507883388,-12.38831233979504,-0.6972548319120115,12.074814989560377,-5.443377709518983,-6.5164698258107645,-3.912300736089137,-4.3222333658984535,2.2906271836158965,0.14581821851860743,1.8447117096328383,-0.45887110014738886
102.0,7.066263391971741,-3.5052245449732906,-10.571487936945585,-1.7474695240080305,8.788084379989538,-7.086984570089184,0.7527164646196587,1.0241218588266083,3.282467979162797,4.783922573641819,1.4393493851984192,-1.7026459273988201
103.0,10.983343312628078,9.606181721890646,-1.377161590737943,-10.342502731549239,6.142488644294831,4.148461322164382,-8.393659557518642,-2.282720124521412,1.362562253975375,1.7425828558707703,-3.099597529081134,-6.287480692137554
104.0,3.505452476723077,-3.116857722396005,-6.6223101991193305,-0.2430606851468422,5.098412353903775,-4.912066532974777,5.669244054897906,7.181589744677341,2.347897889928543,-1.6788130901451783,-0.9655779572213623,0.06208885744607451
105.0,-6.514474433299745,-11.230925359083535,-4.716450925783671,8.903677150357822,-0.8684544928596929,-7.93710078735335,6.798805407917943,0.9501698081618386,-1.414524288733218,2.204116670640375,2.871046570450254,6.055083953713602
106.0,-1.181241290495235,-11.3804370709222,-10.199195780426615,6.315397908852412,4.4605380265235555,-10.832959285328538,-2.368243534990518,-8.65375722161547,-3.517972469137197,-1.216068587238424,-1.161616004835623,3.7740689296566594
107.0,-0.21103290563589727,7.544265835806748,7.755298741442949,-3.626251922789678,-3.949379296150574,7.6846530182510175,-2.7867961006260193,5.978800903839534,-6.823693588866116,-7.2100641830110135,-6.964731411905795,-4.599327872032053
108.0,-8.367464806890332,25.05531857618999,33.422783383080585,-8.37577891870777,-20.85546541337273,29.19638171640753,7.22420089868708,11.096557779922238,10.01315797845178,9.894159084391099,9.17453074701281,9.62928390105693
109.0,6.11078819362238,11.807813922785737,5.69702572916345,-8.986090773632943,0.17387652883110682,8.792691256343215,-5.144949085640459,-16.356210580551757,-4.334942107151065,-6.179576589791263,-3.2516165459022544,-6.224445701270485
110.0,0.7601227671678603,-8.958486010165542,-9.718608777333472,4.073958183477005,5.210488162547867,-9.291382600178181,4.279690369268086,-5.520778857316925,-0.7306566141945716,-4.336642418043984,-3.0339349349939564,-7.054319646434985
111.0,-5.5435139449533635,-21.526314404667627,-15.982800459714465,13.585505024051338,5.1916740694498635,-18.77825639699865,-3.8421701584392562,4.866748447129062,-1.5780626222494976,0.5185634533745294,4.996261843292153,4.309509471438472
112.0,-3.6240264328188334,-19.023497631587126,-15.399471198768355,11.288594168213638,5.936347297752703,-17.228870538019994,-9.712693189579381,1.1574651003617102,1.8336505075682643,0.1715476838670118,-2.589658219958659,-4.088842150097602
113.0,7.675247313609704,6.334757379459685,-1.3404899341499572,-6.970743868215011,4.47392269637708,2.482141815059217,5.4473565622778235,10.94416080622446,4.596269779879521,5.398974301906581,-1.6315902066412984,0.8325212998489984
114.0,7.633409862513036,17.747074017536136,10.113664155023182,-12.743790127607932,-1.1988898038070013,13.912787111444263,-3.7369174479480223,-5.037854779584212,-2.1276612742596805,-2.0249237323265263,-5.8540496752427975,-2.5984541102912027
115.0,4.384857072496226,27.98309360960504,23.59823653710889,-16.164907675022533,-9.645989159324134,25.766210474934898,3.997945204565773,-5.901417128465286,6.287404365210419,6.927959546211079,9.45037476409155,11.003141830132918
116.0,9.06210420691932,10.760660336118887,1.6985561291994973,-9.893639326738025,3.721646172140018,6.274884372520253,10.758898555356003,8.333900424441268,6.887467133712885,13.34887188929051,15.295118455792952,12.653966511452488
117.0,-19.876074592434943,-37.48774131941347,-17.611666726978747,28.703557965615865,-1.0905784594609114,-27.512988468651933,3.4497221985595394,4.172971131787903,-5.459835053986413,-1.3829644396289194,1.5996297386385256,-2.068712622484954
118.0,-13.110747834930109,-32.335581996812536,-19.22483416188262,22.752683132966794,3.021237479387488,-25.82835925175767,-8.842797968507167,-12.019809565912201,-22.109492143943807,-24.858044226505687,-22.202506653314053,-20.244732756651402
119.0,1.2551048252547012,-4.150261864573672,-5.405366689828405,1.4076657089720221,3.293568111821659,-4.750221578252077,-0.8782206782877671,-5.738233994917202,-9.25630611951275,-19.33600101324998,-17.39413539391428,-14.40188158996158
120.0,9.13778741366218,23.694229913934635,14.556442500272606,-16.44789259148081,-2.749800846343607,19.15232645593865,-0.5030950712905367,10.393323271515808,12.091593129562487,4.033717747514162,2.733497042355637,7.391413503754067
121.0,2.490030491188934,21.283723126410575,18.79369263522184,-11.913914300526947,-8.119633325600661,19.987197252566148,-9.578116345122538,-4.447861388712339,11.498783212872922,15.743525322421885,13.005606917855955,4.152575094004883
122.0,-0.3932234578699605,20.74534724689039,21.138570704760383,-10.123139294942622,-10.740301172938167,20.968748848417327,-0.2101373580956638,2.0492399743325533,15.158341960499811,22.87003353029083,19.377555731967977,11.881249536182015
123.0,-6.0889030671636775,-2.964261980801176,3.124641086362397,4.499168742272612,-4.586386543975559,0.0263305080101901,3.745141172855101,-0.45824493625784335,4.716003073708259,9.720361550651283,4.6215173820007625,8.00442814409804
124.0,9.836643373483948,-22.51563062291787,-32.352273996402005,6.387909395760946,21.112214939391922,-27.41196676612263,11.650149230694275,2.2685418975957417,-10.406610443229138,-11.183501086185672,-7.102818139648455,-1.4319970659907773
125.0,16.27606621514755,-18.83006179100456,-35.10612800615229,1.2437512420650227,25.630149496806908,-26.94856284895823,0.7624074145602249,0.24245167131020295,-17.48256022017986,-18.333040725792344,-14.769176968887257,-10.309905250350614
126.0,-4.360463590192686,5.8494209846306475,10.209884574823214,-0.7010919224597725,-7.265423420035626,8.04902343004235,-0.7807764305484954,3.9163106152192566,-2.9176503505046245,-6.622336868114589,-4.931036443871813,-3.3596337278575934
127.0,-7.746953792311201,10.361346273199466,18.108300065510623,-1.3436529719244694,-12.905116793668089,14.17902199764943,-5.803999094923274,-2.8948655071829377,3.8811534195668362,1.2169940602780214,3.929782976266873,5.645734832673365
128.0,-20.872024365033713,-14.452869945844267,6.419154419189452,17.62587008997078,-13.699144016831815,-3.98615029201045,-9.266184406635832,-6.405084260653179,-1.5732974188469675,0.1707447312937826,-1.614446343942623,-3.708445278866515
129.0,-3.8842843579465036,8.843276724461147,12.727561082407641,-2.4365148676993664,-8.278508345161441,10.827215679490461,-1.2748945363772641,-4.847163922147487,1.3265199472717857,0.06305140489893057,-4.74689008478361,-9.452118766840378
130.0,8.109559806366896,10.559153035776347,2.449593229409424,-9.368381650292028,2.8592616796870622,6.4798266297729175,8.288922476307516,9.17392042312025,12.140769928614914,11.872837885287053,8.004684123440788,3.8094594112824893
131.0,5.973051200649626,-2.520406041415203,-8.493457242064794,-1.6790740707349006,7.185707875753873,-5.520376113869853,6.308282554917839,5.313176186461986,2.821113951751877,5.215596284112952,13.32756204512678,9.809818783770952
132.0,5.116873198485468,-5.833654959724745,-10.950528158210139,0.32961258861708664,8.067324843667269,-8.398131389798111,2.41957740979602,-3.6240673299297397,-0.8954329016884897,4.795509284157655,6.854005329897843,4.079685964350378
133.0,2.019578582556105,-1.3922426435059057,-3.411821226061881,-0.26183088779557595,2.673662027269862,-2.4057301606478427,-3.308668831928002,-2.6389210835466606,-1.745710979865881,-4.169175545346818,-7.734429173024623,0.06571542184520629
134.0,10.544626721860585,5.295610471986296,-5.249016249874158,-7.947248143143577,7.936990754534516,0.01695948848760853,-4.019041942595366,-0.45116411459005157,-1.9081198769839367,-5.942352650715193,-8.82857681779474,-2.9512590418127367
135.0,3.364541402650102,7.028005656484856,3.663464253834823,-5.226509798027487,-0.10627712524992838,5.333195315188301,0.48113465185825754,8.27207336108585,-0.9549524465481727,-1.9413800583772183,-1.2305649251904356,-1.4106937214222133
136.0,-10.322587608650192,-1.7436901630002553,8.578897445649915,5.997053580347363,-9.484811037975469,3.4762448645928616,-2.9545518433587787,-4.514295294989941,-9.159817279070383,-9.686108298535379,-12.129126876678406,-6.816824993903919
137.0,-19.655403909638594,-4.617484203081452,15.03791970655708,12.171740014294665,-17.38155311533978,5.183395198822453,-2.688044249353638,-11.93980922553158,-8.906936355238528,-11.18365761791971,-7.590985056182036,-11.042580917755366
138.0,-7.8390068536889235,-15.375322635680696,-7.536315781991859,11.63542015867532,-0.1893552972960446,-11.486902766359812,3.0847586445771418,-2.3010406181071184,2.313003010355059,0.9535459794586234,2.767488848764456,-5.741309998236794
139.0,9.428113709768436,0.5019871857626157,-8.926126524005904,-4.941808619265449,9.213445643416971,-4.165619920722957,2.6223018503459894,10.429299437129593,8.79026376603201,16.289584625245777,18.135458459803814,17.541931218207996
140.0,14.58999665199359,13.234483919097016,-1.3555127328966208,-13.969830225458646,8.004897447782012,5.908518387028526,1.5130985099576808,8.927231093425924,18.739194744453066,26.219308992217606,21.670816321505875,22.94057995495812
141.0,3.8316077617893924,10.16842110657336,6.336813344783969,-6.978107157881915,-1.2231276522514056,8.302906643074706,2.5313386605858534,4.479389122899294,8.784766991587961,10.202332816818211,9.239435119023518,9.373044730201206
142.0,4.454796805767801,-0.4894956265448096,-4.944292432312608,-1.9580775486434394,4.649577854383825,-2.7434546264384885,-3.2660995883744914,-5.249339744454689,-16.70039964697431,-23.45682742970893,-23.96346823815851,-19.8537066832685
143.0,-7.6606500069362085,-15.941249826426343,-8.28059981949011,11.750060576246824,0.3396401472783894,-12.13771840089984,-10.259064933867034,-21.5856644011309,-18.513276209699068,-26.91180198367183,-23.218336676108798,-23.396908405820742
144.0,-7.923754226645039,-8.119754888355565,-0.1960006617104837,8.052310860602422,-3.9113455830223804,-4.187717491548138,5.836328041356281,6.3795450914699074,0.03152727095728736,-2.752052800816827,2.575525158582124,0.07680229334891386
145.0,0.7087873371730771,4.298592608863723,3.5898052716907256,-2.471748990147609,-1.4076185680392181,3.9876493414884804,11.428631848887935,13.385776066359982,6.83003751369426,4.954933479169582,1.9378989766631158,5.1264026505729
146.0,7.074518301411167,19.420185584607957,12.34566728319684,-13.294032079852455,-2.6801553734286,15.91975278227034,0.7527231739326021,3.846825313215879,12.743365473217484,16.624865049811074,14.645276257693457,12.686129131243929
147.0,-6.2936372072802875,0.3490773289191864,6.642714536199534,2.9253516120863194,-6.4329936045338165,3.447780973085843,-9.09623824266859,-11.538322478254262,-2.9987011571122375,6.1849479000732455,1.0700152891864168,-0.47276901316167574
148.0,-10.386982443107708,-11.909640199912046,-1.5226577568043411,11.180903271470457,-4.39604610329903,-6.689808577665229,-2.298494564710982,-2.9424785400695725,-6.789456718648256,-2.5408443132846283,-5.591298279332554,-7.837543352940074
149.0,13.778113031781995,2.158491804617915,-11.61962122716413,-7.932687867645671,12.657141436819131,-4.784368579592412,-8.796050233927753,4.9722572770167295,-0.043062574190822156,1.507231664607307,0.9583760684528171,4.224388785550457
150.0,7.39363242113286,-1.9880120357311595,-9.381644456864054,-2.661616795014613,8.425441481724256,-5.658071562685569,4.18300710157302,-1.9919998293193568,3.75455630336369,-2.6134773354194425,4.626029177218223,3.0941849614457686
151.0,-8.369522459816015,4.682080224482247,13.051602684298311,1.8133074588389537,-10.7508997415983,8.898020460119415,8.293421832768749,-0.6093291159653579,2.003955936645463,-6.576499287487367,-1.1972207009800304,2.6645615398532088
152.0,-5.0962676113626575,-0.7043804152194988,4.391887196143275,2.876669019065479,-4.783698608574447,1.8804548408727293,6.262304315629768,8.37854576809112,-5.093523449349196,-6.1481075371550125,-5.783714602563095,-5.829003333838235
153.0,3.3922154356054204,-10.634916146916748,-14.027131582522033,3.60202921986357,8.75022308319163,-12.368504082992427,-4.37001161078191,-4.67474972546629,-7.211086245481449,-5.534391243421463,-7.054396072693779,-4.418134791523087
154.0,3.1479620294146153,-4.467002821653271,-7.61496485106782,0.6408306543616069,5.424734043042303,-6.076663228940249,2.4417382601883513,4.273346107360831,3.553531807713613,8.484114585947966,5.727113311624114,8.770620156907125
155.0,6.365537418373501,6.898441109073483,0.532903690699974,-6.575131433686762,2.8849835749262023,3.6782797927085875,-2.2103929679564125,1.6219066848101642,9.875375520972847,12.441805322812842,6.861178122550467,0.343752294049419
156.0,2.2843427970190504,11.826835426378182,9.542492629358973,-7.083672337095689,-3.655463631510331,10.721456755912467,-6.306535410564376,-7.37782932104294,3.302095340145961,3.628750393547141,4.435782939558058,-3.9706959070471437
157.0,-13.09409993456062,0.4247414394949969,13.518841374055441,6.377531401246723,-13.2496533311125,7.002852017328135,-4.519731486086732,-3.4114044379649657,-0.8882980510497991,1.677734658277096,1.8335494235709284,-1.5087609603176713
158.0,-8.400917186325586,-0.8446330100463884,7.556284176279095,4.578915934036309,-7.998094388300769,3.3818351634817656,7.117695898887979,-1.6223254264373304,-1.7358966052247773,-6.422046021882963,-4.848323446702475,-1.1952539043675312
159.0,13.137184928428493,-2.6589318661069794,-15.796116794535425,-5.210962417664598,14.446394163438324,-9.283406298104133,-4.88093906399179,-1.0865041683611796,-9.582887095290056,-12.448463264385053,-9.270991958674598,-3.0286798473453986
160.0,-5.614163045803566,-0.2878348410973244,5.3263282047064635,2.8961210866040377,-5.494761215786531,2.541162955978674,4.622692688010443,4.5830211146320385,0.23235343813687326,0.9106340585104045,1.2166077080449877,5.62366872986804
161.0,-7.490182563721607,-11.690948999464158,-4.200766435742233,9.613461913553463,-1.5973511769018942,-7.923224841551539,3.270388665954297,2.3609605868288956,-4.769977395349937,-6.825113802538129,-6.104234584243202,-2.2720826250276707
162.0,-0.5580630570130656,1.4949531211872475,2.0530161782005303,-0.44291502657140924,-1.3445205942282268,1.719335682255426,2.024811446222139,8.523690445401444,3.823636187210857,5.001797996342132,5.049503484763504,5.771905258535814
163.0,17.34486932281004,9.794083785968962,-7.550785536841124,-13.538268392202312,12.481708097246893,1.1470947929059772,1.1227017350827357,3.492391752267415,3.195634162460312,4.328889310025064,-0.10587497302589988,-2.499478968010824
164.0,25.724798291801235,-0.5265784021782416,-26.2513766939798,-12.63938338262632,25.941200213775836,-13.362829172407466,-6.672524538260153,-15.301897976640126,0.02009210484553714,-0.8212321537381175,-0.006741457972660125,-4.611367147121343
165.0,-18.368015893322834,-0.18885361935461864,18.179162273967748,9.24502014244542,-18.238678192289466,8.9425792058996,3.16538817951595,6.220264805216767,13.126945039940178,15.722270052452338,16.061560617649036,8.154323219979787
166.0,-19.60162086485245,-4.1462716193013005,15.455349245550774,11.923764798072398,-17.485751293684814,5.680463430596043,-4.897659047903269,-4.724006800673427,0.4455936684626032,4.160403042471977,5.398505531728851,4.246648090395036
167.0,-13.890884438313138,-7.4462472227070915,6.444637215605951,10.640364047507996,-10.193021467722781,-0.4747556477704986,-10.174270622300568,-10.251751843772437,-13.158181477934841,-13.42867673267646,-11.930044113643474,-9.880364472634144
168.0,12.401136697138918,10.100341468395552,-2.3007952287431124,-11.203627095531271,7.336509370166364,3.8482273919562036,4.91459834630283,1.9229439041051157,-3.4859250642825446,-2.835260381582062,-10.21553104316692,-6.312684870091454
169.0,7.930532044303309,9.351284206586673,1.4207521622838168,-8.679403889430517,3.248305748556073,5.415828020536005,14.911657740990695,16.383515748414876,-0.24970568700024387,-4.427920752856561,-4.432574545516071,-2.387124191149069
170.0,1.8796026501700833,-1.687142826433699,-3.5667454766034483,-0.1431257203858003,2.7194587941111186,-2.5930462854240597,1.939248187577971,3.728370879188324,4.313276416827752,0.2257884109985291,5.216673224901029,7.906283299613207
171.0,9.013662596505903,-9.465572781805044,-18.479235378310907,0.25051952663186094,13.740087955330445,-14.012065918917255,-5.847885491693443,-10.838433096860374,-1.550973805580175,-6.097279230992809,1.4223387870497592,1.9092172384711819
172.0,-0.2735137522886619,-4.430641783164552,-4.157128030876205,2.3731164316069884,1.9284169834279599,-4.327948601810867,0.5978631402220023,-1.2897010240065745,1.8101901882319504,7.122336712477636,4.933708950520787,7.613775367626771
173.0,-5.78777913094606,9.270112446308175,15.057891577253757,-1.718212246481995,-10.366568193896985,12.213814584826391,-0.6841727751116449,5.5988618658607425,4.979835083299331,8.410800699763504,7.740228226952643,2.5931682492605272
174.0,-11.94884156417716,-6.426814132556736,5.522027431620069,9.218127125029675,-8.766333929992696,-0.4776754110083239,-10.111371417551206,-3.1213464936880886,-3.8822863356006487,-2.1568541909809964,-7.707941635387413,-11.281708124640007
175.0,-17.85675164877267,-9.531927083587522,8.324824565185047,13.656930208350309,-13.127076106719608,-0.548972637535126,-0.5690604372289614,0.8544670927139619,-2.7251052919355105,-1.2344937756260648,-6.186276161335356,-5.756792035416543
176.0,6.275738356988168,7.918007757610864,1.642269400622772,-7.122305715621105,2.358158174661467,4.753570627997751,0.9836284441977136,-0.9643783491977549,5.164287978043282,6.043335784600984,3.287803644982217,5.504967582723345
177.0,20.25333878734325,9.6551749580171,-10.59816382932592,-14.969554191564109,15.47043262816554,-0.5044063792554079,3.2507620558214536,-3.209675570385875,-4.8782014307749035,-11.057454712537279,-3.8907254385835786,-3.3505518033571695
178.0,26.86916025528836,4.398134474699801,-22.471025780588345,-15.642647870157958,24.642222723204814,-9.000328591272174,8.906816117853351,-4.2042318266400365,-1.2148359333561314,-4.811352036151284,3.0476566633593287,4.581735281435668
179.0,7.555613403742049,-3.997403632138828,-11.553017035880755,-1.7078500148486384,9.533489584721982,-7.829106459925974,6.211471894155165,4.987835172042515,2.6912196034942744,5.209720159214826,3.5067213036348504,0.1750811557064731
180.0,-29.269269067005418,-1.4354845845190036,27.83378448248643,15.341539041013334,-28.566430782150128,13.214054791714686,-4.213685166147748,7.513236545287489,5.6345026901616695,8.548197790526919,6.38665982304608,0.7524741219194997
181.0,-16.736730016959076,-7.063063019644573,9.673666997314399,11.88149416882423,-13.216407540836013,1.314668387145617,-10.11086938395989,1.4077253086544568,-0.49962551427276347,0.06537978336396266,-3.004084191192651,6.687543333526995
182.0,-4.208285289903731,-0.025832795664550545,4.182452494239023,2.08811883914744,-4.205121636977145,2.0887915759441467,-2.998304848978986,-3.10854237670633,-6.243986697338325,-5.2511433030909425,-8.051506093483868,-6.954151164102706
183.0,-2.2984888045327545,5.917080728460337,8.215569532992934,-1.7711246358744184,-5.188087331544702,7.08498995642154,2.910866333952053,-7.180214463178785,-1.1587506647534895,-3.9001310652718395,-2.438778208840504,-5.482294802382402
184.0,-8.80059712984152,-11.314956998508723,-2.514359868667272,10.006773062987916,-3.1536563326215146,-6.88255568267811,0.13473905858888724,-0.3586340943825004,-1.5140425213705395,-0.3517725208129008,1.6019962326615564,-1.176604284770268
185.0,9.472227416970181,-8.330959220182288,-17.803186637152407,-0.5498441590499836,13.626247981217956,-13.0986213702243,1.7223838500426338,2.3048600448311816,0.04979103187086281,1.768155239476799,2.4270949466999183,1.3319503783224145
186.0,32.652152379427925,15.282968000571072,-17.369184378856698,-23.94876770614289,24.998167008456072,-1.0620836032334777,-1.3102911506786652,1.188427904958183,4.438415145640727,3.377980325868672,8.113443048780299,7.630208364131447
187.0,13.910050811946855,11.306329434103827,-2.603721377842847,-12.586331779664354,8.243133327983957,4.339056609734442,0.08997795183581991,-3.9139170277372637,0.3881161617971487,-2.4690659938830484,-6.156777548517047,-0.14810746561559673
188.0,-10.993284161801219,-4.214775095668722,6.778509066132584,7.632575476233802,-8.90109861326485,1.2691547812865718,7.901101872993209,5.444568205906055,-0.892654645461417,-2.974591888098779,-5.836816405305799,-0.84331203550598
189.0,-19.874913529332595,-5.678294122739121,14.196619406593431,12.734222297575942,-16.973707782261634,4.239700956335823,3.3280517336176425,8.776100368893884,2.717476319604012,5.538731663988997,3.640948157256237,1.556648346411996
190.0,-8.702449677437505,6.61096277338304,15.313412450820419,1.0097905619377538,-12.02598117197467,11.011002175046661,-14.666925939649795,-5.477520360732417,1.500824991714622,5.873892682628601,6.419722852396459,-2.9651722889920893
191.0,9.16848355356531,8.594588056541141,-0.573895497024262,-8.914043817165973,4.851968802523252,4.048033153270026,-6.8328835145666655,-12.623829977633855,1.528781714800073,-0.4780642093595182,0.9516508922578024,0.2398291104382375
192.0,-2.0037088777022363,-6.48854509859117,-4.48483622088893,4.292586534332623,1.2203127561373563,-5.537064160908636,8.57545995549238,4.44995280561443,2.3067370675344714,0.5162948142540127,3.856198247130294,4.48179749221903
193.0,-3.0899726034031723,-9.757755170590826,-6.667782567187517,6.468077706734929,1.8464606401839814,-8.190616712681122,15.16281659261576,4.164285990540468,-4.610682381982034,-3.728888571538925,1.38499205719715,0.2332914842665148
194.0,-1.5710750395587616,-16.558268190015195,-14.987193150456264,9.026452919293412,6.6860416689594215,-15.753618186446971,-5.531544868999077,1.853358042059317,-13.47774177463169,-11.804934874262933,-19.142743005568505,-14.860086438530544
195.0,-1.7062398540842345,-6.463923759957037,-4.757683905872701,4.121175744316042,1.5031703911815102,-5.670892642470646,0.27199211643771704,0.42091692952046,-9.070599035159272,-9.83313605823822,-13.852436703503693,-7.129273858358577
196.0,5.514484103020342,10.292808096455143,4.778323993434759,-7.951300105752457,0.3455629808081735,7.555661354137962,-6.842983733857785,-3.8696203368886595,3.8597958656770692,-1.0687781808913854,-3.2716532830101346,0.4263086916814325
197.0,0.17744533671373297,11.911372302652762,11.733926965938851,-6.018887198057742,-5.721167567358116,11.845660436254235,-11.143145675668112,-3.6052413955128273,15.898776698765303,15.34610000915602,19.425338097538546,13.67207462332447
198.0,-0.32532143356624044,5.388841419652206,5.714162853218262,-2.5121734707297128,-3.0398619283559487,5.5001249260241405,7.742712630885056,4.195696239137965,13.883579364263257,17.303254632289814,22.80631695615094,18.333852023829657
199.0,8.770355864462198,10.46143031561612,1.6910744511538685,-9.680568389823343,3.521123120406484,6.109535041842507,9.805080162949926,5.976555425690699,6.318526003090507,5.130500931063696,8.004994100595242,4.478509159683055
