Time(ms),I,II,III,aVR,aVL,aVF,V1,V2,V3,V4,V5,V6
-200.0,2.767417683211071,-7.385263487760994,-10.152681170972048,2.3342928440667663,6.428224539469296,-8.811860658913139,-1.2740226917811681,0.6261945754263358,0.5038418029926359,-1.5686212475501327,-3.785034608777085,-7.316468085992032
-199.0,7.657151894336884,0.2540652128073808,-7.403086681529533,-4.001132668216705,7.501055060099092,-3.537214714552665,-1.9911261260222741,0.9318448766815965,0.743208580539337,-0.9762967014965791,-0.16901698718050295,-6.019589889028144
-198.0,3.8322977086819248,-1.2696649711296961,-5.101962679811675,-1.3178829421928688,4.517004181006992,-3.224236257884694,5.974297543433299,1.0135799584671747,1.7032692210058435,4.416757272766269,7.925910762039278,2.225870412469821
-197.0,-13.429369632118698,-13.669412539132173,-0.24004290701353748,13.598777118916052,-6.546789728778661,-6.909700582707125,12.2310157813647,6.2632265438953105,3.7412859758315826,6.814039730445773,6.668004147951388,9.092334761180583
-196.0,14.320609518428675,10.10452388276817,-4.216085635660563,-12.238763534877128,9.23372275967498,2.9947807840457714,-5.98454854771269,-1.397496109074814,0.059206864755070976,-1.5605912096445955,-0.8095330249518575,7.686893497807948
-195.0,-2.93632375189988,7.2296530587553764,10.1659768106552,-2.0961543024946288,-6.590963684095172,8.674172081715676,-9.467342455200425,-4.184286790205253,-5.508654638347301,-9.732285338709538,-6.694991821569569,-6.135492960449934
-194.0,-5.726422093193229,1.6936080860092662,7.420030179202438,1.9811224286908076,-6.540624107093383,4.534495157040278,-4.117817600811421,-5.36431798210376,-7.974712908715603,-10.19102701699516,-8.498678871818552,-18.55004414927365
-193.0,-2.754326461070612,5.624961336434152,8.37928779750472,-1.481007232951366,-5.541166398955609,6.976282943638793,-2.1090644181903504,-5.143099181949616,-1.6408755703105697,2.5816426223859112,0.2845802244477351,-0.352902849927216
-192.0,0.07985611385985703,0.5093354511800825,0.4294793373202088,-0.2725014005600408,-0.23462007281241481,0.4351552384168802,1.6405507123906906,0.9416029405962114,9.706337580900534,17.223488086753534,5.35195959101291,13.326440737554432
-191.0,3.157535324653041,-17.658934765571317,-20.816470090224342,7.264512100895462,12.000717353721983,-19.204773644120557,9.515635587317972,11.533075360944258,4.225845455715303,0.9232068810220078,1.5745966901391348,9.522190134286044
-190.0,0.4545942284540254,-12.757527683800967,-13.21212191225495,6.162338581772108,6.844585189154721,-12.963717171506524,8.929786158830328,11.9518109576799,2.286451235289051,-0.9732325035992901,2.0996837393607035,5.018848996369913
-189.0,-3.9028351871176854,-0.11579856913310405,3.787036617984631,2.023702028941534,-3.8325644091654354,1.8475980761344202,0.01719764265831003,-1.3510576054211443,3.8483179819941045,3.287936257786462,8.881382081284436,-9.572447259957961
-188.0,8.015927169445618,20.57945563791944,12.56352846847388,-14.274215949995494,-2.2565606026322844,16.578966807003123,-10.018442175804918,-8.714898571063017,-8.945737245986718,-10.267475141471433,-11.506103434452106,-20.873070800322044
-187.0,-0.9376765813354018,12.090033474797433,13.027710056132886,-5.61936886196891,-7.036517396851341,12.566884361903531,-6.726534907376777,-15.670588349480537,-9.553009643270483,-14.812219359075476,-9.755440936929284,2.809484141945191
-186.0,4.786935541342456,18.418202092910438,13.631266551568022,-11.634101934450584,-4.388504469520774,15.958624162292448,-6.812073990911819,-6.562235254949771,-5.507509447901535,-3.545324475390145,4.580078829744067,12.063328357060158
-185.0,-5.803706451681219,-5.0444785436729935,0.7592279080082456,5.479342411823377,-3.2402149072487028,-2.1230560776426275,3.3336970096616034,6.63855243928657,6.741407548698888,15.915374389604509,8.709791493547751,7.0461368536594
-184.0,-10.988397227379904,-37.69002677261812,-26.70162954523822,24.318004151164228,7.823582848059889,-32.16907012726605,7.808717167186647,14.019557321570375,12.182750941862519,12.612892971389336,3.9987565652300616,-0.4107023224985369
-183.0,3.960315076848981,-26.35762283640694,-30.31793791325595,11.173422730915771,17.10634441390291,-28.30542774648398,13.920252674354153,13.707412507551172,6.6428692009733865,0.686286259533027,-5.350213258385805,-0.4773528129327358
-182.0,2.0642089754250126,-6.670356729177064,-8.734565704602115,2.3472776143697214,5.362916413064665,-7.746166668878294,4.693355012191507,3.843242718461413,0.8329848860894389,-0.9315076125357393,-4.3736747538815735,-2.5795567191182833
-181.0,3.993209713199096,25.328011625852945,21.33480191265383,-14.7074353719883,-8.634597437405347,23.287043055340884,-7.418497798067982,-12.828073936637098,-4.798164874850975,-2.3323732586656543,2.562071622878872,-3.673764950469137
-180.0,6.793849636390238,35.95555430479829,29.16170466840805,-21.354959850657533,-11.154081683589673,32.58956479429247,-14.970107601848076,-12.923065712201815,-12.10844901450336,-10.692434549736525,9.756761201332022,0.3575824580246536
-179.0,-3.6207320121544586,26.559119897595743,30.179851909750184,-11.458491369638205,-16.875341100478586,28.395533765156564,-13.415302184767654,-15.765952307928938,-11.027596223263355,-7.761364954631935,-7.744645200524077,-4.962273952957285
-178.0,-7.593825410793588,2.683097816942892,10.276923227736429,2.4624773896063603,-8.913135737511805,6.501377998186683,1.5411280572071897,4.00827804088271,5.138517057205525,5.831209044794111,-6.915691250316503,1.6565248862855129
-177.0,-2.5363220449774304,-34.29511525471642,-31.758793209739057,18.42573076136206,14.554009265070608,-33.087422503192656,11.798724312294778,10.950106152050028,4.208482734522059,1.0878241790536118,-6.028018211330447,-4.292275106214664
-176.0,4.695809853872495,-27.069491692791946,-31.76530154666451,11.127049888255279,18.17415763667153,-29.399817192521613,10.500394866224113,9.61618265539476,3.9341480234569364,-1.8600159402622483,1.3613557148070872,6.3513002196672375
-175.0,8.213330515078828,-7.539449566328582,-15.752780081407476,-0.30480255109118026,12.00766390801645,-11.626780674280372,3.211814734865028,8.989090185862736,8.763119754239934,6.905786418776306,11.615098917249172,16.49072032324766
-174.0,-8.894482094913986,-16.0662646213557,-7.171782526441725,12.527052398743013,-0.8327704602285486,-11.596071107288246,5.909067329425832,6.428453698059936,3.642223433000089,5.278804495659671,6.090974998735352,0.6391388709013501
-173.0,-1.8092981132756074,0.9642266284041388,2.773524741679829,0.4029840847157782,-2.2569667393308817,1.8175061872966214,-1.8158177368816821,-5.689486817453698,-1.1210306513354227,0.6701302632715871,-0.43282054054918406,-16.69594152123161
-172.0,1.835653482772098,28.938728421914465,27.103074939142523,-15.399347896530834,-12.670788261048942,28.052360735323024,-9.470248614193391,-14.02068807459952,-3.3854143896768623,-1.2615585295344558,-2.595911800648229,-9.270417372950604
-171.0,11.449092279385363,39.62141404450473,28.17232176511954,-25.547021278990698,-8.31277934117366,33.852424097584915,-14.861608688704955,-11.074642639235167,-5.9221052029986865,-2.7402309584915026,-6.405259954103625,-4.474920284467403
-170.0,-4.1127527487615145,3.465093395121297,7.5778461438829545,0.3055193060661292,-5.869992197491111,5.557025900530277,-1.2263527302244084,-0.3237563325912305,-2.101106767063972,0.6242337327849254,-0.6367919823298029,7.9026329757867595
-169.0,-11.735453390859895,-11.573335276198302,0.1621181146616646,11.624758934214455,-5.971651466796267,-5.670219563937591,5.276180422009649,2.8448212837057523,-4.592802243349893,-0.630070431442691,11.289968921113715,18.833111352805926
-168.0,0.015147882931046297,-9.276745779742885,-9.291893662673912,4.667341440530083,4.62888818071569,-9.3286450623178,2.571102532221996,7.226453143659292,-2.5657151833934906,-9.953299197797687,0.5915470826054161,10.734148550846687
-167.0,2.1244547038139405,-19.79652703580659,-21.920981739620515,8.86240205304729,11.994069523074032,-20.903950843298837,7.599159649854309,3.8202211330211444,-0.18914927719680996,-5.342366968963393,-28.172453545266013,-15.629598156052255
-166.0,2.7915295629735075,-12.463160333317122,-15.254689896290593,4.856831121523621,9.069310568528923,-13.82525913528638,6.338540701875773,3.995708130761411,6.33280313104891,2.131827976157095,-6.214843167407568,-22.08744279737563
-165.0,1.5395878055162986,-8.503907994993924,-10.043495800510174,3.503142389701203,5.83618950097784,-9.238459361782633,1.977204927610968,3.9821318813455884,10.516457281243579,8.898468963052098,17.120314657845448,-1.685992585455848
-164.0,5.569253763471002,6.871929546171525,1.3026757827005562,-6.274344058227533,2.100892678863192,4.125285062467138,-9.243956414476479,-5.780862105378728,1.3950496705907245,2.0019847721829205,13.391341794936931,9.698911451017501
-163.0,6.548042396761501,27.06938921062886,20.52134681386734,-16.856534820590753,-6.936297206346218,23.75742285955437,-8.249322732093177,-2.523719165521542,-2.2297693199395567,5.782238352131408,10.173022010748927,18.066410876675523
-162.0,-13.45981983334922,11.546404975339396,25.006224808688547,0.9935290406249688,-19.257556613249317,18.23992521687103,0.039265371884614986,-6.445305944218504,-5.742886948951248,5.052222374802093,0.672531780491,0.6020037456725102
-161.0,-5.867788960385495,-7.892187490618545,-2.0243985302331424,6.9215056021728625,-1.9452315515632073,-4.995290783401554,8.014739022819906,1.4789149298874058,-3.1411231900069634,-0.7668781449138707,-0.29017100989272393,-2.67133020311605
-160.0,0.5234031136736839,-12.072491619357452,-12.595894733031239,5.740569089682655,6.532634673518262,-12.295242242769387,4.537800238997695,2.8114640635849932,1.1310891075001446,-5.529925801966479,-15.941742212558514,-6.967997981478456
-159.0,3.0915351625589915,-3.0827874540857154,-6.1743226166448135,-0.03611936162847362,4.598361737605751,-4.5939193380858026,-4.408162903687292,1.6908298414224225,1.4748021426848772,-6.74080301389937,-14.143934936193867,-9.463011892561077
-158.0,6.759972199648449,9.241474578200265,2.481502378551741,-7.951846823550865,2.1741332259716364,5.891181376328795,-5.639106495369675,-1.2288283806926121,0.7782071505770807,-5.099373196651627,-3.053010622757638,-4.7233352582275625
-157.0,-1.4703334173391163,-4.631961904731844,-3.1616284873927505,3.023301710062521,0.8727782106980349,-3.950695561796615,-0.5160668948062099,-3.0632771037853406,-7.00645062096026,-6.666560758846764,1.8855047911602096,1.8804883367739902
-156.0,2.8516947938167028,3.670591154736962,0.8188963609202875,-3.208018518453372,1.039967588176904,2.265450398571915,2.410625613703535,1.8276137684062186,-0.2184333665448741,3.424003656327085,4.762880481561087,10.64725596279417
-155.0,-0.07634804803953887,-4.476934782204527,-4.400586734164948,2.252937424506233,2.187328603835602,-4.499510942336027,1.3297197886846719,4.610459923125309,7.065227204420325,10.847252392946345,15.736178266469516,14.348574295651401
-154.0,-5.662791662452085,-11.680514443497396,-6.017722781045264,8.648830577353968,0.12981063583113894,-8.831431187808255,8.009904142802972,7.03253790895254,7.089015837491377,6.693804509151737,21.54990782082418,4.552653139698482
-153.0,0.2778676419063486,2.7043754595014518,2.4265078175951573,-1.5146306983765068,-1.114157021737418,2.586056351853882,-0.7326634611473319,-4.930433564860794,-1.987688204853328,-2.5945129727242193,-16.009818187671907,-16.254104497163645
-152.0,-4.8377001873876,15.466103141426895,20.30380332881452,-5.261178126626222,-12.524737848423113,17.91185053989494,-7.66784715825464,-11.907879606439874,-8.194083797825353,-4.752052061834383,-14.540874566815807,-11.904732667489775
-151.0,-3.05892574031725,-0.39220571047859387,2.6667200298385936,1.6967237673307427,-2.89125789416577,1.172733898551595,-2.4018755785984998,-0.4878132036926077,-1.8522462652912246,1.179538834363619,-3.7262568826878955,-3.617935316594088
-150.0,10.694200280778887,-9.532199114164769,-20.226399394943837,-0.6129195286815057,15.511122696805174,-14.913768998645285,2.5523982705487933,3.623238408805798,4.401728645330272,6.044981443771329,7.278271719423163,9.9593135155743
-149.0,2.864783195462162,0.9725817707644655,-1.8922014246979266,-1.8741126080482022,2.3475466244725895,-0.48752060765637495,-0.11987897177258877,5.293956421839993,4.84166631728306,0.38592278993001644,3.205134718882256,6.9136285734265135
-148.0,-1.9553644892303903,7.662635264676873,9.617999753907098,-2.8103086323314237,-5.822725523182855,8.615910735958224,0.49642921029143294,3.089456056278011,-4.853433216635344,-9.598056100471378,-7.070458706328685,-0.3262695391222037
-147.0,-2.746468701545991,-1.808760787397652,0.9377079141482985,2.241454143553391,-1.8042659825600715,-0.45998335272046276,1.2889466086034642,2.6310204991391,-5.144002213196538,-9.818223822075161,-6.062853263361438,0.6017456710594802
-146.0,-4.125553882727682,6.103959991007652,10.22951387373551,-1.026552214591974,-7.220639337050492,8.219084920469168,-3.0844427462237833,-9.828786927498292,-1.6003287380618358,0.9573229369423362,3.651001776702299,-2.4307812885723057
-145.0,2.9251235754588696,7.193930188420138,4.26880661296163,-5.020614776411979,-0.6338532602855582,5.781855293866857,0.41415160325074063,-4.476179073141608,2.5852820307931754,6.4577841274005525,2.0938021521888297,-8.507052993876737
-144.0,4.447323677426073,-6.068923109126508,-10.516246786552207,0.7669355145510903,7.526957969798993,-8.321103185919084,-1.6864178877879843,-2.5181023527066912,-0.3089213869936598,0.6438254392649183,1.4280486371207761,-3.928364751524841
-143.0,1.0938506027736064,-12.232890345851105,-13.326740948624513,5.599396249677149,7.187212780960201,-12.806484663075027,4.079767138908456,5.2641401638610805,4.761501160453637,4.051118112421004,6.765775275425653,7.549873331809692
-142.0,-8.284811692723673,-18.65081548345707,-10.366003790733531,13.492860910054395,1.028311743580066,-14.531649379841912,9.289588613867263,9.848986363439272,12.649731890844826,11.1522279772004,13.619987293870844,15.40934704061911
-141.0,2.9526001126366497,-8.956886967879004,-11.90948708051607,2.945160813119229,7.426412364131443,-10.373872337726047,0.47637288394596533,7.233759554412949,1.1496425654676536,5.451328553356445,-5.154801535506163,-4.50323896358413
-140.0,0.2210948396282494,-0.05679126167793758,-0.2778861013066951,-0.06099337118055281,0.24674713059753106,-0.18407130065060784,-4.963636315983774,0.664760938487454,-7.786691966835561,-9.45790515866488,-12.076139699159263,-6.896596315009089
-139.0,2.771278739082045,31.248167826350638,28.476889087268273,-16.98600448956553,-12.860205080182636,29.84602801353727,-11.13414884158754,-10.254599720055706,-11.076147255519606,-9.118776397596069,-7.682313486028294,-0.7246984743974396
-138.0,0.8840089876135282,19.816855253769685,18.932846266156076,-10.321297089176099,-9.041595720757165,19.355202463714143,-2.351894458589344,-4.555259225847495,-5.9826838527723725,-5.1992261172148435,-0.17960672616472806,-0.3276090524400339
-137.0,-5.701212022283004,5.227048991540364,10.928261013823398,0.19472841403683638,-8.343628278517846,8.130047900384465,2.0032780018435234,-7.111381318170157,1.5186026984285514,-4.739727952178583,0.8240455232947954,-1.8231532094342482
-136.0,-4.054631445174604,-0.7156329614727062,3.3389984837019613,2.350594571674102,-3.6568257777822826,1.2757173909181003,4.173749741685995,-5.272377132613278,2.4736478313996075,0.5846074100978002,-0.503894109062101,-2.1728448312861217
-135.0,3.6399896325820253,-3.5589050704463094,-7.198894703028289,0.010965264746471526,5.454298377259862,-5.347168137324907,-3.566947307426352,-2.3153849340030517,3.716670623265549,5.7246490463895,4.86692812951643,-1.1058744336098845
-134.0,1.6479637748258844,-28.362968594437422,-30.010932369263223,13.336476820944021,15.86470025135068,-29.24441335465066,7.051745188815991,15.825340410359342,5.191323551464196,9.393838355171944,6.813213809034677,5.300158293022843
-133.0,6.4956398322692,-21.473150204325176,-27.968790036594285,7.472787572802557,17.19301168786976,-24.707250504316434,5.5293456428288295,10.026073440024183,1.0836555488446011,-1.2813192402855238,-2.088537025765305,-2.922292083528333
-132.0,2.7634736502595896,8.417063973083804,5.653590322824243,-5.60224948185107,-1.479378058920565,7.046231263413022,-0.9290341769802768,-1.4802021005248882,-0.10696157159847375,-2.9360901773088006,-2.333831864357715,1.7291241322904547
-131.0,-1.287042822734616,16.25397187613202,17.541014698866576,-7.413924119127337,-9.367654592197828,16.911088933042844,-5.3431817942762905,-1.6935158923397058,-1.2124074895054284,3.798589795119586,0.5740672434787286,7.539679127168688
-130.0,-10.574543612831585,1.5689318964983308,12.143475509329823,4.494526964126819,-11.394611677088257,6.877107975528201,0.8750167395063668,-6.262143849695818,0.9092049346326929,1.3239217250567,1.7279859174068668,-1.2089227921754118
-129.0,-6.3183171645910985,2.0119032954528233,8.330220460043776,2.1430640480688012,-7.368229678099265,5.201401215718704,3.9076557585615053,0.6937681817950399,1.6959693717791695,1.9125662484111057,2.8901960681163468,1.3927897097338962
-128.0,5.07384354283005,0.48706027080176284,-4.586783272028363,-2.7959495495324296,4.85398832356538,-2.0900299610229656,-3.218593508809846,0.00871621756900609,-1.2150532187925722,0.5598044914064157,-1.8085825818318866,-4.58477526364576
-127.0,7.3868773756237704,-1.5254928312798657,-8.912370206903574,-2.9547458658563666,8.163272566660416,-5.254935300802785,-6.729645672142691,1.127723394015316,-4.685390871656097,-6.879401955283559,-5.641854622164216,-6.637369590864801
-126.0,0.2687518684590371,4.291286282819583,4.022534414360732,-2.3141856243568717,-1.8683817772930231,4.119709829124032,0.538354111019373,-2.0929268140471544,-0.16738850912173753,-3.733961233097277,0.1805853514108282,-4.483664987677365
-125.0,-2.0267826193938996,3.5739360123162864,5.600718631710373,-0.7380128129633106,-3.8032985258822154,4.623084231391952,-0.5552327367049981,-6.469588069398602,-5.634229838845824,-7.133666297149389,-7.462644511708081,-2.6125930098277395
-124.0,3.005284366179235,2.36830972770354,-0.6369746384756427,-2.656513985269611,1.8402262011032722,0.8933537019081943,-6.385581594646339,-7.396228606739904,-3.877294824070601,-5.327621496765934,10.124728468828982,15.719406561255989
-123.0,0.5349314268431847,-10.011727476639505,-10.546658903482733,4.768591858227154,5.572316592510566,-10.259089549404102,12.357717957713774,8.785537386977413,8.245740103607668,11.700089571161115,2.4148221198889175,13.909860713291774
-122.0,1.113748044153725,-3.963357191238403,-5.077105235392246,1.3808861117515283,3.0600230929383123,-4.505061648669968,5.194381415603369,11.953319592954667,7.751153642973419,7.023636519433958,-6.491865385536437,-15.016991318808154
-121.0,-6.025606049114205,-0.16730494303442445,5.858301106079687,3.1383972185935933,-5.970206945068676,2.7806732768668008,-2.0620879917884056,2.7976448993933802,-1.0024570986027967,0.519180440581346,-5.881131545109409,-19.477648077128787
-120.0,-4.426739820861393,-4.061783363915601,0.36495645694574097,4.213901124569096,-2.423677236935597,-1.832046717825364,2.8277813662583577,-2.1898263049266946,3.51659504742285,2.8447397429166807,14.08044064413567,17.173478608494015
-119.0,-0.4378116803105725,10.99151381823731,11.429325498547882,-5.304188093966918,-5.966849196370125,11.232220450094008,-4.793239961593255,-4.861467852123254,-6.169483230195115,0.2904752803493337,5.632047674220296,10.875488513884017
-118.0,1.0708431733543518,6.384126839764384,5.3132836664100624,-3.7565727277913785,-2.0837585143313753,5.799111217950115,-3.017943330326565,-7.571364398862029,-2.4566084559739343,-2.881134917816047,-5.114041404638743,-9.227258745559016
-117.0,1.1325006082994986,-1.425076755201558,-2.557577363501041,0.1898867009652605,1.8761492886286903,-1.9541906793019654,-5.897615529888327,-4.929228252692769,-5.930423877987163,-10.547778294863381,-16.5164306002397,-16.859722196598067
-116.0,1.4246634857417642,-12.07958852038718,-13.504252006128958,5.362622955477498,7.494014607555152,-12.747606413978371,2.295191455558471,0.8458511528328452,4.725738176232623,3.4918097299853237,5.629970725293999,5.231428482515422
-115.0,8.828904975728886,-4.753301777357786,-13.582206753086691,-2.089581136343076,11.239046953321864,-9.1971689699729,2.3822065728896886,10.070763398442866,4.4320515260277045,5.320366034688119,7.777926204345188,15.79369868152159
-114.0,2.9998393316541585,4.477419159532873,1.4775798278786887,-3.717136562663654,0.7233866124530359,2.9500769203790758,2.702950561165253,7.1452391554763075,0.5954870245356298,3.2146193422475555,7.82923753379162,16.33395786237351
-113.0,-0.3710619646798763,1.2067454684159924,1.577807433095861,-0.3974389001222527,-1.0044977336487058,1.3638699642522996,-0.7545878520009621,1.6911666503208722,-3.953506445291179,-3.083341383124998,-3.6607265501988255,-8.781689964913113
-112.0,-11.119200659646935,4.884585155166523,16.003785814813455,3.0627893139495024,-13.5869721237334,10.49171005127329,2.8834866350136847,-4.164889632673613,-1.8614784957137123,-7.513803413585517,-7.592436084564663,-22.147233483633354
-111.0,-3.057802256535113,9.37234789831286,12.430150154847967,-3.125018100083253,-7.769706619623832,10.86725773338732,0.6890706520875607,-8.501297200352164,4.400673821139739,-2.8115869940944243,-7.870816261346386,-19.370094036782508
-110.0,-4.482126052019034,-5.779567204531098,-1.2974411525120564,5.173474599578863,-1.5441833921690202,-3.4945628283839296,-4.560015311831249,-7.000673931084623,-0.14535673561162077,0.04866479230026641,-2.92051267962699,13.640186314731706
-109.0,7.376143521738372,0.41978412883049376,-6.9563593929078955,-3.9239114985255776,7.206636709939482,-3.3008593696812367,-4.754514612753516,-2.600345822994976,-3.6088096883453007,1.8684031426355698,3.2092251425519924,12.622588633851194
-108.0,8.660743704531567,5.815904803366561,-2.8448389011650557,-7.256856040766919,5.7059405839468536,1.5368195926414945,-1.7122440669912566,7.959197977261659,1.7588029859796077,9.272903847722024,9.563434226900059,14.287775994950149
-107.0,-5.450913958380063,-9.830631681480611,-4.379717723100577,7.625124878899105,-0.5110366951560561,-7.126121403825459,7.462888502721896,9.158357117460099,2.9059262090276556,6.1806848482650185,6.506582752543757,4.668234331084499
-106.0,-2.534703693652955,-18.540394191092428,-16.005690497439467,10.51982286028142,6.754978123000033,-17.288291727933444,10.692902360301604,7.567781102355096,-0.40972125966093165,1.445847496619233,3.353200745719733,-4.739324572523621
-105.0,-4.628000691023314,-17.857924771597922,-13.229924080574651,11.2979000218957,4.239263591057176,-15.556478580234451,1.4808813607757725,0.6108322855757518,-2.305946875364291,-1.9215821272084406,-0.843872160041835,-15.082242094643615
-104.0,1.1968789540556177,18.31145699092357,17.11457803686786,-9.786207666633835,-7.94170224025703,17.69877545978229,-10.485181345393906,-9.690298748491344,5.547780712271876,-5.930188877106213,-1.2879820800503095,-5.906581995745844
-103.0,5.315752806052985,29.993334621432922,24.67758181537989,-17.61611812545903,-9.661532026428027,27.393730278627984,-10.544050889746115,-11.470939794538829,-5.983609371968691,-10.40509790020585,-13.146628893247076,-1.9448988072445896
-102.0,8.641138849681525,17.805018811188802,9.16387996150728,-13.270057829101354,-0.2381527322322503,13.454230666034421,-3.574210413367184,-4.75866156995747,-6.447181979852746,-6.88480992332498,-10.21446514886295,-3.6486614032328744
-101.0,-1.3476306434478955,-0.07809500614327725,1.2695356373046733,0.7405604205783503,-1.359296672226248,0.554168424009708,5.375178562077853,4.431793356169269,1.8344102759034455,6.051787178678849,4.640355030681523,11.540275300462765
-100.0,-7.796476342300647,-15.051845632384259,-7.2553692900835856,11.450523317350536,-0.2373026323333538,-11.127113003518915,6.8946685970617985,6.716264508772881,4.522663963346507,9.151252143969577,9.614589364380816,16.05886855920215
-99.0,-2.509670789152123,-26.428798312508555,-23.919127523356444,14.417785565369599,10.664392376871838,-25.155703995123517,5.887134500106409,6.893532086816825,1.612105366786615,0.753660820336238,0.42357931686055394,-2.595828595709335
-98.0,-6.971835608351654,-18.92101479071055,-11.949179182358948,12.97616544638035,2.531912567056665,-15.421788475115656,4.226311377853138,4.343457519777356,1.499580928071595,1.802010893409522,3.6442596434369796,-8.143050065856313
-97.0,3.0678116861697307,4.750156147039254,1.6823444608694311,-3.954827788772838,0.661502683698453,3.2274144317228934,-6.154364702217055,-5.598217790294708,-1.0662189335450314,-2.0006727502376074,-5.466896684628247,-13.875447558045538
-96.0,11.117072123061552,28.301372707916748,17.184300584855084,-19.673032057171522,-2.9826094437819752,22.75320770752471,-7.909930418712991,-4.5095563502126454,0.6874577155983403,0.15864007757494591,1.2021277906548427,-0.2694134992792403
-95.0,-0.6127909066212673,3.358222491073395,3.971013397694561,-1.3335601716875143,-2.317225158472757,3.5952048106084185,-0.9369079285226594,-1.8571905717520982,3.037301205613506,0.5020805131689374,9.782418220868914,13.002108285795783
-94.0,2.1364915965619202,3.172207153867781,1.0357155573058066,-2.691592565505016,0.5262712096291602,2.1112348649601778,2.365397640366691,-0.8730855167922233,0.7098535328938919,2.8274520349904217,0.6797453427707858,10.095310736083453
-93.0,-1.0531226776386857,-3.702816244371985,-2.6496935667332986,2.3423686911105586,0.7742848713705082,-3.1715371135621124,3.945933456310649,7.167357356878764,-2.0654510811791735,-0.15761077195399364,-5.08499455335184,-3.040867488915243
-92.0,-4.481988977946169,-8.176241489277832,-3.694252511331637,6.3734057597336555,-0.3397018111303997,-5.93192603591191,0.400392048260656,1.8029863524232839,-5.891781852235277,-3.029694298365555,-10.036120172174627,-11.824586888701122
-91.0,-4.063965583364095,0.9284317436138574,4.992397326977974,1.5344471230531074,-4.5536319927755375,2.965419172715692,-1.4859578294718092,-6.720486789916586,-7.687226401293586,-7.870694703997325,-5.1094087152381,-8.20717236858782
-90.0,-11.017139521125145,2.165542301637384,13.182681822762527,4.472967512845644,-12.047609314127833,7.685012270965771,-3.3621179836629254,-11.980551333853544,-6.26524823020117,-8.448630201313474,-3.426742783095878,0.38972752321445236
-89.0,-0.09716194142369483,-3.7932376867502056,-3.696075745326528,1.916386095535678,1.7716955524420572,-3.724083471318837,1.9986918927862019,2.6570487689722198,9.622553356509895,3.7755621525174923,11.787816599468732,8.278383716803695
-88.0,14.076769850687981,-1.8656260525138284,-15.942395903201833,-6.130537448283742,14.979899214740314,-8.872093162902399,-0.008635902780116611,10.877796580224363,13.551272842694964,9.642762600295644,5.055538879699154,7.160725282633814
-87.0,11.047998945677634,0.9875355492187441,-10.060463396458912,-5.959446032364399,10.521938872750436,-4.573364306628428,3.507074160023917,11.833330476691877,10.449293234554844,12.711128091086632,6.036229337612521,7.00123028124195
-86.0,3.2885483027828775,-2.623098381885604,-5.911646684668509,-0.348678760701012,4.643527087857213,-4.298556144111952,2.9270999395847266,1.3621265469308108,-6.714888601024568,2.10233021937466,-1.105983890843389,-4.039724680657889
-85.0,-0.27758338697676904,10.409594619018868,10.687178005995591,-5.078415695488553,-5.4419912838459545,10.517445546782513,-0.18514017080696565,-4.870405804534695,-7.117439643649595,-5.895174345159704,-3.1498583135045775,-5.582229952645971
-84.0,-9.112568605180487,14.789270019459178,23.901838624639602,-2.8488003843798517,-16.548397163724584,19.38903934285453,-5.018237413159716,-14.62160458243889,-10.610463418461686,-11.735540016229214,-5.252401062664416,-8.052790021670667
-83.0,-11.364088802537147,-7.707866317143213,3.6562224853938723,9.525738704327068,-7.475316280720376,-2.0672595795918056,-3.775663905744473,-4.145263740069995,-3.7736005922486244,0.3413344515632595,-3.3328845025193905,-3.297644653896206
-82.0,-7.79767242744742,-20.615435156863406,-12.817762729416057,14.195107151479448,2.463351444934509,-16.68394931657055,-1.611091572503212,4.893977466151888,7.754195546403282,1.652700153177284,-3.6358119705975755,-0.12287943771437404
-81.0,5.7632420089038074,-6.872614359361121,-12.635856368265008,0.6199131412009109,9.228883504973941,-9.722185953346656,-2.5711132392122042,-2.0164910909038314,3.834213433666602,-0.6845883179342624,2.5558950495494437,7.18762545954746
-80.0,1.8770150655201205,4.005832974577187,2.1288179090570374,-2.9574975786356896,-0.1772673805626921,3.1035245334192467,3.16497086253921,6.659501234366719,1.7386930579060937,-0.6439737429757424,3.0489360424077425,5.95590657114398
-79.0,2.8962951562143893,12.748961001900861,9.852665845686511,-7.841680308453723,-3.450765661738015,11.26580309940593,3.7277216647342866,3.4694471499109287,0.09525650601946856,-0.48127384849678556,5.4423672567484385,3.571535178504058
-78.0,11.888743246785348,9.933601420784006,-1.9551418260012436,-10.933822042621392,6.952642361616314,3.962510465989002,2.9322646493921503,-1.9031331279216153,-5.950814971376705,-1.696395247903333,-1.3987770013869238,1.718476548709526
-77.0,10.033004329504955,6.0116733999871625,-4.021330929517632,-7.970588132942256,6.986302764508955,0.9748486377014252,4.258189638443474,-0.0688991570242048,-2.2637926893326803,0.16633932700206389,0.3786852778957885,-2.384722829656221
-76.0,-5.968160046090091,-3.6711188919212585,2.2970411541690052,4.787717451370205,-4.084078761135706,-0.7044085102261723,2.492379584836926,3.534758203642258,2.556736447318262,5.486907528797875,-3.3561716404866084,-14.41708276531472
-75.0,-12.92235859986218,-11.293004792619932,1.6293538072423988,12.070825951686055,-7.293704921282045,-4.770979322820488,-4.498046452443138,-1.109838035155692,5.9224904808988414,7.319226331236712,1.0726819640846252,-0.42157314494551734
-74.0,-15.386057192952494,-24.73245325659763,-9.346396063645056,20.096998491049664,-3.0262030272891174,-17.060216694704494,-2.516183768459607,1.0209382724096296,8.621592441244013,9.208246533866523,4.7568489107892535,6.436087046089428
-73.0,2.22292893154267,-18.05994850007827,-20.282877431620935,7.9535859330165914,11.254202734314957,-19.195882929362607,1.7321802299749427,-0.7838466042301506,0.7072506908540401,-5.173347381684786,-2.6667065999374726,-0.6044770419450991
-72.0,13.47110040384847,22.724978206629306,9.253877802780806,-18.142620402107852,2.1114550121149143,16.04048246961564,-7.3884260190203355,-2.408263787162526,-6.914508701323652,-10.775559249580636,-4.041311580924351,0.7412416721871984
-71.0,9.571800109070669,49.57667596179984,40.0048758527292,-29.53950001687339,-15.219291987628637,44.76074933552696,-8.686163911259065,-10.779958377293486,-14.136905315004942,-13.577169618514386,-10.375883313928401,-0.822535383199333
-70.0,0.7068836022407172,13.793773470925995,13.086889868685375,-7.292995186745625,-6.204787830386989,13.487200679895906,-0.290180084546213,-4.917083368542118,-5.778788985505193,-2.7062655076788014,2.5686647160679805,4.5907481666910765
-69.0,-3.7900846205894996,-22.510599755946334,-18.720515135356685,13.187742488639266,7.434338139911831,-20.649722587884668,9.102382374770663,8.416790982530394,4.373615401181611,10.579571400070032,15.187369074577406,8.75651387327829
-68.0,-14.750678305772338,-37.366539619790075,-22.615861314017568,26.017939924430724,3.963745622924022,-30.028831669097656,11.01086280555084,11.30664709688167,7.768212341079728,4.543192515912981,7.120240903440358,-7.167365236700503
-67.0,6.28429183806837,-3.7287657928469784,-10.013057630915226,-1.2398836030113713,8.16597676451767,-6.834456379788175,1.2229863453711642,2.5889386855134484,8.448385509439245,2.645842930709862,-7.282517223640106,-2.1565239440345016
-66.0,1.027631869943973,2.157234120953987,1.1296022510100663,-1.6342728450307824,-0.042184098089636635,1.596163971211963,-0.4804103982033354,-0.22511931515049577,0.49825787560591905,-0.23146756780035194,-9.632512238344793,-5.274873135448408
-65.0,0.3130532582735126,9.322358237845796,9.009304979572292,-4.782178281209291,-4.341681257452542,9.193531770268022,-4.309565535671682,-1.5907037869010652,1.6149300174048065,6.90616453054083,0.6100091175913578,-1.2630608636949021
-64.0,0.2327366641117028,14.638693951905042,14.405957287793276,-7.401525975277089,-7.077293242339641,14.54868572438043,-6.398392860761444,-7.218299811905011,-4.216288913444871,-6.411256140106487,-3.314828227334242,2.7199244721326887
-63.0,3.163908398789498,-2.1745875521989504,-5.3384959509886,-0.5400008911148486,4.187845620896405,-3.728645916670942,-1.5151477835885228,-3.1057611785604875,-2.5349402630762214,-2.2063189840891955,5.851156116522021,-6.867006971662718
-62.0,8.29083828428545,-6.2333287996584135,-14.524167083944086,-1.0737080819030789,11.429919929398611,-10.425917918613727,0.993670060656469,-1.102633298204382,-4.930238321033759,-1.5250207374966918,1.901364619452865,-4.638726067910904
-61.0,-5.6655916634500105,2.613369170498007,8.278960833947817,1.562135855532914,-6.943631554151698,5.482021264797442,-0.3256704771379869,1.815142195106296,-2.1554722942775673,1.5127136453030077,3.6478198848727486,19.101672307821968
-60.0,-11.824535862511036,-6.523180384293694,5.301355478217297,9.214436763724187,-8.608491124914831,-0.6505924464417887,2.319273884537825,1.2336454257037974,-1.0484130157997247,-4.046316160493678,0.6684557552376846,16.44271393260824
-59.0,-10.346294505408423,-11.24747428090509,-0.9011797754965616,10.765476257198852,-4.6864962153893766,-6.112879415230951,4.5372514003259905,4.440759094747972,5.449722625391621,0.36811055231506096,-3.5271428220408154,-8.125578700463304
-58.0,20.98923689621105,33.27517864819961,12.285941751988727,-27.155671177960436,4.310600302649654,22.81974413473227,-6.336524138495696,-1.0177426900406883,1.9981790922697105,0.08699490460403536,-7.342397087233351,-17.790267151388193
-57.0,2.9812300995805776,11.328518076172639,8.347287976592211,-7.092377735791122,-2.644319482341758,9.874658229913212,1.8603561857602748,-3.905823539186163,0.38952232245933915,-0.045309859519396145,-6.486494964267383,-10.223189079176944
-56.0,-5.477437889038136,-27.726047930493422,-22.24861004145526,16.58957040483634,8.424971154210015,-25.032175406512394,8.105396907893082,4.161918057400003,6.975721308283459,5.7131628529440235,12.436310776901983,7.870929525365809
-55.0,-3.5978996340269056,-16.318912201451724,-12.721012567424856,9.945050801529447,4.522448216510185,-14.488552441170864,-0.17530766665420705,2.308246599684596,-1.6976411168711252,2.7719267978268016,0.6118533198620852,0.3013867468190199
-54.0,9.464707501610494,5.673727531218667,-3.790979970391909,-7.590026919830094,6.5882921148245925,0.9710463951227783,-9.33119414336136,4.826646448675883,-3.5478519173913976,1.892028847886312,6.766754211357248,11.888977518935036
-53.0,5.018632488342909,8.948063523039243,3.929431034696253,-7.017113078079889,0.5825154463242194,6.388863264015631,-4.200797929850701,-4.848028031341556,-5.304440846804789,-3.960965584677692,4.0910383912751325,4.961035067202627
-52.0,-11.135905745351035,-2.2664787875906125,8.869426957760385,6.730325266747476,-10.04545483724449,3.251952381467193,5.241917989493979,-4.672168640882494,-1.1321799843379834,-1.3863266227911413,-4.833793260953273,-8.003249353507515
-51.0,-12.356885277547795,-2.9925613425112987,9.364323935036525,7.688875785463562,-10.826928255409786,3.2170483756488997,0.6088008143068144,-6.333618817686055,-4.173954625106764,-9.511840439777234,-17.50355199429926,-11.318248846126819
-50.0,-6.546218450069353,2.7307746230273526,9.276993073096769,1.9115357700094484,-7.880357504869667,6.03887663049097,1.172485778232689,-2.2382392189289764,-0.8144001924567978,-2.3572541955208797,-5.7293646784695635,2.9396351922974784
-49.0,8.546118560989445,6.000383472448979,-2.545735088540412,-7.272532734315227,5.5744843294751805,1.7677697111830337,-0.507132181046303,3.1616604390919663,7.311826563212775,3.86013658626196,5.965884686343449,6.141080363351985
-48.0,12.953628320538009,-0.7262705701323595,-13.679898890670367,-6.108135574212861,13.263425856286037,-7.235380781052376,3.8522976660667103,7.988982530479985,11.498855081260244,14.606163174262358,19.20721537942531,7.570054286035068
-47.0,20.635952742158512,14.22305386804165,-6.412898874116895,-17.412588778454364,13.467759872909784,3.8777577799642824,-0.8337375621394845,2.9311819131022396,1.254708441391438,-1.6772998435896698,4.117160751097638,-1.2300315954760386
-46.0,-9.502781590758152,-7.973493067093491,1.5292885236645928,8.691266340874172,-5.496339843411624,-3.2468886324962414,-2.7422212842545632,2.913307577258995,-7.368492759373579,-5.401326428113364,-7.363816410938946,-10.896757554983783
-45.0,-8.489610374536962,-8.221344214330625,0.268266160206182,8.402270066450788,-4.358926658185723,-3.923075484029156,-1.3528312996092833,1.1823070438453556,-5.773364593229889,1.9921427902019144,-6.24693578058753,-4.518890935343835
-44.0,-16.352741660467885,-7.478498290181903,8.874243370285816,11.8952221215971,-12.588866125661564,0.6695074832656753,1.257611385263664,-8.189831417899207,-5.16972041865905,-4.4155777264290546,-6.53967697150416,-6.249316444676938
-43.0,-9.986914778673551,-1.29804447797168,8.688870300701742,5.6282199630281395,-9.303879516516712,3.662630677984569,-4.016633888639587,-5.161173476392747,-2.4059769643867353,-6.476378536819322,-3.40268470285244,5.89348259597463
-42.0,3.60666288084548,6.169564472516581,2.562901591671042,-4.901972464906332,0.4901789205636611,4.4078845814847485,-1.4441217527910384,-4.125717970107898,3.443467369812367,0.634627459492767,6.035839207947975,22.757078251305195
-41.0,25.052590003547028,16.11165422185534,-8.940935781691682,-20.599937374183963,16.979297877387175,3.623779710629375,0.07210024307373297,0.34979829863425627,6.917669232253614,4.5231973872604865,9.294673072352207,16.23600698345544
-40.0,-1.473045048034562,-7.5735379462210926,-6.100492898186477,4.578335450257578,2.308761192915438,-6.87938878317787,6.972252183233477,7.608444043704037,4.566069171529927,4.6977727250301,-0.8450370298860967,-18.302000047081066
-39.0,0.8562671603215248,-14.356746948588192,-15.213014108909627,6.721148320152295,8.037968027995227,-14.750102749553486,10.06707497644307,11.208271415636451,3.307258414373832,4.577923863315448,1.170875946131484,-23.680628374528496
-38.0,6.76323601058396,-5.789286968739735,-12.552522979323678,-0.44070983659019736,9.663938778899304,-9.217112633879463,-0.10980427268311477,2.1318432089278376,-0.7543405630519149,6.351273194941311,7.827132939044265,-5.352991637484969
-37.0,-13.705650215527088,8.824638736478777,22.530288952005797,2.4066617324518678,-18.11469228582445,15.706415356392085,-9.388710602168047,-12.234085707424105,-9.743997039548725,-10.177486289190714,-16.88504170266136,5.185538964727317
-36.0,-7.802743987363842,6.843371373500108,14.646115360863833,0.5240599592822877,-11.228119708934216,10.690161336546204,-8.675793325211835,-5.176110513779821,-1.2443341131654062,-7.474794631542092,-5.264064834769413,7.165047062700911
-35.0,4.0846322569054045,4.629639866364757,0.545007609459244,-4.392900302428891,1.7572059770055821,2.6066083268304983,-0.8029801113130368,0.17215771331862229,0.5550342536543558,-1.5371800747563862,1.752842322015458,3.9221974379598015
-34.0,-3.4998929421789144,-8.401488753659825,-4.901595811480918,5.911549761165739,0.6799404578591449,-6.635694506005581,4.868400940921705,4.243506761736194,-0.9418985126512814,0.0833323983103218,7.121438158179386,8.91512922885999
-33.0,-3.391731695058455,1.4221076037398857,4.81383929879848,1.0192618829773203,-4.050473685852568,3.133054528450035,0.8883949465381917,-1.8827874195442873,-1.0911122705036953,4.711498689474995,5.590399000855401,1.6456041309529912
-32.0,4.6138550618121705,0.8766910278403159,-3.7371640339716423,-2.7948115810045175,4.1474064793186445,-1.4130035086025297,4.751599388473386,6.991060389617872,4.484083610501599,2.4769473272710076,2.6937178811077302,0.6004407473628315
-31.0,9.520211968425228,18.424534625822293,8.904322657397223,-13.945889190011519,0.36041193384587356,13.685872002999599,-4.4840124173051255,-3.927822514461293,-3.1558335879284187,-3.988834782586266,-6.101350426052276,-4.142284677307555
-30.0,2.126846272592122,10.074490157871178,7.947643885279127,-6.072060391409675,-2.933057334890619,8.958554840763927,-7.996370091993212,-11.408041562347861,-1.1485562494728776,-2.002927493735604,-16.690337022023627,-19.068061159734203
-29.0,6.374401536041681,-11.516524274222222,-17.890925810263912,2.607580191044228,12.113154101724081,-14.752109169821146,4.258014465166185,2.849291768295861,2.6856276329520856,2.008255772337427,-5.693282308637097,-5.180491086918765
-28.0,-5.078910211745975,-30.65559839866262,-25.576688186916712,17.83763802108953,10.23014335689498,-28.082690170660484,12.180874380251316,12.111982857001776,8.371258898554863,7.81202947477804,18.054422830976947,12.95944741997163
-27.0,-6.5016023922742905,-23.724047250713287,-17.222444858439026,15.097643363263714,5.339279480982285,-20.437188850783016,5.91251429065164,9.187871646710702,4.389496747335547,8.587288400277252,24.231170867813162,17.691798158472697
-26.0,-4.915190233855391,3.8028000151566683,8.717990249012082,0.5535088764990581,-6.763980830128554,6.22078196674066,-7.254623383220801,-6.144621681638068,-4.379784880627492,-3.8292302180358657,2.3690407040209696,2.666402853999182
-25.0,-5.572686290582931,12.30770812223076,17.88039441281372,-3.3630771731916598,-11.758807194752887,15.137362947734612,-1.8579090342045204,-2.1326019969847443,-3.327097037982129,-7.034393350103344,-6.495197703275155,-2.7704188890417196
-24.0,-3.1014143500035525,18.085069304419562,21.1864836544231,-7.487724578387091,-12.103077175678731,19.605369805054735,-3.9831692627040782,-2.952520117899983,-6.538720405646783,-6.648827138695479,-20.359075240110684,-12.163132058347863
-23.0,-0.24415228334378014,30.60416585582775,30.848318139171468,-15.183786838629507,-15.588103195453762,30.779329733834075,-7.944281689265987,-13.600225694811702,-12.982524963300186,-14.258311996950212,-30.6710128204845,-26.930030245710363
-22.0,12.68464405744189,16.455774526511668,3.771130469069705,-14.587465021668812,4.491467876423238,10.090658502620853,-7.693503291320398,-4.3481347864080035,1.1061841436663427,0.7743262305174055,1.2924767861633182,-0.9142646883384824
-21.0,9.173984282034848,-16.647384454371842,-25.821368736406725,3.7039124228774805,17.53139245077,-21.25740773587996,11.462672863116639,11.737254533013274,13.91499869359996,12.968465774611191,26.485678743970336,27.000046121593343
-20.0,2.864831851305216,-19.655728506903365,-22.520560358208588,8.427916783335391,12.646835366408975,-21.114606967499306,7.179985464366457,8.445034195407953,7.988603176500469,11.640444192288715,18.53576543589392,23.089424619036862
-19.0,5.561499569143721,-19.647973788022075,-25.209473357165756,7.067573523606342,15.338279643106336,-22.460467481682837,5.036167439582435,9.702792432810126,6.500937414707712,8.892462799448161,12.659647946245716,2.508425760300989
-18.0,-5.977222025752416,-13.93209643826375,-7.954874412511302,9.977613920010644,1.0186678264344575,-10.901318087522224,-0.05097269899071977,-3.0934090890722556,-3.46139997802023,-1.3495422099150858,-3.9720560253298576,-9.866009341712557
-17.0,-17.784894800893444,2.8175928206868415,20.602487621580313,7.510975837996408,-19.16484446628937,11.74994749848921,-4.998254334045723,-15.159502278281913,-13.89588065057102,-11.87191786016796,-19.80473681053702,-23.628490401212513
-16.0,-15.167977299407601,8.252596079526402,23.420573378933973,3.4135516107802593,-19.342998593625524,15.877672614580472,-4.729545481684417,-4.94647762168294,-3.56511449336526,-4.08755465356375,-10.921620114883186,-8.253437881489898
-15.0,3.916914519476266,18.131438026697985,14.214523507221639,-11.061460236524923,-5.114312435859645,16.139092438848166,-4.565305155700724,0.5454592603359911,3.616553388074151,-5.017284951550703,-2.9595269948610756,2.0504735968701544
-14.0,10.254971784556274,6.893298467643826,-3.3616733169125546,-8.607417158933902,6.850668606062152,1.7362647148100532,5.606409098329163,6.530858813600476,3.8528445762626227,-2.5763025241308797,0.9837117370342594,8.091677729744154
-13.0,13.673230039948379,2.9345985339156577,-10.738631506032862,-8.257960670538155,12.179645063111227,-3.9287188488507647,-0.3033866013720392,4.573043426126965,2.9693343987509544,-1.2438710266249426,1.0717292158368603,5.0030704085151125
-12.0,7.2506462278084225,3.909624140892424,-3.3410220869161122,-5.536188592060943,5.279912843331449,0.25787880374610905,-2.46556153961584,1.8073446895348342,-0.32790398543648,3.647601303934839,7.040430944286875,9.884530187613795
-11.0,-1.9346150320709157,-11.002999594216506,-9.068384562145624,6.4314768317666555,3.5594064242961325,-9.985399981011374,4.071637163930513,3.4884359285900906,-7.599468793965469,3.3598448679027433,6.872636921198141,8.293999804694398
-10.0,-7.35126640063665,-6.856745969746129,0.4945204308905815,7.065628314943838,-3.925383374140221,-3.1340253960578197,0.8866180517768742,-9.014242475156511,3.5017970092288087,12.557650354050493,13.24683466624175,-8.86451571279055
-9.0,-9.529235077278601,-6.189232492972989,3.3400025843057684,7.901299745337734,-6.436021885521566,-1.4593587622106021,1.0713766664539641,-2.264731283415114,5.586344133377462,13.072771449157507,4.628643697841776,-8.928662211110819
-8.0,-5.306322853189352,-4.50789997029697,0.7984228828925377,4.953669837829038,-3.0559948368471366,-1.8915867948330831,0.11388332386744265,0.9798022764876992,-3.6121914067514966,-12.238482802651838,-20.980089209140505,-3.451266510468759
-7.0,4.853341940806004,3.902543882881489,-0.9507980579244064,-4.404039418540963,2.894106279231379,1.5168344789156678,-1.9234859487985383,3.9090529418038016,-1.5157578162207177,-17.0108920388636,-15.878152561515261,-0.22519137737425776
-6.0,2.551499968777687,-4.468006210688913,-7.0195061794666,0.9378621604372843,4.850984493845105,-5.781776684623505,-0.04267447295074489,1.0435381955561607,-1.6267950764728472,-11.68234958405258,-5.532813768519878,-8.333119771068084
-5.0,7.381951515894265,8.55391102875929,1.1719595128649156,-7.9849693434492135,3.0861509546497743,4.903176594790318,1.112118690043923,2.3330340463978856,-2.805939091210025,1.6716034688040047,5.2364224146463485,-1.1376433053957733
-4.0,-1.364189332972793,20.65304463395584,22.01723396692845,-9.661606661746042,-11.715231192836992,21.373432388676548,-0.4225551599579686,-1.9805099168148659,0.3152329309966686,6.251650961846745,14.337381151916142,12.001648688322359
-3.0,0.9066102822735178,6.990640812892083,6.08403053061838,-3.8906369883776613,-2.6190304021617834,6.4925076764500504,-3.4971885741250732,-5.187739474069318,-2.9933512199341585,6.708497975366451,5.744068558025421,9.773471915134955
-2.0,-3.5556319988267733,-19.043166679115757,-15.48753468028907,11.272704470964134,6.008618140741554,-17.317081435361878,-1.8000419625191042,-8.353465461129007,9.346617393781353,14.781672444797897,14.619741773479683,13.465225555811877
-1.0,1.2825690010117592,-10.99941713866797,-12.281986139679699,4.825063427993912,6.7409881859541585,-11.621955387965462,-2.421163078434334,6.000891209360515,20.07019468446532,17.198703994925495,3.457914737100246,0.5483799105771769
0.0,-0.9581032460942502,-9.532121124734266,-8.57401787863985,5.284634580096269,3.841488405824614,-9.041688685956832,4.592841242239401,11.218547854570463,5.488176741561301,-1.8018305816662852,-11.888725208986047,-16.181365611186816
1.0,4.3330221150998876,-1.1034991628151412,-5.436521277914859,-1.579379849699866,4.916260682711152,-3.262492418278897,5.416294031056058,3.664256068770145,-13.292374080804219,-18.469889620585057,-16.766779105645142,-16.750522225984707
2.0,-4.184411164656056,13.53940498788382,17.72381615253993,-4.723194986773464,-11.001253013434857,15.640574627094775,-0.2469224341528533,-8.088934807768277,-14.434929203540126,-14.693028370207513,-7.5423436451512185,-6.012014695187114
3.0,-14.656026264372262,8.329182078380935,22.985208342753136,3.19535135465357,-18.786784293881727,15.673055765042104,0.9131468802593257,-15.301523353434312,-24.085184456893295,-14.093301098957397,-2.1176987733969237,7.1758792632762045
4.0,3.594975014714035,27.051108369807896,23.45613335509369,-15.370597389147855,-9.971428019646153,25.280073523845303,-7.136475943285367,-5.375309924240415,-11.566573076463513,-7.483669277936166,5.488571006122369,12.438995454171753
5.0,7.526107871635903,2.239213852552032,-5.2868940190841744,-4.852324192181756,6.371204556652721,-1.5649521600881329,-4.259371499271964,8.062644234923152,4.7102512499659,4.197866554496309,10.9203262945824,6.736184570441768
6.0,10.257627636254742,-29.96935129829086,-40.22697893454586,9.806541902737052,25.292179747146974,-35.13083380657054,-0.10286274819718955,15.860617098966472,27.101344179818412,18.14693234019766,1.9316723233317017,-4.835231195287944
7.0,-3.992208791925222,-32.31298427023747,-28.320775478312378,18.181607823739597,12.220286709955452,-30.267446779645446,9.59561467312757,10.072675307740958,18.994627335667374,18.56304641411686,0.4764316849981318,-7.735823414022826
8.0,-6.0088911008176,-25.415213921578424,-19.406322820760867,15.74170680252309,6.679971920922633,-22.442359826939867,15.902737867889584,17.23464471427981,16.062047553452967,4.349280487609857,-11.733410469354707,-14.55718551196966
9.0,6.433683516329713,18.328329929187923,11.894646412858126,-12.349470257560794,-2.749416263684729,15.073426682971354,-0.9623209419746832,-10.281858242750232,-0.2792381924376839,1.1328131358298223,10.428583021564016,9.017612919792652
10.0,0.15801985156944198,37.92533492346188,37.76731507189239,-19.0861068541578,-18.82936253523649,37.8791859567639,-17.59874731718106,-26.340422876540043,-14.837987204909155,-5.539470206392738,9.033503759998695,16.86460863892691
11.0,2.934016411165877,40.7009535957049,37.766937184538975,-21.858797613443137,-17.4523438019747,39.26079713177596,-20.76070922387826,-26.862300371275108,-13.533580447416153,3.2566538916848984,11.61395618357193,22.83595444320594
12.0,-1.9787061163928208,6.743265382452119,8.721971498844955,-2.3417655529969537,-5.3218969263143325,7.757614155348993,0.22516077986635707,-0.5517932647520958,-12.933802515751111,-10.966911162542376,-10.180967887720717,-5.285704122890431
13.0,-10.23643884451906,-35.84818602913777,-25.611747184618842,23.007134177429123,7.701951120891031,-30.78074156010387,14.993886934259711,17.09676155592943,-13.553241212849647,-29.95325181688878,-25.09013597752175,-25.134190827945638
14.0,-4.487114870325913,-40.90796068934392,-36.42084581901818,22.74437285845577,15.971058954722086,-38.62973535870533,16.976857879496112,28.98860200227366,3.7676382876534396,-10.283353838203546,-17.63353794296909,-29.389110625559418
15.0,5.664833169030347,-20.39784314714333,-26.0626763161738,7.338073005554712,15.864566173780446,-23.26639082782085,9.093690366759644,18.53539863533191,13.917889243856399,4.9182561616198965,-4.725759784267664,-13.607764129422394
16.0,4.84414231619024,23.531805309786005,18.687662993595882,-14.13446564294149,-6.916932757928,21.15861289648831,-10.818071020009713,-10.330520299443302,18.800115600464686,28.79363305263591,24.838534434283034,26.081227509444677
17.0,-0.04111171860494256,40.71464952597329,40.75576124457844,-20.360115279739723,-20.383750241098404,40.707401022390854,-11.491919443248692,-27.008410967449226,8.410143470279396,30.366132565462223,33.151551654322354,35.26297962833145
18.0,0.4265343266051995,21.987971351931776,21.561437025326757,-11.231066426039131,-10.540319517796345,21.743542829976555,-10.024382300468126,-20.724377870281216,-6.313650020639795,11.483481169639798,15.000985604207994,18.48858376201195
19.0,2.015172667744097,0.7699026821995627,-1.2452699855444482,-1.4197258868346232,1.5898279520017145,-0.1983468931925163,-5.373030674784247,-4.490175223199641,-12.527598522361478,-2.7405999531663863,-0.6636836267208208,-4.048813815209167
20.0,-15.106057756669905,-47.30779806063778,-32.20174030396788,31.252586355480634,8.514476024211058,-39.80507927727148,18.59368906767298,21.738807571273036,-13.471099650104051,-36.84009854558736,-33.744717466646634,-30.21605300176135
21.0,5.27117341551927,-15.84436899619848,-21.115542411717794,5.246340066313504,13.161740267756137,-18.461720901444544,3.9707680414405067,18.64041819523045,5.642734192424516,-15.59395664627434,-16.889889082181497,-13.473323633099977
22.0,12.390212425873592,4.893388279789908,-7.496824146083888,-8.610032020066473,9.98816880148927,-1.2896614095565884,2.575592154626909,13.143989144800724,9.23187633165992,-3.6917750876843645,-3.6907512528192434,-3.269619150848479
23.0,3.138561658733813,6.224503952082032,3.0859422933479994,-4.654515885855911,0.06676640427603653,4.667259982797761,-3.984629058939954,-17.710325135538696,-5.432834529296969,-7.9111237906433605,-8.956873317608043,-4.5354637717561275
24.0,2.953014682409343,4.27424293609713,1.3212282536876305,-3.6672783461593923,0.7744950727857987,2.8159770384620764,-5.249280348003419,-6.625965472714606,-1.5401248673455434,4.0147999973238635,5.530871939904408,4.681753854321794
25.0,-14.170498036313473,-5.093453903324246,9.077044132989304,9.657992571244224,-11.586447480801489,2.0203342694431097,2.20016351527698,-0.9023729127168441,-9.79524481690051,-4.388591507435246,5.76290824454682,3.0666845324894663
26.0,-9.27943038064025,9.775444452154904,19.054874832795242,-0.21898997927928843,-14.204950835699387,14.375744427831677,5.212867943065598,-2.5471986067603956,-3.3979061506678976,5.040924340034296,9.898753788630334,8.46115948865484
27.0,-0.6880911837008101,18.43972019026229,19.127811373963034,-8.92160095846357,-9.86054454811084,18.751921807059396,-7.773342628291617,-0.8115868685421521,13.784634687097155,32.698046486717125,18.429608036380387,15.461083146436385
28.0,10.550610464680457,11.385912997976542,0.8353025332958239,-10.931458325383481,4.833822487077409,6.080621370462723,-3.3187635226576013,-0.22945011814552085,21.063968574948586,38.6553178685549,17.91078584827461,10.797477976544773
29.0,4.347536139077503,-8.037677394543204,-12.385213533621066,1.8063203341353344,8.349125238212286,-10.167013965743493,-2.725869621625101,-3.0453407812207063,8.239667010440561,3.2686650772498433,-1.733160254510963,-6.831976516479944
30.0,9.588113226059882,-13.69526602010486,-23.283379246164895,2.0175329684894314,16.422645992798515,-18.45393398925351,-0.19102413256149342,4.598315935277292,-14.766293857971391,-33.768843639345526,-26.87927889726182,-19.35676829973342
31.0,12.01532399125487,-15.059332154106214,-27.07465614536101,1.567549252948739,19.532986630390432,-21.121372634565752,8.991827253762994,9.44951040165631,-1.3950678613868455,-21.500667432666095,-11.368163245509852,-5.168132132191056
32.0,-10.686515507458715,-4.361239512584424,6.32527599487457,7.572935247134128,-8.440879745823196,0.9964639149500822,6.68676958550991,4.453807681017661,1.5762346412912471,-2.7118854077498646,5.7916869278281435,7.7247491676614555
33.0,-28.810710574403853,1.4216530424901923,30.23236361689445,13.668950612285391,-29.5391109742339,15.835158987303531,1.6712066046986274,-3.5315731193515454,-9.419762467552058,-10.151581886349682,-7.756675605672239,-4.509201345760069
34.0,-11.150779885138029,4.399604342705883,15.550384227844177,3.353882517796805,-13.373288711839702,9.981859955204515,-2.0967755277074334,-0.7382159022118677,-9.956323180010276,-1.435792421810503,3.001096965054386,0.4946104536803937
35.0,6.478039225489187,18.663820690318918,12.185781464829748,-12.590292227285058,-2.8823440001180405,15.435313527882784,-4.206907858828772,-6.265882726867573,-15.06975000256357,-15.408728703570981,-11.875900179261501,-9.024431512902535
36.0,13.99198966421811,-4.8252503134945375,-18.817239977712838,-4.5243178726255096,16.448867379550425,-11.803537517285596,-8.14009457250398,-9.54054593647938,-3.2111884435425644,5.362821755021724,12.619732190760883,7.995241516076896
37.0,12.880359194277291,-6.571860929448903,-19.452220123726484,-3.1774173661658214,16.204305532980843,-13.06443199372266,-5.609409699466348,-2.6764056026303713,12.59154565084014,20.927760227317236,11.868796829344683,11.056941564139949
38.0,8.312933283584586,-4.610598246780648,-12.923531530365482,-1.880360450853562,10.570879087296362,-8.732572404638058,4.243044038215537,3.9747526637741126,16.43804007477977,20.035797209389493,1.4126854650910268,-3.344031357743612
39.0,-1.548768633122287,-3.575861296133904,-2.0270926630117083,2.526159907449446,0.2635207951171674,-2.839263048685155,6.5913891287842485,4.063534300910159,9.781352513205686,8.919655394480799,-2.179484500701573,-3.19511122494033
40.0,-13.504370188766618,6.370636792346183,19.875006981112858,3.603768191020216,-16.75098225127967,13.08978094817849,5.673174877883838,6.9233918214253976,4.763631281783715,-1.9083434758588913,3.1228094872698815,5.825412870058928
41.0,-8.709677749977521,2.671754857278307,11.381432607256063,3.0533884107034144,-10.033503395473524,7.076017411921404,1.259537585811663,8.04565040242171,-12.011436372684269,-15.04015283103429,-3.0983654446264812,0.47166307078492364
42.0,3.4934246085462437,11.913192324689119,8.419767716143092,-7.667310907959355,-2.453164621743216,10.219333912601764,-2.784781283157685,-0.6660109743106872,-2.845051617039257,-8.868519301871645,-8.95420626496746,-4.950018577509094
43.0,1.7587074768189455,4.265158966304966,2.506451489486093,-3.0497528834282552,-0.3609955699963301,3.363204550894182,-5.39627934116774,-8.039641631381691,-1.0083594063305892,-4.454022943171298,-0.2530803729427191,-13.139415347433008
44.0,6.953516495930176,-11.665703082531504,-18.61921957846177,2.324705737523379,12.807351925350012,-15.16250539625517,-2.7038561724326455,-7.78633271973146,-0.6951002864633686,1.7975500560491149,4.606929485314273,8.116075805715319
45.0,9.554131592698846,-8.337090038308027,-17.891221631007017,-0.6342278529038023,13.755577146305125,-13.133343333077004,-0.8986752232918198,-0.05546582055205551,4.866945348133356,6.77527514718692,1.095678390238905,11.965846099422013
46.0,-2.2756268610632095,2.5912115851873825,4.8668384462505365,-0.10170736134680869,-3.604303118054096,3.7082831650098402,-1.9833779725732075,2.665842790538434,-5.177770109782825,0.5083376067209533,1.9375998157518053,2.147008519625197
47.0,-15.507341549493162,9.177096548041053,24.68443809753418,3.141730572965185,-20.118831469147672,16.984740226413038,3.7400976199257343,3.0343480005718506,-4.756528788318908,-1.141205385280014,-2.6913921774478378,-4.907941092578494
48.0,-15.068072290591255,-17.918082133988303,-2.850009843397233,16.543648694112964,-6.127339347496889,-10.414764294672537,10.174293602849898,3.040894749148488,1.472485420036301,2.672470950739882,8.102378088272852,-5.154875763608651
49.0,9.795425817582396,1.697544489756563,-8.097881327826071,-5.78295420308411,8.926224720931366,-3.1590079800131043,0.13546818761128998,-5.082402057760866,-3.412274799775973,-5.225712088551598,-9.674755318250973,-9.850308809480053
50.0,12.829743568110906,10.080842081638691,-2.7489014864723895,-11.50213193874934,7.839314191563366,3.6216985849939656,-5.192628584272937,-0.22141600591241062,0.3316871291691894,-7.5656760313671265,-7.184134307349475,-0.6038234592974825
51.0,2.102078617010287,-4.5917496852182165,-6.69382830222856,1.2664787702718936,4.435325333955185,-5.613703572698398,-1.0370621933213706,2.9787670767112937,5.875685755724777,0.7720016459733375,-1.460514886039285,3.475179885538883
52.0,-4.659139099605519,-5.353323662773887,-0.6941845631681809,5.020205653483119,-2.0381681330716015,-3.076567621973457,1.9038231446326654,2.1272332007566646,3.781811549582711,5.395501491806964,1.9274882660166055,5.812308667813829
53.0,-6.650061709868233,-2.7401450346266825,3.9099166752417847,4.706073509816103,-5.270238925198842,0.6105227305752978,-4.269301729145404,-3.9162988203261127,-0.7290083133712497,4.204538462163255,5.735441167238427,3.1763745353590984
54.0,7.954619740546006,26.97017513596581,19.015555395419995,-17.44885582244641,-5.530591896215998,23.021021305577698,-7.1142166819956865,-0.009340764773077215,0.8512644228629203,7.3168285836959015,9.230939679905783,8.582961109642648
55.0,6.979942671916367,4.968386683474864,-2.011555988441458,-5.953040415233452,4.491070925278584,1.5110485638746471,1.9566326241823493,2.227249200153314,-1.5439535831624571,2.120460600366152,6.490367180385139,0.9217129593739652
56.0,-1.5232199906006354,-21.002006521615733,-19.478786531015263,11.215795500601365,8.974901734727974,-20.281623730984588,8.516445464465763,4.859153142702907,4.6135382097538455,-1.1833837153073636,-1.9025652527662813,-6.658531902186193
57.0,-5.704530366249927,-10.452282070824142,-4.747751704574413,8.04327685746802,-0.4732567307537421,-7.637624049077683,3.1176431663781203,-5.2108793205750725,-4.441484033614452,-8.342593429332751,-8.474830948018006,-8.546197633366445
58.0,-9.252677304013,8.164751143269383,17.41742844728215,0.5979397533466617,-13.317153569760878,12.833467473606099,-2.5189496566825604,-7.788980857948026,-5.103866711900721,-7.414301421445929,-7.265724527220046,-3.8515533536108757
59.0,3.0875846700977707,5.489762765773918,2.4021780956759264,-4.306099552496145,0.3754918228359072,3.9083652488653176,-1.2763466079153085,-0.7082253664798279,-4.7330772522448825,-2.633167361384954,-7.783133231234654,-2.720729092965981
60.0,-1.4258926599167516,-14.10210371164247,-12.676211051725886,7.749849746456837,5.593024964407724,-13.350759299407505,3.3769152350655154,8.74944353334793,3.47802507722667,4.228285533101801,1.5021703043047987,4.584768728934248
61.0,4.646801286665583,10.507539719137217,5.8607384324715746,-7.513862371151612,-0.6291190466659473,8.141100331289627,-9.333169373375359,1.3102022800011204,4.484771286263667,5.2773236732819075,8.057918323516732,9.09855233388777
62.0,7.683362910907236,3.4276315082813515,-4.255731402625899,-5.57670893955366,5.9520950508600965,-0.3793963945252361,-2.334362750256739,0.0001018852424028438,0.04376991492920901,4.490606843811431,10.419400139245814,11.277027565695132
63.0,0.6008230650926887,7.256082417895501,6.655259352802881,-3.9590337329093215,-3.044915648516482,6.991882713796226,2.2076864628244834,-0.4020775159259933,0.07652282415698952,-5.152483872252824,-1.0942543533420297,-4.483592308172138
64.0,-3.3128100470292297,-1.651095724183962,1.661714322845484,2.440234993880944,-2.429584265878675,-0.03295583180095485,4.953834436001887,-1.7600221606079263,2.1176785173335997,-1.492269498383232,-7.0323142086806225,-14.37077757414302
65.0,-5.140473631939742,0.3904665397383791,5.530940171678341,2.4017568971719556,-5.360909840396506,2.928703931678699,6.535762133445914,-3.8250662098630492,-0.939133138791721,0.12898508398908115,-3.6903686177503787,-11.578315996139029
66.0,-7.342932374791399,-12.07864169072959,-4.735709315938013,9.73086135037429,-1.25306461388416,-8.353365730386809,-1.5222009323854473,-1.3682822330562108,-1.4875602371086392,-0.04007556841287663,-1.5858986522813656,7.753369999330471
67.0,-5.426920011879991,-17.153061403266584,-11.726141391386518,11.308847006729389,3.1202600770508226,-14.457954484874184,-2.737708655746323,5.757620691693713,0.6514367762136486,2.8989107347377905,1.2856830442073348,8.48684007461206
68.0,13.94508316890838,0.39921857047663956,-13.545864598431809,-7.148874313383461,13.716306169803325,-6.586571417878636,-0.6892708854025376,6.171785122561291,-0.7087457781396649,4.960322321413415,8.232422578914647,4.569197637229927
69.0,13.184965419503,22.625841730044815,9.440876310541533,-17.952471799842517,1.9218030257703358,16.02314717886763,-6.176082085253843,-2.517814152373515,1.5396597961738088,0.9545882679734334,6.861031640353104,4.445469001751137
70.0,-1.72603756932752,14.189040493879835,15.915078063206991,-6.1902909135974395,-8.85087181422166,15.042642419979993,-0.4867456374264223,-6.214008341186668,-2.3249919982412566,-7.570018932428042,-5.925147345514022,-5.078881769988594
71.0,-4.193793306251951,-3.345148402076484,0.8486449041752078,3.7396306993943336,-2.5553866281689936,-1.180292573597816,4.50533299217362,-2.239970514380327,-0.9706458997811241,-4.338830831661726,-7.470980390948632,-4.20328822672084
72.0,-9.933211902701764,-12.381331733089095,-2.448119830387383,11.131384382193545,-3.7045408827971213,-7.428901706984349,-0.17196464123525912,-3.6675590452423408,-1.507331910055976,-3.0166956557879474,-5.637216799260575,-5.38561494401153
73.0,-8.647043894525446,-5.3613011551549095,3.285742739370733,6.978270379368554,-5.9369713699318645,-1.0570643484540514,-0.8895268712929993,5.866325031755533,4.521207842858263,7.537366529411585,1.2397535076555983,-1.8974263256781563
74.0,-0.7519070624097619,-2.4952479421548484,-1.7433408797447971,1.6738173713898226,0.43724064296778753,-2.144738560237804,1.8840676141424486,3.5377619310740176,1.2469671473480335,4.0067335992352175,5.478059901953227,5.235129443245412
75.0,4.221917999452357,1.1677997649988532,-3.0541182344531803,-2.7264230262572937,3.650403892803692,-0.9745488437665641,2.28839809847288,4.071316238167481,-2.1112202374679514,0.007510313627217435,7.894885378625726,10.72679623415486
76.0,8.08217258696289,2.51681725495162,-5.565355332011092,-5.254026042548889,6.831302341958285,-1.4809697708939586,-0.4115669901880028,-0.1601996280033311,-0.7214364823323159,-3.157153843437527,-0.299394474764914,-3.811923126670279
77.0,14.490205787611906,6.646846664652774,-7.843359122959147,-10.522882318550806,11.173767309296888,-0.5556688812792596,-2.718550227340695,-4.421702774148416,0.5071774166934976,-1.9126131667715978,-5.467372676438706,-5.943600153077398
78.0,2.2113502857604947,2.0146171461229523,-0.19673313963781025,-2.1448197712246064,1.2150850845545165,0.8759498199318607,1.1710034325913374,-12.265224692934755,-3.149350926071441,-5.892464401162525,-8.106908189862217,-7.847769524205718
79.0,-6.000613415691958,1.2213452274343,7.221958643125859,2.3587018394038832,-6.592323342488857,4.1949047961061465,-1.7411250103713334,10.118060791979993,-0.33296793912525025,2.9441877182538705,0.45416239367399003,3.4086166066252517
80.0,-12.83125047946907,-4.9934656087654234,7.8377848707033735,8.880915018790274,-10.384088197604282,1.4814582544708577,3.5140743735075586,4.169670514438682,7.393308432146847,9.265674446205656,7.29509142319013,5.095153410052854
81.0,-14.191956940168984,-4.192410726075355,9.999546214093717,9.158938761179282,-12.055866602147002,2.88983064318723,1.0840372973623937,-0.41179361870866327,1.2809630345571672,4.615772276361083,7.258489545366972,2.865593925743622
82.0,1.2615050244606367,-4.359722543157325,-5.621227567617454,1.592726162796966,3.4122633484734815,-5.002411695596981,-4.139866112376259,-2.753140773089828,-3.0746243622839575,-4.062638616568745,-1.5362893930943158,2.210312507917139
83.0,5.114638482677344,-1.3090142830935902,-6.423652765770268,-1.8597696834158484,5.748192185332044,-3.8814655762192016,-7.329510053224139,-2.9850237733039906,-4.021636448416838,-7.058102238762432,-6.9775566302348935,-2.1894259500868785
84.0,11.445786367503292,4.790252462532424,-6.655533904970376,-8.073714362867332,9.036296057110214,-0.9551692490574424,0.5599292259717419,-0.5694451446976927,-5.289289510782506,-8.893261010550525,-6.821194445689965,-5.157585786597192
85.0,15.63258861069911,15.014431864185163,-0.6181567465139359,-15.355668276927465,8.195101812569657,7.16660943766856,4.188919442991962,-1.0046286345560538,0.3787580555445689,0.7401797249438138,0.053754514327765346,-0.17585949720527028
86.0,-2.417789009612367,8.34431224698877,10.762101256600769,-2.993773356558476,-6.59490788222035,9.593310204297453,4.150586878360342,3.74400159964436,5.599769796704453,9.903415790429019,10.987522716147657,7.404599410702407
87.0,-15.64830719397317,-15.718772165889881,-0.07046497191723322,15.652620135783174,-7.791852272641895,-7.85685575552532,6.936900547846289,7.894387336297655,8.984172950178039,7.861137915020052,3.9159545161702223,0.05668809942295017
88.0,-5.388158565467077,-25.6410611026327,-20.252902537166,15.481014027388394,7.428211019661913,-22.905832053499843,3.4232354792535364,1.121267526378451,0.8541100995218525,0.3623293080399499,-1.3706132019164325,-6.42678982506994
89.0,-1.5279460438883206,-1.0901793168284897,0.43776672705976694,1.3504090185533544,-0.9925351296168965,-0.35621166201667087,-7.68577234306752,-8.503901229856249,-7.279529774942196,-5.339648301316107,-4.108588103923548,-2.697839432911405
90.0,3.184392888141207,20.104195063126497,16.919802174985435,-11.606110398970662,-6.887199618245399,18.490434464585988,-7.572134500499401,-1.7233423200823696,-4.145704654790571,-3.346634473406699,-7.000227641573112,-1.9299188920477635
91.0,1.1512414560716473,18.37835837422502,17.227116918153584,-9.727769114010755,-8.070094050385135,17.786717333966013,-3.262799058081262,-3.979258238909035,-2.317895117238965,-6.25382701340334,-2.2703274575086976,3.199246912992436
92.0,9.150301204019415,-1.253317583877573,-10.403618787896793,-3.989081705915053,9.81075499517566,-5.844418372719671,-1.5793873508865417,-2.971260291067623,-3.9465889575243365,-4.721754694997857,-0.7001812227437826,-0.37015776353269025
93.0,3.7706359961533846,-11.010632029270901,-14.781268025424156,3.58206589588216,9.299940215462112,-12.917784177519131,5.5232081727126605,5.268062541032352,4.3844757086589,6.173289329623792,3.286597051731265,5.945845665437361
94.0,-7.586642631631097,-11.629638992095245,-4.0429963604641275,9.652005871228871,-1.752187557063765,-7.789633846668214,8.676072182926575,9.56845318367153,9.923217133760529,9.914215138980135,8.352187288845261,3.3754758201998243
95.0,-3.927746665088387,-2.994555009874361,0.9331916552139559,3.428896855185519,-2.487539828534024,-0.9956662318136162,4.218715679723233,3.1337149382490797,7.313959980072877,8.85018804751476,11.87968265094856,4.001460356165487
96.0,-3.2548374732160754,4.094925930795352,7.34976340401131,-0.45017984796848465,-5.27306036215328,5.668649050693558,-4.482172432510984,-3.906833818835503,-5.978829067929942,-3.5493690548591337,-0.3899055705559298,-1.776813310530972
97.0,5.454969030303975,16.98866041168031,11.53369138137623,-11.17109970810024,-2.9994613065890543,14.280449987801186,-10.311076854916395,-6.280202128278339,-8.411247946671656,-11.811307294202193,-16.739178223633775,-11.639398792669903
98.0,1.021063868234163,3.0968195849479256,2.075755716713707,-2.084306265477345,-0.5556547520608932,2.605240695658855,-3.889733894983136,-4.63463232217028,-7.0521296419062525,-7.633438650562617,-7.3909974460481225,-5.304573530211087
99.0,-4.635071445177088,-13.474996585270887,-8.83992514009379,9.111768562201696,2.0815251233686447,-11.212218295194507,5.0394486782441525,-3.6569431377007073,-2.94414719927314,-2.9082084646497255,-4.012417815229776,-0.8679971774362976
100.0,3.4758027208633617,-4.503411653953889,-7.979214374817215,0.49516820214331636,5.709026637813043,-6.2083357934706385,5.021799322954445,6.367493380007177,10.901017790584788,9.49100912628593,5.41592561938676,3.8823728454129904
101.0,-0.018594469454675577,-1.08024639793646,-1.0616519284817318,0.5330089641973339,0.5003222413398389,-1.0275104824537564,3.6957289035756453,9.745092901394143,6.2923864357679085,8.718554996859691,9.911298659015284,8.805758035668592
102.0,0.800594300448557,0.33713224454668844,-0.46346205590181166,-0.5853084498988421,0.6831063376204793,-0.08955728148539366,-2.239918918300868,-3.127558305097873,0.08664873163061948,-0.3154127253055963,5.497817020817474,2.6774096413157418
103.0,2.155116153287845,3.8056537499989247,1.6505375967111267,-2.999493728113956,0.2954446862368071,2.7062585477969594,-1.188830244001796,-3.094875656042138,-5.1909517621373915,-4.961356910377379,-4.356669181392054,-2.304492482127011
104.0,-1.2835778538522797,1.5337513007682042,2.8173291546205115,-0.07005584123906905,-2.093075268825251,2.152107258429929,2.445753408252714,0.7633830939691382,-0.8746387006376914,-1.5908349625559561,-2.1380553226578676,-1.0283550068419252
105.0,0.24210505250937686,3.2305028664811752,2.9883978139718175,-1.7649940109729672,-1.4200483944299607,3.1568671990858563,-1.3008093434472838,-2.8528174244884075,2.1304473665958756,3.2074610051402166,1.6932144304696233,0.6719224068105505
106.0,-0.10617581453870606,0.9618901219394995,1.0680659364781997,-0.4599145317322807,-0.5557380283828437,0.9710211779618925,-6.658319873703301,1.318765259089108,0.12972515798599116,-1.582960155082235,-2.787719618017874,-3.3939883658348995
107.0,-8.161836225883807,-2.5362193569595712,5.625616868924192,5.395592678299845,-6.85886146833261,1.5650291718760936,-3.357519203489702,-2.7841699953751204,-5.578650412275494,-7.82983825368123,-6.0395180407986375,-5.702513930904074
108.0,5.9508998539767735,2.778244041522276,-3.1726558124545585,-4.393034339268823,4.524437113863282,-0.18977694079437235,3.332637505704856,0.9291708802361341,1.4627628703790503,4.408470003714992,4.388626852018678,5.522250148225928
109.0,2.72656041545532,-2.8901583519379117,-5.6167187673933014,0.13878238535857645,4.220881063704072,-4.254331607532696,5.1909765397224925,3.15996679927829,2.481779538263705,6.259821612995235,2.961867280848099,1.6227305035043462
110.0,-5.411831747332339,-8.82701838703725,-3.415186639704983,7.104985073360115,-1.0209001512402986,-6.12386903748912,4.506583445067717,3.9411061424594336,0.9057482043234009,4.140288992008295,1.1148493010406242,-1.0151602350735605
111.0,0.5108665997564564,-1.1143031015442912,-1.6251697013008108,0.2920716357773834,1.0496084790959026,-1.36765982153298,-1.721772082317734,-5.086724340469312,-2.3078769688605534,-6.367820859003038,-1.459770085381171,0.5112782743973824
112.0,3.6248452760551175,8.517799342285345,4.892954066230216,-6.081576255534245,-0.6518744746737485,6.717643076607341,-4.7247624089433735,-6.408854913281932,0.35674070800771834,-5.7983328361508475,-4.88413656033912,-4.012613014811005
113.0,1.763391880936122,5.710739829988311,3.94734794905225,-3.7547284499923412,-1.1122278303752449,4.854236086394485,-3.498275126305071,2.6585801040141517,-0.11276135091989012,-1.6077424558923163,-1.2619270152982742,-0.37931902001047635
114.0,-6.984636651332119,-0.841341346116002,6.143295305216208,3.881892708770447,-6.509263034258265,2.6099929668314092,2.16996215995743,2.9496036258532077,2.1790047548617277,4.741356069497654,7.314196360124011,6.482084719674328
115.0,-1.001589582648665,-4.826370155214329,-3.824780572565567,2.9450333532257926,1.3843404479980017,-4.356975529073551,3.5563097118443574,2.4991674096866765,-0.4962695178489508,-0.2651262707833859,0.047212168742955196,-0.14060863407192414
116.0,14.045865986450135,0.06550401864538502,-13.980361967804697,-7.0403492757945525,14.063350474839659,-6.904902698465436,-0.7292399187925859,4.070204276471097,0.7788948848096291,4.135275554574191,1.051171829046094,0.42621570794334696
117.0,4.27800328328628,-5.468397838202306,-9.746401121488622,0.5996140389681738,6.984568369387709,-7.632723155850846,4.475519915302877,2.257243220603879,1.257462636959553,4.213366900730495,0.9750033889067353,1.1672789878251113
118.0,-14.452448701117573,-2.8341881028840072,11.618260598233464,8.644176298564629,-13.06096831993176,4.364817543230433,-0.15053032650220088,-7.775736810972419,-3.7951794584688403,-5.570987711881919,-6.173456716889346,-3.113066429149408
119.0,-2.48106610539835,12.463602630545292,14.944668735943567,-4.986096587683187,-8.658261899621603,13.753201891763654,-5.040819465217582,-2.7381347228057313,1.205787977849734,-1.837708672302037,-0.5202197962020754,-0.5921493250167305
120.0,0.07308551804651886,1.4840033089655233,1.4109177909189627,-0.7627231244803301,-0.693767068769862,1.4169166183042199,-2.390019290262214,-1.496790874887119,-0.3155014695320878,-0.9671790658530608,-2.2292696653764232,-5.8785782713262185
121.0,4.548522802096261,1.0833516471274356,-3.46517115496884,-2.864863103559316,3.978296509287817,-1.14054898041658,-1.59871894187984,0.8957546308788585,0.6206155810802045,0.08207539746003234,3.928279097880778,1.7767402815346993
122.0,-8.333206503829865,-13.320804277655643,-4.98759777382582,10.870709419855771,-1.7076260305585849,-9.177162500756495,1.4465664305101888,0.8640125151023679,-0.9831732431410853,1.1313860477026276,2.7882355331070077,1.8244079206865547
123.0,5.03015125656348,1.8950310404248674,-3.135120216138648,-3.486869848072885,4.11927085227941,-0.6351424883301409,3.1184179416587594,3.265235775575273,-0.5530259173419325,-0.80277633768993,-2.383756967948313,-0.10583822222655259
124.0,1.3148834462756454,3.9236585575115885,2.608775111235933,-2.63767988786618,-0.6166083995756475,3.2598820828192827,-3.4956271064190334,-6.635312118126679,-7.721502443096592,-5.0268461245722,-4.538025205153256,-3.388005532315765
125.0,0.315247633560483,12.980412912065905,12.665165278505453,-6.665582004324664,-6.1483139067279335,12.824368014515972,0.06714023088007881,1.5632499574190688,3.2276251100558033,3.2097941762622506,4.6815378554765985,8.417888277344392
126.0,10.461621327551757,-0.5210539225028725,-10.982675250054609,-4.912924287039678,10.669556683934044,-5.744822781656376,-0.4574710958102841,7.215692690776627,10.439044940160711,8.295923372474096,5.589494834286547,5.966897257878798
127.0,-1.2578703222278103,-20.142775912341456,-18.88490559011367,10.672554315571764,8.841938071903842,-19.50505043046465,8.835769737091862,7.0024273395707795,6.847713516998619,2.9191065174595585,0.5740201159584755,-1.7621467085369422
128.0,-12.58072349702223,-13.227660821958942,-0.6469373249367463,12.9476246505623,-6.013340345843759,-6.931277190844852,2.074554478312827,-5.663403997144118,-5.495599829807155,-3.379067821897628,-4.678072623466167,-7.1223900222790375
129.0,-3.18156828012435,10.41212174816648,13.59369002829081,-3.6580885608959672,-8.351136716922394,12.001475280269444,0.04914499299638131,-1.1901774933185059,-4.525373339795877,-5.278176221906447,-3.1946368981631,-2.228083243644071
130.0,3.553556723862644,17.510503878253118,13.956947154390464,-10.502639988914124,-5.240639042682331,15.720858967345624,-7.435511323841078,-8.750692319223997,-9.595371040704334,-8.045748230322708,-8.26992372576587,-5.899788177413942
131.0,7.039861368834659,-9.292361876002909,-16.33222324483756,1.072072677511601,11.727324170701582,-12.838857323689757,-1.2985739302048982,3.1179628894916624,1.6406213705976675,6.518061049539965,11.992705457887194,6.756857851355202
132.0,-3.7548871093146494,5.354579644927838,9.109466754242515,-0.7775212134528829,-6.39198438288559,7.270863665385903,1.6656334324802957,-0.5503306521474576,4.8318621963521595,3.592063120198252,1.4140749073678043,3.7156825897940653
133.0,6.854114263157016,7.879493888766573,1.0253796256095795,-7.343352329149281,2.8717925678267004,4.4025239187806795,-6.126854858096351,3.4399259228388788,3.5218137192314596,-1.2684627975447524,-0.08539693198575016,-2.190618049062662
134.0,-0.41436146917906513,5.511247844068188,5.925609313247234,-2.598834883546691,-3.2192215278821528,5.743116034974842,-4.9803762565395395,-3.8818475214509904,-0.48153740634947395,-1.353120897285413,-5.755476464155498,-1.6446177320263176
135.0,-7.364999066811064,2.6791981586140943,10.044197225425085,2.3795032163181093,-8.68324064191932,6.389215220628899,0.9272912333104328,-2.9608350635137675,-3.8347054390055346,-3.3845284468472094,-4.792671705967279,-4.143987688777054
136.0,-4.154411499324317,-13.825969679993955,-9.671558180669713,9.036811735700132,2.7721418270616027,-11.712282198186456,9.568876239460915,1.9265323908064713,-0.0744615067667066,1.2976543926883888,4.471460283387345,3.737254358880002
137.0,0.4141408190825302,-22.153804543842398,-22.56794536292499,10.84696099544387,11.499172198543208,-22.390768782690987,11.18204468355081,8.866728456123377,2.658879985336139,5.741377128779916,5.157213568054752,5.790103401942219
138.0,0.4463390602087118,-12.135336112788913,-12.581675172997645,5.827303950758428,6.520387164381134,-12.37634961786829,2.3539929104569737,5.567109986663093,4.760988770447809,6.865207114429772,4.907684666731594,4.813674236198607
139.0,5.111584926757428,9.08967320047629,3.978088273718825,-7.117806765135449,0.5752412928420201,6.524348069177212,-7.297111854142406,-2.3902769620147204,-1.462636068663627,-5.49189460830728,-2.8343347224604805,-4.528099793368312
140.0,8.880191678203959,25.47619908289572,16.59600740469169,-17.201428523503647,-3.844474829384938,21.029267753357427,-6.414041029916392,-6.860885868281234,-3.292794676157456,-6.002952168405722,-4.329339339200544,-7.75962566048449
141.0,-0.8279202131180923,6.149649269802069,6.9775694829200905,-2.61587678242881,-3.9620927572318916,6.554101672819911,-4.71381356569142,-2.235268829241404,-0.7783676991326312,-2.8919398792544593,-1.1881652232495985,-0.5600992048747342
142.0,-9.235848424432888,1.054075840178843,10.289924264611665,4.045316027499066,-9.738357430407685,5.656548108925818,-0.6019660766872521,-1.8969208964720106,0.8645979342026902,4.494515284784004,2.0272605763650002,5.148417540069648
143.0,-4.744559871983032,-0.2605878083262882,4.483972063656699,2.526437515955277,-4.586770351951377,2.1687527421283805,-0.2146465283220671,-1.9279073735074421,-1.3818261830610354,2.3177652393111385,-1.3765204110927498,-3.603239591576716
144.0,2.1847290152781866,-4.367727592987138,-6.552456608265358,1.1116362322287556,4.317730693028464,-5.485700946712079,1.3780827859433842,-2.7025387014723563,-4.874618238095536,-5.18633771500799,-2.3731350719645303,0.20679654679336235
145.0,0.6784858101827861,-10.233471354779384,-10.911957164962224,4.800873455790521,5.821444990339407,-10.519919809765376,5.691967786004516,4.728988394089698,0.7594913134473161,-0.09966115780622345,-1.828657301854832,1.5133773976347689
146.0,4.116222317003649,-2.9956566826212594,-7.111878999624915,-0.6062429113962433,5.637764560849416,-5.076910622546299,0.5313185954161508,2.980399836530111,2.03697423037156,-2.3710568623125203,-6.012175818215843,-3.6801190946686932
147.0,2.57735242671642,-5.842389262578683,-8.419741689295048,1.6781577424741816,5.441638802229042,-7.14986290761057,2.3593316215542046,7.63931114556993,5.90198136925049,8.54953451669508,13.86947709363075,4.526744613647605
148.0,-1.876894312366347,7.203134851068037,9.080029163434485,-2.683692450144417,-5.456612071030395,8.126755090486043,-0.40864338971089464,-2.129947375720072,2.9517831193914397,3.746282451518351,5.895960873875138,7.681091922646634
149.0,-5.563302420097933,7.46891143380069,13.032213853898758,-0.9647139167387544,-9.273501563425668,10.238047494200234,-3.1467702345883155,-2.686254662894063,-0.20864200551113288,-2.795729178320409,-4.651617145358002,-5.2861795959445494
150.0,-0.9080523069102113,-4.459837180693352,-3.551784873783049,2.674578799028427,1.3504343293167116,-4.017901733634078,0.928592237142067,-1.2276550082400584,0.06441325446578094,-0.6004549724196873,-0.8386609308511987,-4.328200226173965
151.0,0.9387417935648403,1.356060087355695,0.41731829379082397,-1.1605883670868762,0.215335889231562,0.9525385532035417,-2.383078856404465,-2.9740653060775486,-8.083865143200397,-5.223688961557027,-6.8471396162727345,-0.5316369631129612
152.0,5.7620734242721765,13.215271710192894,7.453198285920577,-9.510329743851432,-0.8086585542222327,10.320267944856406,-4.657427361518309,-6.570076087148162,-6.720899953670239,-5.4754574767453175,-4.279032363701262,2.077860477365128
153.0,3.154128266275122,7.56272628961924,4.408598023343918,-5.311518192060384,-0.6681434315663531,5.9711230912800595,-0.45508447928672435,-0.07021100297830829,1.1441253859934846,2.0271690472233184,6.448534869110596,2.8948372528928044
154.0,1.8439917018348866,-30.743672750763384,-32.58766445259845,14.487865128625469,17.173080909221383,-31.68004920319084,8.882087444404496,10.66708618866364,9.032183097439004,8.594257901685957,5.894643079710234,-1.4591772417685025
155.0,-5.243626728187656,-20.503459657055945,-15.25983292886841,12.827298874200476,5.040595513568423,-17.89544507055804,2.111120460170471,5.190085257027418,3.408800015907628,0.9410238868557737,-2.7710968654489943,-2.406131382410532
156.0,-1.0274909306803424,14.172560490321908,15.200051421002204,-6.5415590516417605,-8.08454614153521,14.751514932067158,0.9267667439419305,1.6504194418175713,3.5734420048255866,-2.022324380819858,0.7791700249681173,-1.4040411302458407
157.0,-10.320066317694323,8.044959453493618,18.36502577118797,1.0915405710983832,-14.314469798271439,13.19039660405,-2.0843246288492043,-6.730201635144598,-5.6012732895726725,-2.724528367227223,-4.782057174752916,0.3104724664100805
158.0,2.049027350420054,19.558096854159224,17.509069503739244,-10.76727541562069,-7.778627681692408,18.5157465117298,-7.530449506335365,-8.13962471018695,-2.678533980601211,3.0441524990062767,0.3446960196147122,3.2741740853832937
159.0,9.907476348827641,18.327344702527544,8.419868353699979,-14.156249486584485,0.7792732281746306,13.350056976336973,-2.9265679400199343,-1.1096797067859834,-3.830970060314831,0.9123914717824956,1.0603899130994323,2.032396291053268
160.0,-6.260470140212389,-4.4208118468768305,1.8396582933356416,5.382793402388818,-4.085586998210248,-1.3216854890993708,0.8011332260826036,0.3581662460847381,-1.622191210197798,-6.044073264704911,-2.5821357171932466,-1.3534358790763148
161.0,4.389300522792822,-18.798430625349248,-23.187731148142003,7.167896583747782,13.761874044347365,-20.95341384753305,2.5918802010847584,2.7526783363882,-1.095369394263494,-4.499052351965366,-0.8474527562897085,-1.0911252899506634
162.0,6.6500518033157725,-19.777777183201078,-26.427828986516843,6.603271025894299,16.599582989902707,-23.069844603478188,7.257352894102809,9.672910031187826,8.904584437985992,3.8689875462030514,7.723979610028409,0.07491368162883011
163.0,-1.6920373640673065,-12.367365896983884,-10.675328532916632,6.9854332242928,4.480267578909976,-11.492561622458553,4.804828552502716,1.9185890830390413,5.771683500912683,3.4802522670285088,1.0388449755523164,-4.5636428916510425
164.0,-3.4314240460591954,9.781558160152265,13.21298220621139,-3.1468603602724845,-8.32998227753135,11.44619617808085,-5.078745519738488,-6.388529854023201,-3.202192707115272,4.182256852423265,-2.7094374533291887,-0.6810343663246243
165.0,-0.30262293108955163,13.438780944109233,13.741403875198724,-6.5461889124909565,-7.030318360837843,13.540888615552584,-6.033515663860161,-4.777374112809558,-5.24283277561692,-2.226948763876575,-7.448833007331173,2.087889059857552
166.0,-10.712900740931147,9.669752879847273,20.3826536207784,0.4598385395995779,-15.561124060461115,15.060226269358086,0.00656658931117704,0.6267985254121702,-4.512231389266839,-0.47577730903224835,-1.899849884332904,6.072806803654758
167.0,0.6005248524884443,1.049823994531982,0.4492991420435377,-0.810236181604068,0.13189844448328536,0.7901477773004846,-0.4248788230287024,1.5564102369248198,3.694643103041076,-0.5825762809814234,9.240552994915268,0.4108697317674017
168.0,7.510282526927907,-3.0119799606525643,-10.522262487580434,-2.2326398486414707,8.98197957741856,-6.797426411687133,2.068275245164123,4.040117071433284,3.423207274386528,0.8719775811822492,5.771754146984235,1.3453472443618046
169.0,0.37980097270194957,-3.4920927665729122,-3.871893739274795,1.5778448748573204,2.0792093237981497,-3.704383614478313,0.4864948174097017,-4.678060074902051,-0.18715924406436302,-3.5091015550494387,-1.6586182491938861,-3.906626641614922
170.0,5.936216341968413,-1.076978426097316,-7.013194768065684,-2.400187248106606,6.496625891463809,-3.9824330126578555,-0.006667392371920933,0.6735881021067895,-2.8237894208337715,-0.6316085344646143,-5.125024243715131,-2.3301176033094353
171.0,-2.2466802198088147,0.21465583555008694,2.461336055358898,0.9751617251855097,-2.337649110339975,1.3247540740794586,-1.2657185919377991,-0.30504110809602597,-1.5228354577471674,0.7726025759640185,-4.740338870751375,-5.664763768780835
172.0,-2.2346437483875485,-1.0890581612972992,1.1455855870902165,1.6283316567858463,-1.673249332705865,0.013029055439637283,0.8057937947280156,-0.5317317313250091,-0.2514814287615142,-1.3792816629468754,-4.552390308506917,-0.40516376237951723
173.0,-4.00023095907433,-1.7019066414346469,2.2983243176396404,2.8224984509891105,-3.126093677120627,0.2757783850637706,2.8089303507968624,-0.18217532192908334,1.6536464802024846,2.2660360020619565,4.9835572918644235,6.476412952245453
174.0,0.3171714592576853,-1.8592176551468165,-2.176389114404559,0.8234199011070842,1.2013173689761558,-2.051527268538064,2.199937098226812,4.734530998165279,2.7711001658464305,5.2931460468660125,8.792990312473048,8.51310600011097
175.0,2.8400001137543063,5.3489351191196794,2.508935005365326,-4.042283072142512,0.20951618163616148,3.960985780079552,-1.3774803149463644,2.1935847381641578,2.5190951743330094,-1.179444250686701,-1.968284889058256,2.6346202668457748
176.0,1.8005855670102815,7.3758770950100665,5.5752915279997755,-4.616919924531391,-1.914098738958542,6.4959382296138735,-7.384743524676085,-5.7092749104987,-3.4091625543309405,-4.585155750251167,-5.513767490162632,-9.265137126684003
177.0,1.0150743906443858,-7.366198933461118,-8.381273324105521,3.143347054426293,4.674573229039502,-7.861341083492634,0.23370726721252533,-0.42620793055981876,-2.4871793516472183,-6.481151907118284,-3.8739017059510723,-17.73600365802898
178.0,-1.3428870283862286,-11.997305566872187,-10.654418538486,6.633498757905665,4.630073790228274,-11.316522430262872,2.2663147143000293,1.5458592794531676,2.6518380178929517,8.04078829096105,7.447798476614485,5.781896911652025
179.0,-2.702171458452664,-10.085256407444119,-7.383084948991485,6.431280000690531,2.387733735790214,-8.723260636385422,7.419341618131615,2.52474041542126,1.4495088749571798,5.326364463212555,3.5523819873406626,17.724651212080573
180.0,-3.0979416687565102,8.697594289914324,11.795535958670852,-2.766440092870521,-7.4849078793171735,10.183704060149914,1.7547419382709313,-1.7653666267581603,-2.4065731388016545,-2.7944016615607694,-1.4615447726410873,5.14448386229522
181.0,2.5487313415770485,23.862976007603386,21.314244666026386,-13.175907865483742,-9.346933950123821,22.611527180511686,-8.31082414043362,-3.2531005726068214,-1.1482958354161332,-3.6882029100265767,-3.06065970545703,-3.9452352328372804
182.0,0.23081025465904537,18.763387549603706,18.532577294944666,-9.54857798797594,-9.116084482167242,18.60031819432326,-8.130619370196454,-5.663898652315745,-3.2417300238303977,0.25043686389975806,-1.3984873582933373,-7.8828969442679835
183.0,0.6047487114201104,-7.990335244180034,-8.595083955600193,3.639385324271288,4.558765835882783,-8.252706532312141,0.867696468005271,2.2605439122789717,0.7083246406722838,-3.14432978584596,-3.534427144866246,-9.58428587975311
184.0,-3.6150907560178522,-29.40226353473389,-25.787172778716176,16.53303786213276,11.128732162183843,-27.545334265868735,8.281681531207255,6.514379118701383,5.353260608558534,0.5637905404568379,2.7819561978303717,1.7140501986665617
185.0,5.2701114188647615,-16.118733587000676,-21.388845005865598,5.448980611292804,13.29839966161417,-18.773973597362534,7.913053648404931,2.055951507916997,-0.7764161174533677,1.762200816127325,4.667266996640766,3.005607514577968
186.0,-2.5156875628757485,0.8227444213440176,3.3384319842196675,0.8727956968867634,-2.9554779701560134,2.0682095869926673,-1.926512128459838,3.336538329984902,-0.6365491352196756,2.0772444873573686,-4.820422702132813,-0.6741023185923738
187.0,5.81220298591232,16.549381320776,10.737178334863655,-11.152082077725177,-2.4916976783549796,13.635982541875267,-7.102282362196878,-4.699061542729362,-2.790527390600063,-2.6269889752930333,-6.199376983824378,2.152684014189341
188.0,3.4706601164540167,8.510627479959739,5.039967363505722,-6.038776349260951,-0.739102164458866,6.769427706768706,1.8386407504790867,1.5857089544489607,4.577496138931547,5.383298998135572,6.593455243006899,14.651529665980338
189.0,-0.9848721030871576,10.43697838077734,11.421850483864459,-4.77399746312248,-6.163675535681605,10.92126632222233,0.7424901176576666,-1.2049699958251319,2.0958090974837904,0.2051315509069045,7.503342226601357,3.759479764926169
190.0,-9.288217468106374,0.004984760349589834,9.293202228455854,4.670293593859925,-9.335792859660232,4.63585806950741,-2.26976824867538,-6.829119315687265,2.861281458138939,-0.005123278256690567,3.3854913404837412,-5.527292313409525
191.0,-5.212355751850616,-4.587412385976189,0.6249433658743033,4.924496774462251,-2.8896140165353073,-1.9220981372088635,-4.7893706030764145,-2.2043263186171558,-7.945045712194768,-4.479982301354875,-7.764824269627764,-13.916320804020192
192.0,5.210338435828224,-5.683283681230959,-10.893622117059275,0.2562987422487475,8.000058823245666,-8.314133279602963,3.606184108187821,4.926154519836331,-1.285962414312774,1.1174388358649887,-0.16781104740957087,-4.749855685309761
193.0,5.087192057970437,-13.885458274533285,-18.972650332503747,4.336308610268387,12.057380038153429,-16.459288995848325,2.0606541936202287,3.546929785434307,-0.9357291445430549,-1.8110529254839012,-0.747573615885208,-0.04695806743060871
194.0,-7.800014609691543,-9.489865368309513,-1.6898507586178955,8.65934335877408,-3.0244219949519486,-5.543856895381266,2.5657429999617922,4.0926620300528,0.03973822016485601,-1.2437731619983425,-4.015076957339996,0.7425809140821107
195.0,2.3593908653182596,14.916731686461237,12.557340821143121,-8.621917241351916,-5.142238605599468,13.703627601735608,-2.4610470231507633,-5.964589063113769,-2.272635666924862,-3.4266306820927026,-9.681273931106587,-0.12169619011606514
196.0,-0.5410982374638631,9.278324180647473,9.819422418111426,-4.347600011921688,-5.139799660651053,9.59466347225155,-0.5697506159952785,-4.884023121797091,1.3456289569086775,1.2633841255773823,-0.18928463210152469,6.24281138135078
197.0,6.045895025716336,-7.007497361951045,-13.053392387667383,0.5085141820810932,9.51481392728679,-10.062837648266818,4.161754305836478,5.021599909069819,6.446642505825849,7.479525024002204,13.5159804015075,10.97089883978265
198.0,3.712119867463177,0.908242289488506,-2.8038775779748404,-2.3548311976469236,3.302505789660354,-0.9803647754734797,-4.118978262091009,1.7737788445300562,2.6532950919737788,0.13573501984955483,10.268654787469668,5.98824762681137
199.0,2.311181992534922,10.503256540838656,8.192074548303495,-6.448058331906103,-2.9775378183080545,9.392613589896833,-2.431776882413157,4.520596743226575,1.2211242740557833,2.5744514431514123,6.095301094717758,-3.3907971224174767
