Time(ms),I,II,III,aVR,aVL,aVF,V1,V2,V3,V4,V5,V6
-200.0,24.611803952931716,9.929645618778713,-14.682158334153002,-17.256125822039003,19.621377302506442,-2.426593483133712,-10.37936870582838,0.3782076138763668,-5.433074132703746,-7.201783196318718,-19.81854772830066,-18.694617903605142
-199.0,-37.13226885446976,5.471349441100045,42.60361829556984,15.854123570704944,-39.89065076005036,23.983178573044164,1.371641512917945,12.765677861241713,-5.0440990649496475,7.0591109142894455,2.335065744987281,16.27946496284224
-198.0,-16.935207906040525,-11.483746123581954,5.451461782458635,14.161938527670339,-11.217041898602192,-2.9937584710862772,-6.081372161696787,-3.3439848031177943,-0.25964211093642753,-3.2466796802802547,-0.6151473133435026,-1.0728427008512629
-197.0,5.743568291313224,-1.755022726360592,-7.498591017673737,-2.0372262174730427,6.593305020223628,-4.60319543652795,-3.0568759010790467,-8.05056706756611,-7.734372948040733,-3.5551455361941295,-0.7093833663405638,-3.4508023821372302
-196.0,6.005589081542633,-8.890787313936894,-14.896376395479468,1.4797174762877021,10.496715578926672,-11.864525457530052,5.887745033467837,1.2170770730897043,-0.9187769435925,0.7288437378359924,-5.6044461261898215,-2.1061010962854114
-195.0,9.054518342371068,3.4807846253097616,-5.573733717061274,-6.23173728209465,7.355289432164508,-1.0082125455651783,7.448264847750856,-1.0961040865919942,8.114731752598013,0.9973044039488823,-11.348620540525896,-2.002491131791845
-194.0,11.204352988166503,15.588952866841622,4.384599878675136,-13.44199839130272,3.4479177221662756,9.95716494893682,0.7780177844675729,1.9641503362063717,3.8520206556801107,5.017959346173206,16.98347426274118,0.16394638932374644
-193.0,-18.156015901743608,9.378099201470036,27.534115103213693,4.419598278944368,-22.888039469067493,18.43599698066265,2.941947513736789,14.067603267572002,3.146255381659085,6.343299328942644,19.944773857035866,12.007169314894984
-192.0,1.9088887366000753,0.10795615583545093,-1.8009325807645524,-0.9803327041992387,1.8092157615275548,-0.8612098575414988,0.4737750987677825,0.4705001584533055,-2.0461322110842306,-1.5498676947880092,5.5924290770850655,12.184038200610887
-191.0,-14.303240818418004,-16.50466711390325,-2.2014262954851764,15.350827134923032,-6.021925047919504,-9.367741951215486,5.973676279923339,-11.44038468920916,8.424982915621587,-5.103956223058567,-9.962611737893294,-11.76989959190346
-190.0,25.92212287204618,-17.111469979648597,-43.03359285169471,-4.3824901085739025,34.42308004492515,-30.091834477128916,-16.42741685384971,-11.064388189522484,-8.335328200538147,-7.40022542696675,-14.342926752052335,-10.10384437983424
-189.0,-5.271868837297818,11.507319230517334,16.77918806781521,-3.0981891893721256,-11.005679161861712,14.195742113796303,-0.30835845295286735,2.7542475774571367,2.0263512319712254,8.073589515318925,-3.919639145077303,3.4956858820974945
-188.0,-0.6681575538173876,11.150121102715879,11.818278656533314,-5.3036028809207325,-6.2241343687811295,11.45136508914481,0.583247178814938,6.358156632923431,-10.674595965785015,0.17972479931317475,-9.353643330384697,-9.279862114108262
-187.0,-7.384095780287964,2.1818992291312407,9.565995009419236,2.6147982611874085,-8.451483030707081,5.915610883333121,-0.5372510490895744,0.11095490694009857,-3.0467895838181893,-4.225263951146282,-8.224937353797978,0.40725615702672435
-186.0,2.612152466713044,-10.731400878654615,-13.343553345367654,4.073302489997239,8.011382438637535,-11.997424596708798,1.4670001292053179,0.09146072824641394,0.3076880115489148,-4.495643131512332,11.692208694172844,1.8378987751672784
-185.0,-2.1537270375681707,-5.799701572148285,-3.645974534580107,3.9938992744234345,0.7146220447062984,-4.7618170056064635,7.17674530955937,11.055336970264753,8.115183563451598,5.470992133627734,25.48239088608179,12.316280239663271
-184.0,7.61244308878225,6.526233781577494,-1.086209307204748,-7.044963903924838,4.3321245391897305,2.679934245026971,-4.889841479243916,-5.849541117653704,1.7974972674262073,-0.8185570089866472,-3.440990258335818,-4.173156590817127
-183.0,-1.1705166469282706,7.937214625332168,9.10773127226047,-3.4279607662218,-5.144908558020697,8.557429523474239,-6.942328062223609,-12.774237243696545,-5.820168368664236,-2.7487423386233893,-6.050583243530337,-4.3221194529859535
-182.0,-9.826067437831957,-3.26385703641163,6.562210401420351,6.589317264799649,-8.193962113778273,1.5985797922931946,1.593317895442247,4.571351289991671,-2.881436741960284,5.699670516433529,4.9825266615774435,4.023399420000398
-181.0,-7.905117948522347,24.607023370588223,32.51214131911057,-8.37711506039986,-20.208864898082286,28.57901750244036,15.81863745957026,6.766056054183792,22.74376034581154,6.802553031809366,-4.005352625063341,10.410990062874026
-180.0,11.31379803268247,-22.032863875512255,-33.34666190819476,5.337703846262881,22.324085684389615,-27.678582787034003,9.314038046342109,5.649436580550779,5.932239218693242,1.467026765772618,-2.95529366915878,5.071008765602875
-179.0,-0.009794556077125982,-28.831714360069768,-28.821919803992696,14.398594655626715,14.390748349074357,-28.82080931816678,-2.946982269753172,-4.574470042309544,-7.834581617796002,-3.324908299115167,-10.88906944690096,-3.254542844738904
-178.0,22.620871531283097,8.033709519022663,-14.58716201226047,-15.275148697695698,18.657814367247106,-3.2709989102216444,-34.286445226697516,-11.306641444986544,-23.42073960463062,-15.131090455228872,-10.95468016826733,-32.09827938934116
-177.0,-3.3492380657762073,23.345264226221925,26.69450229199814,-10.031666105682044,-15.054454382426094,25.030504850421814,-0.724941988016182,6.169519782188665,-10.693600377286424,2.5548522847367883,16.853447558429934,0.04339794683521703
-176.0,-12.696159808697356,5.339831310910107,18.035991119607495,3.7155145575264266,-15.324022721333439,11.707247441730518,5.262528255249589,-0.9128590425881178,3.452497607820395,1.181929671964212,5.958660881655732,1.581300549678146
-175.0,-15.72807504858579,-5.677148590360009,10.050926458225804,10.733257496695554,-12.92647093366906,2.137539766137291,21.19284588255582,1.4373943620478993,15.992410402068916,11.243735086106344,2.006145912489141,22.58981471334459
-174.0,-6.650676832254946,-11.548707889112475,-4.898031056857539,9.047290545649435,-0.9104448225789357,-8.185201957748934,8.31307561350629,-3.1028191917310175,2.918162311015024,-4.03987224804522,-8.41194277518159,6.578025915437175
-173.0,14.377842171749187,-7.498902670305641,-21.876744842054883,-3.4927634109808814,18.176459291137633,-14.722783592744857,-5.893324471316499,9.861762832464146,7.239224620855324,-3.235738673156373,4.096295881510349,-2.4753958958358577
-172.0,7.340253724568926,15.024024440183886,7.683770715614882,-11.15356997722878,-0.19693812798114685,11.320994970515454,-18.846838207653775,-3.3442720807799193,-3.9996201973707706,-4.839578802186481,1.313324275939968,-8.225898180274179
-171.0,1.5633092845191507,6.58356572269577,5.020256438176592,-4.037856035385309,-1.6725368451794873,5.847257677373856,-0.9431394591968267,-1.249379618683193,4.65372863718664,5.047242992424207,5.3109327677545135,4.3600168077474635
-170.0,-2.0260228451234483,-2.4470331441943816,-0.4210102990708906,2.281780048521143,-0.8265651857509058,-1.468675428604901,10.123567204074917,-0.8226170902158667,1.4550433545561137,8.213832856725125,-0.9657712682044387,-0.6543532862626869
-169.0,-4.052431268869443,-13.497863621819095,-9.4454323529496,8.751507654342552,2.666888156892491,-11.427924270152623,7.296917857398591,-4.93073985969043,-10.557307813949585,-3.7846316694876143,-10.214357117787861,-2.89755368364579
-168.0,4.922499754799912,-1.5592695179015719,-6.4817692727014435,-1.6983050118605432,5.663306081878165,-3.9757055044672067,-1.0327437996095097,5.614026183394827,-5.4384600042347655,0.8495569891170409,-2.7952320279386202,-5.313193357628508
-167.0,3.5631832586147323,18.806884176713154,15.243700918098405,-11.200232907067168,-5.811204913512258,16.993161726654776,-14.70575788726598,-4.937462712168051,-5.4807962279653,-7.577398774627603,-9.0204658409894,-15.110959338253599
-166.0,-8.22865040201507,0.34625792729422233,8.574908329309224,3.921186651196368,-8.382463905075191,4.429327598408305,6.69996862505773,3.5879077236525223,-4.203301596041276,0.27320121845963286,9.429156307424497,0.9600104172463095
-165.0,-5.806835057448277,-11.129963318864778,-5.323128261416619,8.43866933047501,-0.22859760105230365,-8.259507355677073,6.189127217320545,4.391158488136526,2.5273383078158975,3.7637611097556767,7.767526811096779,22.464673180498263
-164.0,1.2864326737776461,-12.168884847878386,-13.455317521656113,5.478803891381695,7.383168453925986,-12.771434207215517,-2.6752750064655406,-1.8205798106407647,9.198399277472944,-1.0604269814253084,5.570552230010459,13.49992750905708
-163.0,4.453458166931761,-0.9729069157916985,-5.426365082723441,-1.7121127912362542,4.95627708457319,-3.167159010106472,-2.5325686494416537,-5.397978341995562,8.298012557630457,-2.635002086425172,-0.12348769623250844,-4.899934745800351
-162.0,7.129690733740102,4.534160383000694,-2.5955303507393173,-5.808309530030218,4.808090797622693,0.9131863522626391,-1.7202638223576396,0.17954657916648653,19.508422858148304,3.317997329513236,-3.313605410722765,-9.583324158325508
-161.0,-2.5869915446165965,17.33951488854121,19.926506433157904,-7.430190634980333,-11.301367739626704,18.646150830681307,-2.901065696223567,6.712932178165794,-2.1846828231003252,-1.1658873428501346,3.0405342846688788,-8.360283144287315
-160.0,-9.014899211862645,13.433094875822277,22.44799408768497,-2.178624572122583,-15.687087230663193,17.94670433301495,-4.713332220384269,-2.2077726075293604,-19.71235649030035,-0.5214853218953162,-11.002342526713154,-4.30360276090866
-159.0,4.017021380031803,-14.714820732914204,-18.731842112946012,5.3865686642307224,11.427866644872397,-16.72003800951131,5.310614033326734,-1.8686660325636306,-10.015019908481737,1.961362535921374,-4.7290229741085295,-5.858249706489003
-158.0,8.957071495379958,-13.461458640492644,-22.418530135872643,2.216497426290814,15.66908826519958,-17.93487731425623,17.81539237076062,-1.6943852449657466,-5.722407300046395,8.218058043583333,4.906104854100004,19.184360212935868
-157.0,-2.241358154730108,8.09598604517181,10.337344199901873,-2.96192447683571,-6.305063659775282,9.227578601587972,-0.31569463593654845,5.457534386306662,-10.021817518479988,-3.493138451579615,-1.64809872095593,6.973791891213779
-156.0,-18.036988365750325,-8.911877444577847,9.125110921172448,13.435976683269143,-13.59801240333507,0.12544813312147174,-11.131182563177163,-11.579629365170025,9.274575018043679,-10.552256597196815,0.7507380240546437,-10.608206223731816
-155.0,7.106273030973388,9.301722035661339,2.195449004687924,-8.171062951825519,2.433131359802153,5.696295855083538,-18.158121506068674,-1.4567216352954482,15.709999427929553,-2.505218892072544,3.4354749363480064,-9.539051359218169
-154.0,16.838434121439505,-4.107644068758177,-20.946078190197717,-6.340607639251548,18.940430310002462,-12.495230819747928,13.283638910288003,14.841622629823354,13.882971079682704,8.9617466951521,5.318624541425963,12.324180148157804
-153.0,5.246113472403075,16.585599099731343,11.33948562732825,-10.897266787625224,-3.0868661854083914,13.916914647869225,9.859653917535658,2.0992985542767,-0.3499731098273724,1.0431613987280297,3.4135036945557387,-1.394982582776434
-152.0,-26.106326014742976,-21.747167653684993,4.3591583610580145,23.942691378995608,-15.203423597395197,-8.66299599325153,1.2816625200487888,-5.569875972913213,-12.049795901747414,-4.830495043812979,-2.8618256521035343,-4.39269602764307
-151.0,-0.5596507178133532,-13.904939041698654,-13.345288323885228,7.2492038284640445,6.414359750436869,-13.598585847926248,-4.448331890558631,2.601209486691647,-5.704363264642207,5.089895363991344,3.2478912023860897,5.45999401307717
-150.0,2.720939197448029,-10.123358713021757,-12.844297910469692,3.642885177364269,7.798219362451654,-11.540979199798802,-1.985706470854994,3.711571771619444,0.7509672399737264,5.148055347044542,-1.8567465627172541,6.07075826396236
-149.0,5.928496993178132,60.20788822389828,54.27939123072021,-33.121735290962704,-24.242892655091055,57.261808650717455,-18.460678485378235,-23.097465947209763,-9.277807133607704,-16.664044231777375,-22.187202786602015,-19.948114804176313
-148.0,8.697015908281294,-13.593287424222304,-22.29030333250366,2.478566023328927,15.502012711585405,-17.924234169140373,10.902164712804677,10.019750747938982,10.805178059800092,7.126763628374745,-0.5286228446625589,7.697565382007904
-147.0,2.0317908957945474,7.477957516556502,5.446166620761809,-4.719080872767726,-1.7004808694139522,6.482068283783474,2.186453908491908,1.6503109124378281,0.5716995325151397,3.123021331479507,11.373967836872179,-1.6017815365900352
-146.0,-8.613577815704577,-17.513281190318253,-8.899703374613818,13.104480119710491,0.1496621516828931,-13.181934538958094,5.572876042732,4.9695174157822475,-3.108644280079038,1.9457519281982236,12.952242592690713,5.79475243364572
-145.0,3.08779340510229,-14.088069803983583,-17.175863209085936,5.466923723066854,10.14005557914949,-15.681195551519519,5.566033856746211,2.947447179943229,-0.4290275743416416,-2.580808762762241,-0.28296078907226807,2.6458591799478093
-144.0,-8.970805060071156,-8.583448024021527,0.3873570360496039,8.746513612057509,-4.667695710643846,-4.143563213516108,2.857907497686246,2.707113683183097,12.156525090766173,2.361213486800975,-3.508606524244426,-5.0262292725985045
-143.0,1.8232076108961035,6.211198318878395,4.387990707982329,-3.9694418870720387,-1.2670712522429357,5.334362996871999,-5.92185167567206,-5.2860295710327225,-5.556080237688722,-1.4192330331255198,-1.4032487336458042,1.3197708690707404
-142.0,2.660328591579031,12.634631606686575,9.974303015107605,-7.682277877119833,-3.7168257870554076,11.33866645121525,-6.975972978010079,-6.034475991320606,-9.483026654919993,-5.697018162900809,-3.2716910353510844,-1.1307885336476193
-141.0,6.421068250015274,5.436285632775373,-0.9847826172398904,-5.970132343978351,3.7239913469161556,2.179333752569521,-3.634856336370346,-4.489595464594807,0.09638579568406591,1.7071033461427976,-3.9079657003039387,0.7017744477880292
-140.0,-0.9455656340985383,-6.827912924339021,-5.882347290240489,3.91608921525044,2.4894999886276024,-6.324915118268079,1.3929234724824218,-0.6581675887007443,-0.03628124825343737,-0.25040850027942074,1.329468944749808,2.3847593511235203
-139.0,-5.4993785763020835,0.3059680440679859,5.805346620370122,2.618820155536305,-5.633341355848659,3.0843577109278644,-2.556029305003656,10.929050164955749,5.5001390417243154,2.9208786846156496,1.3420886904053815,5.645756512506077
-138.0,-4.60373226522448,1.7503283425575185,6.354060607782143,1.4439476601648498,-5.542141479897196,4.001695318871778,9.603833997586158,10.687904990682814,9.84709374547038,5.398221661017548,3.474381242282489,-2.1601679041671464
-137.0,-4.558161859004876,-3.5276509228422395,1.0305109361627731,4.058375789943113,-2.782449728389887,-1.2195872812266138,8.311063759409775,-0.38339262610733993,0.8047479861252045,-2.0012516570979453,2.919714765844593,-5.415216951516688
-136.0,-2.2716250628593126,0.8807412873443723,3.152366350203682,0.6331816641979735,-2.7022084892024614,1.9686246950235877,-4.428923125914979,-10.653446801948034,-5.272000290946039,-1.8863381125878667,-1.7147038717608383,-6.66990441811158
-135.0,14.578381463947187,1.9640894186067508,-12.614292045340529,-8.251877085460064,13.606896497671222,-5.2915110000943715,-6.208352877183398,-8.791429278168545,-7.128087040634623,-4.889802594915171,-6.198233880849509,-4.1259199730846765
-134.0,13.608901912438034,-5.8808664724241435,-19.48976838486224,-3.8410105571115882,16.564028145943926,-12.648342933943573,-7.674546408349879,-9.394386755248519,-12.38790829308978,-6.003363702151043,2.482100588361618,-6.247440139478371
-133.0,4.401817767362168,15.406851165335798,11.005033397973692,-9.956450490043977,-3.2801044023043544,13.167622787870236,-1.4432923378276845,7.6481750130074335,-3.994814748708197,4.518444976389764,-5.103921312299236,14.175213376085882
-132.0,5.383145087088588,8.098512258388267,2.715367171299777,-6.7110163208664195,1.2844690677595323,5.371379164567028,8.22133371642423,16.122790598388537,16.0349033187647,11.438767840340553,2.374357325457812,14.200025810892088
-131.0,-30.74824962741067,-19.607124517025007,11.14112511038573,25.210064439458304,-20.90851352855093,-4.188635963700684,4.271547891498445,0.9639995764505045,6.280166747029078,-1.1592966959750735,1.0712357353146238,-4.283056009259695
-130.0,-28.911545981308876,-24.404436382784766,4.507109598524099,26.613475734898287,-16.747605017973083,-9.905550680675088,3.28334779120807,0.08386347242053516,5.788199275320913,0.04031788228709787,2.5202294684143407,0.46239989366452794
-129.0,7.325483011153876,1.8397093599697634,-5.485773651184059,-4.547351105272504,6.36850981976364,-1.8629058121639401,2.2582350568060354,-2.5570958851690406,5.056441380533983,-0.2545943733500666,14.829498875259498,0.40882257284254386
-128.0,14.237678013381919,17.83999556598337,3.6023175526015736,-16.082334752176855,5.357730565645486,10.67410002545544,-15.376513031405537,-8.685213123486669,-5.40932502611866,-10.925391260157781,-0.6665974024042693,-3.4614627832190634
-127.0,14.100888491914484,9.902798095557852,-4.198090396356455,-11.967637543112989,9.18618122866686,2.8748116885674566,-2.965671204902627,-2.744861133231405,-4.80920013234226,-2.925295473831684,-11.610338620533321,3.0782452510383447
-126.0,19.971532776758607,26.478021482460605,6.506488705702128,-23.192455815961942,6.765050849851125,16.505110812977403,8.81401035711393,-1.0017061372501153,-18.150409710151376,3.177831157245737,-21.042936387261125,-7.127126963163372
-125.0,12.557779734296915,-25.014028037562454,-37.571807771859305,6.179600588152729,25.01434141088137,-31.288020199633372,4.427937747934511,1.2253923859379907,-2.914001249395839,3.194584909794078,-1.9821131635602054,-26.5364178247628
-124.0,-20.916449536481593,-0.8779723633610335,20.03847717312043,10.847474713666575,-20.531534325550652,9.58050058844172,3.6319464123653065,11.287284886991317,3.067173837393664,5.258256516381916,16.180639255875455,-6.631553669895427
-123.0,-24.991775157637527,15.533689945760724,40.52546510339792,4.759066830778782,-32.73602309474756,28.02924923012441,-11.105536820954192,-7.803876385417941,14.152782665891465,-4.459985355834643,12.048308431591922,23.105864444349756
-122.0,-2.5244902181499214,-35.7818105841474,-33.257320365997884,19.18741762905144,15.389617995358893,-34.51675495331084,9.768510276312654,11.131162396988113,8.099118467950518,13.245584466220874,11.174970396269892,31.843669109499537
-121.0,7.544194285450622,-7.349215623810576,-14.893409909261424,-0.05578652276703089,11.246233586297748,-11.112968093071338,-7.69038938309801,-6.460043679111988,-3.587114316291201,-6.663254625193991,-9.747924457386915,-0.41092595503328866
-120.0,2.6351057113134253,-1.3372496991760907,-3.9723554104895076,-0.6768041640148125,3.2604053994254727,-2.6403315154486457,-4.548545814687042,-2.2484613277789665,9.637480361842613,-4.069183345252789,-16.002381124953178,-5.6738515226163315
-119.0,-0.8225640277306265,27.785909753240972,28.608473780971863,-13.501182412173192,-14.669302098640756,28.137992427811387,2.826660735087839,-5.682458415218152,-7.8860145046253844,-8.216805818802007,-2.2593293619278256,-15.87326476245624
-118.0,5.4996956545985904,2.863571620168491,-2.6361240344297414,-4.196276508146832,4.047023065148173,0.13641560395235786,1.76045013066535,-0.7696288014652897,-16.373996588245937,-1.064206529229529,8.670697959210582,-5.340056873873152
-117.0,2.6774006379355155,-3.1592745841795704,-5.836675222114767,0.22584833476784283,4.246235234266726,-4.473950744117208,1.7107669521338196,8.604665541432418,-7.639508648017719,5.16224731483822,-3.7810744056132357,-3.327685139182619
-116.0,-0.023149436173096394,0.753012305770549,0.7761617419437634,-0.30728503732798784,-0.4041641694241589,0.7103787821526768,4.672497666178641,0.056540297353448565,8.331168852251905,6.322598275358245,6.284130150826372,2.6870397688623604
-115.0,-1.9597529963452058,-0.07130005691969155,1.8884529394255032,0.9842490821877066,-1.9275805575466687,0.9341606515210112,1.6483566591678713,-0.8944610047992161,11.82599731357115,1.7959934311713974,0.2240946776629733,1.5458544136257863
-114.0,0.9522322909125585,7.782054881505996,6.829822590593318,-4.410066992896736,-2.9469314251712664,7.3341121059806476,-3.8330199137734047,-0.07837193933507755,11.639980651467004,0.18072328483168754,0.7398606065368509,1.7298736363115923
-113.0,4.386180511879484,0.6868426837849784,-3.699337828094559,-2.5106022519207754,4.103648808836425,-1.4737447970357422,-5.031516725624602,-3.0014218506457917,-4.201964616067076,-5.000376535785204,-2.689949234422685,0.8966812423031874
-112.0,-4.484472413562763,-15.033679497531452,-10.549207083968673,9.779523861418326,3.0012365320574594,-12.83233714709842,-3.828320625526902,-0.7945975563107928,-15.47468636845683,-6.4570115683846385,-2.48538097101573,-1.3466476581461482
-111.0,-12.2379500842314,-15.421009583239396,-3.183059499008019,13.850234444703306,-4.573172185418857,-9.33776135382191,0.03273376481800061,-1.8565462077283859,-3.5751412626077395,-2.3464882424983546,-2.436485015565028,9.536798492285444
-110.0,3.201940190191869,-0.9471716059358588,-4.149111796127812,-1.1011472955904953,3.6952944710963616,-2.50117601494494,6.188738421337238,4.824923269372629,1.7310291324994367,6.477984276510663,3.345445433829079,0.8430183064324228
-109.0,18.957997285797987,15.495225051429212,-3.462772234368898,-17.270706657905336,11.220910732874025,5.98681217671367,4.829286363328494,5.698595996706923,6.46178931755683,5.917942104912908,0.08853269223507887,-7.624323441619029
-108.0,-3.3410598452912144,5.136769176357962,8.477829021649148,-0.933559085978775,-5.902113053780152,6.779128154307689,-2.987649826631934,-3.491432979206039,4.592844582960311,3.299191777361753,0.7640482177255423,-8.256153199341025
-107.0,-21.67869178244835,3.725195598565385,25.40388738101385,9.025630666792306,-23.530317861879826,14.616144920978048,2.3135531097372057,-5.057867716362976,-3.2042699775661196,-0.21144843240222255,6.498822777880621,0.11900627651200413
-106.0,3.7611381924763148,8.304080466419737,4.542942273943636,-6.060425343299148,-0.370203233546448,6.39795663709742,-1.765112894155722,0.2297844806198892,1.6578892279348416,-7.267984175776859,-0.4686546536341827,9.946678406270859
-105.0,14.41007730605032,3.4963289827458,-10.913748323304203,-8.982425226481556,12.617585127642899,-3.6532198203440642,-3.446880009625117,2.4885889535047516,-4.993950290096482,-1.9100319237167,-5.76543891354245,8.477690404280215
-104.0,0.41270008071777387,-16.760665018218276,-17.173365098935854,8.22017630434573,8.763559945484616,-16.98795812130046,-5.23394366204725,-6.276213451918908,3.162360490008966,-3.0676567923994362,-0.9455197701747537,-2.254466847043567
-103.0,-7.564810454661297,-10.484946087494837,-2.9201356328334818,8.988989489583048,-2.2600410187003996,-6.722313154674714,-1.1878524664146763,-0.9340462928989467,-6.181619572983442,-5.585257594634706,-9.291039561832823,-6.278455008706838
-102.0,0.00936685523031855,-12.53958896062135,-12.548955815851857,6.306044599679545,6.27138172870036,-12.56503934515715,10.727556527402516,12.201549977809004,4.231626888352913,12.28349671758397,5.778641892665137,-1.0587539091388174
-101.0,12.042888865648708,0.31329800153276643,-11.72959086411611,-6.137461084586044,11.881165566787768,-5.7323877774176495,2.073480553577933,2.801235171815324,4.631787002355684,3.314714666269496,8.529126431259176,-4.752362211427388
-100.0,-8.099392928389264,30.57255703913804,38.67194996752716,-11.27440021688755,-23.394397808205916,34.67134091580851,-1.5681778898601637,-8.077959601458339,-6.855184577808668,-0.029769049326763497,4.849853937331693,-9.16505973201483
-99.0,-9.668878932438806,-0.879383726052545,8.789495206386215,5.235516240181846,-9.24686894569816,3.9978734395644118,2.559395307646552,2.3161198148463797,5.69407481337217,2.352431023748668,-0.7948759517901509,1.017510739702945
-98.0,4.637307568601627,20.33554006609862,15.698232497497031,-12.449634333008527,-5.560040725902377,17.975082269447345,-14.644510011271741,-6.7793140476957,1.8383743384365308,-6.751516813307791,-10.215471536152092,10.787336256816388
-97.0,6.450996930526951,-12.504319036248173,-18.955315966775014,2.978366532682004,12.740550466591767,-15.7759707269724,-0.6211425552051173,-3.2685492465997195,-6.797073533190165,-8.317284694411075,-8.912549042374874,6.561394390269959
-96.0,-0.34667951906226424,-23.46356616947986,-23.11688665041755,11.927075256473193,11.413634429531065,-23.259567586754862,13.21102014778807,9.491455904720741,2.4581072901051297,0.2816286788799909,2.711119106857257,9.295858981427667
-95.0,-14.693312650945655,0.7764827949878974,15.46979544593346,6.971442426656,-15.057343575517173,8.154786347113168,1.6769345578613963,-0.8968139478132677,-7.96106863284889,10.172103492445954,0.01997842906722469,-1.4145280355880794
-94.0,11.616977794520627,-11.685596721697047,-23.302574516217913,0.03997441004198388,17.405517173217046,-17.537364875754932,-3.4947256528049646,-0.8307864290783407,11.74145792449711,1.8350216511908495,14.933152922727412,-21.624133440150064
-93.0,5.775125399259892,4.825425736788068,-0.9496996624719589,-5.298891439050678,3.3905370031577027,1.9791088621074748,-5.833261767549803,1.6495425850189551,-1.1708386949971001,-2.4116042244967644,5.052809667201973,3.202032239766888
-92.0,-0.23151915654927047,16.453935992562855,16.685455149112183,-8.110385685123902,-8.503974871400843,16.538288849765358,-0.9617761980982125,-1.8909710541857518,-2.4494841370026847,-3.8486174137310982,-4.071205822051658,5.67590652978155
-91.0,-1.0638549228559318,1.1426686323867141,2.2065235552429208,-0.035681179804182506,-1.5969980466307732,1.726340272278696,4.9755580700017585,-0.72264743338613,-1.2127423089579124,-0.2675260568996447,-9.041669129951103,1.3610251237221795
-90.0,-1.7802158211805932,7.864364265246594,9.644580086427474,-3.032803798477038,-5.749360515172117,8.728378556037516,0.15914411705498277,0.9242634510593061,0.38186620842476127,5.096359553798164,-1.9689738082799098,-0.4284717136130409
-89.0,-6.73102816831193,-4.68750783547449,2.04352033283761,5.647044620237876,-4.343666179686928,-1.351525047142741,2.47445292430432,1.0779668759713181,-0.8916085161075207,1.4199949465515567,0.14414379736902871,-5.1778754135491045
-88.0,-6.30525313708064,-5.868634913513901,0.43661822356669555,6.111740340277502,-3.4059625286649293,-2.752772344398564,-2.5827242469262788,-1.2020263766179609,-0.8399369054799722,-6.489345975697044,3.4102553534057956,-8.59981598975077
-87.0,9.562002669379169,-0.2312377886623782,-9.79324045804171,-4.631728325134029,9.720086506605215,-4.979369958317526,-4.108505394184385,-3.930117155140327,5.498691350153602,-3.4903636410592247,-0.2937585894914434,9.896148594884513
-86.0,2.6042596118059245,-8.263456616944293,-10.867716228750398,2.793561118544769,6.6974819366356675,-9.541144078648955,2.096300415930676,2.656854123130392,-0.7495346991163201,8.201042651822638,5.736636620398444,15.106689749008186
-85.0,-1.5232952816223322,14.54789912886133,16.071194410483507,-6.4609607946463985,-8.759746259232703,15.328475549762338,-2.677954774443257,-3.0268224929068426,-7.496960110421362,-4.393034761899301,-10.133018912709758,-10.151073279378519
-84.0,4.6751707570771766,-17.74891350190125,-22.424084258978535,6.516710898092938,13.505625084512834,-20.06908842110371,11.948747421084901,9.006030206358215,6.740960339987146,4.084622916074649,-2.8214672528093123,3.270048377099749
-83.0,0.9996663146358897,4.129693640292288,3.130027325656413,-2.580025245778275,-1.0325307629637663,3.5707635327475087,0.12842042053101066,0.5624931331311886,2.471656872121771,-0.06682830910887039,2.9198844075179338,-5.103679905865213
-82.0,-11.761951418651249,6.8926077130347725,18.654559131686174,2.4209328602521816,-15.255046004445354,12.798103739500926,-4.655728985296296,-3.676739237954699,-5.924245518759076,-3.319250720005767,4.670750973203457,-3.522385741343025
-81.0,2.569772206713899,7.621371324710546,5.051599117996959,-5.1111171285169466,-1.2075868368244294,6.288344727980913,-15.614435488659652,-5.693200239143731,-3.084052889998863,-0.835406317215228,2.5310291557495344,-5.446768214772153
-80.0,2.700380635749904,-1.132186160622152,-3.832566796371769,-0.7257138804703982,3.303482870093189,-2.445664391262344,3.3366961512710853,-0.007697514557809093,3.410521278247776,-1.04166308036353,0.5240334168342915,3.4833877937266005
-79.0,-1.4419070944551189,0.06420287596799824,1.5061099704232357,0.6614547330476415,-1.5101003626285259,0.8271144128002005,6.782551857690485,2.285718808526614,3.0285399105833974,2.549519740643514,1.577117337142835,11.88494360049403
-78.0,11.284353754242975,-17.399181814658753,-28.683535568901785,3.1005415926259587,19.95452280385626,-23.074322144014488,11.246552281173598,8.483867628573087,8.425150329643479,10.694413395741067,10.116378874025436,4.293868453969816
-77.0,-1.2455718883916265,18.435748898289496,19.681320786680985,-8.638939550145516,-10.407740640922473,19.027741390876354,-7.095646642828941,-10.418850982769646,-10.532178255369317,-11.646494292246778,-15.428215397311416,-16.830703037120337
-76.0,-10.489578951207218,-7.8146099692407756,2.674968981966232,9.101432543458582,-6.600585775203527,-2.5211784366757057,-1.191235808520504,3.5511640564461224,-4.023479175675535,0.04361719916584139,-7.391821994651353,3.5522372189411255
-75.0,-13.73655352459155,-8.13424963741362,5.602303887177635,10.959618393413903,-9.685722826935462,-1.2962401700952473,1.0631691765201317,0.3377635985850645,-6.837547695199181,-3.5045924387370087,-5.804675527083495,-2.8495209680208426
-74.0,8.213369273019028,-9.16580238365826,-17.3791716566775,0.5006196685084663,12.778747491239361,-13.30278917012932,-2.254520830157072,0.28877044008745517,10.567843694245724,1.790795323159608,1.4524136038003874,-0.12745477199801392
-73.0,10.69264936290716,5.193068691032066,-5.499580671875044,-7.914205903543822,8.152999702478176,-0.10377046990408534,1.5647678596168046,-0.3561568836718811,6.636633417997622,6.065816145701202,12.506017979121918,8.370176039958103
-72.0,7.44548274017759,21.78497377594272,14.33949103576537,-14.57977808274539,-3.4755637119256853,18.035539196344196,-5.53422591871151,-1.9149930477395645,-0.22682105200362201,-1.3347281697888542,9.309536381547609,0.04479472343481472
-71.0,2.7370843130665556,7.885948021360813,5.148863708294531,-5.348170130782036,-1.2422732810957382,6.573179834904987,4.858291565734522,4.078887925512179,1.9923111686933992,4.307493679448014,6.581288716231359,3.5150597933384207
-70.0,-11.59814373450037,2.982307862042082,14.580451596542588,4.274979201492323,-13.054457566782004,8.762025863335662,-3.2855814942942123,-4.200120805308282,-11.865238223735593,-7.32947947260477,-13.655757032109308,-5.633799355237734
-69.0,-11.675911685940546,-14.86565234638472,-3.1897406604442518,13.237104036713397,-4.2141570188660085,-9.045156644912584,0.6818648485710503,-0.6154665923090531,-3.970713187126984,-3.928544895706022,-8.187111593918637,-10.724699710689459
-68.0,4.361956454759687,-12.083572313047675,-16.445528767807545,3.901256346788493,10.350522902621087,-14.28312122030099,3.4097171122327867,3.6962091750763024,4.694924336601367,0.9617333205950933,-2.5583786662123025,5.4835256272530755
-67.0,5.947564510220431,-6.143829891807725,-12.091394402028431,0.05384899937168797,9.04441732725811,-9.140573111535055,2.2702932928434514,1.0928131066814895,6.004281642494527,6.9507599389023635,8.390270878278645,8.40179719242407
-66.0,0.9625642846780327,-3.9355711067583123,-4.8981353914365355,1.5170381819019532,2.957181852869188,-4.367840212525657,-2.8575361741526253,-5.335892350966633,0.34872735043676517,-3.197500588042942,-2.7117825365776667,-3.024970637205168
-65.0,0.8482626232400654,-2.0514070108287026,-2.8996696340688652,0.6330028821886029,1.8256550354961756,-2.5127662241234057,3.535432516172479,1.8754408890567347,-0.4554306382219857,0.16014122862668256,2.1395929618758265,-2.144885398533911
-64.0,5.2653945641947955,30.946478438292807,25.68108387409801,-18.067909649918573,-10.173058695536099,28.348821831797164,-6.206231238718441,2.96141419411267,-6.426315885087483,6.931052628576157,3.5220555367892192,12.218534143721218
-63.0,-7.340490094942593,2.971704367677992,10.312194462620702,2.154495171315931,-8.866124884278232,6.672626409132375,-2.1396745493512253,3.540809253508183,5.907356524723865,-2.522375296392684,2.002874487070562,-13.738695084916122
-62.0,0.03912214854739782,-10.230208877545172,-10.269331026092473,5.077487510935381,5.196551697120023,-10.299899504781935,2.8693648310539803,0.0892929671498881,3.1831326642121636,-0.9645572849412462,-5.170977897326438,-3.004438160811737
-61.0,-1.3573425483631452,-6.5074824011829,-5.150139852819738,3.923603147408767,1.8621535788687882,-5.800511585574804,3.0823622598813665,-5.587480012659224,-2.8001934347179707,-4.476510178467884,-0.3861765176395777,-4.925186096778556
-60.0,-0.8188675784458574,2.4181165911427236,3.2369841695885535,-0.8043449868108921,-1.982497545411373,2.777641963231633,-2.8397156094325817,-9.875193988385504,-7.611489501407124,-6.627522313099123,-3.708986374110727,2.338204095175535
-59.0,-4.455638184762621,-1.4703445082369004,2.985293676525675,2.956628595089468,-3.753970215469615,0.7870192156751412,1.95007659353804,-0.12555937212037138,-0.7780367172510521,1.5240498060059529,1.635142165927557,12.974591536020046
-58.0,6.695831559692088,-6.106298692329052,-12.802130252021204,-0.30698620475835336,9.714518279763979,-9.424067062476846,-0.34450396499390146,7.357227924213337,2.4868374261376003,2.2730646132434194,2.4279189984580922,1.6195163047867105
-57.0,3.7121768115940106,6.604327933366191,2.892151121772132,-5.177671749958948,0.4529837965268806,4.700358529924379,-4.252324186610204,5.12600316908574,0.657910515363022,4.515651549831673,-1.1834595238974122,-0.997633787255936
-56.0,0.3502460058948009,1.1653122336941628,0.8150662277993774,-0.7040383056475572,-0.19074964746125134,1.0224892502515748,3.9683385130233453,6.431308148615681,10.287020071307836,6.593191168070224,0.4143374903302313,3.8671998322065555
-55.0,0.08741652603129549,-2.849534969230521,-2.936951495261733,1.4325620620765633,1.4740168177402342,-2.9367983576354457,3.6283607314654325,2.1064394942138276,4.954972296968384,3.531054612311494,6.3829249365209115,-7.252324265919268
-54.0,-1.736622674483277,1.7398163247188385,3.4764389992022133,-0.027899262156366178,-2.6453706567591713,2.6482855471100355,-2.112287194212282,-8.284721832626055,-10.329294040401791,-5.194019818453084,-1.4878952603193645,-5.454295215585631
-53.0,-4.188780374359991,1.1603749056879105,5.349155280047926,1.4901989804311437,-4.7290327230888565,3.223271752976837,-4.3222626035764335,-5.281679847895894,-6.020674160042627,-7.229361883534482,-3.715421764639,-5.884015510916893
-52.0,-0.5447904204645924,-0.13335914884146793,0.41143127162304616,0.3162790679994546,-0.515744166659124,0.19474418536692584,1.9875723950922424,-5.905849482877949,-3.102513681645521,-4.9296099677913165,-2.667659975297758,-4.698577103343256
-51.0,1.054968414464504,-0.26747265886642624,-1.3224410733310616,-0.4182601252088118,1.2325756973538804,-0.8098607098380949,-0.6824048474479775,-0.00520523900278258,-0.9987015375216477,-0.9811774447748953,-1.166690695566982,7.435525562336684
-50.0,-0.46791628161761456,-2.0059092236444935,-1.5379929420269782,1.2860550910527935,0.5044998242049705,-1.7811946978245325,-1.2871494901545781,6.873827358489914,7.085828132817488,4.131933511494113,0.24597742463124161,7.214528702822399
-49.0,2.5478366586433046,-3.3225280179794203,-5.870364676622765,0.35022102220195916,4.26258877484055,-4.604438352250507,3.0376173944166167,5.098961962039951,6.731602234301227,7.723091375295803,4.056910470934504,7.803861141499492
-48.0,0.0997611387675863,7.269910853497791,7.170149714730229,-3.6513333321048176,-3.55550495904405,7.207972222722362,2.0592515783099623,3.3955081619297807,1.180092923844264,1.5448715683105245,1.8142735992424852,4.343391326280482
-47.0,1.1198065851596946,-4.966557612181685,-6.086364197341339,1.950063768220624,3.585943161090275,-5.547312186354286,-0.31288712915148675,-2.4815678124594496,-4.014873391676739,-2.2028014547780637,-1.8920342974507358,-10.134657985423068
-46.0,0.17567349132337162,-5.96721624127956,-6.142889732602926,2.8395967191370404,3.1424730831246754,-6.008654976798913,1.0903507941224664,-5.80375228010335,-2.491080691511381,-1.1121781525885581,-4.6359902874118974,-2.651832809756283
-45.0,-4.443828659775347,5.462139984482809,9.90596864425814,-0.4874278395127134,-7.194397010609759,7.64033662604831,-5.984279314723004,-1.6746649235137698,-3.30794244559387,-1.0348890961725463,1.6768844360402908,2.853491432453973
-44.0,-0.4954196868479277,17.78797955647132,18.283399243319263,-8.622421396242691,-9.335150148023718,18.062250514964123,-2.342905361661086,2.226456939646015,-1.2110830568364002,-3.8060976674396,7.494310365140258,-15.609415484738278
-43.0,6.401470470975472,3.5529224285446652,-2.8485480424307656,-5.027959184839034,4.5944865763474905,0.37498338991796576,-0.9942928186269306,-3.1069969259877483,-0.8634727090884473,-5.41901388282286,-2.8495531392337434,3.901569916952207
-42.0,-1.7297162515254256,-3.974820188984424,-2.245103937458911,2.8849686460039003,0.30012639648824524,-3.085864729648267,-0.9437659064840438,-0.9273955771376914,-1.8138819410720741,-0.9208119579054688,-5.2126927131430945,6.452633548074969
-41.0,-2.304720763960304,-64.04923267769409,-61.744511913733724,33.213465275897086,29.678930538770878,-62.94621354298785,24.172112052495365,21.29691203512146,24.19735319793879,25.876436150020506,14.092348165595794,19.29630672491781
-40.0,-0.3662521584193277,36.788515356859634,37.15476751527897,-18.251729864476303,-18.72576738511049,36.92965390707785,-13.690349107472791,-14.453172460538465,-14.601101533026629,-15.693004978636663,-17.152784957792893,-21.761520784576202
-39.0,0.2502089324579324,22.85184398543569,22.601635052977677,-11.592569720286615,-11.220999004103952,22.770679985680403,-5.23055176522752,-11.335451765278496,-6.661830774401172,-3.4719431496570183,-2.4536221110732903,-5.252298996366264
-38.0,-0.5659434478942764,-11.516617936392551,-10.9506744884984,6.075405906963939,5.226390232247736,-11.184641876979665,5.306703421228979,10.230222164895878,5.451095195382872,7.442087725767242,11.535015484159937,16.92494090711277
-37.0,0.4651573711747623,28.119946311231352,27.65478894005644,-14.262324968108235,-13.637047930527293,27.859273918000923,-12.407871916266057,-10.282846410482163,-10.87975885100126,-11.720215215277822,-11.735663463788509,-5.958051244372075
-36.0,2.747760899063692,-22.144965217140662,-24.892726116204503,9.647083406115787,13.861208081493036,-23.54904616539407,3.7453989393809417,8.288025125402783,9.267620675216499,5.168284094703596,6.876434241761299,3.612621833072609
-35.0,-2.125252767936891,-9.146905305064095,-7.021652537127268,5.662746553500069,2.416527561320448,-8.11951714730247,3.0579433713260196,5.28415465920436,-0.7209106861008103,-1.395765610922274,5.830966499479275,-6.4474859605071195
-34.0,4.794920537615392,-7.816347360013098,-12.611267897628483,1.540087206006688,8.75713302882129,-10.176369828545868,5.1429145635799145,3.173484386271366,3.12938884366641,3.0643358972609884,-0.5789785409369772,-5.2098590983737525
-33.0,-3.3328453419836124,5.513850620980098,8.846695962963736,-1.1340134427887656,-6.108041421060516,7.212968180086062,-2.6589842823355214,-3.623845087140478,-2.346504537555391,-3.0632180549913213,-2.448574613130746,-1.7995023043626426
-32.0,-2.7884022074452672,11.019127534323925,13.807529741769144,-4.0721051043530725,-8.311949049453142,12.365803296134398,-1.658292070692508,-2.0879799677832027,6.1376952906459294,7.326830936135908,6.64709926106347,7.714098364934573
-31.0,0.6473492281545861,0.5903473921584892,-0.05700183599615638,-0.6457366933560786,0.3389406900779175,0.30042487826742903,1.5801475396468678,-1.4168608645696645,0.6640715648059059,3.1213899370174802,-8.832773196661307,4.419620131564687
-30.0,1.1912535457437228,-1.3868122432475127,-2.578065788991248,0.07842113937400108,1.867973795992771,-1.9429797415183803,3.167650231689732,-1.8708385304596271,-5.829670565690997,-2.9786069199333403,-1.3403629910189228,7.619995298649743
-29.0,-4.620777021695741,-12.850874281464359,-8.230097259768526,8.721571695497168,1.8593582995970626,-10.572965465729734,0.6258206823132487,0.6788411272711,-2.7762009533522694,-0.6940283073410192,2.0600243577683957,2.208875073523103
-28.0,1.6247670397577036,0.44814286946221316,-1.1766241702953386,-0.9701331166362972,1.3664937378883752,-0.3913383715006944,-0.27408705913609976,-6.34905357573335,-6.248217463018426,-10.1243095032386,-0.6181352893612156,-9.946800580844478
-27.0,3.8009670720798883,14.705781449330477,10.904814377250686,-9.267591215024058,-3.518613545321838,12.780143677280204,-5.736687749552306,0.8153295995781243,-4.20097766922583,-9.491329918264608,-7.869430011250426,-14.911205868939863
-26.0,-3.132208267953042,-2.466668734750286,0.6655395332027672,2.780002714646675,-1.9547021408686711,-0.8492368971240163,-3.1885398289867064,6.6972365895873684,7.346544595746096,8.388215328462202,2.630724030404113,-0.033932366897093225
-25.0,3.4051429572815,-2.646355341495743,-6.051498298777321,-0.4066939069898384,4.743535746516076,-4.382204528072363,1.4608968392006725,5.361511781600456,10.989621786219352,10.930817739747061,9.518949638790806,3.123554625941112
-24.0,-0.3207934223875677,-0.0001459975229538557,0.3206474248645388,0.20283603814005635,-0.30921945369628023,0.19794767136050595,0.5592187966934132,0.6001450207514596,5.992104057383064,4.970484400468001,4.9866302469125765,7.5336362645289565
-23.0,6.267120502887213,7.22724182171328,0.9601213188259856,-6.79198057313231,2.66563808111783,4.045016233216002,-0.9168207632502594,-4.746885535643858,-3.3876324784860437,-0.7979170412037444,-5.041035904115697,5.0715758495621435
-22.0,0.6806760523769729,-2.4819182623561575,-3.1625943147332385,0.9287211819571225,1.9379394795403857,-2.7977865740873895,1.0429035066907837,-1.6617502218152342,-8.438693170004115,-1.781563066297954,-3.0767059664065997,4.073511699532968
-21.0,-9.738848217312372,-2.527916852550566,7.210931364761738,6.159525133615009,-8.452688462831503,2.3634122922642504,2.5107694068354505,-6.301712272399731,-7.065840905199735,-1.9541267992405462,3.8792314915353754,2.989131181127778
-20.0,-4.6948076711563465,-8.485684769484433,-3.7908770983281492,6.539853073812768,-0.502964770257317,-6.115869669555531,3.819082784727117,4.269493598892806,-1.141129805259948,-7.350223570603205,-1.42314993976506,-6.582920096033701
-19.0,1.9987324931643844,-5.282882094018649,-7.281614587183048,1.6758680955825362,4.592910557793549,-6.335873541699907,4.47072205594917,5.753940209588962,7.43247595547153,-4.991496296167919,-10.890699387152203,-14.022278802272943
-18.0,1.1515206445272412,-2.7380589630784686,-3.8895796076057154,0.8337688464127883,2.5537242791412647,-3.285016626599399,-1.5537667193783067,6.601710345640721,6.003732453271421,-0.469959298932243,-2.582501236306089,-6.510298997527779
-17.0,0.11739237529902402,3.556177524830895,3.4387851495319985,-1.8693881650841178,-1.6269282102060514,3.4511563129186573,-1.6086531827828905,-8.369340886577872,-6.250764013747315,-1.6266916786723693,3.346034219011765,10.516659265981456
-16.0,-0.052556484823497396,3.752655647642672,3.8052121324664174,-1.8798919880424338,-1.97286315538352,3.81449563644853,-0.4036231102446166,-3.1182780061480777,-5.361884464615682,4.17986644385314,6.0456012147550275,7.52803861589628
-15.0,1.6823748494014017,9.11660375196917,7.43422890256801,-5.429987131013094,-2.8385561572301445,8.234983173583098,-8.188311745317327,-4.393490767131962,3.9818828052990156,12.613171975214762,6.299079186765177,7.053446305233402
-14.0,10.873630467808685,21.908223635318468,11.034593167509913,-16.345693257998242,-0.03864528911500498,16.512324209453745,-9.778137446467882,0.3814983870113191,11.283428222314509,15.653886218697687,13.748315587241924,5.301592106829798
-13.0,3.4111273967560303,-1.4026585944032641,-4.813785991159328,-1.0409377316891129,4.081168084546797,-3.065007217547339,-0.06764840858075138,1.8753772840226832,-0.449807081995778,-3.6260058316309287,-6.208013262165761,-8.634990868135548
-12.0,-5.560118467228888,-6.432369031311158,-0.8722505640824867,6.037283395473406,-2.3696131007145986,-3.6865857280428056,5.772916405515462,-0.7103226438274759,-9.45429705253534,-17.13648536183867,-14.009683606618786,-10.839539990829403
-11.0,-9.56902390849987,-17.115477055668077,-7.546453147168612,13.385929460177827,-1.03226478421855,-12.36613683351689,9.276614633091851,7.125213745906697,-0.2913185398124214,-10.863838629292143,-9.076117113834488,-8.164701092254994
-10.0,-6.288115190957193,-19.150243951732453,-12.862128760775747,12.690405462922953,3.2697205093725845,-15.966591994743961,7.863479897554558,9.736072508274884,2.858201310135817,-2.173018483841994,-2.102461551898389,0.4348965146671482
-9.0,-3.741280435382289,-0.7971522340974291,2.944128201284415,2.2490990027238027,-3.2779134999520587,1.0270543886723917,3.110102310716522,-3.458244267080647,-4.319508140998678,0.14144789884230485,5.875860864334584,14.120239113673492
-8.0,-1.1445955489557162,5.055563259399598,6.200158808355031,-1.9664801748746166,-3.6825603867397976,5.650364068129399,2.033560421143615,-14.696017095787388,-14.570995556998756,-0.7571953952486989,7.547911736606113,11.227613749404249
-7.0,11.712726981822218,-4.9499017457532215,-16.662628727575424,-3.384492158582855,14.182041816909187,-10.794538819851306,-10.210475272537343,-6.6240005216658115,1.9268827751430582,10.117755040708174,8.018297316401863,1.5190994449818502
-6.0,20.82684414990239,-10.679964813238863,-31.506808963140998,-5.070744417907913,26.165969722209432,-21.091428872605036,-5.44774257676031,16.790745481655122,31.085041927069668,23.584982434129856,8.40249839264424,-6.316779495807263
-5.0,4.58743845459991,99.29970947006022,94.71227101546069,-51.93743572312403,-45.05958137806746,97.00108718072869,-28.652668368248982,-17.082021814090744,-18.95917256618035,-20.853125450692886,-30.57821939152163,-30.581262318044626
-4.0,-13.38054834969854,-35.55405977079383,-22.173511421095007,24.47476985676086,4.400264924187354,-28.87119271294584,12.533183633612607,16.12408583808992,16.13331292147532,7.053335441746478,7.931456087906973,6.317650521403245
-3.0,-19.943678413095395,-47.661959336705706,-27.71828092361034,33.80969400729013,3.887924188943606,-37.69492502617717,22.869731269356578,12.32218727819785,10.198023273261114,3.555381369353498,7.585896163733601,14.515868455519184
-2.0,-8.980893185490961,1.3849887515292565,10.365881937019903,3.8022467373677244,-9.680494282807249,5.878222803183441,10.516249381722652,-0.9133547787295813,-5.801360978138406,-10.545682998297627,-3.0565100069739044,9.121437589643358
-1.0,-3.133761929521504,12.304455496758454,15.438217426279477,-4.585906569219162,-9.304555282931187,13.885641407724394,-1.596133969499471,-17.54101198903156,-36.22476843706202,-14.574050361169784,-1.687244491534057,3.2229789548806513
0.0,9.621034080196619,-1.3171086662718563,-10.938142746468777,-4.159825328122733,10.247939661177835,-6.099815264709848,-4.191340847887466,-7.760785327342201,-10.983948876836092,0.05495987292793281,7.012591956983062,4.6063826690600385
1.0,14.447038361137775,-2.8097782018287996,-17.25681656296659,-5.835921060412255,15.887117524130469,-10.071222142667128,-13.342661808916299,-12.122723242754843,0.7009780702387589,3.0510222165416367,-0.009300294450159452,-7.675702349889277
2.0,17.576759045090647,-9.236041025967591,-26.81280007105813,-4.198187800452177,22.221739713959533,-18.052279062165184,-9.58735572862474,11.30522136850172,20.892529677768824,11.582722303099846,-0.19036501736242917,-13.584767982138622
3.0,-5.382761553306114,5.094666248262981,10.477427801569233,0.18485088571189578,-7.90643664624566,7.84223166906265,3.575031999953139,9.0214025354232,20.08223831008921,7.537683614876663,-6.67480074501135,-9.965978744016404
4.0,-11.210659417580333,8.618074262556902,19.828733680137134,1.32892589174799,-15.573673525655881,14.200610478501698,11.567560209285087,13.668454071765986,12.66919292660011,1.9237531705293778,-8.351874176311918,1.2614026815229664
5.0,-0.02751642545709032,15.323049962769062,15.35056638822607,-7.699158677395396,-7.660771580544296,15.308756355643206,2.650795610324173,9.12926879196066,15.781106342145947,2.323418873102688,3.891645162655088,11.334564009654484
6.0,9.244282709479283,-4.575914891638656,-13.820197601117673,-2.309179634725431,11.563674713757486,-9.156037939532018,-5.768942690145995,8.580354878886292,-4.744720345715117,-1.4389694465975431,9.737302197192367,4.209856054283178
7.0,-3.2935145812965665,-0.40217925179789216,2.8913353294992308,1.8725684416128936,-3.1391841123903825,1.19808775686748,-11.468321955092957,-17.06134302825654,-26.18521524793411,0.454827535798084,9.795208704625328,8.113353295441547
8.0,-9.400701739681116,11.811076489745965,21.211778229427573,-1.2587917930701957,-15.355920982855658,16.53533574257001,-3.2354475516526113,-29.197768125335703,-34.36717558598003,-6.96496120500762,7.714639215594367,11.762096930587521
9.0,-20.424579621825433,-18.859700480754444,1.5648791410714453,19.66705868907184,-10.971111309768789,-8.628479364311534,13.08858347355215,-23.383835081208076,-41.91188768035926,-28.713456025782563,-17.308779751883847,-3.550618715469017
10.0,-21.786822208511744,-20.820304272323177,0.9665179361889926,21.326743537323637,-11.358656454341256,-9.908637319484619,24.928195686118393,-3.6244845606282485,-17.03806133570254,-19.427676891626657,-16.84225690901757,-9.780918703905138
11.0,10.718648950821176,-12.331202476969402,-23.04985142779037,0.7473920441407378,16.899248497895915,-17.747691982807552,4.702905528175269,29.498682379271685,37.20298824549195,2.7463406850589767,-10.897062684222973,-19.615076560174728
12.0,43.114953556568764,13.83158731289722,-29.283366243671992,-28.45756958709554,36.21563477791786,-7.698288361637925,-24.459046411299813,34.415737967926695,75.96065071621547,38.11172742094615,9.479261602545398,-10.577154513893852
13.0,32.65702744675456,12.12765023221451,-20.52937721454164,-22.380463707761905,26.615944880412968,-4.166419437354553,-17.164342903216017,35.078966063099905,76.90901076301725,45.79985245918358,14.634711876502774,-2.1681210048419564
14.0,-4.272388153751223,5.070452925974614,9.342841079724087,-0.38955885730842077,-6.853880693617256,7.168184839912348,1.2654479175027955,-3.3373860017219705,5.714418287748426,12.029838089532554,8.92991622533555,8.263615489310759
15.0,-20.232429567192927,8.429333752995987,28.66176332018773,5.910481404495614,-24.482463170109604,18.510656979983796,4.848859201539936,-30.069338991636805,-63.53847824657958,-18.735483691045648,6.408512337023717,18.061745863894206
16.0,-25.807595105916867,1.2739527904860586,27.081547896403276,12.276638032532796,-26.391610540468427,14.222480467412964,3.333654741252986,-36.88405789852513,-83.20292767925272,-37.34940740095742,-1.34206476029486,17.39141039342544
17.0,-18.89957297658715,21.883118849401846,40.78269182599088,-1.480716044630146,-29.860664489014844,31.29742886783842,5.336300750031102,-37.205001628366645,-47.08637621358253,-18.815851144452544,6.612431253891252,20.3912920551805
18.0,-9.79938196614973,-4.883528236487313,4.915853729664839,7.27427927492672,-7.3754305865574,0.056462541980283554,7.382139176940767,0.9362738727344091,4.919067310218068,-6.4362353572621895,-10.187114973760046,-9.58310563787509
19.0,15.496677679905183,-31.44669020328887,-46.943367883192465,7.985927748461966,31.277755085721203,-39.158385925283305,8.43894307536145,35.23727864940063,46.4175116747565,2.6840806516883147,-24.174309401961832,-31.054142689996407
20.0,25.255504440905263,-8.358728026226563,-33.61423246713149,-8.438820736505926,29.406114210554986,-21.032280062243302,-9.328018381454692,31.450360878805586,45.467969604837975,13.494587789547689,-4.332799622357356,-17.084026032492158
21.0,9.998217329507458,-7.6873169278218185,-17.68553425733014,-1.1468082630100511,13.801955308045372,-12.73543438586185,-8.574734967045522,11.643611556004764,11.846511151231773,5.1607765131663115,0.6808131898909894,-10.572026486960828
22.0,-0.5390959454081408,-10.877508381905345,-10.33841243649863,5.717611509048528,4.92557467403204,-10.5804231589574,-9.853262370338015,-8.064899892216872,-7.815191095262225,2.747599802672717,7.4101814470982745,11.681655604547178
23.0,-0.2178113775965247,4.093415462765423,4.311226840360367,-1.9256493506450925,-2.2512704373623746,4.22911235738309,-11.811050745645355,-6.9648944424427075,-5.017111929493645,7.9934790724240425,13.579358450187492,12.767635030272857
24.0,-9.007977188770301,36.2781751868032,45.286152375572215,-13.618193316175454,-27.144340222273563,40.8097715122721,4.155393675158098,-10.641511963316777,-2.819261856192867,8.655813370144466,11.097698836051435,15.553244706155436
25.0,-5.824160166258379,28.694520841756937,34.518681008014845,-11.491290491412933,-20.175656980026297,31.557364019425652,14.793464928322212,-4.923048649291768,1.08311907875912,6.308293483279272,0.0726139089566864,7.5148648132650475
26.0,-11.128668358588236,-7.631975444919437,3.496692913669122,9.408567231778672,-7.319590403550741,-2.0361234372544708,23.168587963428564,-4.723505429787657,-10.072566262704774,-6.864408532489515,-3.9906723907088955,-4.787405692078622
27.0,-13.757853413963057,-30.67914586570053,-16.921292451736516,22.1726375752943,1.576424124377156,-23.84651353273381,17.165357440382618,-4.052762777659627,-17.569087242463336,-20.24714202435085,-12.667327500136057,-12.114572822926167
28.0,11.380435804490325,-24.66470252807739,-36.04513833256681,6.678317776443311,23.71274219444548,-30.32353134282912,-13.814840157885865,9.202425951506118,-1.942260290597087,-10.548354170924034,-9.248803376797554,-11.379146603812778
29.0,16.22298446286468,-3.936253533858327,-20.159237996722112,-6.105287354563567,18.198754860294823,-12.019844111120737,-20.990397514688517,10.650050915999595,11.717340210583856,2.6109697330472956,-2.4423462754297853,-3.558253093836157
30.0,6.696237081064719,15.280922758941266,8.584685677877246,-11.028699891080091,-0.9280388069182699,11.876283830893572,-16.155291967515005,0.4463052538016612,1.8604761785180353,2.744231868095088,3.168454336496505,2.5415933279732235
31.0,7.548625940266085,15.365806846792744,7.8171809065270255,-11.419245789992175,-0.11037153714888026,11.606744592066278,-2.088295606934116,2.6674503270728165,10.439400238353548,12.407552838649526,17.084664260690225,13.221945886244455
32.0,-3.9921801216975177,16.006627519502782,19.99880764120031,-6.049514332612489,-12.044751865264436,18.011034827299916,1.0643102338120771,-8.434778313378352,5.382717448752407,12.285090792424523,6.5387920751787725,8.32571450236562
33.0,-7.655512887361623,12.039157754712162,19.69467064207349,-2.235722565549528,-13.721403768189752,15.869841900722793,6.864217664621302,-11.876339483107628,-2.9660266331671963,3.636663214215414,3.234335861042287,3.6035645518822155
34.0,-11.321061445056074,-2.1789678913137247,9.14209355374173,6.784194353719018,-10.198395724407163,3.4818864123445907,7.496664958074433,-1.3148596844922515,-5.776916330111022,-4.780941677273514,-1.5373658565842387,-3.4860188543050996
35.0,-6.922224006018721,-28.38064137866252,-21.458417372644497,17.686732806221272,7.300846289249875,-24.918362015303778,7.713456622650774,0.580093773461181,-12.712952196736982,-15.094629176130853,-19.09761651268783,-14.770064039362508
36.0,10.852209610539873,-14.544521444983438,-25.396731055523798,1.8844635437719024,18.156565650876118,-19.965205312738,-3.1912665004850105,8.147059235123232,0.21491979429864383,-7.987451023151037,-10.25037009482194,-10.045191652185377
37.0,0.2661407458212537,-2.2173533715361664,-2.48349411735769,0.9391803995845778,1.3276617857688446,-2.3379768163287977,-1.5814844562763217,9.970866237598942,5.904199962095433,2.3949484722902934,1.5972680532229928,7.172601911231439
38.0,-1.8402686082382456,-5.07938671182205,-3.2391181035835377,3.4269343569514246,0.7304605376086135,-4.2167396562474675,4.825892638908334,5.936944513382525,7.99318145855365,7.232072323575979,9.352093566309835,11.824420158232664
39.0,-3.4763698710898927,6.908929888223008,10.385299759313387,-1.7475192830094448,-6.979521940990767,8.677931814261928,2.224968171124849,-4.555987561825804,-0.9166691624389145,-2.3203695835166807,-1.1465538405890472,-5.00779578308342
40.0,6.922437739219562,17.214919812382966,10.292482073163772,-12.022106340035375,-1.6563147980407615,13.793875878781668,-3.3998512799709633,-9.004422631693426,-1.9754948141448128,4.341456270879425,8.782198359813158,1.944554656915772
41.0,8.603911964849981,15.424386128472323,6.820474163622388,-11.970984604977499,0.8406087626579892,11.092286222609655,-7.003868851247383,-5.005318595824599,-4.2341267935095255,1.2396530809483375,7.793049660306507,-2.8900524760138766
42.0,2.3138678196097504,5.782797790921123,3.468929971311246,-4.0890227443936356,-0.5495768202464844,4.602752133492075,-5.670508959211902,-0.45286953135357066,0.18486529842065025,-0.02851755575981585,-0.4872801816592167,1.1307925697291057
43.0,-7.158083064809017,-21.365854549726013,-14.20777148491717,14.21561882874457,3.555430853280615,-17.804486181071127,2.8983592669583027,5.168769177238369,3.7649914637379736,2.2730910269796425,-4.263636839955117,3.55989875994606
44.0,-9.017702476564525,-9.561417328242463,-0.5437148516780503,9.316956889647404,-4.201277546628924,-4.9876560141286115,4.818409506599739,1.1669001372914773,-2.5838843720387965,-1.5710714133428634,-9.33383062383412,-1.0554041227332422
45.0,1.2350699133937741,9.569778403702571,8.33470849030867,-5.378450176425825,-3.5860158102072197,8.94060540513621,-0.2322975079552605,-3.274761310943882,2.0912741904688303,0.9415518146281303,-3.8352762385293735,2.168171866409778
46.0,0.9274025495293079,0.7339953627032685,-0.19340718682611835,-0.8082889353734212,0.5313342473396689,0.25905562345657307,-2.7838658097070157,-0.7060113381038419,-0.6929326654537655,-4.256315883891821,0.9484745233701783,-8.801853539806496
47.0,1.7092494453271045,-1.6504407646168948,-3.359690209943867,-0.0071435350538957,2.511425630573637,-2.5179405833664217,0.9693775424261892,-2.788925561099155,-3.798207700297774,-6.900763063682168,-2.4484383653625006,-10.974267707331498
48.0,2.392159214229218,-5.047279763319521,-7.439438977548326,1.271549783446369,4.975618495741598,-6.259964576973979,8.24156348030519,12.761051903389545,6.841362230797327,5.503103891124728,3.354343745338891,15.583447524504761
49.0,-1.418619938079038,-31.85953080991702,-30.440910871837346,16.583694488664335,14.494332494984857,-31.093567845510805,5.343011536373256,10.902248893119936,9.310166831066722,7.991399256889766,13.42050573436741,12.028106644122936
50.0,6.023411664063985,33.65070612295589,27.62729445889246,-19.812654972323053,-10.81817425757577,30.610439056512526,-14.965152669421819,-15.778892829867022,-14.791557279255123,-4.766002046347202,-5.075515612962187,-8.163435427379017
51.0,-0.5672273171346021,26.99490806997305,27.562135387108,-13.187222167008457,-14.0812097556232,27.243697552719354,-6.303821899468819,-11.608121631067691,-7.6214332986018505,-4.711902721089477,-2.67085110813039,-2.3480259381059216
52.0,-12.703213101983117,36.61114939442164,49.314362496404776,-11.92341093536994,-30.947210463539005,43.0019780375799,-4.727861066399868,-6.639771605951552,-4.052470109362488,-5.942857334073743,-7.823871544373919,-10.266428834111634
53.0,4.637984119245001,-79.67817213209928,-84.31615625134447,37.55591089300736,44.45906255774332,-82.0386416187641,22.544682345773595,20.56572496761546,21.00376604717995,18.36797039859399,20.011581301565677,17.624622483443545
54.0,-0.7278190099965289,0.5775461593453564,1.305365169341691,0.03732606149638329,-1.0358638229578965,0.9801198967358467,-4.159926503258357,-4.453014709909237,-6.83998061053614,-6.930826778175161,-10.81362866046731,-18.849853631080762
55.0,7.19025042926462,-11.885840524904117,-19.076090954168915,2.3131071286642513,13.111766503978341,-15.43793380285253,4.5146267178107,7.1444069188783725,7.53289523641676,5.186611540884789,0.756416120312394,1.9233766806502253
56.0,3.803808504684805,26.994826718687214,23.191018214002362,-15.434169170094966,-9.63961201980435,25.063248248850712,-7.387529668526954,-4.307784004702553,-2.842613871665673,-4.171405927719414,-8.136856095443804,5.667894058539484
57.0,-6.131214210634089,20.13668947654167,26.267903687175835,-6.962315287128675,-16.228943522943116,23.17859082139803,-4.071807689004819,-0.28343011136771223,-5.4373511457105055,-6.984808525067263,-3.754275709431386,8.673026188691493
58.0,-4.9676244930724796,-31.4795951890523,-26.51197069597971,18.258481621138188,10.737188798325121,-29.015061545228594,7.5860213151414175,6.8284140705955885,4.114555938801535,5.701743904954266,9.235179543973471,6.295485800238359
59.0,7.4218314878884435,26.175202342218334,18.75337085432999,-16.848085247507292,-5.628010182407235,22.447269818474997,-10.75420496634867,-14.19641727053813,-11.464436435938492,-10.498709134513359,-7.598437642561699,-11.773079019897242
60.0,-6.0616987626288505,2.0008594721213333,8.062558234750284,2.0556483199738107,-7.030149651679235,5.093798280613331,-2.3856233757002623,-3.7384399237935217,-1.8391897655713594,-1.4431933315456205,1.073489311269394,-8.455770642616834
61.0,-4.523800871564626,-4.547718123932046,-0.023917252367348096,4.559978819945467,-2.301765635198866,-2.3033266825931955,3.037736638792097,3.673907400734448,7.709027444696958,11.079857920884752,9.134182585154178,3.7070915704567717
62.0,9.359475020971942,-21.990422026256397,-31.349897047228346,6.263091445683011,20.37759292770979,-26.689165791720708,10.999229035888595,7.929017301076588,10.276853656155643,6.362778435733084,12.88132429560345,0.4553878940572784
63.0,7.760444167770689,6.302972010469162,-1.4574721573015932,-7.000821796078987,4.6290735333663395,2.4803974882752637,-5.092992072541937,-7.788502715312264,-10.758383198352632,-5.685733581411101,-11.502204380504804,-5.084688584418023
64.0,-8.436924932979634,2.9575358632124287,11.394460796191975,2.775947978257914,-9.975671613137294,7.151786109449761,1.7506199865701237,8.093915053878911,3.8031868941342415,8.191944150023588,-2.9400352833211754,16.690307004114395
65.0,-4.414148583931958,4.866095167827271,9.280243751759143,-0.26401641377774543,-6.828029980096141,7.044334961518827,4.351278538343789,5.5635226537433145,5.96663040672958,-0.22926776842755503,1.8266021404078172,1.6683931731220847
66.0,-3.0661397554823235,-9.04788334290911,-5.981743587426833,6.021102766152806,1.4793468300901935,-7.549902648030503,-0.9882711284824629,-3.5332280445232453,-4.202110373355457,-10.639162629681698,-5.277300047045472,-7.155445911932858
67.0,-0.012402654718663308,18.45733002613531,18.469732680853937,-9.180359458306622,-9.215187583475004,18.49978529154956,-7.287900756183285,-8.228922386547357,-8.6362539324952,-8.271059355463844,-6.788826404083106,-9.168753091267035
68.0,-0.15554207365581207,0.8567031166640371,1.0122451903198968,-0.390373192519351,-0.6309220170054328,0.9630718717914473,-2.596909377570153,-0.6168426914819554,1.962366198096749,4.40780130709582,2.7340476851647413,4.600412410419214
69.0,11.997761493622038,-7.557674198768451,-19.555435692390386,-2.1854170334106677,15.814866247094162,-13.53494331872554,-2.8905868173918936,1.783441895904605,2.208183626460226,2.5296605383334736,4.239949533106779,0.5735602705057462
70.0,1.4145290724320736,-11.611161500218227,-13.025690572650205,5.128920537314716,7.185978973727449,-12.381239135756966,3.534472471061714,0.18676636382259348,-1.7101375209563154,0.6639161771374504,1.2013286511305115,-4.7806357394401235
71.0,1.2402333411375805,-1.3056348659553834,-2.5458682070929344,-0.01788013917073883,1.8643278358239193,-1.9138260644452822,3.2980123774647523,1.5869655324974086,2.943722574067287,-0.3112459830680194,-2.1136352154825815,1.9989552965592727
72.0,-7.069957050678315,-0.8868011388404716,6.183155911837795,4.006483195699852,-6.572598543987343,2.6579705554825725,6.521825714911494,1.654023781710551,2.843543967325825,5.311589259453467,2.5764918061965822,8.651114118320915
73.0,-6.532343023148938,14.807293318239257,21.339636341388086,-4.1856222886451615,-13.958768899675778,18.08319254007271,-4.411856956715442,-0.23078060806208966,-1.5151905225481441,0.8559610734863354,3.8591616472451893,-0.450867391826999
74.0,-0.2720149156210123,-1.8303641896941993,-1.5583492740732883,1.0864338497087844,0.698758866071211,-1.6824781592565934,-2.2048869068752137,0.24884109495446957,1.471686314184678,-1.3511309293028717,6.527018740997779,-2.7855098616580483
75.0,2.797055299178676,8.905727660261602,6.1086723610828795,-5.810400411789688,-1.6821362834551712,7.444724978065532,-3.0008978383253604,-1.6508586036434392,-3.072803178593781,0.39484240780575863,0.15770335163617616,-2.1976347997087053
76.0,0.3821196791630037,-14.314731446974601,-14.69685112613761,6.933868389075354,7.507265614358712,-14.48309750886019,5.975386903908602,1.752085899921643,1.5636145755974868,0.2169641455579181,-6.269357919013832,2.1276008519442873
77.0,-1.1493693157406057,-5.800227272884846,-4.650857957144165,3.445594306251066,1.7108586940370598,-5.19506943246542,0.6769387716758819,0.2482702440119114,-1.243746717953815,-3.255996958232163,-8.117382204020158,3.0932306867457466
78.0,7.354693926973961,1.3415124393469515,-6.013181487626918,-4.298664759495014,6.715224601970226,-2.2974552812876423,-4.380575222183959,-3.171498334861417,-0.5737998054261949,-2.0646581011219576,-9.74171631874188,-8.802046216661438
79.0,0.5112332763306422,-1.4848774047262079,-1.9961106810567886,0.45370736053930893,1.2796881380801004,-1.7744935196478973,1.295706979298554,-2.692437435213069,-4.871769031316771,-1.9072550976231777,1.438138381210866,1.8556141946926554
80.0,-4.6113815580527255,24.896551842987694,29.50793340104041,-10.182461331891949,-17.034958599636138,27.171515640559104,-1.5797814095715736,0.8259578861753675,3.671489449077395,1.8255628822071603,6.80611975366582,-0.7320656579696825
81.0,2.468028744629716,-0.3008050843692889,-2.7688338289990835,-1.0528617988487805,2.567295267160943,-1.5661646660812423,-2.8252949059251504,0.04972510424183918,-0.140326611136941,-1.263017939999333,11.805196669754592,-7.835500084933107
82.0,7.726863661606157,-22.84123837248153,-30.568102034087786,7.58029522365018,19.180910130497924,-26.661395357916668,4.886355905375201,5.909826160118357,6.39150700451501,2.4364176500076944,0.9958241908737202,6.910711450401555
83.0,-13.75580294349312,4.112852105584908,17.868655049077937,4.8387905887990055,-15.772614922635649,11.027817404589161,-1.4557193782681344,0.8738159735237234,-2.1443479380006454,2.126670258906983,-2.269780582498142,13.205751992526926
84.0,-9.606353622416455,-3.384205812090823,6.222147810325563,6.5090970940437565,-7.94959054477788,1.370968885585146,2.5201213133360323,2.887467932306453,1.2249349524887894,5.612247803956073,-0.4518188825401732,2.6828688355990016
85.0,8.878239744294188,-7.522839117088386,-16.401078861382615,-0.744237911130599,12.603886864419522,-11.93569477871046,1.8947438675786152,-2.221400636527048,-0.7375135244200794,1.7999817870624037,-1.105084874513905,-2.027018600904942
86.0,6.544093131033263,12.009455378733541,5.465362247700279,-9.265037080846097,0.4989234349033711,8.683682872594295,-2.8777975783729017,-7.12672872251004,-6.625356664270797,-10.350849729851289,-4.364346681811107,-9.651647786524236
87.0,-1.7613295679447418,-0.7520598618717917,1.009269706072969,1.2684986310033226,-1.3539320615332242,0.15611706209445764,-1.104051490801409,-0.4175591916615651,-0.017281137543526892,-3.5038874260396353,-5.0838849171635845,-8.963007359057453
88.0,-4.284871061884435,6.033616823994975,10.318487885879433,-0.8620864172617024,-7.276375655963962,8.209030259639352,1.1392614694313938,-1.593895599525657,1.140518936631135,1.074247832635133,2.5341434392851934,-1.028673573801897
89.0,5.675393706752242,2.523015618041776,-3.15237808871046,-4.085688908285076,4.436958941142532,-0.27527897921407884,1.3734844185840434,2.6870611646547995,6.247735616784702,7.160370750649584,4.850962613693116,6.717775294969238
90.0,2.945711452321757,15.901638435041592,12.955926982719834,-9.48631912824723,-4.978914149790481,14.394024145876113,-11.58464046101124,-0.6344374186777633,-3.48545258096629,-1.6494252741895838,-4.215398973878019,4.24237285399998
91.0,6.382447627067325,-10.647815127351342,-17.030262754418658,2.1533737876969004,11.661822033496996,-13.873580433587652,1.3341068126754903,2.8985841243396533,-1.125452248352857,-2.3391237116137993,0.8642473570043536,-2.5322724411524957
92.0,-2.3807633465062765,-18.94234833642496,-16.561584989918657,10.68913785731578,7.0567074343549665,-17.791789204247824,5.478211475501162,0.5214256490616287,-0.7331786609556528,0.6372567242895417,1.871297350626749,1.4515522153234173
93.0,-11.553319282923303,-16.64309360505527,-5.0897743221319285,14.134666133415966,-3.1759755695752174,-10.837358645580256,10.735152782797213,4.396647395591196,1.7911293280395064,-0.9661931817957766,1.8419253231782373,3.2641846178844407
94.0,-8.234576929544994,-5.869994330094302,2.3645825994507375,7.019829839689434,-5.314582380315699,-1.735337755829041,5.476296363924758,3.9046845332832394,4.259452932507193,1.5080719205818465,3.518415493640188,4.241381225144116
95.0,1.3069350189293996,15.838848472252732,14.531913453323357,-8.59598515300565,-6.624129645791713,15.192654174906624,0.026493241588670946,-4.262790240292393,0.5578842125204031,3.1460091640822854,-2.8080345459560094,-6.4349247242770335
96.0,-1.5547874907125894,35.15756681742496,36.712354308137535,-16.81690116911708,-19.14684153626297,35.93668529945986,-13.444785390888882,-11.746622340712616,-9.868774079096891,-6.235188709129702,-8.996727074587488,-11.263686254283481
97.0,12.441510612934826,10.701447682746672,-1.740062930188202,-11.582003168054227,7.071923680239163,4.482836826205924,-14.981672492662586,-2.690388385791114,-4.489916464788596,2.329179437917122,1.4428154436849958,7.258031844064028
98.0,9.388079406196725,-18.901263042335977,-28.28934244853278,4.826893164946133,18.891106022800454,-23.58721784384928,-1.3274912058344217,6.204354477532755,9.881015163412078,4.392489730114786,14.872525939760154,8.368365818123767
99.0,-0.7446530324574567,-27.438788875289095,-26.694135842831706,14.082364636058587,12.941349679274952,-27.048921953095824,10.661153481040303,11.766384760570652,10.146151014928432,5.199731493682587,-1.0349486088443172,2.326179753541826
100.0,-1.5314315745757883,19.001514413936324,20.53294598851207,-8.74828420342236,-10.99156147094194,19.716247638865504,1.8399793669940943,-7.934488104672618,-7.318183867651932,-9.783369178630547,-14.033748048437568,-5.981151342151637
101.0,-14.491735989737757,-11.247623569109587,3.244112420628162,12.84975291764152,-8.907666126921365,-3.96544748812073,12.406250803389621,0.6011985638094347,-0.5946925998335539,-3.0608665147221954,-2.815385818953117,2.509670891338428
102.0,-6.336089574324695,-7.675140886738744,-1.3390513124140329,6.976813118730539,-2.458377941173353,-4.544012678183005,1.5842762025389137,0.2091532219883639,-3.516569355441793,-2.6773723738905777,1.8966097167319629,-9.07017612143347
103.0,10.803138548732552,7.9473178667804385,-2.855820681952074,-9.335214981224262,6.793526686009507,2.5114726881295737,-0.9930727394830515,-4.672002942971013,-9.472557652673938,-0.6813305752951805,6.37908200731212,-14.305748360827437
104.0,8.153464753669963,12.36615886070697,4.212694107037041,-10.229335073607555,2.0158498829399294,8.33492707055543,-7.203495026456661,0.1650170258704362,5.123559864916974,7.626893156597953,3.6206291615114274,7.904104621110071
105.0,1.585168980155781,-3.7880792556625575,-5.373248235818296,1.045443778137777,3.4475037719948163,-4.534153592654956,-5.878484094980227,1.655153119597816,4.606479297804908,5.9668960225791565,1.1680746188254525,15.251435457643366
106.0,-7.916861760722522,1.2955231934613995,9.212384954183971,3.328464970598095,-8.595968113384494,5.223746691301345,-3.107797224255462,6.373491893603257,3.275291103544902,-0.1024266521346191,-2.1001652867804523,7.989097381482079
107.0,-2.713877548617382,4.967702337846867,7.681579886464278,-1.110860504493887,-5.228975886996537,6.297470356970656,5.196984030060941,2.6064794532389532,2.3308889228720817,-3.200159302236282,-2.991095949976904,-5.569568020327912
108.0,-4.24533873876688,-12.504189809896843,-8.258851071129973,8.39205828285954,2.0556660953200967,-10.326898279706887,3.8195014576657043,-1.4133038115047305,-1.2315588318745225,-0.8946938604155537,0.6523339172751355,4.03506519232255
109.0,1.080055353717166,-7.564974436026019,-8.64502978974323,3.184526380783345,4.915414820103608,-8.127516767406252,-0.8801004231665281,-6.287255410503971,2.0043952310155055,-2.850490076522384,-3.7351593667362493,-9.271078448626454
110.0,3.2534305256050233,7.119221488589125,3.865790962984044,-5.1606672508998,-0.32551909525056555,5.469028286805617,-8.722255218649876,-6.760720084628494,-8.111428510292608,-4.916470829613826,1.4047249674514861,-9.563539762533487
111.0,3.6797436374346466,10.514341709345514,6.834598071910822,-7.06618672886144,-1.5891489528996012,8.647202185561504,3.4828756550965414,-1.5590170953443208,-0.23890072961344666,3.443632916071231,1.2543521461690448,0.8904350874735343
112.0,7.3989182773206075,8.297919654798088,0.8990013774774865,-7.891528771852329,3.244421151826664,4.6441812550101185,4.471100285841075,-0.10408713800395103,-1.1310175159939695,0.5481342550131842,-1.501690458878348,3.2981761067842097
113.0,-2.491425865823024,-26.647986861027903,-24.156560995204813,14.609280459359496,10.82929185046844,-25.44139596260254,3.3871794987642616,16.59557399295508,3.1817732678384383,6.702935596960007,8.823908158516119,9.591940180114145
114.0,-1.2257491766034925,16.15841192873684,17.384161105340446,-7.502461837305398,-9.311307025115745,16.806210729848104,-1.4190308152691484,-0.5921226393612775,-0.0910713144685742,-8.282844827841153,-7.995351328916065,-6.097398213224559
115.0,-4.614318517772812,18.653731478037688,23.268049995810614,-7.053383230128088,-13.955654111870512,20.99355301791453,-7.608924052382785,-7.992699994888136,-7.823243452682634,-5.737502317325201,-7.991998545634206,-6.555763144742764
116.0,-4.159930611104789,-42.7255408016676,-38.565610190562765,23.49004318651145,17.177194767511896,-40.691526153168745,19.009583457179087,8.819191490803114,18.84434461419076,17.469566889987725,11.577357418106585,13.173615546500471
117.0,-9.39527399670863,5.217832781589948,14.613106778298574,2.138120016460019,-11.96232826363618,9.949745202778516,-9.273889659199945,-6.059077639261904,-5.6609684478308475,-0.5892310234403011,3.380421074638743,-2.717708891327465
118.0,3.7550626639361515,6.5444509804683655,2.789388316532164,-5.177594905128782,0.5162895713485334,4.623699313427192,-3.260760137108637,-4.078525083926158,-5.853955304629075,-6.9942631317990465,-3.511834913321573,-3.003044841293826
119.0,13.537140900911382,6.11385034439987,-7.423290556511562,-9.853181526710854,10.431095906552228,-0.6195285187707498,-11.682551926125125,-2.888593046083046,-2.677073013075438,-2.3563049233539153,-0.09956796635066811,-1.6051045243814983
120.0,9.733215810943612,12.436110648046228,2.702894837102591,-11.114184402031785,3.545574885519155,7.523403983492542,2.297482376808331,2.133553976468828,2.9517649386120133,3.1651436852961687,-0.00028193167130230457,-6.574526441172562
121.0,-5.5627681160209566,8.92401144226607,14.486779558287068,-1.635223774328308,-9.990597594258888,11.733706403804996,1.9297955970792187,-2.013450335212972,-4.3200914129801555,-8.25157749512536,-8.447286525106993,3.19580988849665
122.0,-6.08759868336873,-4.883928252449432,1.2036704309193973,5.447295276497947,-3.6860438177283594,-1.8166630682110356,2.5736689235524697,5.997131240715563,4.616975711307269,1.7409689640656731,-0.653467161224194,2.330903979131674
123.0,-8.6021986917358,-25.29544969928641,-16.693251007550487,16.98383698839639,4.007206178688582,-21.05321542499531,12.706408890269316,4.259663074342435,10.557962565220429,9.61588845871644,8.991009511488796,19.462826388194244
124.0,-5.879438827407016,-1.3131215805729362,4.5663172468341715,3.62696979076326,-5.183843540863263,1.6458152840104692,-0.419459497784346,-3.5611778250770287,-1.5199241652732627,-4.501581813801948,-0.3138173143734688,-3.908230053049965
125.0,9.928101230837328,9.481053670418984,-0.44704756041830307,-9.755274264416025,5.143127355402432,4.539365971478054,-3.6385488156588135,-3.428662246201954,-13.18442854823373,-4.071258245283976,-1.7727162084087564,-17.32927696930473
126.0,9.105539556758954,15.03501331650238,5.929473759743416,-12.042845113986322,1.615799585094625,10.511230715116799,-9.445985507389775,-0.20082302544350306,-2.1388807326414208,4.529324334211707,-0.34263912778553235,-2.7413753853777623
127.0,0.7732513081914991,-11.395083535326384,-12.168334843517908,5.261035550953412,6.492429750518564,-11.823034496948045,1.2280914199310002,4.519388113315307,3.875787538438576,4.732945799145299,3.9291383915962537,2.679375106590836
128.0,-6.592160000765542,-10.36941280312366,-3.7772528023581398,8.513037008746739,-1.389521567859306,-7.028208641798788,-6.005400482546341,1.8128565777419081,2.827333383288247,-2.760181253936544,-3.098936012495209,-0.9727537907496631
129.0,0.6639463263553478,-0.757266623256492,-1.4212129496118435,0.08395117206157443,0.9816326279974636,-1.1184444033997583,7.23791305430764,-2.185061450454884,2.349228327422707,1.2518608224752097,4.00931580645969,1.0472885318447096
130.0,-6.1440157314714146,2.9134016675394863,9.057417399010928,1.580034192060967,-7.579484405820295,5.955819097086398,5.308313578046222,-3.123741918172513,-2.653415030663109,-7.8765777007415325,-7.382028716292645,-2.6732755970964828
131.0,-5.898406391031584,0.8813598505584883,6.779766241590129,2.479852971016893,-6.311986669593109,3.7959078155760477,8.127553739712376,-0.03291559851704795,1.6484778197532568,-1.7745598275417849,1.6328619224650036,-1.3082291460374225
132.0,9.541163083256276,18.313966165117048,8.772803081860845,-13.871282808547578,0.4177330198663576,13.57945858615317,-7.010222061379753,-6.459548157347324,-3.2825092462938983,3.2124704860050963,-0.469033499957745,9.646014586992397
133.0,7.282762913352874,2.007539281372532,-5.275223631980259,-4.662546513175046,6.238903914891487,-1.6062098277866501,-3.1758873060210497,3.1558525288733454,1.2233439775954567,6.314397699878679,2.1841521924558145,14.046494455146162
134.0,-3.607280362728154,0.20934718301094613,3.8166275457391654,1.6850329633652503,-3.7494857184828074,2.0340146429256216,-6.253653109797707,5.235834157327685,4.591427471882558,1.1334932810586085,3.0245168860142786,3.349342520272233
135.0,-0.20035140328997503,-16.084339039419074,-15.883987636129062,8.13013166057208,7.804402709793191,-15.966710409579298,-3.05093299313729,3.990849615312916,1.4060715777492894,-5.716705792845615,-7.067075318137841,-14.2662188100598
136.0,-0.740970274391846,-4.446314981074481,-3.7053447066826237,2.581610415620416,1.5225554268590225,-4.137629233428738,-1.6887922578611696,-0.6021407723768855,-1.3812014877991252,-3.037632687255503,0.7283417854036551,-9.044690327175072
137.0,-4.748133362996754,10.069606116596315,14.817739479593063,-2.5950089501238267,-9.742796320442833,12.46259287734177,5.427538022980794,-7.699579317880503,-9.663651280061265,-0.6322896240756102,-3.7057137829318383,0.10953913157576256
138.0,1.4086266440456305,-4.962754510447672,-6.371381154493323,1.762198687790305,3.9318857268798526,-5.723061449703428,11.56599043784195,4.5823215631596135,1.8718426823614553,6.6679603133988,9.789731818748796,3.98197654611401
139.0,8.679107042439265,4.622678302725294,-4.056428739714002,-6.668240539411138,6.334626907753133,0.3112521891892246,-2.845491020075913,-3.9144682846516927,-2.7012296756413945,-3.004453397207418,-1.8842858657718766,-22.037149487078363
140.0,-2.9742902470594514,-13.752431326886093,-10.77814107982667,8.343145034900092,3.87347304688371,-12.230537185635688,-0.9842585077641385,0.46913645752666655,4.078344011413982,1.211535112457081,1.6124823572503528,7.073568272530986
141.0,-4.744015903246469,-3.724599673556421,1.0194162296900438,4.2113080054029,-2.905828034789285,-1.3106447332246995,-1.2797488145591043,4.500790282675619,7.203712587906654,0.8342672784567327,7.033977643253774,17.53515225958853
142.0,-9.332353838674189,5.6029942233799845,14.935348062054208,1.9183571445406655,-12.154845004744233,10.238911905186614,-1.275078702358877,3.4491229374217185,6.404970379525746,5.7805610390750015,-1.0906729284169123,7.514177585618221
143.0,5.339592590083916,4.01548069882379,-1.3241118912600713,-4.703511655111589,3.3912586995507015,1.319902455885785,-1.3990710950686713,-0.027767268085875374,-3.520182336853383,0.06682486074035088,-4.584161943166133,7.639922959885533
144.0,1.9877338473397024,8.656985858032145,6.669252010692506,-5.269385738108399,-2.3598904137391594,7.638866140506871,-0.8615611465864657,-5.622739376385344,-11.741114020667355,-9.106730940939839,-13.277328528609628,-8.616738209529041
145.0,5.146651014425089,11.681952927560902,6.535301913135877,-8.439459315908284,-0.6361293906774819,9.083128073769014,-0.7094458908410771,-5.453976565959665,-3.5927332878862517,-5.290619731874307,-10.330215140923217,-10.160209443887155
146.0,-7.936908831513525,0.22588194058392652,8.162790772097493,3.830408016766225,-8.0740466619792,4.244711356861344,4.821699456425449,-2.1274939437639553,3.374717171142947,0.7920688761407995,5.864946784793019,1.07845423967143
147.0,4.50478349166033,-5.423983054571776,-9.928766546232142,0.4332117315361348,7.186098121494817,-7.6290292173274175,-3.1610033299903506,1.6861152756974478,11.386204566296644,3.4614095126043445,14.876358595427984,-4.1298391788934214
148.0,12.384461316419591,-0.8013442898890748,-13.185805606308783,-5.741967677729827,12.745123129564302,-7.02712289381334,-3.702491486540636,1.06069032881057,-13.290319384253294,3.5716994187818125,12.315018272372484,-12.396710310111411
149.0,2.0661651959851484,-12.868932100383251,-14.93509729636855,5.368466207405364,8.528183160115196,-13.936625594617952,-2.7823383901688867,8.913690371017983,5.450332933149407,-0.14474510403324148,-8.4994172105617,8.795662286540505
150.0,-8.79482042049112,-20.248696959244747,-11.453876538753718,14.563729388725138,1.3458977625486566,-15.807690962753197,6.4550422466888,5.145660262765342,1.503663780561345,5.525128926717353,2.170575197893798,15.046530025155556
151.0,-12.169631496748316,-2.3292226187100713,9.840408878038255,7.209570316013062,-10.997773208575474,3.719498850669563,2.9538540765307952,0.7986798328130491,6.278084195330419,4.071927672826029,-0.5383795436894876,0.0941786066137098
152.0,-2.557979540021935,34.95118661846023,37.50916615848225,-16.15939682315303,-20.031928659970745,36.270682279543266,-3.734515423142041,-11.729176300551625,-8.868421187549302,-14.137102151271737,-14.856209720581413,-7.943938450655994
153.0,2.656495182915215,-3.528371069077245,-6.184866251992386,0.39428878967935965,4.4206134101637655,-4.898556895430104,4.860297696030241,-2.7733774684753945,2.0683043732880178,-3.8148770235906033,2.904761866687746,4.370036706624278
154.0,7.929432843071673,-14.72695759191988,-22.656390434991543,3.437101923557341,15.294298014622731,-18.659734580734465,6.723690723220322,1.3794879372571893,2.6642730343576475,11.147419346956713,5.319271663922025,9.161835877168441
155.0,5.943674146970878,11.41425860937034,5.470584462399424,-8.717393136194765,0.2411582673369317,8.390624197643902,-8.780904837180756,3.1415342986929966,1.1582623958012204,1.4110636752284424,3.036985308693488,-19.800937714055454
156.0,-3.462096157222839,18.054254600534424,21.51635075775722,-7.253885654502737,-12.480996292084122,19.80863048484857,-6.444371575549962,-1.1127085372531194,-7.840290751568357,-11.405148641137636,1.6597692883057271,-4.928581174246394
157.0,-6.746518997335665,-9.7239370504473,-2.977418053111662,8.199462787328576,-1.9518268612838554,-6.328246633351378,-0.22932347289484145,-2.6795703135141737,-1.0420977680940133,2.2454665448074516,-9.669805055396457,12.341261831332275
158.0,1.6287679896863279,-11.382458721741234,-13.01122671142757,4.918683660505463,7.334508540764061,-12.17188391015464,-3.198712357257256,3.273552662917983,2.5185895240560683,6.07255706326705,-9.285054037070609,-1.1880527893627084
159.0,4.333631152934521,-17.433071219396393,-21.76670237233091,6.509241960009525,13.068312899885187,-19.64801184702654,10.731751874143585,3.221311386420388,6.331227779006781,5.00227613100572,12.182917162561768,2.0198563996715917
160.0,-2.0021497012245923,-1.645126539758392,0.3570231614661967,1.8560758760055487,-1.15647135207249,-0.6057972240244744,9.942434225627165,3.110494596032056,5.778976343146658,6.911613312543521,11.48122059482174,3.619692893886582
161.0,1.2464707812811486,35.156034502491046,33.90956372120991,-18.254756599502976,-16.302220424200648,34.50025751194515,-21.667255716112745,-8.723645505839285,-15.853105652960528,-20.913774719637857,-8.179533348648166,1.991230007281839
162.0,-1.0137442116507338,-1.4125891367834669,-0.3988449251327193,1.2313897268934895,-0.35065248374312574,-0.9315788671937,10.791796392105546,-2.1991077592971755,0.6464652732714153,-2.664790154795183,1.1375459039142837,-9.344108290281843
163.0,0.7575561614653077,-6.862796090618541,-7.620352252083861,3.065679935809173,4.228728182448657,-7.184487444558615,-9.610792691063438,0.9563508178842381,2.9771981378350336,3.338269289941828,-3.0152772725042984,-5.480459539322532
164.0,-1.3835786814962663,-14.977857188700101,-13.594278507203912,8.191706683082279,6.066706008315032,-14.306712378502265,9.608570402205501,7.835532452871708,6.681753586028067,7.9018301035609,-1.7803749715190005,-0.8834957083670592
165.0,0.13228553666044907,-8.05032191568443,-8.182607452344975,3.9712975295180595,4.114381133560031,-8.139497723375786,7.091697036680236,5.211690278073909,6.119546993333005,8.578760240235194,6.193598778570248,0.08243494979380095
166.0,-0.391377462106161,17.334313372482427,17.725690834588516,-8.455322478209542,-9.031323410553389,17.580110323512212,-5.559167394748345,-7.174568960252499,-8.669719959687889,-1.4863291480226017,6.129768966018545,17.765450073379206
167.0,-4.918293406870871,7.817365197584449,12.735658604455304,-1.5071493041192405,-8.810193852972803,10.239644079989457,-9.361117660560135,-7.042231659898302,-11.258175055907948,-12.771192933436348,-17.179632863644926,18.992742609761788
168.0,1.48206041999634,-20.48191029422314,-21.963970714219467,9.5257303094361,11.730165670773792,-21.190826923557694,10.406760205000705,5.054679844129464,7.698676578680225,2.4706676492499513,4.621680748129955,-20.932919841575462
169.0,8.47716640919183,6.485991495628057,-1.9911749135637287,-7.53106007812765,5.234958445396442,2.1910436747134874,-1.6125486416840231,-4.74389202731509,2.200009555939312,2.306079691357733,0.04639539376840773,-25.469534575919365
170.0,-1.0360500471926688,25.4582424944564,26.49429254164913,-12.179738090679168,-13.76598833272421,25.990941011915982,-5.986055348511634,1.423990472696199,0.6046943622201857,-3.847334753410013,-2.1305856630511446,3.642397398663567
171.0,-3.862431486617523,-11.312658703035515,-7.45022721641792,7.6198871758835045,1.796460977142309,-9.370473055305267,-0.5980191810492521,7.188050864189887,-1.2636120835304099,2.540223836797151,0.41784079115762474,7.622347738418623
172.0,4.186218718867379,-11.431075470236443,-15.617294189103779,3.6549455598326,9.911785580708653,-13.511493529206744,-2.290298010747666,-0.8595714067538478,1.8600477987646578,-1.2324545120110355,3.7215864150282965,7.512707016998341
173.0,-4.320353242516974,-9.997843900381405,-5.677490657864423,7.1123792222250275,0.619749797858216,-7.817554408722657,6.997748774662052,-3.016384690338561,3.5759430415780282,4.730327730858466,6.650253195293398,8.716425391588325
174.0,2.137702222545481,3.3379208779004275,1.2002186553549201,-2.785505190956955,0.49902008376222995,2.222435403837979,2.5327755799198566,1.6978627921036324,-2.918711915758255,3.1440898607328305,-2.681751189737743,1.9927421003194015
175.0,-3.502562041477281,9.662921475079944,13.165483516557185,-3.050102878993304,-8.294975739350715,11.460591703509715,-2.5824767351688034,-3.463116894891176,-5.006851934774183,-5.648539804908008,-5.851965523137726,-3.809276388048143
176.0,-2.7533372249148687,-19.803279100093306,-17.049941875178448,11.308219235237628,7.113967396157616,-18.445335820376044,7.254970343240293,7.114901235818422,5.2382343910702645,4.753221366205505,9.130672434862504,-7.995570197801613
177.0,-0.34119755670119456,36.561784035190705,36.90298159189194,-18.157669452412676,-18.577022180272387,36.72393895876546,-9.152314573590482,-10.188568877075388,-2.0800323224435884,-7.086428248771339,-9.59909083828429,-10.31038575971343
178.0,-2.5231079892067947,-4.351697114925743,-1.8285891257188638,3.4721744700835946,-0.38537532359379423,-3.093423589915826,0.3088905575057779,2.698668946642384,-4.892314626126392,-2.902781130762291,2.3536895092431918,3.461367736488647
179.0,11.785339774930154,-9.855475641886333,-21.640815416816388,-0.9253743835603262,16.666418714653375,-15.751698282263053,3.9076644896486394,4.880308957572076,4.442689003051265,6.161324292535264,4.261159685467512,4.960073166980768
180.0,5.5789937832878795,1.6534082063998765,-3.9255855768879506,-3.6505808444819454,4.774085656666881,-1.1441652358687007,-8.74508929391771,-4.32781341091299,-6.240679482402415,-5.378263436329199,-7.991866441248867,1.4921103404911538
181.0,-3.859247915881269,-7.693045612018915,-3.833797696137645,5.744905050362284,0.00019857219655339264,-5.778016462808843,-0.2080966264341333,0.19851600939934166,2.9876878073509276,4.423497137922858,1.7551724904210972,7.09101891904608
182.0,-7.373075908635298,-11.24124975290352,-3.8681738442683034,9.354809995848758,-1.7440540665011643,-7.4965244948296546,3.6692091629988375,3.6488355889060866,5.953382102047117,4.30724764221906,-1.3267961235429047,1.6783517065048703
183.0,-2.8962214291755712,1.0388680118813252,3.9350894410567445,0.894385936321143,-3.4059126110691524,2.462965474969461,4.309977253726253,-0.09333667153094449,3.9566963744608836,-1.6091429231231515,-0.37392647459169215,-7.240291600967483
184.0,1.3478755108471812,7.1138890838314035,5.766013572984084,-4.270792988932799,-2.1926656595860865,6.415766627001576,5.058844077563514,-1.9943299299140274,6.291943010325752,-0.7655175797890892,7.431850866540344,4.037186508495946
185.0,2.9312460589975804,21.524132942431017,18.592886883433415,-12.19508936106502,-7.80497259395068,20.115564761264157,2.771694530695006,-0.5163452160223418,1.6879297015845778,5.089320961691426,9.87748918950252,-5.999225781853758
186.0,1.5000021354725026,-9.366177627394961,-10.866179762867331,3.960813282290438,6.138840682359279,-10.13440472669468,-18.585465875995503,1.111825243365277,-26.009357899877863,-14.779334741115527,-20.55147062685356,-15.584040022405707
187.0,-2.9878431455098484,-2.739283722638133,0.24855942287193145,2.889070062424316,-1.6578166093218631,-1.26118469812983,5.271134519510794,-3.169721636225816,-6.586857089803095,0.021402094590862397,-1.7885858829223453,8.179107406572061
188.0,1.634809237910763,-3.6297888368660627,-5.264598074776593,0.9447394781025231,3.4878604906576633,-4.463238186277524,0.9036858391882169,4.2310637746868025,9.566640949881496,6.196449411060358,8.688787582192507,18.922296322783012
189.0,0.7521010234354139,1.3763904981706134,0.6242894747353,-1.0361644336613676,0.01734987732672888,0.981037135417937,1.2851820905110443,-5.372495002094309,9.581335183736737,3.3216308882178684,8.272490942829613,1.876972689329973
190.0,-2.4043257667401146,-4.399307580992679,-1.9949818142526545,3.4318672777589874,-0.18089762029644518,-3.143065031747861,6.342886058296237,5.968384138402211,9.862809401988837,9.50114423528056,6.321860924186309,0.7612675911580618
191.0,-4.977251715788505,-1.7391715711024562,3.238080144685836,3.309949971149924,-4.091404446552839,0.719208748353636,-4.363546886285262,0.4499801813705284,-2.686494165714042,-5.104802417746653,-15.349330895102538,-17.670836591804118
192.0,8.002289988017157,-8.178019155861588,-16.180309143878958,0.03811074598150377,12.103822707334295,-12.213058221893279,2.0341097354845044,-0.4926686880646761,-5.135703163672684,-6.188512087644557,-7.264709583759115,-3.809760970840032
193.0,5.085828591198206,11.705078026959628,6.619249435761302,-8.369008279740347,-0.7528264029860203,9.206813097553967,-5.605160646015589,-3.718773041632606,-3.811334533956592,-7.587560534675115,-2.6733095800126336,-0.28645677522724355
194.0,-5.797803727034115,8.467497858755264,14.265301585789393,-1.3103069892047827,-10.011777876613861,11.414506112301604,1.2455544680047523,-1.3463486518820929,-5.13043326079455,-2.05051229743907,9.878885040668125,4.333384993811168
195.0,-1.8757520303271504,1.084065287825001,2.9598173181522824,0.4207416107944275,-2.468374503614424,1.997143254707625,-1.1832146549445341,-1.1458134657780876,0.930742036606127,7.034381249932736,3.6858953507847474,7.7590740820220585
196.0,-3.389862606815095,-12.9440417116207,-9.554179104805478,8.195131543486259,3.039865045057677,-11.26799577588849,2.845113875028833,6.800937250602858,5.272869658303517,5.731894376137812,4.027953179888054,-1.6032533879563093
197.0,5.116031435290971,4.082674808463339,-1.0333566268274699,-4.644320175896124,3.117137962894448,1.5093445841293853,1.7537916032152103,-1.4872469570478715,1.1717235820552268,2.5315601689051803,-6.847119863321484,5.529651783839157
198.0,2.451542973325798,6.825451735893024,4.373908762567344,-4.677027196556187,-0.9163920441053279,5.5840886957759945,1.521519131833529,-1.2839215651488096,-0.08752158795107046,1.0955426894221758,2.8152964412409602,0.8493035817907186
199.0,-2.5055565711827645,-0.16359226206064004,2.3419643091221864,1.380415590373882,-2.4593402325911264,1.0693768436387319,-3.1055136364602696,-3.9329134403386012,0.16239987708169468,-5.873001240490651,-3.640084131445458,-8.613591938792975
