Time(ms),I,II,III,aVR,aVL,aVF,V1,V2,V3,V4,V5,V6
-200.0,7.847155938605759,13.007634124568298,5.160478185962614,-10.392045281280215,1.3814500424271787,9.099076367506425,-0.7430513878307758,3.0696643518935116,8.360665772068899,5.466945909261395,9.908073336837168,4.37449631265477
-199.0,0.9914704806633825,6.320403253902881,5.328932773239776,-3.6939744567169948,-2.200498682533948,5.844765641519186,1.2742038109983667,6.127012702162299,7.33899631472134,5.978547879338293,7.346588040896338,6.281496998273219
-198.0,-3.7132496334039233,0.1216458445715558,3.8348954779758513,1.8415477497924249,-3.798721455548724,1.9239690806960512,-7.307838318815687,0.09311636263925394,-2.219998984932791,4.650580952887646,1.2878219569003821,-2.3784182081722216
-197.0,-1.447002440431973,2.735371296890405,4.182373737322633,-0.6748431018968399,-2.8359924973610244,3.4861913224283727,-1.8438448194209331,1.827775080890448,-0.06664736391790482,0.8809667868699345,-5.894075601942829,1.9908353882628094
-196.0,3.8830459881166024,2.77426624807359,-1.108779740042988,-3.3610979705829838,2.5518633443638756,0.7826737508968113,-2.5856961873950417,1.8184164408156642,-3.5236614690576875,-1.1943396687394017,0.181638193613612,-0.5955885172381736
-195.0,2.9821762033976755,-2.94176229775986,-5.923938501157702,-0.05829719404062955,4.423951337499808,-4.403562496981017,1.891081135305576,-5.116339174938041,-6.79116234412504,-5.390688697709686,0.2319852210308253,3.50532119555234
-194.0,-3.7980659707334596,-3.7885177809715476,0.009548189761678483,3.8264234615421335,-1.8643147372964086,-1.8592000033260532,4.3045866309937395,-3.8729188632035085,0.5042821237378954,-1.8662510081889807,1.8928081310474187,3.8304181261727894
-193.0,-7.9666869635533475,-8.70424507118931,-0.7375581076361528,8.362065428396015,-3.666159631389468,-4.767100013711309,4.582752917147161,1.2895412249219542,7.282794196186316,3.6640224747151615,0.33416707656743494,-4.345707606628795
-192.0,-1.3877287384850874,3.112944575530749,4.5006733140157795,-0.8390509512745226,-2.929459034689919,3.8429380131375677,0.20306784577943215,1.545765031367458,2.331145872885378,2.4532348467156337,-2.0507727484176885,-6.290505655917587
-191.0,4.256190241154924,7.156070164820948,2.899879923666085,-5.681045453903609,0.6826816353786492,5.067988885056953,-3.212736123332806,0.7687428571904282,-2.006625781471783,1.3867938720301685,-4.169472764499138,-3.237548144809002
-190.0,6.420779046465334,5.598257125398897,-0.8225219210663507,-6.05769746120965,3.620196508387762,2.3515849611102713,-7.344907301645289,6.168320629482672,0.7019772953527956,-2.4394656267181585,2.515650342634753,6.731633136363283
-189.0,3.794068992296325,-0.5661082858130553,-4.360177278109315,-1.654528985574391,4.07526920924709,-2.5001259752183085,2.9669213714528864,-0.0802384806195593,0.9748540668836474,-2.2410701280923813,1.3865893642624374,0.38708510437438903
-188.0,-0.9616952746609031,-10.966937889545685,-10.005242614884725,6.010125254059574,4.525371569288135,-10.449005792563701,4.961541917144938,-8.494181376276254,-8.180785029824989,-4.771056117928322,-3.574912210628599,-8.074097632677029
-187.0,-8.559049550857516,-3.3672402002454813,5.191809350612064,5.935979421810343,-6.861487162097747,0.8625950836618879,5.404331294872853,-0.6106955509789116,2.409489428135619,1.0401034294406208,0.9048084193604491,2.3580242222698624
-186.0,-1.8155131142796197,8.157562607126916,9.973075721406564,-3.1165688251740704,-5.867126506752147,9.085082237225423,-7.081066153560056,2.905829345032468,3.979987509551492,8.111144505334206,6.3934713715116835,7.428591092129779
-185.0,6.654518741712954,1.7362774881250371,-4.918241253587939,-4.219941265273601,5.748369992540734,-1.578954366400338,-4.124425793417265,1.5104372756078437,1.0279171920272994,-0.7085799098387797,1.255257151106575,4.795937097265831
-184.0,1.5103463577607978,-3.8553422962089487,-5.365688653969841,1.145235456857845,3.411592360783761,-4.602067629469884,0.737581649108153,-2.7431418493470505,-5.264995012043672,-3.7451374343697856,-4.308385787505559,-1.3769405842098377
-183.0,-11.467427037415408,-1.89082306686126,9.576603970554087,6.648064947324442,-10.540376884296691,3.8533282539507994,3.763480932599209,0.5537393829641102,-1.0303156142323673,1.2055962095401762,-3.0628741684523977,-10.969693816356324
-182.0,4.863170868404786,9.009436113613399,4.146265245208577,-6.891739512310959,0.422824181492651,6.595590379800289,-0.8333199385628154,4.268011578378276,3.8295555838321924,6.384117679721772,2.6099180823312214,0.39266590928239786
-181.0,9.50181594835107,1.5393653630694955,-7.962450585281561,-5.477007172483399,8.717796358748448,-3.2617415015668234,-1.4314024106565892,-1.8190888315069942,2.3404359977366314,-5.039758301541321,-0.12602095331462848,2.081019447442859
-180.0,-5.713060813089777,-14.445255026294458,-8.73219421320469,10.045741461884408,1.4917302489576736,-11.54855566576187,4.452080091556865,1.1325532861585195,0.4856922762700764,-4.044730462319416,-3.1654542569791584,0.8359203874248279
-179.0,-1.1771812483647774,3.534990864849612,4.712172113214355,-1.2083938835164152,-2.890408488776398,4.0946921329465855,-3.60838540575392,-0.6572571253615256,-0.9028515953365223,-2.6343526794866348,1.896180980831088,5.691573169924907
-178.0,2.751979708877223,5.215506170504167,2.4635264616268944,-3.929838160055306,0.11040519509273561,3.8164085718694913,-2.2038491307004606,-4.682624030830278,-3.2496414947830266,-2.0587949550655753,-0.23524966106857714,2.3763399211738614
-177.0,-8.074622252574027,-2.99558471133379,5.079037541240212,5.513812442296017,-6.621897946573729,1.098474073787764,5.340887965307822,0.19306005958958927,-1.3306147138590232,4.506383281230779,-1.2244603185379268,-4.328228217330982
-176.0,2.8195067285069872,2.365871230512654,-0.4536354979943069,-2.613013997957621,1.6584505928934794,0.931095196642279,0.797050585428928,2.248222436250438,3.8750028023641914,6.847805307892182,7.993008533620588,-1.078302524179635
-175.0,5.481049785654861,2.371795976468488,-3.109253809186285,-3.949039282631754,4.306503333799096,-0.39924383270999353,-5.928874830268704,1.983251965002811,-3.6232703332911687,3.195078501339695,0.6643014108264818,-1.0264488945901469
-174.0,1.9144569372566895,-2.422881011811578,-4.337337949068131,0.30516377717413,3.129856785477558,-3.337521374139735,3.4208724936186257,-0.70369742688415,-1.7887522397256252,-6.606300493922937,-6.803293696577398,-4.793185349661434
-173.0,-4.817488567096032,-3.289177332911362,1.5283112341847387,4.018688719526381,-3.1719057400662205,-0.9200204440852013,0.5517357087467009,1.4641487552786976,5.115593723449616,1.3905241498502603,-1.810329079105725,-5.242343429489594
-172.0,-1.4459126395087643,3.9827118458291406,5.428624485337886,-1.2311668290216295,-3.434538075906106,4.745380988958787,-1.4521459439988091,-0.49685189361186793,6.471750762259623,2.0907590575713395,2.1858974942237843,6.437531392895638
-171.0,-1.15345884693291,-2.896763724303742,-1.7433048773709348,1.97822994874433,0.30326062769640627,-2.354008334858144,-2.137043179169176,-4.250131859038476,-6.514183898838595,-6.058494770039534,-4.994013843692551,-1.2577443413818523
-170.0,4.969849744592041,2.6264450520552565,-2.3434046925369003,-3.769111625011413,3.6728139436667773,0.19488560633249863,-1.1064225005136317,1.6813846342034804,-1.2275442788079824,-2.4090631078576914,3.386112272264214,7.131594531701664
-169.0,-0.5709794246014501,0.3910908153275021,0.9620702399288859,0.11895689036107493,-0.8208332912902461,0.6609479720730321,3.1733401880961942,0.4372799312304079,-1.208758062100856,7.640559689935284,4.3569488918579875,9.739797459021588
-168.0,0.22120635134695582,-2.580125190007795,-2.8013315413547604,1.1320447915701406,1.5429667325716534,-2.698539447834241,1.3176514255868739,-0.7519209796146997,-0.8851556297963936,-11.354065786785348,-2.805875993348241,-2.1621298101882873
-167.0,-4.843985826958877,-3.72124379761756,1.1227420293413817,4.317657596834026,-3.024727468215045,-1.3039869772131845,0.3625382223750401,3.260260372321392,-4.015774153721288,-2.887453792289658,-1.4615425390814698,-10.287413179886043
-166.0,1.537211022064698,4.364688236710173,2.8274772146456106,-2.9906197954932914,-0.6033835410614498,3.588168904930981,5.48723767192051,4.4965594346463575,7.2391926239074005,10.426681206677051,5.92972599305533,-5.50693321999062
-165.0,-2.3854544350155065,1.438874357267363,3.824328792282998,0.5159859174037231,-3.138230875018261,2.614715818130369,-3.2314253523260907,-9.149562814900223,0.04521580852302831,5.875739632983764,-1.876871384695403,5.140721704774102
-164.0,5.0530877632584,4.504317346142345,-0.5487704171159988,-4.811773988715464,2.849699423423796,1.9485195505657482,-10.549303225168428,-2.058452296005632,2.9233343190504497,3.397207221822736,-4.193444021290423,-4.1188100111497405
-163.0,3.669887177937839,-0.5191483487027944,-4.189035526640678,-1.6057884567739922,3.902256700870522,-2.3167917995868956,-0.1571850069135401,3.7728763540850268,1.6236368372281846,-0.27765299435952273,1.2553855339517197,-1.014786653133264
-162.0,2.3023472955853777,-6.112360197546906,-8.41470749313234,1.9561810687654748,5.411251883437794,-7.234778433763984,1.5114027684540068,1.952228591893523,-2.3495657159206784,-5.246966720017403,5.418359372698984,11.764928599349831
-161.0,-10.581928090106219,-8.276728782338397,2.3051993077677575,9.405054233224641,-6.471280635072929,-2.9597409622623374,7.994208267891953,-0.2448293823683636,-7.478740917378988,-7.417133522022971,-3.589630714539192,-6.413836154787923
-160.0,2.0497570300377816,4.973240392440892,2.923483362403089,-3.453656697600124,-0.46987315361052584,3.8989150427717636,3.3330149542930743,2.966123652901755,1.4716402134565998,-1.7434257793702317,-4.782247425137351,0.3894925641299519
-159.0,-1.6995268031509951,7.044373570469447,8.743900373620443,-2.6909826640505234,-5.263079856915373,7.931147835197885,0.0984366774288632,-2.232622945579957,0.13467418624650837,1.6063773813558373,2.0400663039248164,0.8091240154294659
-158.0,2.076651641254026,3.767707146715281,1.6910555054613154,-2.9407050852710905,0.2207258083744974,2.6972454347264465,-3.869615386068905,-4.017638808671273,0.08919864728591431,-1.5061405003543658,-1.5430575984094572,1.0631922006277257
-157.0,-2.86545715114234,-10.106123001187292,-7.240665850044882,6.4642575034763405,2.207729383506705,-8.696493943333351,-5.749723214112732,1.419076304002699,0.3573560838260257,3.5013387010768686,0.21735988657467853,-2.7213231535393434
-156.0,1.7116577424508392,1.563365959861407,-0.14829178258943054,-1.664598766316975,0.9463307642504823,0.6912623350088634,2.9582964909422986,-1.766484946275729,3.9206710628938017,3.309277182294974,1.9238741986633343,6.913538403013987
-155.0,-1.5866993281782142,-5.036454647758954,-3.4497553195807797,3.3569224654871754,0.94908681803476,-4.17662190646122,4.316617241541141,1.7746876177295725,3.1018571245741393,3.3525645621473723,0.3123445946238059,-5.182010669081915
-154.0,11.27782496245021,12.792647368835215,1.5148224063849456,-12.073268278524935,4.904336064560024,7.142853620559432,-6.616008751820119,3.8770368135846076,0.4961948780906765,1.0726875386804349,7.6844861286118435,-8.268431413429559
-153.0,4.06929988515623,4.607415158100748,0.5381152729444815,-4.298503747971617,1.7167726717012313,2.5612422280740232,-5.154010818590118,-1.5085614788186557,-2.2541838095378495,3.153755429871434,1.2127620963954453,1.3420295953836945
-152.0,-4.206172390950816,-2.6015524018910505,1.6046199890597934,3.447334437992793,-2.947830292501098,-0.5119520114626164,2.042752416710386,0.43791002786644784,-5.042414314188415,-8.25808571141753,-6.491475492037772,3.3193773384814356
-151.0,-5.544487390601983,-9.198082710975896,-3.65359532037383,7.3430484986643805,-0.9051762340657339,-6.4419219077723255,8.217736858203343,3.42675490931133,0.6789906680858113,-5.157457833187895,-5.864261944435837,4.315182641291875
-150.0,-10.736643186706663,-11.590649129638567,-0.854005942931798,11.143376587600567,-4.978640635643006,-6.162300283975996,3.5969699465607694,-5.49470489576068,-3.7304369488194187,-2.108163248586343,-0.5405505787742704,4.40055921686559
-149.0,-6.454295243552611,4.8613291891691,11.315624432721801,0.7820932677435506,-8.844328698365075,8.067500618949435,2.3527838349507517,-6.462307912645517,-0.9591803473979519,0.21159127647430664,0.009726872703325506,3.7855865589502278
-148.0,6.885741790054575,7.845346985052031,0.959605194997494,-7.378624916492126,3.0023849810359775,4.379893406759551,-3.6366312696320042,3.3157998239028728,6.980278770762649,6.848001535947131,4.212170791977282,-2.5784547113693863
-147.0,9.415485062496451,6.4006706120859995,-3.014814450410507,-7.846886705125662,6.175276103614535,1.6695409464787536,-4.071300027514146,4.3016940394630065,2.628270856536373,2.80196666361824,0.4023449309645688,-16.73073018997004
-146.0,10.47961631024646,1.0655897379446273,-9.414026572301921,-5.80010272204956,9.908334416052067,-4.118776384162887,-3.155494703076942,0.6375267966268843,-0.17900248426930032,3.329523775673482,5.419101479065347,1.7458296965789106
-145.0,-2.456479882629629,-3.975081239227502,-1.5186013565979364,3.1746316781740376,-0.42509661229365125,-2.769256714460291,-3.139031034956835,0.14942589087524372,-3.0216331613804464,-7.325147197779135,-6.4656370909518674,4.456088001067648
-144.0,-5.655514640305301,-5.455260903603507,0.20025373670179758,5.5784006865244296,-2.9573040933715005,-2.6485567795166487,-2.205114982597294,-1.3456907781702414,1.8566452618422273,2.006708854342735,-0.03147626168764672,5.2819959570027555
-143.0,-6.231403022046612,-5.990530407236818,0.24087261480984679,6.121552886889968,-3.1803910047791346,-2.8159338663212266,7.6085104496393,1.1992576034557734,-1.7358623620468765,-0.7654469094724441,-3.1132248815468664,-6.964198622812467
-142.0,-3.151140549125392,5.033835707589212,8.1849762567146,-0.9384475857367569,-5.685283282453541,6.589844480544425,2.8330887894105863,-0.4168067510969464,-2.4673889646128306,-2.6964857186814024,4.5872517848178465,5.218616666990744
-141.0,3.063529549662969,8.134071229204016,5.070541679540999,-5.597556393446884,-1.0173642469197723,6.581641358319786,3.6023576194977784,0.4754669732564556,-0.2906512571123796,-0.23231796912686553,5.853100955663087,8.621406604869945
-140.0,4.138991080650119,4.859712007976928,0.7207209273267345,-4.494127082578788,1.6948574886181405,2.767162444659555,-1.9332842620164898,-4.259621325525251,-1.054682304509627,1.6042601542043378,-3.5561205085279477,-4.608299494511181
-139.0,3.1037605909274335,-8.22276347925379,-11.32652407018128,2.572415458351831,7.196244243082199,-9.800579178769658,-6.72451776524676,0.3093414612998917,3.943706564679058,1.498413015678654,-1.5075188068238967,-2.463414500549212
-138.0,-3.396596146425713,-7.379398523413539,-3.982802376987853,5.409534491666201,0.34491531738063586,-5.630573050295973,4.596072566197669,4.020336249541947,1.6822525811921694,4.846241555381808,0.7169865691547728,2.3332990767356665
-137.0,-3.3992665018094876,-6.4248513932795746,-3.02558489147008,4.861810957854702,-0.2234365242476717,-4.675712415620062,-1.1285887835541233,1.0696442513359643,2.271200926338623,-0.9128924843937776,-4.5169874141121555,-5.125169098350045
-136.0,0.2747775977830731,6.0576391183964375,5.78286152061338,-3.2125563775263752,-2.7208160421254544,5.890933492425194,-0.5390082106207993,-0.23966629185162214,0.07945736776919965,-2.549475673407578,-3.120142726447274,-6.556417233285177
-135.0,4.171637194788158,9.084351507274237,4.912714312486096,-6.594473582088045,-0.42195104143038664,6.968790025600564,-2.9830128676746237,-2.8735620852395463,-6.183196432788584,-7.207382951186072,1.333209446092451,3.2830088534138553
-134.0,-4.3421694635174,12.465485906380518,16.80765536989797,-4.02810768186148,-10.548730094707519,14.68314773574379,-5.005269612198183,-9.443533269111862,-8.034188117503774,-0.57547333462675,7.3074717277006505,7.175123343658952
-133.0,3.74704802254541,0.6303785253393919,-3.116669497205965,-2.2328154016493764,3.4621932429264386,-1.280813021648875,7.357778103945224,8.593202600404117,6.328663269884587,5.052830878565279,1.2277399735858703,-7.92727988356497
-132.0,-1.2517698732036364,-17.93666807306003,-16.68489819985637,9.632524475644253,7.676759975958547,-17.356730016165194,6.781248066873765,2.306624040126959,2.629784667044148,-0.06584416481933131,-8.715346619474543,-4.98157824734581
-131.0,4.264894754535634,-4.578581805645018,-8.843476560180644,0.20142047719152067,6.603987560904487,-6.687498783813946,-0.02050254679699659,6.160947615808821,6.508830852478623,5.34056544355786,2.3963861282149925,14.256389944830957
-130.0,-2.438425319568009,2.8199544352585395,5.258379754826538,-0.21750728551998333,-3.867329642953185,4.055177004936295,-8.55028121081812,-0.27823139226176297,-1.6632644783905972,-2.6882639937641364,7.145490127089726,2.3554202108447986
-129.0,-5.131577662616391,-12.398227410102264,-7.266649747485916,8.744469067540205,1.0547087211801176,-9.81958010677539,-2.1384189696105627,-3.546407243602984,-3.3343064562213973,-5.397070357255134,-5.865766867401732,0.029618498114435954
-128.0,4.541629070643539,14.75488469923458,10.213255628591,-9.665489418500806,-2.8485982014339015,12.49952610562005,3.4199147109950525,-6.618597590353245,-0.430004096127496,7.491814519610185,7.601327401991554,1.5313288580288527
-127.0,-4.541945676284752,-0.2990911756215624,4.242854500663193,2.4026554291773605,-4.411684524853275,1.9952234834582843,4.665636864340233,-5.550829476687406,-2.137153886333368,-2.954514767568409,-6.447522018673753,-1.7410929427279864
-126.0,2.051824668869859,5.113754079457057,3.0619294105872044,-3.6042766894746388,-0.4572951111463439,4.043465942718489,-3.0344516309728173,5.5624240494058395,-1.3114897089546647,-2.0897777236943957,-1.4174899142684474,-8.391168546906064
-125.0,-0.1896190331704184,0.6406655023265557,0.8302845354970085,-0.1730152325160026,-0.5551419180862927,0.7022384122104262,-0.11235941386198378,4.106755203324836,1.7951840805407575,0.6156834109282454,0.9241483724290287,-4.319374345310484
-124.0,2.6548742650144086,5.938063174742152,3.283188909727796,-4.24800135478544,-0.2940349980590211,4.6644398369664355,-1.0615547163896444,0.48608748584430916,0.774933094379355,5.080748578717684,1.6132389021726592,2.8880362746357733
-123.0,1.8834684607565475,2.3364639555084463,0.45299549475195366,-2.142694690284714,0.725464061695205,1.373186527998621,-1.68169825835199,1.6794896497212521,3.6302393547649703,-1.339891592761144,-4.318025172127673,-8.715707951818025
-122.0,-7.90183789410931,-14.291121654809029,-6.389283760699675,11.062481550125952,-0.750917274219232,-10.364071499541664,0.08177179928967526,-4.184252373037986,-3.520380395209766,-9.772859142670804,-6.059628422466274,5.581672549033093
-121.0,9.476694602280524,-2.628559775331305,-12.105254377611825,-3.3807661948793655,10.79626942219334,-7.319621776931241,-1.4735054147918554,4.261228881940509,0.8444453096718645,-1.3195017235524658,4.167963917049257,3.5928108451149843
-120.0,0.15859257662701687,-4.206298600466985,-4.364891177094065,1.9852395831648528,2.270015468661607,-4.328486154129148,1.8019334685725608,-3.227694689385829,-1.807017631617001,10.500958392507423,7.203712671176118,1.8892276466383002
-119.0,-7.668448011595451,-1.2174845480790093,6.450963463516344,4.477289151871941,-7.04797299849836,2.639352830645025,10.06831797362605,-0.5159498982163027,-1.230463998296828,-0.5410914786062468,6.779585536629741,14.051923222545152
-118.0,2.4689975080864253,9.74494304965882,7.275945541572337,-6.159686504059733,-2.4688688656188758,8.520131919204527,-4.691687902582672,3.3693400281441903,3.9562701686614496,4.759211267137248,-1.613434131017835,7.697251778768294
-117.0,-0.3462832192516678,2.9647213069214216,3.311004526173101,-1.2925800375478276,-1.8166167280524106,3.136852446248767,-4.719203847976075,-2.2511071875655313,2.1889443924150007,-2.891344684609387,-4.482978855359584,-15.081081676293246
-116.0,-2.9090901710258112,-1.854790603563945,1.0542995674619493,2.3902572173638448,-1.973406886649552,-0.4082489460400094,2.1879454638011193,-2.6815426632847434,-1.0860510016776228,-6.435363043640241,-7.090320401260426,-13.663437563312161
-115.0,-0.10133817574194676,2.773021253681563,2.874359429423629,-1.332544602108149,-1.4837747110022714,2.8133795366147774,-0.73857425734121,1.879764931949191,-1.7814347347673332,-4.298780831977298,-0.24214861624355422,-0.7033263446440863
-114.0,3.3964424032844702,-0.42757093289673964,-3.8240133361811215,-1.481429748009416,3.612124644497677,-2.1332874223415783,-0.9669586238430702,0.5866984348154672,-4.985142724109915,0.8062642687039578,-0.4189070433266404,3.693739727704576
-113.0,3.6701668862224244,-0.9454092388643005,-4.615576125086719,-1.354928381485123,4.146690073987092,-2.7802959817074164,-4.013972350422641,-3.5492815647357348,-1.479094017118851,2.9105385717472543,5.851818080151772,5.959009114375412
-112.0,4.096308546681087,3.2317303150305263,-0.8645782316506629,-3.6489248056068746,2.491055763697053,1.1951829818151447,-1.0543076189482097,4.028167716332797,5.892969041856615,14.245879154091508,0.46144895586845447,-4.5913039799863515
-111.0,-7.9611024749873405,-3.821130287854917,4.139972187132264,5.914447336868598,-6.029160891881217,0.18395119844356245,3.6804199891641196,-1.8915751792163786,0.2027460897112392,-3.8048608758134543,-4.553847600245899,-0.9915525924856818
-110.0,-2.4619939623427283,-9.197290922823436,-6.73529696048084,5.780322354001157,2.0916231207545053,-7.930347432496836,8.457142392786725,-0.2425653450719009,-1.03699859172401,-6.1310680335127765,1.00893755371734,3.0103482136582196
-109.0,-0.8996831577714972,1.1600819741008919,2.0597651318723855,-0.17733091286636027,-1.4352559954762207,1.573964805399315,1.758902771023088,6.169864175874347,4.5931008797865704,-3.3943691158459384,6.193722855054376,7.905540691053422
-108.0,1.921968926320476,9.569580442757744,7.647611516437366,-5.715984187180109,-2.8909455537559885,8.57296162450481,-5.9479733979931115,-0.3378684905084395,2.7166054607210812,0.10537510616902512,2.3165639536081266,4.626548281209112
-107.0,8.95821054917333,-0.1279887433788991,-9.086199292552134,-4.389621975113867,8.993800574407574,-4.648727700354893,-9.559592907066001,-4.662846111302583,-2.8879775228542246,-1.6080195230813188,-8.79655654577277,-8.879788452192914
-106.0,-4.7258787959538,-7.198678699745159,-2.472799903791257,5.9834823088772,-1.0829930490000377,-4.808334621330644,-0.10648936486447891,-0.965620887816609,-8.03051900295221,-2.483456101554577,-2.252562438101031,-9.63111362175017
-105.0,-1.675846105095192,-2.144485279613083,-0.46863917451780124,1.8507885005868814,-0.6503404205680854,-1.2883479136131766,6.150795352884456,2.613922400575591,-1.2987177997601242,5.811520619904859,5.310411597380021,8.339876787678595
-104.0,-6.749615346783083,4.243720103220076,10.99333545000321,1.2744473374716918,-8.852545856471712,7.632356456015746,9.273886663683058,-0.02092840139430663,4.060183182711674,4.231110951146493,1.190727546375036,2.9405521409205866
-103.0,1.8748326317419801,5.588312865731605,3.713480233989642,-3.7039654623977247,-0.911350470145734,4.667834340359862,-1.7947676995731303,-7.858041201481869,-2.0378828666499924,-0.594153701197822,0.0028586622764763536,2.8309807648886904
-102.0,5.84705105716045,5.677588490092149,-0.16946256706833962,-5.726167449774712,3.0104876512838175,2.7817068889257257,-4.945370259976364,1.1651578640949714,3.557585055377166,-0.058732987626026495,-0.5347709406419547,-7.902965267406989
-101.0,-0.09268574327025059,-0.8105021133127444,-0.7178163700425728,0.4173400783536634,0.31582035720878476,-0.7994152764163558,-3.546698838211828,5.894830812463968,4.579626337825621,-0.06906493934195923,0.11183806468839028,-4.215220079316874
-100.0,-0.36986854083956344,-5.825645010493836,-5.4557764696543485,3.0688804728218506,2.5535132965805296,-5.65901802962345,-8.545857944646764,3.022957229609944,-2.047025595075943,-3.423141826716344,-6.542736371041117,-5.762172325746243
-99.0,2.917534146887871,-4.901839572820488,-7.819373719708402,0.963897706887461,5.3901775717587,-6.365084824934627,8.326958713450871,2.0352383013892794,-1.382135582856164,-3.676904297377835,-1.7287609034915954,8.767693396526058
-98.0,-6.22426838553641,-7.4026040944352705,-1.1783357088988335,6.859685539084837,-2.568602460789443,-4.287345833411065,6.5799474346414915,-7.3017428729037075,-4.696914751246914,-0.6536011052173512,0.2006612844814096,2.1168054778980556
-97.0,3.944875144482159,2.482431374916764,-1.4624437695652905,-3.253726600408633,2.744681826308952,0.5132352662783584,0.45906483833447664,2.7509463272777044,2.8923670469798513,3.942649764089552,6.608290452844436,-6.897523609926818
-96.0,-3.5954502468678973,-1.047833850579853,2.547616396288194,2.3519190064719178,-3.107407571348104,0.7464443110866199,-3.824538148604827,-0.09960386568365753,2.6510324833279357,1.9995646441814094,6.144225722030253,13.435717367775464
-95.0,-6.39446018641459,5.89783037107612,12.292290557490846,0.271852430362411,-9.384029907169626,9.080300108442144,2.9517324191064516,-3.4681205023584414,-0.07062466425131719,-0.5238012836866226,0.7538482977175145,14.118945224336214
-94.0,9.258163519736765,9.881994447576906,0.6238309278401699,-9.549946673265321,4.345443996921078,5.303912892419878,0.06111565575247785,1.2977833426522656,-1.1498139454208356,2.5788504251741835,3.7403626895562314,0.9070485747196613
-93.0,5.304092517909331,8.25261371040676,2.9485211924973367,-6.836504752867512,1.194380397448625,5.561079056534801,-9.01110849997239,1.5299694421264503,-6.162148203124871,-6.386930523086575,-10.61405594543204,-22.835853761398624
-92.0,-1.7640794543127192,-6.082725537955307,-4.318646083642783,3.947904995472738,1.2839325151601042,-5.169647436368339,-4.04361614021343,0.422855959362898,4.121352491630159,3.7710625232168553,-4.221748695318837,-12.347986525092589
-91.0,-2.0793796577899957,-6.517453406867574,-4.438073749077747,4.25050322865378,1.1806016997245325,-5.528968679293032,7.95370178948145,1.1203872752473312,4.095253489558229,3.1144689901675635,0.9417744799118579,5.42542638738942
-90.0,-3.5743878804756175,-12.127283806309448,-8.552895925833896,7.889168492119747,2.490856404407369,-10.311295330928173,5.3689931943171185,-3.5263691209889574,-4.748174652826304,-6.550560730290155,-7.031288557814053,-9.881428587066374
-89.0,-0.15346046963631332,-2.885722178716575,-2.7322617090801926,1.5651885198425526,1.2964528842608352,-2.7753495967901305,-1.3938026757378053,4.478837586955298,4.257531035168249,5.301676113062041,9.182736827328622,15.192287521535588
-88.0,-3.423634552021724,-1.498978205719053,1.9246563463028614,2.433778962482845,-2.658609942814392,0.17413718409778434,-0.25162894096734556,-5.751339071673778,0.4291325714134223,-1.6544032737237697,1.6886223029224636,11.344408546358286
-87.0,-2.1195369781476967,11.21378113698237,13.333318115130298,-4.5718158118454415,-7.780802814546871,12.31916920910726,2.7309553361266223,0.9649153073232133,-0.10921824819429754,0.4268944525653857,1.4525696515921824,2.390296125481827
-86.0,1.7850001130100397,7.804601100390341,6.0196009873805165,-4.8199594090479305,-2.086092203407929,6.881736764169776,-4.416251445513016,2.3510667630331064,-5.544622199740914,-4.0400645586661295,-2.8133711591829744,-10.799310560173774
-85.0,8.233834560148527,9.362245352875558,1.128410792727152,-8.747819899150091,3.5086370391661337,5.214131695932835,-6.982395662940665,-1.5392643007888305,-2.174916297791141,-1.308692294929499,2.8800133341516316,5.184723530584178
-84.0,4.197026556516229,-4.300448966967016,-8.497475523483224,0.018105095491431467,6.381886863669426,-6.433836498912621,-0.4989577853472844,2.4872759480822535,1.6439800085162264,2.477141462329958,1.207274641354469,3.2325269077585097
-83.0,3.892454731294105,-6.497817429943055,-10.390272161237263,1.3426511564265329,7.173301170731784,-8.404707936240934,6.72815585099578,4.679845594911351,7.399284077585409,4.439442575979669,1.8819706780039902,-8.954099472519333
-82.0,-12.70041817195644,-19.77171142207462,-7.071293250118359,16.19351658836033,-2.8653684809914814,-13.385293155353779,2.498513658527921,-5.409202248728516,-0.7689429778544845,-3.2508783161420847,-7.160519056618667,-2.663552104111381
-81.0,-4.158404910528512,-1.6069290643789547,2.5514758461494287,2.9174742297640597,-3.3308647586664737,0.5082209652260223,-0.09529272775591746,-1.8274260431216294,-1.8014561085489822,-1.566861373407152,-1.6133502135417634,-1.6119031285603267
-80.0,0.4908629832742992,12.450461500318374,11.95959851704412,-6.513471339182129,-5.712871896754239,12.164831739370467,3.9104074242612237,-1.8312573341058316,-2.4627348876414903,-0.020937071388325457,0.9093429018208177,-0.1137743535877086
-79.0,3.8088096012177215,12.433023086068161,8.624213484850578,-8.082056282857025,-2.465521366719211,10.492591599343472,1.0365233830846248,1.874298265173869,0.6497692614593567,3.923126895389739,1.713644421401329,3.7321672734228883
-78.0,-0.54233053724306,8.422478261309472,8.964808798552665,-3.8979839837380705,-4.730999333724342,8.740276905532129,-8.034216766174906,0.29958589797725965,-1.3840737468408018,3.3025832939203617,-1.3895860078076712,0.4001142911584399
-77.0,4.695657241906785,1.4345917812039448,-3.261065460702728,-3.099970234735908,4.004391254852524,-0.9431719478505403,-8.15685022818626,-1.3842265693171356,-0.5136348174305665,1.1472539653944194,5.184612106287812,5.692484491468585
-76.0,-0.6926574906661953,-16.594342689573033,-15.901685198906781,8.607802806275064,7.634934599306359,-16.278007997950223,-4.834727627972779,1.2169273748399725,0.207504045025536,-7.906111270650342,-3.7972643968446467,-0.6906530570658096
-75.0,-0.5907116456064883,-15.423516514876521,-14.832804869270063,7.9677721759906435,7.076932943976012,-15.081160912203597,7.726079043057139,1.8501325465290477,1.687710692899282,-2.8951341257125613,3.0105048789262168,-0.18416336541379946
-74.0,1.3908931246168614,-2.250862361493077,-3.6417554861100383,0.4640803275489316,2.4753997317557737,-2.9802861975833217,8.64175718549967,6.266088706052793,7.197381724324107,-0.30877628832239656,-0.7908162195374311,2.117094234962755
-73.0,-7.318504233466933,11.820075729091155,19.13857996255792,-2.221861610545858,-13.188742612139217,15.522659148959196,12.876784335529596,0.4819096818099686,0.2082395319602175,7.065630227569194,2.483254091810731,-5.425669379382004
-72.0,2.362453925416407,3.98979055689464,1.6273366314781583,-3.150686968252738,0.32987403570550455,2.7731335498833296,-1.7859957443531869,-8.877321387310712,-6.6502652474302355,-4.59895344015263,-3.4031005333932587,0.38119662648890884
-71.0,1.0073992016267426,3.7513780914856483,2.7439788898589574,-2.3551990730716157,-0.8258705501751762,3.292086989350463,-14.224443890858945,-7.747438933692809,-8.273253480388663,-1.6693955215766088,-5.498945409082956,-13.461679138617011
-70.0,-0.7670127944906362,2.587383133521643,3.354395928012387,-0.9642087762449538,-2.016332097319602,2.9374964341951353,-3.340323314423184,6.792905555081108,4.070305562510434,3.9085100597089264,-0.20551020863068503,5.432566869205882
-69.0,4.786312701857037,-1.573559244390563,-6.359871946247463,-1.6590003991784859,5.541153663472854,-3.9222112411096717,-0.3794821835984985,5.920724547988761,1.4759839646002701,0.6041179729875217,9.045848639446309,15.557473502633913
-68.0,0.12225185940300132,0.5784223239571906,0.45617046455429033,-0.32266353481564825,-0.19659032259257447,0.4790754851312071,-1.5769177179508698,-0.7820125003494605,5.3230058939292615,8.263484175122958,-1.5537238514707497,-5.083901463782235
-67.0,-4.530425165894695,5.345692798357981,9.8761179642527,-0.37850684553845526,-7.23141141966385,7.5653395998201765,-2.5164022782928326,-10.53761358623315,-3.6285364993835656,-3.4192740486969266,-5.304790447051913,-6.82982088646529
-66.0,0.5164331559005388,-6.13897006047835,-6.655403216378954,2.8417945471058124,3.6368270358940467,-6.373540442655913,5.375947861158066,3.4762539542308195,0.6014605557086135,-6.370598750099281,-1.04571015154848,-0.5389562894057831
-65.0,1.313830231038632,-6.25828125082319,-7.572111481861901,2.4253352910195605,4.414217875295223,-6.9009638764108985,5.452172467141646,8.644848346478812,7.238810347749457,-0.5455180952836303,6.438821681469261,11.012543656976629
-64.0,-1.4062139352368006,-5.079456336790781,-3.673242401554028,3.2757807206449536,1.1815120417623843,-4.36878565253577,1.7805434195981618,0.5260637137447408,-3.6658389120968953,-2.4351390002917537,1.6423317397913337,-1.7821476079234735
-63.0,1.8044519759580193,-0.296612373282813,-2.1010643492408034,-0.7990905642764793,1.9189786126433888,-1.1932800027741504,2.885492347940193,-2.2126855672494963,-8.395883065606046,-6.8002162153198675,-1.3279520349608291,-1.3237225466791742
-62.0,-2.2368938962140157,-2.6445998514930102,-0.40770595527894904,2.474507495044624,-0.8736563655462903,-1.5174324474668208,1.633507797580593,-0.5352914327610463,-2.486506463049136,4.317933068129569,-2.283342922638387,-4.291085806757429
-61.0,0.08870329180807868,2.339554794227425,2.25085150241938,-1.259103320547916,-1.123682515866997,2.311203894474359,-6.238593440956462,-1.143325402539243,4.024540099481124,7.575928430638771,-2.1989094997214913,-4.168882458505817
-60.0,1.1314310996730654,7.533092492758588,6.401661393085519,-4.29820934433814,-2.6825612710707345,6.91386341666913,-7.909602838135637,-2.5683195998852115,7.178496606155961,7.4838278738343185,0.2574508925857364,6.002980698183509
-59.0,2.6525934615232853,17.395579354112,14.742985892588688,-9.989202026609995,-6.017614040540589,16.10322206964806,-6.415625169616171,-6.060944300217446,-0.42824242923061284,2.72328187813479,4.753302482252019,2.7340437643500968
-58.0,-1.9908778409961114,2.546936050590446,4.537813891586559,-0.32054876190991344,-3.238261360341056,3.5037148900873873,7.010746207848857,3.9535430768136606,0.5843116172785978,-6.479582847887695,-4.979043624469436,-9.635599445108756
-57.0,-2.1680855856750996,-11.667787135809437,-9.499701550134304,6.95569997149226,3.6929715487169363,-10.541091530400662,5.724645163484855,4.960871345062379,-0.37660751762622025,-7.440918588203642,-0.18727850611891184,3.7958162526457286
-56.0,1.7008164246442872,-10.14378948524249,-11.844605909886782,4.181893642072422,6.802706774067463,-11.031237114233996,4.1148546555527865,2.8165596193906026,1.5184379963511005,3.6948709464994165,2.133380719740488,-0.06203674822730365
-55.0,1.6393228785894391,-7.844176389720059,-9.483499268309505,3.0640646856299014,5.515510953894689,-8.625565995173549,-2.1747221628727433,0.5828851266943618,-7.611563180134343,-6.35460289341974,-0.52615622941241,-0.4827731774038311
-54.0,-2.1125242729445177,-4.316093870563105,-2.203569597618551,3.256110497752835,0.0007688787139983333,-3.3046981004939804,-2.973628276113991,-6.084762509921589,-10.95425534059783,-5.191076841424398,-3.548422581925355,2.230609726197928
-53.0,-1.0865131686810194,2.3382657883816167,3.4247789570627005,-0.5820213236059735,-2.222917571279321,2.9116944664581825,4.712165624264774,1.1864953262871314,4.427265829449132,5.743776946355915,4.853075890155481,0.708636695897317
-52.0,1.0934377342437247,16.241927308021264,15.148489573777567,-8.699698653985047,-7.076407660274037,15.723633238463893,-2.8505032296663435,-2.112158037195924,6.056713865327455,4.048031843108824,2.914766217194191,5.784522783257963
-51.0,-1.2284458236983107,6.400429373639762,7.628875197338089,-2.6146025577651635,-4.4012384187057405,6.96522674633995,-3.8195979200250783,0.00464403556904025,10.014114110764728,3.0972114977691754,0.5058316068634496,3.4183768608922915
-50.0,2.4991703480588487,0.8113604372418664,-1.6878099108169646,-1.6018801030223946,2.1210418994838887,-0.4053301199877488,-4.047348230270936,4.495684923607133,4.094610779373911,3.6424005005118607,-1.7673459721836575,-3.793662156179452
-49.0,4.043699179287032,-5.475531593185688,-9.519230772472733,0.6928770545900196,6.8128480323001215,-7.537518451082953,3.585077301302628,0.9307077560357748,-1.3795040293080736,-1.7981654611977396,-3.7905147271836688,-7.7782632956259805
-48.0,-5.81846019683916,-8.621089092597241,-2.802628895758139,7.197644366651418,-1.5484046920012826,-5.666283638025963,4.282400409240697,-3.9620314015901688,-8.781554775198046,-2.7467889372334575,-5.8419295791584815,-9.17633906724549
-47.0,-3.265158917364105,-3.2724261129428927,-0.00726719557888833,3.246123758966336,-1.5831148065753087,-1.6659610743358133,-3.531482368270623,-4.422523963993785,-7.75533313172734,-3.148625054231995,1.1946200853284399,1.826049222950623
-46.0,3.5413056143270407,0.179831505318234,-3.3614741090089226,-1.8060968764063672,3.423559441624043,-1.6110545718653633,1.0906008994919234,3.067211858332529,0.5765737098674286,0.3438203293382385,2.9874874271318967,0.6176877253827477
-45.0,-1.2945335160085776,1.8008488758203605,3.0953823918288697,-0.2796330533892749,-2.222885025736746,2.510068186838588,2.947431388217092,1.4944064736674383,2.2189121136420553,-0.7239535583348997,5.401747602356753,7.188258743002461
-44.0,0.158890066129435,3.0273600966006926,2.8684700304712303,-1.5433790639833784,-1.3890960379500061,2.931075836086608,0.6366985833406267,4.347113218823435,0.1805131304528098,2.5800561555450203,6.6844283524592125,13.454910977655965
-43.0,8.787849299273725,9.968965742872424,1.1811164435987003,-9.410358532625239,3.836142783801397,5.554215683258757,1.647764888805317,7.6503335639577115,7.64798498787871,3.4751544828117997,-1.2217924673609337,1.966762517844213
-42.0,4.4015139577829645,2.9171952770479566,-1.4843186807349715,-3.6949164363700584,2.9614631206414685,0.6881316918053422,4.636091935048576,-1.0331541283199686,1.9016095798828192,2.6947804902035566,2.678964273160658,-0.2619351913595289
-41.0,-10.34529794660312,-10.998968463312098,-0.6536705167089055,10.710957046631654,-4.840570857736843,-5.785340371778119,-6.921518046970632,-11.164174819864876,-7.9874819393893155,-6.930938484206386,-9.81675702035197,-7.326585016339331
-40.0,-8.219130680896555,-10.877275725526648,-2.658145044630002,9.503399537521242,-2.784485703550408,-6.814621131832964,-6.558464077843569,-11.706214696305693,0.02562404314101885,-9.682803926228319,-13.779218363556197,-14.067667640288636
-39.0,-4.598515506461517,5.522023817231231,10.120539323692821,-0.4327366305768523,-7.3667197231978285,7.846723004822892,-13.791370039168362,-2.4891262603594493,5.066603901600791,-4.206321358430637,-9.732614872370934,-17.962513403879644
-38.0,-4.38300479699549,3.5608262323961153,7.9438310293916015,0.43550668318617236,-6.167376034807743,5.775773620430837,-0.5341102682267365,-0.7122286211361013,-0.6709061007560198,0.6124732437703976,4.78743531346613,-0.5067461751341638
-37.0,14.189131161605406,7.402167729084885,-6.786963432520556,-10.775456405960542,10.492582007293741,0.333670316584215,14.301197855180673,14.478103563927665,0.9351943777330118,15.309683738251065,20.676375815923723,23.988569392284372
-36.0,19.109428296848705,-1.5672844568892046,-20.676712753737984,-8.833745176612496,19.90892755636538,-11.168823350888726,17.03907731784325,13.3974190313332,-4.699781523297942,15.622012061797559,19.513268181399162,17.786798774851405
-35.0,0.26115352895471844,-8.638214095090019,-8.899367624044869,4.200304799022127,4.60719040409394,-8.7302918280737,5.830421679380295,7.822091598348044,-3.0377079949958947,2.449888334514111,-2.1312105542605515,7.088937299946725
-34.0,-13.633505797292504,-3.5105776445405845,10.12292815275179,8.579340156568955,-11.92210253100313,3.270482127201918,-1.8335777742353379,-7.569702040317207,0.15345268684920188,-13.788237681575628,-13.182986374623898,-8.990115685269643
-33.0,-3.718903581997316,5.771119209600686,9.49002279159789,-1.0230106006472601,-6.645363757241482,7.595434653345164,-12.279719700867684,-9.301269394176934,3.47145240753434,-10.445926369751373,-7.571805686068407,-6.5913058076245195
-32.0,-4.218681077547254,5.183311769100416,9.401992846647637,-0.4823901888066331,-6.774588699570982,7.332208135821926,-14.063714975968026,-8.679872106239891,6.779429857918628,-3.8209047619548375,-7.597372948633188,-10.546664039924078
-31.0,-7.022222042688503,-0.43094780248912956,6.591274240199443,3.725148901349478,-6.7766230889367005,3.1119053652144157,-6.160687026435578,-5.6270210458100305,-2.433062383132097,-0.3243818455377756,-1.7461976789417086,-7.59869770869521
-30.0,-1.5643121003760747,1.9960663269880046,3.5603784273642325,-0.21633552644786258,-2.6174077474998345,2.7216277340140262,9.296588011852734,3.6428060226385415,-3.0838226746273123,5.688746401122172,4.987221666878787,-2.3089993030328646
-29.0,9.052224996838032,3.572321803058259,-5.479903193779606,-6.309334661339326,7.285450424823849,-0.940479155411521,9.6204164398656,5.151341657501906,-2.1866996895779143,-0.1345509621775669,3.5327831033396935,6.719661909700984
-28.0,13.139648351101958,-1.187339529871749,-14.326987880973608,-5.967822556906816,13.752785926297419,-7.749575998920978,0.492697805965447,3.6278971200077175,1.6117235426832404,2.9767272473911874,3.283810699277444,9.073667430870781
-27.0,1.645908633776103,-13.401241281793157,-15.0471499155693,5.892562970204584,8.371271251877786,-14.217626529637673,1.630901915607117,3.223170012994296,-2.0732288117935505,0.9117102827883237,0.6557154267053278,4.360754213850461
-26.0,-6.115060389972323,-8.214390834803911,-2.099330444831706,7.107625961589722,-2.052317600268341,-5.146297003734026,-3.7187295101908053,-0.7429831947770529,2.908949026960915,1.2016938003507516,-0.6699238229999014,-0.8591882414064598
-25.0,-8.952368917704524,-3.560622789026551,5.391746128677807,6.28423200274706,-7.126267242459336,0.934037619406963,-5.956061288887678,-5.676571792146799,-1.5967722070572528,2.892020434417863,-4.689796234442718,-6.091831329771354
-24.0,-5.572896571042247,18.025399424510503,23.598295995552665,-6.1936244806964424,-14.60811751881424,20.761236790406684,-2.0232446995488154,-2.348842805520314,3.0732201008858846,0.7372756247058764,0.9712603079070152,-8.828186029723078
-23.0,0.011340900395502729,6.443843410477444,6.432502510081937,-3.2701400867507546,-3.2263516029588732,6.475180996182742,3.963139098837589,2.9537255165451173,-4.6752309928874425,-8.91905303862469,-0.12254426771350213,-1.8925028927871033
-22.0,14.723282407440331,5.570513954763333,-9.152768452676892,-10.108155508664348,11.923909961031782,-1.8269144848768217,6.97653842438837,6.477301760430517,3.0467298575637987,-2.2305658200237306,4.503363670185182,12.230780668153276
-21.0,5.522359222381681,-2.429796712070677,-7.952155934452237,-1.5841569275274505,6.719921924142013,-5.146020243191902,0.7501274502975797,-0.7387612190034831,1.5504193030334552,-1.6885030908301275,2.992179952533572,13.593202837501606
-20.0,-0.693983298053054,-8.765652739249173,-8.071669441196008,4.694462707413395,3.7437841845097592,-8.45407514139295,-3.0890439596971464,-1.1597962636967265,1.6505119103517922,3.965731977259511,-2.793241455750827,-1.5823090187096183
-19.0,-11.55656839768206,-2.3382653829290794,9.218303014753037,6.994333985690261,-10.41866551451109,3.401027685205322,-5.378312114818931,-5.145626647685331,-2.075609170015821,9.968444868180606,0.5589362619241838,-7.488623073958104
-18.0,-4.99432903359414,-7.537236319025395,-2.542907285431231,6.317202217069996,-1.1844333259342434,-5.003405949419323,0.8640081442358807,-4.218990892409634,-4.887831645643508,-3.353903061503403,-4.590369230140391,-10.412680851478033
-17.0,-2.86695083511917,0.06932708954605005,2.936277924665166,1.3760567681361597,-2.942844307336112,1.5392133255144036,3.0206542710402893,2.6796828692132935,0.47885702506990935,-4.319250449585555,-5.774840742230988,-7.097252577853834
-16.0,4.062637228261243,7.911444514159623,3.8488072858983053,-6.006698379950243,0.14341890639828603,5.841708622928563,2.5503039054613312,1.741066018899153,-0.26030212912360395,0.2747960742467135,-3.173752114653999,-2.5482388917323897
-15.0,8.270008267675147,14.642701335478419,6.372693067803195,-11.475883722268206,0.9074947608259595,10.555870438391686,-2.3834791268569475,3.0781903187334767,4.267945037140518,5.831057488299381,12.702001327444282,13.72028895628186
-14.0,4.4552641876366845,-3.8690002219877213,-8.324264409624435,-0.31616758011351553,6.4293889285947685,-6.117270160731431,1.7807576485478274,4.094770492283934,5.34635683982369,-3.031530149089028,5.5912074076688665,5.9705942353479875
-13.0,-2.1354265335363967,-10.040770051784339,-7.905343518247923,6.137197211516762,2.847654248666664,-8.984398896424034,-5.671696790679631,2.408181582554431,-3.8365023657291117,-3.7376386052896353,-2.9938257560200174,4.178744289046748
-12.0,-2.8535418904404177,-3.9921118004664753,-1.1385699100260158,3.3849600828781643,-0.8152005248258951,-2.5707154878246445,-1.0882429955725148,-6.533902566744273,-3.782757703337949,-2.218788343293285,-2.1192451352962016,-4.7234277576166415
-11.0,-8.751379772365866,-11.545914219183674,-2.7945344468177336,10.181587635030931,-3.0151066638726935,-7.174661620649185,-2.4698746604999444,-7.182047485031396,-9.312908965603466,-5.789199615320867,-5.645256385025984,-5.706624490940636
-10.0,-0.9097447509854488,6.4484288631949305,7.358173614180475,-2.7425111672336246,-4.171277925929826,6.894579583755096,8.075444687236434,2.934920693655883,6.797515353631944,8.552114084167705,-1.9962486775369013,-4.231502538484331
-9.0,5.912887988598948,6.559883581690851,0.6469955930920097,-6.29177558143148,2.674407711801901,3.5864816858638817,7.978293668493972,2.2921414779956435,9.631835106882017,2.69468794381048,1.3366905261484394,-1.4416501001382178
-8.0,3.0135101451137407,9.47142127471761,6.457911129603878,-6.219968002690759,-1.6790753447737894,8.016426039337892,-4.437452372099406,1.2542907359119229,3.476542375128442,4.259390823973891,3.8849847033450287,3.457271982050753
-7.0,3.1915917305944177,3.441845060896328,0.25025333030176933,-3.293139460988054,1.4386400379132547,1.809423013749238,-5.8292625612100375,-1.8362365804652367,-7.5675180602352405,-5.884141959864401,-2.762053320488407,9.141810488443104
-6.0,-4.539899461698834,-2.631382319313621,1.908517142385047,3.5325313971339307,-3.251333033664652,-0.3270822622119106,-3.491305446459652,2.3262296065587313,-6.739458475455013,-1.8549916876991632,3.1195995011680613,-2.467239156867868
-5.0,2.0838043939108,-3.2923532764854806,-5.376157670396487,0.6320272936420084,3.7864629911792393,-4.305429428668781,-2.98952690774383,-3.3200862057880647,-0.23604533509947956,1.4494606680409872,0.7784745337302588,-2.352798815896515
-4.0,-0.36542830716277497,-0.6664073935574599,-0.3009790863948947,0.5451935362858928,-0.0512467681029547,-0.5373919895318782,6.30450932045423,1.611117563947055,5.086353219982669,3.7406454784334953,1.7240327577791765,-6.385688934384865
-3.0,-2.726370814076937,-9.162787106192797,-6.436416292116048,5.89584014282746,1.8365163094623247,-7.777345779229854,3.8335131304339454,4.153998763333705,1.0822414083438103,-2.2772847011013893,-0.4901791541865238,4.268812524263346
-2.0,-4.3732063090645745,-6.279962196529211,-1.9067558874645893,5.3568351020631635,-1.2540953306848677,-4.152028795693206,-4.038939858556108,-1.238321166798933,0.6181008745820977,-3.2360597227129793,-1.6472531327316653,3.6825417992355054
-1.0,4.335658507624024,6.875800956067669,2.5401424484439468,-5.653795239776864,0.8726018792882403,4.726873311453813,3.7256905720514375,-2.8807746109607995,-3.2914103305972144,-3.614463834956872,-4.355640701088658,-0.02185433173318363
0.0,-0.6464091632996132,4.1845358281082135,4.830944991408296,-1.7369351671916498,-2.689634639419564,4.527335386385776,3.4510328985171785,1.317330359042661,2.481025194411542,3.4197980622616777,-1.6978036717977516,-3.189728107189289
1.0,-1.072868797958571,-0.5936130435729403,0.4792557543860303,0.8683628299088473,-0.7302755945146743,-0.034294672299095996,-1.1777756637891037,1.3073016754683482,0.7720924496178427,8.568847407826281,4.873767912816652,-2.7756017310010623
2.0,3.4778657037184253,1.9244160607737077,-1.553449642944615,-2.740297020102286,2.4814543925678727,0.21420630982233235,-7.924437607042448,-1.825850528435269,-2.612480190710971,-5.622007361597819,1.8974358520400803,3.885104609441641
3.0,5.923686598085151,10.904709902508156,4.981023304422672,-8.36937873618267,0.43750741299844675,7.900245216067437,-4.181722759193185,-5.2361711527042445,1.6134468838237817,-2.746996855405312,0.8590529688260982,0.05743010985807495
4.0,1.1311214709781698,-0.39694267378350423,-1.5280641447622525,-0.3960890253923899,1.375284253572171,-0.9977035537409484,3.0233800291880306,5.461047128498091,3.1099004334873235,2.2489529134888366,-1.5468770465791863,-1.4099971579261439
5.0,-14.165321301971286,-16.47689790257736,-2.311576600606595,15.295908630253413,-5.960233925066343,-9.34473253016765,5.87979236845538,-1.5125783815653358,-6.4762035009301195,-1.7897890740335671,-3.123241979257128,1.4098389429054077
6.0,-2.6808718384669916,1.5968628219885295,4.277734660455285,0.5192674645537831,-3.4363068385144304,2.9116358401381697,0.060083302126978655,2.5786049026323,-0.2722736702736608,2.5027868924168484,-2.4874368578057826,-3.8315272438767227
7.0,3.0399558734344163,2.6755049586481006,-0.36445091478622516,-2.800121617131332,1.6618885916821744,1.1309019060092793,1.5805943735377201,-3.230660007645298,-0.16863142119274027,-1.2112729171168912,2.619952877495919,1.3829206420078612
8.0,7.4841523995806485,3.707667632711688,-3.7764847668685997,-5.615583925982354,5.584320736761477,0.018598804142168746,-2.4225434389636407,0.8538914528750059,3.5728378283021116,0.6322935121970188,2.3481332609922654,3.680671643637968
9.0,5.407343178634273,-1.9199415326748004,-7.327284711308691,-1.7616122806178343,6.3951430147487605,-4.652015990613004,-3.605652129180773,2.8764194325287336,2.907417674204911,0.9152160153702946,1.597081061425765,-2.884723925655046
10.0,-1.567488958692457,-5.6553268858433,-4.087837927150644,3.6739808195411037,1.28576655039425,-4.824891563257722,2.604229160869976,-0.7103676367688478,-2.564874593804368,-2.8372302267188023,-0.792381178425605,0.31238321378293477
11.0,-3.8186528758533367,-4.741432029081014,-0.9227791532276122,4.264484853984868,-1.4209079294861677,-2.8684131535812663,1.0343741422413948,0.05544711998937546,-1.3685977527374873,-5.034252431293137,3.464466843028025,5.478136464113366
12.0,-6.106310691556664,2.3695757553609873,8.475886446917558,1.8509220658128824,-7.259535321815713,5.381974152227853,1.7524309713990294,0.41814399241297073,-0.5000575649234729,2.5673040567878394,-4.446788010975412,-2.123890046822405
13.0,0.0005275351507871839,6.991020418259144,6.990492883108265,-3.5185639021377524,-3.536516657740813,7.0246299527807,0.32717477022045505,1.7025353645380026,4.285766888241228,7.342025097488079,-1.568766662340674,-0.5467761777133434
14.0,3.6232027241458553,0.45050619145952897,-3.172696532686401,-2.068305685226691,3.3607118265803826,-1.3303600491234628,-0.006719673964112632,-1.7450610341561577,2.7781548058293377,10.451570318953449,4.247840333863952,0.808447367303055
15.0,3.2373870525975983,17.637648938649544,14.400261886051911,-10.400815538509567,-5.617590630205996,15.96935719564512,-8.887632490988501,-7.939856372263711,-6.866688672561834,-8.1516817543139,-8.065777302160232,-12.553073220483814
16.0,-1.4363994364529091,-4.470558254079243,-3.034158817626332,2.979831529939052,0.8387807355408944,-3.7229644402217104,3.328629876228085,3.3247434979598176,-3.6735904148458216,-9.148170943876309,0.2708759655177011,0.39727447152158213
17.0,-5.284219772161001,-9.75680673867497,-4.472586966513942,7.538983180934659,-0.37175727520322255,-7.083358147452342,-2.093004496047053,-2.071131219099536,-1.2908264979584796,-5.548120078754115,3.1611240110681225,4.514863541061589
18.0,0.683278355292199,-2.7305138248950556,-3.413792180187256,0.9595202615493204,2.07485908932367,-3.116352255453995,-1.4278883844134758,0.7708829410268454,0.1354259083823518,2.060079706404997,-6.039265425978349,3.468676095436407
19.0,2.94217961419722,-11.428315655533462,-14.370495269730743,4.258614598835284,8.595586104847387,-12.939692272865257,10.300031447027308,9.516581349061543,9.854357580534383,7.530238998030046,8.348241736741759,11.097826891165536
20.0,5.4082384933337595,-2.5400704231313385,-7.948308916465097,-1.4132801316434702,6.6884794056548085,-5.201690037786128,5.095502686483098,1.9646005250683158,4.267811085692934,2.5785869030674453,11.653451914407892,4.3482086417758286
21.0,6.148694704716418,9.023495915647551,2.8748012109311842,-7.556879900009398,1.6408666626623385,5.995196293882898,-0.8946651041162688,-0.21162214619912723,-2.7813695871565773,0.7681847153250141,-2.602017125172389,-6.82809530296913
22.0,-12.573956165665862,2.0215714191789917,14.595527584844953,5.236449451630416,-13.584721425201847,8.278189944004035,-10.424637198796242,-7.885097347083934,-9.300291660852231,-5.247773938305638,-9.251117916661398,-12.367568246324069
23.0,-4.095096927702106,3.3284602880735115,7.423557215775752,0.35286684135166135,-5.760111294897071,5.346064829700941,-5.862281799979274,-4.557259226160239,-5.689341430131302,-4.974273867009126,-7.111413830227732,-6.287224776352343
24.0,3.603253015905353,1.2722670169291463,-2.3309859989760673,-2.3821653446316104,2.9689961592770726,-0.48247248476821714,8.185586994889668,2.820569707983485,9.105864219960228,6.214360500723384,0.3427078750546624,2.653001660710892
25.0,2.308337980656825,9.885872144815465,7.577534164158673,-6.115735905329401,-2.6267118260231612,8.695837289612346,-3.688953097043532,1.8971902888264485,4.600266913008583,4.981559382476752,2.261236825766077,3.6255677008767364
26.0,-3.5786418779407563,-2.0329629400313336,1.54567893790933,2.788951925601823,-2.545560203226227,-0.2845803765334316,2.838795698147687,-0.5497917314798451,-1.5816419987227959,-1.0557869148087045,3.0148639569815616,5.615115181203397
27.0,-1.1558541593258282,-14.530384939286712,-13.374530779961034,7.825997915983168,6.05753703486821,-13.919302251139502,2.094151264705099,-1.5853145896127272,-5.159420424894146,-3.635621284219352,-0.8623714183552815,0.7840561681131648
28.0,9.181524957255634,-2.708979678185978,-11.890504635441673,-3.17591523596156,10.573646745849366,-7.269501112675025,1.773309516887994,5.7572033957836695,3.572005195771426,-0.46019873432769476,5.390864798990946,6.851300197584799
29.0,-5.515635657581606,-6.332754190143797,-0.8171185325621799,5.904562309110335,-2.3806981610080435,-3.5453755010882,1.3083852532782567,-0.2504727094318393,1.5394068911402794,0.10986902329905934,1.062166343014177,-0.3920482195279493
30.0,3.627632518493529,6.378648722652056,2.7510162041585957,-5.0232842290925594,0.4930503693178416,4.516570756695275,-6.864296627981578,-2.5150995723877054,-4.8152613664685715,-0.31854798078896296,-0.11062718107642415,-7.527146765669535
31.0,-0.604112558511789,11.594746074229995,12.198858632741826,-5.515027787150422,-6.421315828431733,11.928404847877996,-3.7163297122714063,0.5720259376760801,1.001548091770756,-2.2289412177632855,-2.5669840881023456,-1.7480987970286117
32.0,-1.41942898034483,4.450282038664246,5.869711019009111,-1.455294508615568,-3.664043725038623,5.112719308796019,3.1599169545067274,0.8997423934634097,1.9427609060113185,-0.9753303629698639,-4.296910005481284,0.697129702561134
33.0,-2.3740706820198634,4.4828919777159415,6.8569626597357995,-1.071976831619869,-4.638349274172609,5.699405739580712,5.830858256134472,-0.6569522394916321,-1.3952504379016593,2.242586580047403,-3.886552892940884,-1.1085692808239114
34.0,-0.1216241214548579,-4.659624676767519,-4.538000555312751,2.373145501008598,2.2579047153831935,-4.651318947972969,1.3327014364272367,-1.844869402924088,-2.7803312884194673,-0.8767310507119919,2.2613056133214857,-0.358960518740135
35.0,2.8072410892986435,-17.497831813405494,-20.305072902704254,7.326119025435653,11.519559101237597,-18.8779850904059,-0.7795601332274786,-1.8014804218019285,8.022668520982613,8.141093781333863,7.9336859753447175,-0.4031536483026603
36.0,1.0921319355743435,-3.637445517749944,-4.729577453324342,1.3283840322562908,2.945782245551057,-4.160308409725253,-4.366782116781305,0.04771266292351389,-4.4215348118541495,-0.49255786585840466,-3.791772914543602,-12.944114754447249
37.0,0.3817753622142096,4.083716470747091,3.7019411085329805,-2.2614283429917794,-1.7093147317751631,3.919741330246715,-0.9407506903932328,2.659364012926833,-3.4597636872779822,-3.6739196452386333,-0.9835046469461213,15.792549673592816
38.0,-6.311044562849306,10.942223880312053,17.25326844316152,-2.350651746095305,-11.755379484202322,14.053731286025775,-2.353285257092427,-1.6267407853338494,0.5409774605070008,-5.5990987822738765,-1.0706091845043055,9.718594407191874
39.0,-3.674864067057877,-0.936481656284859,2.738382410773122,2.3439395403763954,-3.179920355036969,0.9462579306914316,0.4675410948366322,2.08890359473163,5.446411511584798,3.3441963498835627,8.342468402711116,1.115682727563292
40.0,6.269462018369698,-5.70382478729254,-11.973286805662251,-0.3259382886659252,9.149869460077687,-8.861125168267302,4.522243000516332,2.211431304323979,-1.0860946956202153,-1.825841101327944,-5.008798686948875,-5.424735218859171
41.0,2.754181681187884,8.904153698311369,6.149972017123369,-5.792054136930605,-1.7456595549101872,7.512939417920531,2.9781073379393894,1.7694001460404303,-0.31886532076873714,-1.6027029111319946,-6.176541369064071,-8.957296789748403
42.0,2.0249461808710905,5.051684944439368,3.026738763568143,-3.4953632280481988,-0.5463211391047202,4.0289683041752475,0.2138398037983329,1.6628476043044471,4.720974589440807,8.413051381189543,3.575225456287222,1.4209910143268543
43.0,3.8743582013086377,-5.154117520322544,-9.028475721631247,0.6131643975988621,6.486946471701977,-7.103168691915725,-1.8804905644622147,-7.20823373280724,-5.2944707610840265,0.8823412898300136,3.489042819870875,-2.5796185241673006
44.0,-3.2750266616464883,-19.532858805989616,-16.257832144343144,11.387400456556325,6.451125953284738,-17.83517974345611,-10.603062229215382,-8.198006290280013,-10.146801557778156,-10.277645468679271,-5.7593829160761185,-7.537360505007769
45.0,-10.90105038944425,5.345550393375133,16.246600782819293,2.7700322441149643,-13.530579796380295,10.767262527048887,8.683664309057146,3.1825185553347124,1.42943278208545,-0.040458096217316,0.8733787165655282,7.23193044961835
46.0,-3.4918929818934865,6.807724812611311,10.299617794504638,-1.6600510059278029,-6.845526035888305,8.513377152635563,5.360807594953327,3.8993824984967778,6.126237345415931,1.0465166646770756,-1.448013978724175,6.734509966766105
47.0,5.093565701017354,18.29869734719972,13.205131646182268,-11.69675050161745,-4.07605333673351,15.780066578560907,-1.7489586109788227,5.097811464594296,6.358930103895778,7.441505820056433,11.59550983252122,10.772581605179232
48.0,11.379102827946086,-1.797814650335324,-13.1769174782814,-4.793529268384079,12.265104126050781,-7.466308670309228,-9.417223772562648,5.76133991371259,7.119300516016688,7.86306006716686,5.312947476420396,1.2437162492852396
49.0,0.24684887689701007,-18.018239847856883,-18.265088724753735,8.877786724639016,9.247035060957579,-18.123353183018867,0.8538886011395843,-3.115948489287802,-4.82497698734044,-6.451829279129303,-12.587712060396766,-11.89113066951127
50.0,-2.0375736114460334,-2.9262730259030736,-0.8886994144568146,2.5462121965241695,-0.5844892579147096,-1.9663275503845297,1.9838655959178668,-7.902440757128734,-10.690943703634222,-6.927395292406408,-6.921288453207399,-15.531254517240573
51.0,-2.0779111657505487,-5.416237858346067,-3.3383266925953494,3.7255514912485475,0.6139358808785194,-4.352491666705133,8.461233972174643,1.0643454414001043,-3.3935814620255345,-9.033727888507899,-4.021796685865933,-0.29392793737219325
52.0,-5.143506127812493,3.016657977973417,8.16016410578589,1.0350461966744156,-6.677579367594941,5.619611087466178,-3.6320581640457332,-3.441154772861033,1.274581425325544,6.416133924291461,5.730804840160121,10.204180627847022
53.0,-5.0763091491463745,13.56614937228094,18.642458521427166,-4.279355604658367,-11.816033147650018,16.06272842010366,-3.6190477698741326,0.044857022521773704,2.1249183820611384,4.856275622428152,1.3874968929091644,5.112775126874539
54.0,2.535271013760309,10.377224632278322,7.841953618517814,-6.41654948093366,-2.616720515414883,9.15066970164343,0.04680752613251338,3.174293680883809,5.963651539165724,0.6331402387718268,4.981181251863786,7.919161336291406
55.0,2.6271647417973614,-5.864792493416998,-8.491957235214528,1.6559981963496075,5.515562920985977,-7.215026939169841,1.5567668549189992,2.7727694677183723,3.6159081507963413,2.6243820066800225,12.603705765223127,-1.738824887742867
56.0,9.936330476536725,-6.1157290066355845,-16.05205948317248,-1.9518277648557871,13.031978206261176,-11.122159298404016,0.012226485652350128,4.815198306589256,1.153356105234495,3.574845576566564,-1.5493664032319145,-9.023219641160273
57.0,-1.7177108885374581,-15.985651038267731,-14.2679401497304,8.812748020268037,6.240228290340441,-15.089345483174988,3.751643068809035,1.0935177977772412,-4.178119428669826,-3.343749783313873,-14.90414366585631,0.9925982128466755
58.0,-3.877214726426323,2.976141282537628,6.853356008963885,0.49491335513872237,-5.3153585974065525,4.9493526289642436,-0.7405816694060756,-5.0088702751697,-4.13510966234756,-7.243577534267762,-5.481690398210604,-2.906216852642105
59.0,-1.2512380741347946,6.747556101874803,7.998794176009638,-2.6984635206832053,-4.650979568017843,7.327643580387979,-4.310875363808309,-4.953621954728306,-5.789485486386012,-3.4860568857695133,-2.4953455034384096,-1.5153017014833026
60.0,0.7126107263784673,6.08735259710603,5.374741870727663,-3.424581611694206,-2.3594990244935428,5.764709047811025,-3.394917083852854,-4.269165169322894,1.2817961227324561,2.1135645498765054,6.33010787785459,6.162952184569648
61.0,-10.527128720757203,1.5037903354565372,12.030919056213882,4.489149446080342,-11.31547242030226,6.802645558403966,0.6420247861321982,-3.0009560751578546,-2.6660091801244903,1.2418626753170519,5.615848231209792,-2.8267441545497216
62.0,1.925678064532177,-1.4921938383926063,-3.417871902924629,-0.24022728480428768,2.7023541835628286,-2.496929556277963,4.281944042107225,6.503906295032857,11.474296905371197,4.351340572808173,-1.6425178856274538,-6.554216093407022
63.0,9.765412365293805,6.238900016985815,-3.5265123483079144,-8.028995717225376,6.66431268715012,1.314655874626561,3.4608245921221528,14.305274125311119,14.061096606103764,12.814718343615446,5.058138445616437,11.082443786817677
64.0,2.757470431552258,0.8817507469927492,-1.8757196845595168,-1.7716191677678435,2.325539694064682,-0.46097425197202613,-4.993390981848182,-2.6189953301055278,-7.572088342480105,-4.530856934478907,3.4823298086838044,4.180079344163837
65.0,-6.540729338326734,-15.960996360378394,-9.420267022051702,11.217756584944174,1.4443764286699032,-12.73550088143292,0.4836474130665467,-6.56149374938876,-13.033278183374327,-9.9298172956617,-4.459245395252192,-2.7173913006178236
66.0,5.219683253793556,0.30929202609431794,-4.9103912276992725,-2.7183303959911553,5.07084928765932,-2.268498879513831,5.048035052135227,-3.2239614868861994,-4.492096225306229,-7.159126246305552,-6.1770285365950475,-4.74966041341183
67.0,6.154931963920582,-0.10984507655754938,-6.264777040478179,-2.9734127714394996,6.221155378976474,-3.155749218213278,-4.736332112627441,0.40038173897934337,1.287986625837637,-2.2606447912259875,-6.817423985421562,-3.3116692942920234
68.0,-7.292084676028721,2.867094669842775,10.1591793458714,2.186201277024491,-8.785643957357193,6.5457157893222515,-4.155119603232416,-2.0466457799136193,5.926302721292885,7.817496630421905,3.6397167589303696,0.9081666017301124
69.0,-12.915353030228806,1.8299263578596396,14.745279388088347,5.51722441082318,-13.804685546464157,8.24306777647605,5.60547897171419,-0.4552901000930155,-0.6413981988903648,1.6539342567132915,5.151106083631638,1.8813050949810797
70.0,4.211950258705111,6.909948190701019,2.6979979319958094,-5.590297125059259,0.7871254421033997,4.760202737846005,2.0691939909284796,1.788777751841419,3.064547509130601,9.324477323530914,3.8321529195991713,-1.5516750422126127
71.0,0.8833624791693445,-4.146031088139903,-5.029393567309297,1.593325187438544,2.90924060286593,-4.554166235713679,-4.156639297202273,4.22831737574945,2.1273713487102057,-0.08713430209726791,-0.6849417853630819,-2.029405933958291
72.0,7.267214436710772,-1.1457644522642099,-8.41297888897498,-3.0312356770988087,7.870675901350957,-4.749984014299828,0.41968712694411536,1.6571745407251224,3.0942874840909984,-6.225139060214193,-2.6301811359959477,1.8213212694172018
73.0,0.9683884349436083,-2.6751731712424847,-3.6435616061859983,0.8728078153743191,2.255794170943453,-3.21509278686879,2.296887494911906,-0.5020920688407553,-5.043941268026583,-5.869048792930487,-2.4234826106579144,6.324612419676902
74.0,-1.3651381957485036,-1.9419139771450404,-0.5767757813963934,1.6678341385933715,-0.3667208333851266,-1.2434663440884721,2.288893424838279,-0.8192857386699323,-5.354302152577376,-4.450049622410113,-0.03317440472180766,5.030651103251328
75.0,1.531809525994791,1.5924570478464233,0.06064752185173106,-1.5456801193848977,0.7642893744171092,0.8363908071052102,-4.928245583798184,-6.816286251597877,-0.056001546027327986,3.0561846569951614,1.7727998963881826,-5.7374244781213575
76.0,0.007279702021581347,10.325682992935858,10.318403290914333,-5.140671232851533,-5.12286755174074,10.328710120029289,-6.897831403064946,-0.4065151902765938,2.1706239147708053,4.8003237746634175,6.4741900680139,-6.732639903066548
77.0,-1.3093502309907534,4.435543501365218,5.744893732355999,-1.6016592092211153,-3.5673273056125163,5.097652598359482,2.2721890413703414,2.72312036912637,2.0839784730150264,4.504083052840302,-1.4668989789766722,-0.012137076786494116
78.0,-3.642900787099746,-4.4253009826618825,-0.7824001955621966,4.011586249366976,-1.464456087574096,-2.591663025095547,5.209054158537048,1.2164815814512977,-1.2251038557985694,0.391646417192121,-6.403750434127197,-1.4126497042182444
79.0,-2.1323003319305203,-7.547594051833862,-5.415293719903426,4.831912138051986,1.690406669521908,-6.540238964850737,2.985166957952359,1.771298277333655,4.056987137496098,3.1543119775002877,-0.45751344564562757,3.6994704502433398
80.0,-0.15419505994847738,-12.84431260994756,-12.690117549999192,6.501949818453205,6.2397305524544535,-12.738214785072701,4.927213230341392,1.8651943863971707,-3.4375927990486517,-5.943648327656822,-5.221443071949156,-0.6500006466886985
81.0,-1.8966853120234715,0.7735716930795693,2.670257005102953,0.5704061906443252,-2.3129398630578484,1.7591118092729259,0.3171609681058869,0.13095709322665494,-2.999564067538089,-8.832154688847872,-0.5131521709087511,2.4126000942611423
82.0,2.3592554882321437,4.564225070006511,2.204969581774332,-3.4510988194455776,0.12319942155417457,3.348305114380931,-4.049830842849557,1.4820122818679513,3.7518256796654494,1.8511072101254022,6.891486367021816,3.880346430333626
83.0,5.416016340640406,0.04495412993721626,-5.371062210703218,-2.7217254181060575,5.356992070112197,-2.619806823690679,-5.581359195615505,-5.089788989471167,3.773377791180761,5.203435624850822,10.091129361796636,1.741921859120208
84.0,6.290045928547791,14.540844088682189,8.250798160134401,-10.411556650184801,-0.941413482238209,11.356232198499805,-6.220777433432829,-7.1200198706897995,-5.609443203427077,-1.3877742006076175,-2.0443733334750824,-5.876697377378477
85.0,2.3482907984381,11.815197631779476,9.466906833341442,-7.08519362189848,-3.5223178457797917,10.593641502374911,-2.561736451507966,4.672457145457676,1.1715019568036742,2.794772207836309,-3.58790078413847,-5.761183906674393
86.0,-2.8940892677554277,-12.693459636884,-9.79937036912849,7.781042613575885,3.4101550081239957,-11.224016613478602,6.943151948346857,6.955697656555219,1.3065497103289978,1.4660902098407647,-0.647914683097814,2.499937859997913
87.0,-9.616040298086128,-9.805090662875099,-0.18905036478886483,9.687414834640853,-4.755842147281186,-4.981371657244236,7.021698096835254,1.2171793138804983,1.4752800447373131,-1.2901655675383683,-7.923921660185366,2.650451408839915
88.0,-13.268019865993091,-7.831488541179449,5.436531324813701,10.595071373224757,-9.315170194764127,-1.183349675951951,1.4443261711480204,-7.735316102881065,-11.119292795613406,-5.641220850116385,-4.527805122592246,0.8109127093461745
89.0,4.7665073504503805,14.396556325496377,9.63004897504603,-9.623455336381515,-2.4721559641422957,12.032231860077976,0.011126428570893854,-0.8180782928236989,4.598848262596817,3.0523516173736582,6.245041769817774,0.3686648409408071
90.0,12.991951104333495,8.251182515236462,-4.740768589097008,-10.58974445038726,8.906642891594164,1.784341712769218,-0.40787878122463317,2.8108149794387014,9.75531834328741,7.16811756719155,7.22143943645202,2.539274400395631
91.0,3.6838326182875383,-7.03601198138445,-10.719844599671939,1.6288824277621945,7.244513344080017,-8.914748249588513,-4.568588840164997,-0.7936970738363851,-4.200602219114981,-6.129085844848698,0.5613580612999325,-5.803240410835834
92.0,-5.892700472940099,-10.29349049764119,-4.4007900247010445,8.12935289224485,-0.7798865906969796,-7.3721295572357555,-3.677531967456518,2.5117658495036888,-2.8464639562046106,-3.10103964892762,-2.008378375829115,-0.8032796921116934
93.0,1.3732172918761427,-1.446478542790008,-2.8196958346661534,0.08155840291988437,2.0633103166991447,-2.1501728587317652,-0.08191554023222825,-2.8690684825481902,-2.3905832370593183,0.8535882637922736,-3.678957263118941,1.1773185209166885
94.0,-3.6544726392330737,-0.9615060132174019,2.6929666260156164,2.284505236234379,-3.1297033641738934,0.8511724499860439,3.0708686486177976,5.082212631886531,4.357891076125108,2.6536406610656913,-0.03264357748753377,5.261487658406193
95.0,2.8934390352062094,3.560408819124132,0.6669697839178585,-3.241344358244986,1.0741668272984093,2.1752582285067805,3.0928227962725594,-0.7657954492425284,3.614457970468039,2.4023287538256874,-2.3254457731679707,-1.6693973293648006
96.0,2.7118039564629175,8.731338769799843,6.019534813336886,-5.730807591022501,-1.620678403063068,7.351888206726388,-3.725189768327742,-1.312545126324791,-2.295511245297159,0.3865785415227512,4.2570058382212155,0.5205020179199578
97.0,-0.4215270604739309,7.042619155166985,7.4641462156409,-3.319778263923126,-3.995549309261658,7.300351917867028,2.543072279369741,-4.785631507847892,-6.1700132875338545,-6.544527463880245,-0.3705558167425087,-4.989473439093095
98.0,-2.676427585172745,-7.1486149955469225,-4.472187410374199,4.89858971485096,0.9181342797040446,-5.850441523142014,-1.3647112746952326,5.243077371950212,5.767027268392805,-0.5626156079472886,2.9771660610896378,-0.5746236944387011
99.0,-6.782374442970713,-9.52583768339848,-2.743463240427787,8.132751825964268,-2.0017589092254995,-6.181392014352881,-0.006648059964980302,-1.1892956505028465,-0.05535098324370402,4.047058733979471,0.3321463147174787,1.776509046135354
100.0,6.41449750002494,4.331869524763107,-2.0826279752618353,-5.3233853971275895,4.267915307507868,1.1527317730505344,3.774852784176366,3.4538604835613307,-3.8632480989324023,2.1048227613828914,-2.4338633114019026,6.63413968797247
101.0,-2.857968176631193,0.03840918872227306,2.896377365353511,1.4537414925409078,-2.8522308944691206,1.4951302047236017,-0.698870014177184,-6.1545747980665215,-0.2794777791981473,-3.4635872853083187,-5.662237480842313,-0.2826428841987778
102.0,-3.4717603754696675,-1.5767317370925822,1.8950286383771613,2.4858698755270865,-2.7290783842883277,0.1899680162519568,-9.67027505076945,-5.53788288925434,-4.078864087704069,-0.08126619543016655,-2.775545479190172,-6.2156039695790914
103.0,11.151793541058115,13.007176154451141,1.8553826133931188,-12.041464983131847,4.611289762745616,7.3889424389187015,3.9259012138476024,3.0892766832933702,4.322511163886978,4.102151283461941,5.849958865925894,0.9940812086574145
104.0,2.266967208753202,-3.8119861044368326,-6.078953313189953,0.728900196527563,4.2225548304554295,-4.981287958191475,9.366223977956585,6.6973787985078435,10.987188871303768,4.854064206601307,9.34607568496896,-5.7803768664854305
105.0,-6.371405987622728,-1.882190148000068,4.489215839622641,4.078399169776102,-5.453685899536543,1.352121833692327,0.8097836043009363,3.9069433992616402,-1.0869915394534733,-4.954126948957187,-0.01594883589202656,8.62171759445574
106.0,-5.176037249010652,-11.766005903647097,-6.589968654636536,8.494516872467551,0.6870986514211752,-9.204808182143166,-11.078172918794554,-3.8301927810574123,-9.429099375009919,-11.125134902779312,-10.767011326284795,-7.605285306629295
107.0,5.1435513209433,-0.7374600992412121,-5.881011420184629,-2.1872526041969267,5.572472913628095,-3.2573137760639757,-7.519654838430165,-1.8741376695877985,-1.9118199999853687,3.3434934297862164,-1.7908831908503133,4.903059128258246
108.0,1.2188913015505172,4.379899342938663,3.1610080413880906,-2.79013044967208,-0.9904343546913619,3.74008832976199,7.245740215215824,-1.699695257129296,0.6957267913413554,-1.4937348030150897,1.8149851881826446,5.6355322616912735
109.0,-10.818744525197424,-1.2524359226791377,9.566308602518344,6.041415094341076,-10.214951041698036,4.120260654247241,8.772474180632067,-0.2937161905840322,-1.1937803452059335,6.588938651375568,-1.3546099891920447,-0.3593829117401177
110.0,8.725302998215657,12.23613886001006,3.510835861794523,-10.474192550232482,2.6581162982812474,7.908239953369518,-5.113957674157299,-0.037460882490591096,-0.5197381042182596,6.227097778569881,6.784240957480124,-8.469948182175607
111.0,2.321812770463983,-4.009976151430294,-6.331788921894126,0.8553601831325972,4.291219932735544,-5.220755699005581,4.932011938563176,5.717597182444543,9.712909333999793,1.0600434023102174,-0.2750260063562675,2.398706494796413
112.0,7.950426192503162,2.2164767039224267,-5.733949488580606,-5.143193959105679,6.797387531368062,-1.731868022577815,1.0639617948571674,2.1672480117485495,4.392784695361982,-1.8371350965583297,0.9435781071148196,-1.2733579507566013
113.0,-9.098582358770159,-8.197119183876158,0.9014631748940625,8.675984982455168,-4.975288796963484,-3.617669930649183,3.599450155681149,-6.244765268534729,-3.26146930628689,-6.744148739365043,-3.187391657778936,1.75669077588899
114.0,-5.740359293598091,0.20612323591700132,5.946482529515071,2.8041648075975694,-5.825956362512473,3.1147421128944908,-10.702529801836814,-4.447845890374433,-5.973035414670885,-4.170094542195734,1.4359116938480883,2.964148104060777
115.0,-4.666185367044511,2.8703604777936698,7.536545844838094,0.8636327538890161,-6.087483146370694,5.174277332306458,-6.714191176087878,-4.579815035917263,-8.694548284364728,3.654668505848959,0.5701440471923623,2.3777761206852803
116.0,5.026554349270708,-2.497523372373346,-7.524077721644132,-1.2935616676875776,6.290211203936979,-5.029228743508711,0.5976175239501731,1.104101429452866,-3.1868426928117404,-2.387776211452869,-4.292466886475565,-2.0548151933389716
117.0,-0.9497584100718486,1.5832097489636956,2.532968159035539,-0.2640068274157849,-1.7998441302799177,2.046940101152807,7.750890330049754,5.473535041133245,-1.701809092775119,-4.093337077040138,-3.8723476141580075,-6.654164167528245
118.0,13.862699805619899,3.7285923230468323,-10.134107482572974,-8.820315724006395,12.027139496594005,-3.211814542996721,-0.45341387548958245,9.884205386947478,18.150924680275264,11.7880206531464,7.2432194606847276,1.999485748169517
119.0,8.194144011800773,0.29239062962913154,-7.9017533821715045,-4.2673200667715365,8.086335658782282,-3.8166108794097715,-0.8432813746919923,9.42774941799041,10.552936054515516,2.780256405538074,-0.6636174416747775,0.9092853292554532
120.0,-8.252580577587622,-3.729678292611247,4.522902284976528,6.0466170768724,-6.419289545771773,0.3787296256319166,3.4118373247645803,-9.092250953303518,-4.768497502374411,-2.000306131744522,-0.5816491022704887,-4.880280944293389
121.0,-4.196316772424829,1.210363970296275,5.406680742721209,1.4712952482681803,-4.826661421752394,3.3629194076941538,-2.4276931701513673,-0.23458240906123073,0.17487004557057118,0.8975067687760816,0.24071253680065924,2.0778110028337964
122.0,-15.837549595249287,2.767742116496671,18.605291711745966,6.5157133400426845,-17.24340192535528,10.735972448860212,2.6873162382388394,-10.066834167519119,-12.237492036040276,-4.836673967554444,-0.5536088136982824,3.9974307324043306
123.0,-10.754797770360437,-4.654131857009501,6.100665913350819,7.688236820666478,-8.370883895078556,0.6912920106325156,9.227710150706955,-14.437675089952943,-13.674381069640404,-2.21710487232852,1.6072997677794216,8.01636250058894
124.0,7.607638773256152,-3.474803843677163,-11.082442616933466,-2.001398630130402,9.320794385992892,-7.311628571127644,-12.458850708288896,0.15330158274538608,4.624544360710507,-0.8904904296725789,4.567696703614535,3.0251254049701446
125.0,3.8869365142698946,-2.619336623422939,-6.5062731376929515,-0.6467573225784702,5.247171892079994,-4.596516846444681,-4.302469717700369,5.005412136862962,3.142031724767267,-3.1881500763426542,-5.503300109456971,-5.50992277753915
126.0,24.520069150124502,2.447383670141476,-22.07268547998302,-13.498850128604243,23.263409316440704,-9.769241262658927,1.5858623317443463,12.77968183232965,7.432867776463521,0.3435093402730068,-2.495454282131015,-14.13661431150811
127.0,12.099911165249438,9.122155430524518,-2.9777557347248287,-10.631930179242303,7.500946462944011,3.112439997777222,4.282049031984762,18.16122121917085,10.287976614157156,5.497223365042987,-1.2231232925252302,1.7268991357961028
128.0,-4.588993113935904,2.0384620399284614,6.627455153864495,1.2452959073183925,-5.571544549486552,4.289950870098981,-3.8305547704537015,0.22342413961094554,-2.2136818102658173,1.9764317662367779,0.7102906172692989,2.8924393385057816
129.0,-17.77956016158557,-5.50721617998361,12.272343981602084,11.681120047890182,-15.070419249107825,3.3347388994549654,-1.52825234464402,-13.00128796042114,-4.729071641593219,4.0166534220806716,1.5816049902926212,-1.2170936958516791
130.0,-17.79316132263598,-0.20420296277830507,17.588958359857788,9.025320506702199,-17.656428445116507,8.719702521415343,3.1574113900784093,-13.097904199739416,-8.18767879625817,-2.009610184008352,1.4101499794198036,3.559551063277575
131.0,-1.6658260345216043,1.1938580741717828,2.859684108693486,0.25340576147905836,-2.2246210064239413,2.053221050267655,2.09878176920042,-6.768745448365568,-3.382114818204257,-2.876535492729722,2.6301305263309267,7.328925387028931
132.0,3.4769332506077126,-0.33261552376990844,-3.80954877437758,-1.6393894190114806,3.6087844208177104,-2.0420102765521877,-3.0665960414236793,2.071575442501258,5.17812951861758,-2.5754118988022574,3.584546312398978,3.3585083795671182
133.0,11.95748723515723,4.2371889314059095,-7.720298303751364,-8.087654967737475,9.811831950211143,-1.7855755411927206,8.126746564483403,12.273184603171652,9.123540945312328,2.478431994954314,-2.8487851409526472,-2.011643620781874
134.0,4.067866556384821,-3.155017830037258,-7.222884386422203,-0.44450188086861786,5.703711776224138,-5.147189716433543,6.584794169304782,11.184722126764658,8.091904018844568,2.988281228486131,-2.5303861663200733,-6.221278517252975
135.0,3.4235867681655163,-15.171107689200078,-18.59469445736565,5.89120727637005,10.992671410905885,-16.91376289086977,-4.11712768500698,2.0853587872572854,-10.032374326655468,-7.086081891331242,-8.470437737596626,-10.585133382037741
136.0,-4.7714998695239705,-12.319029496827724,-7.547529627303719,8.569931032971398,1.3715190982901762,-9.96096554975178,-8.21417966483842,-14.735448183960948,-20.495039720961067,-12.316016460531632,-6.497927237277583,-3.939772344579956
137.0,-3.69533398056965,18.705492271575896,22.400826252145556,-7.552384751644826,-13.068639014161327,20.60340508275995,-8.162265651927589,-9.130705645263141,1.3609642000479738,7.622582857733314,7.561880519539827,8.472283525596769
138.0,-0.3365581738953982,16.010128666668706,16.34668684056419,-7.801116447199474,-8.36900425589188,16.14544474316976,-1.5355879100569214,0.05293736352455092,10.1950021411727,13.091674685853539,9.655531637659507,10.126842903401217
139.0,6.004222455474568,8.155088799327729,2.1508663438532825,-7.122435103457253,1.9706718642251948,5.113553601843286,1.8979683819656779,0.296492185724466,10.7124933639071,5.676356073084825,8.216977477415728,5.096770492830923
140.0,-0.7805251944998829,4.907773469249798,5.688298663749806,-2.0313421701701353,-3.1960618841754806,5.331224734738203,-1.1670581936363158,4.62555755564729,2.107403435626872,-0.9925699954793576,3.5194455524609145,-3.144043946093462
141.0,-0.5725920223073973,-11.46429620356879,-10.891704181261352,5.965663020336394,5.116700793515869,-11.148521388499566,4.7377518609667195,12.492979652130416,6.205899710440425,1.0689408879681812,-5.874382386236795,-2.7383968758068127
142.0,-8.102535926485789,-12.00645692383553,-3.9039209973499176,10.07391596376697,-2.062535469568848,-7.925970349959926,17.516317045575697,9.718929956232994,0.34265818773261614,-8.44504449607985,-9.639455746201817,0.6165364544525747
143.0,-3.8979273886735424,-15.898554425511843,-12.000627036838633,9.913414564886557,4.012532319861539,-13.996370639365892,8.659044098279715,-4.623933128955198,-16.727894484296577,-12.365844644430545,-10.4588610230024,-7.416574714956639
144.0,7.2562043830564225,-15.43845723750972,-22.694661620566425,4.106020948155354,15.019176338924499,-19.030399896546662,-12.77958637962059,-10.18647083601385,-18.41818728757617,-8.288875638259999,-8.708593832908644,-14.107422758580665
145.0,8.800698222049554,15.315590268524147,6.514892046474546,-12.039509721926807,1.1109447543926958,10.876422202512558,-16.66395595038506,-9.882430357013366,3.7427097613449654,5.288965273616503,11.670681559750534,6.639000493620786
146.0,6.7588559986989,20.120371299747656,13.361515301048959,-13.414822646223726,-3.3315366476185373,16.704260184187213,-8.778931059339156,1.2635879458254733,15.66266375161012,13.802947291103491,12.667621622825344,9.728090763024781
147.0,-0.4271697510460628,17.242701000171962,17.66987075121842,-8.455664497347644,-9.077726706781576,17.498785635314736,-1.3677844423080812,3.964820070437892,17.022959124140215,13.64408279787534,3.836020380210398,4.72381226175704
148.0,-10.756275325216258,9.258455453884944,20.014730779101413,0.7047678032116389,-15.334497836353364,14.600021394562996,13.502514935325188,-5.119558856768136,-2.9759372608122625,1.1645604404986862,4.016386442647563,2.021010085779988
149.0,-21.188208756703546,-24.260707885820484,-3.072499129116827,22.759689848134045,-9.003910818405753,-13.624202413394537,14.443882220136162,1.5748199277934072,-10.05675109275419,-7.313823784095481,-9.743748939831816,3.4928771047593523
150.0,-16.018815501788623,-17.35317437320077,-1.3343588714120553,16.640869057781483,-7.362594761662888,-9.299741179878488,9.18329381252833,-0.25256474511073534,-14.683681971961802,-12.22692592529653,-7.00738388195135,-4.68509605184316
151.0,9.601343827351055,-7.853638743878321,-17.45498257122926,-0.8419806593512522,13.512565814667004,-12.686047310365035,-3.407034679583978,6.784314169049575,-1.845975001920463,-12.137185082968163,-1.9090173349049682,-9.538129484638363
152.0,26.548199061740917,3.4075541620446614,-23.14064489969637,-14.94577876846788,24.832080072629136,-9.894745567571462,-10.749482085795199,-3.0509603944438,-2.5839307077287543,-1.5043304190778333,-2.813884956783736,-1.9704594609389332
153.0,27.374400329277854,7.307788796193811,-20.06661153308435,-17.305771001507818,23.708293350375346,-6.404579729763585,-14.685885398166048,2.035415276478021,2.524234034892782,1.4642841316912734,-0.3976638046201686,2.853737402035913
154.0,0.307586630073029,14.415633038703566,14.108046408630107,-7.399429137444667,-6.916063605649865,14.317214274176504,-4.143602814828074,15.820754769944713,31.523300390696704,22.81661864317352,19.44405883879429,0.543291754198745
155.0,-10.603294991267587,10.266551453197453,20.869846444464798,0.13659431259964916,-15.68039309570407,15.545219475880229,4.8276877417401325,6.983196220181211,17.280608034025352,14.756611017039575,-0.7462439304868811,0.5323157618567997
156.0,-12.002619137023062,8.986586616951556,20.98920575397466,1.5591395185629935,-16.52669990991477,14.964257717312769,-8.054100272436362,-18.773068613646096,-10.963637303324571,4.739381515115515,1.9240189731868047,7.795080766442766
157.0,-12.097057696674682,-8.63630919811912,3.46074849855575,10.339711321951066,-7.817319383273453,-2.533797235643588,9.330396452659837,-18.749141998369986,-23.57799723665275,-13.177324691041681,-4.758293352081399,0.9670681396427545
158.0,-1.9900193267749913,-11.626844466593173,-9.63682513981803,6.778517242496257,3.8584685912946757,-10.657643775764484,16.83793107134011,3.330771009851743,-4.010744514426436,-8.893480302710543,-4.322799993856469,-0.6111005011823154
159.0,-2.9274837083833476,-18.909874292422685,-15.982390584039253,10.883778822874934,6.560466795843634,-17.472558794246684,-1.7751026373196037,10.113280396367529,-0.7681696374424423,-14.215094377446174,-12.488574167771443,-8.993705282847436
160.0,-5.342450482588651,-21.21075945743528,-15.868308974846697,13.316030751969201,5.2967435376965275,-18.48734593033986,11.118823347337695,7.547993173376182,-16.156771402701,-15.395053455293798,-9.49588107528882,-10.256151801691395
161.0,1.0758445341511997,2.435516541319055,1.3596720071677897,-1.71763967537531,-0.1845006610658615,1.87119978796078,-5.802704938809026,-9.884254997984216,-24.67160890694016,-7.271085120426814,4.280520112016829,6.794913746163212
162.0,-0.26908766575686904,18.60911256992215,18.87820023567883,-9.129163215655444,-9.613782113367334,18.717430687237464,-17.41349258314493,-14.906406833569289,-3.6381359944449936,-2.252980690326758,9.815467273060825,15.642808168812838
163.0,25.06185949991558,34.82053282701219,9.758673327096078,-29.97281250856927,7.61327772248043,22.342020186278535,-11.233573664174624,13.441689825245366,44.58678987220676,30.71686800128071,13.28700200119365,-2.967638818153776
164.0,7.365656475319128,5.302288721800471,-2.063367753519237,-6.357996170294937,4.756470697444283,1.592619991477827,8.58440314276431,25.849584802211595,51.82965141987944,34.96781188379822,0.8183666791675988,-14.736614176877836
165.0,-3.7538021777320347,2.8691204634493963,6.622922641180891,0.4247117480393876,-5.144242373371521,4.718377155777303,12.803064235849165,-3.0665729510995217,22.13818042850865,17.29553746137082,10.897764088643644,3.2749147126797915
166.0,-12.843017216435904,-8.835798195126987,4.007219021308912,10.825256794288709,-8.45629277318153,-2.3639583232268793,4.036150295752285,-17.755969168181498,-21.199247982944037,-8.885165326405858,-4.881903716073933,15.679640619505452
167.0,5.364029985990896,-9.450448378311098,-14.814478364301065,2.0292284604795885,10.141251808538728,-12.161190921495287,-8.225584133741137,-12.976692710392085,-45.208231023768526,-24.93709876393291,-0.6649879360937234,7.782236393542105
168.0,-11.252871708286584,-25.83310173980798,-14.580230031520028,18.60531551023965,1.6409523203373,-20.234900391123773,-9.034153206303177,-0.19997885460318088,-47.576078970724495,-35.57044716228893,-18.121090182097475,-7.245023930922683
169.0,-3.058361792588679,-5.145854096495194,-2.0874923039053117,4.081698835396248,-0.5063098218569023,-3.5648816593388926,2.404715366796168,13.124187337335009,-0.2887281405825277,-7.024374130726329,-16.6740625834231,-23.011536881150143
170.0,3.0748413493069613,-5.184536535199338,-8.259377884506016,1.1084109012833636,5.644652912517742,-6.747430904547109,3.5316149959314345,18.949309717861343,27.400188307150863,6.224338848970262,1.72391389352702,-9.144024869356603
171.0,17.26487739658125,12.473299464309722,-4.791577932272064,-14.899574515406774,11.00071188399609,3.8947079779233684,-10.684302440233626,-4.691173430756853,19.61397401260259,8.792413700774425,10.791976539331076,5.6031406733608975
172.0,-4.44269341576997,15.74770930327694,20.190402719046308,-5.6886839314034905,-12.27261204902676,17.942485160784166,1.7071815417289282,-12.43926646112658,6.094524901171475,12.814305335405546,13.771070710863643,17.426718946233066
173.0,-10.931885475971303,13.159530724765315,24.091416200736305,-1.1555594798323163,-17.475306961576557,18.594103173514583,8.73295833529213,-16.19134692835582,-5.428350374299949,2.9453556707048136,2.50573758393363,13.66880276977214
174.0,-11.9278864712735,-5.483774682044528,6.4441117892288915,8.73850033542076,-9.234487847556805,0.4410189138699465,19.93451517403787,-8.707086253690587,-9.558576019949724,-2.7717805018615636,-6.6941770180868705,-6.2670196640043265
175.0,2.6132876011339032,-4.467766524228509,-7.081054125362386,0.958025278356158,4.873865636095662,-5.744210775278573,3.0199306634768037,7.715882268717128,2.708326963683419,5.752684725736514,2.6237936432341993,-1.6571874497030392
176.0,9.787122611984854,1.6575999570885438,-8.129522654896636,-5.690372785662959,8.983978105731907,-3.2147087068220452,-5.979719628627856,17.14828886338348,8.802079964436873,3.8391214817575783,2.906732139055503,-3.0782200452930053
177.0,5.606666502002651,-13.90418062364946,-19.510847125652607,4.105728339477503,12.506412139704747,-16.69287677366636,-7.370993154049113,21.33051427294036,8.336790947696665,0.5680296644061926,-2.7002977709786227,-12.847264705116347
178.0,1.7962308509334477,-10.685575950254902,-12.481806801188323,4.484967259190407,7.166974479084427,-11.572469200996602,-11.078554880639004,2.9368471013657462,2.003801570723085,-7.055376175907917,-12.934955916782217,-5.0476118785441875
179.0,0.017818901290278966,8.18229770393488,8.164478802645045,-4.135249642804859,-4.122533842523829,8.184007915980175,-10.319458413060586,-15.798483738755532,-13.412588005976513,-9.077962946453798,0.5941220504657645,4.934300371563502
180.0,5.2340650039285235,14.262394871814639,9.028329867887072,-9.78314370699849,-1.8662700517308366,11.578197398822027,-7.853892632947231,-19.815008731854334,-12.629905065664419,-0.15192569912151654,11.780324836353286,16.480696518904182
181.0,1.3383280370272188,6.723142468425921,5.384814431399399,-3.990086649844264,-1.991322677068462,6.066749373840282,4.241983252762956,-5.287038400942235,-1.1487556163547445,5.8487596701310185,-0.4111464033447225,-2.9862397636401434
182.0,-7.588416245170112,-1.2072608506860958,6.3811553944840735,4.353982926321386,-7.030769800867846,2.600329352330669,9.30716270960728,7.88334840712855,13.590153703488529,8.339927718209944,0.3684651893839027,3.0744229263054117
183.0,-13.278317748981202,-10.929022624305196,2.3492951246752702,12.132098479000412,-7.7805681853652535,-4.276421547353388,14.40127257775897,6.111597710466516,0.18935612828592863,-3.939961624931715,-1.2094042753569236,-5.854782632081715
184.0,-5.407184578787168,-5.003038356970977,0.4041462218153238,5.228381293089733,-2.8726882292605618,-2.285759100068538,2.2700205895608665,-4.627969520670216,-4.7576317471023915,-5.434738353428096,0.3147732891740005,-6.228988329555443
185.0,13.51761658419192,15.226795394035515,1.7091788098430603,-14.351376125367157,5.857152981801545,8.404495079152976,-0.3477631387576774,5.391558323605529,6.502573928754261,-0.03231529295848157,-2.143926371091696,2.674541428670329
186.0,1.1101525069738045,-7.430654464539944,-8.540806971513815,3.103002230154357,4.776201004385431,-7.9664221843398675,6.655083345650412,4.844681447353066,-1.269261363612121,-0.3264037022571253,-4.092472888699155,-1.2490109532127243
187.0,1.3907846707036366,-15.523293913269855,-16.91407858397293,7.090988742444319,9.179441698285444,-16.192139962067955,-6.502026359983627,-0.44807347407227605,-8.936479290834843,-5.6175763865560295,-3.394756031047656,-3.3655320705127685
188.0,-1.1389562327884377,7.570668332693546,8.709624565482768,-3.186396790715002,-4.899027350490691,8.176964391465479,-11.15517241070621,-2.811658461183692,-0.7610056304887287,0.7011180378619956,9.91615563712417,7.617527971199501
189.0,1.676155590839186,4.894834507609062,3.218678916770441,-3.3296372303009503,-0.7463502203684311,4.026983645729886,-1.5307552529947461,1.0510600189652215,7.412478862746119,5.916942352841539,-0.8633549715862694,2.5200662701132748
190.0,0.39218484496219413,0.8183037773299304,0.42611893236773746,-0.6444952218496258,0.00893321512470191,0.6046664886181601,2.988548118722595,3.2258082626793976,5.653187068231334,9.381053159418475,-2.618790743876575,2.167528106768795
191.0,0.4291015390533448,-5.020477112890527,-5.449578651944219,2.3396220271975317,2.8880658292213837,-5.242112015627163,-2.3721914397510835,-3.3993703158760504,2.466919338107386,0.8475083294051107,-2.2500150616939925,-8.446509675927162
192.0,3.0133548476906733,-3.9215355359379167,-6.934890383629036,0.5020655958232264,4.924063045783376,-5.427832960489396,-8.262252522907817,-1.7664018242426738,-6.652997306927925,-6.649153752306348,-1.7997452169030232,-1.647619439214401
193.0,-3.5475076920344586,20.32519577811515,23.872703470149233,-8.415982693097376,-13.681141584152627,22.103461422682425,1.1828989626174042,-5.477894396394094,-5.035120481545578,-4.992057932247403,8.82845636408376,6.395938994482952
194.0,-1.0605760333541543,-5.22173408461671,-4.161158051262766,3.117006258079245,1.5785700422281623,-4.685699230405311,9.458400048855676,-1.1765485958189825,-1.0886696778075304,-5.549323693228336,-2.1942055636685325,-4.881106372743995
195.0,-7.376552618616763,-4.705960113524606,2.6705925050920842,6.01908506717237,-4.9966144387827045,-1.0127669062901625,4.809199175100195,2.872429928196962,2.5391824605723903,6.536063717102356,7.060027271722597,6.517528476323699
196.0,1.4960850538750827,-1.6423675228285157,-3.1384525767034215,0.1303931272464749,2.2638409291017516,-2.3875578271150046,-1.884339666630245,0.3080107494585249,-0.8014972134431945,2.8085019414438177,-5.0091427072563075,-5.281416853467675
197.0,0.2540983193770585,0.5269349260674696,0.272836606690694,-0.4127572965019082,0.014166141428939572,0.4000212022638161,11.172661311297443,2.387208208982848,0.17473503057111572,0.15351856966087896,-2.091412324089102,-1.607086746932302
198.0,3.8153715967562,0.5866217760558032,-3.2287498207000365,-2.225325018183917,3.543750442337688,-1.3239999312264845,3.9435379448323036,8.207250894603884,5.394004042002435,0.4285551579468123,-11.24102326632481,-2.6523949994639135
199.0,7.458165076423085,3.5486649838169146,-3.9095000926058985,-5.452189830793665,5.625063671308471,-0.18665329259926766,-12.773585720855223,-3.519065223210605,0.46117136870524167,-2.628209251173173,4.422697053449578,5.804703500189221
