Time(ms),I,II,III,aVR,aVL,aVF,V1,V2,V3,V4,V5,V6
-200.0,11.087413466232277,7.710787367303843,-3.376626098928163,-9.420578659473824,7.2586913056804505,2.1161230538512723,4.5886797575645915,8.620389254156066,14.485736891473492,15.389184118423707,13.520846740937808,6.878164812055882
-199.0,-5.131618549947036,-3.9106136992691862,1.221004850678146,4.495355194619073,-3.230599631300654,-1.3213875939132598,5.684183619545162,0.20493378013520935,3.4334798599866136,10.874759668239271,7.145962231932657,-2.069366807423732
-198.0,-5.455582138536514,-3.988415103389862,1.4671670351467945,4.766404636000686,-3.436556805450447,-1.2413469286192513,1.4432871302678998,-1.633771032652392,-8.435595493475837,-4.329608896665578,-5.950544120249106,-7.325062013662768
-197.0,2.4748847984491307,-10.03004446914977,-12.504929267599024,3.811181606333811,7.516704207321512,-11.251153763857907,5.946725243934563,1.5705565449685983,-4.555282033921662,-6.624085068255295,-8.368640556209442,-5.149235790316942
-196.0,9.543789366294709,11.629586454882109,2.0857970885870363,-10.642269732333174,3.6794954071100765,6.872605772302588,-4.121168586950515,0.4380413421504981,11.126529550308266,17.59127127069175,11.827762175714607,11.026357843431846
-195.0,4.303839074507253,10.801821486991544,6.49798241248388,-7.537436036393641,-1.0658397546575205,8.664354015605323,-3.193920842234366,3.9278433172747467,9.756037651088947,13.350302061926405,14.490642821736275,9.397365655707587
-194.0,-12.900393479283904,-9.035509611748864,3.864883867534708,10.979637223024348,-8.429089719788395,-2.650271293728487,-3.901439046546831,-7.111026415618343,-5.602430271754286,-12.044580024958433,-3.8621892958918953,-2.0164780822511617
-193.0,0.09088321307958935,-1.2701311970416596,-1.3610144101213906,0.6019160755541675,0.7584909321975264,-1.3037082665230884,-2.9798843883615893,0.7850410289577368,-10.336963045330773,-16.38866325375043,-14.029208622244461,-5.616478160780515
-192.0,-2.2075908172001335,5.448924792027216,7.656515609227426,-1.6042911307159349,-4.8996633328252415,6.561030353957721,-5.232055633619425,-2.772116449480234,-2.904817370683091,-5.904965094255088,-2.949788044977206,-2.0549815922990433
-191.0,5.485737666611188,2.046518725908884,-3.4392189407020526,-3.822459738344778,4.4160388668037625,-0.6926414193625478,1.3462117300707834,2.183192131779472,1.1672368270317275,-2.1213810758251403,-2.0945548893273127,-2.3803947572860045
-190.0,1.7576309445404268,-11.935006331349385,-13.692637275889464,5.1175031141535445,7.757733449517629,-12.814442828509343,2.9222449424062495,1.314713710054562,-6.54652108314635,-4.543300020964528,-5.563406232777808,-6.698099372644345
-189.0,-2.8015486271859857,3.1885516050843448,5.990100232270663,-0.23787183725941774,-4.441259002095638,4.586226783010691,8.561712148429647,-1.1050104197132073,5.941560326692236,7.042771079328368,4.6474004011903896,10.074690392440722
-188.0,-2.094246562825177,2.2378427820455085,4.332089344870869,-0.03327151155762165,-3.17885282039431,3.282524552144198,5.628904929947168,-1.478471923136892,3.6088163587886823,13.00027477059902,7.359364004813642,2.6498495061199896
-187.0,3.2621005753374126,-6.373946922087596,-9.636047497425029,1.5970681493673293,6.484400708595666,-8.003148219359938,-0.6280442942769029,2.5448094840398685,0.06394482229925291,-0.00990231504791872,-1.0752250966023844,-7.702493871597849
-186.0,-8.021096342040034,-7.13699139471432,0.8841049473253906,7.542659585802484,-4.495270652985656,-3.1172678358827173,-1.193677772493537,-1.1119146545897796,-0.8110396048433337,-2.9600213124835326,-4.899742148129617,-4.517390341044992
-185.0,3.809034470902434,13.54125441757516,9.732219946672307,-8.711459595581227,-3.003858263546497,11.654587301837426,-4.844205991793276,2.5316849630106577,10.646975680185708,10.050754162371222,10.823732005451788,9.79720298627743
-184.0,-4.040700073991385,2.3456426261618084,6.3863427001529445,0.8892233429663028,-5.176787468015966,4.391503013271493,-6.504941356457627,-1.0950284486944006,-0.5450198520309906,-1.4259785058723864,1.1217970678101565,1.6263475686920192
-183.0,7.395529048889629,-0.008941656818226562,-7.404470705707754,-3.7315168658291697,7.437206299725872,-3.7555434249846034,-0.0845535879867958,-1.3303048926295733,-9.101397501447062,-8.833621176781406,-2.627018337118961,0.49427485083174005
-182.0,14.675815368271389,14.138236948109128,-0.5375784201619225,-14.367836452680828,7.566155025419944,6.751415488866382,-2.0665641307084317,2.4462472901638144,-2.4080210784845866,-2.463819968907349,0.7286732526691666,2.7821566872502532
-181.0,-14.704155342647265,-14.35197973601405,0.35217560663359526,14.565739459258255,-7.488392211766785,-6.974266021608366,4.024558067358791,-6.409091207031214,-6.229522663346373,-11.032358324259883,-11.926045980160454,-8.524213269293549
-180.0,3.8454357800300114,-7.305762035035821,-11.151197815065666,1.6871689732578696,7.461230499626154,-9.209384182297418,-1.4738618925725202,1.6900171003464242,0.6348121127472908,-0.22817567667361027,-2.209419786756677,-5.131801077160521
-179.0,0.9386530671597506,-0.5836558479899603,-1.5223089151497198,-0.22292214153056555,1.1952333456418944,-1.0403532930563077,3.867775949177019,11.227851964324,12.905469013292604,13.597780070347362,7.296939706471923,5.210254105834953
-178.0,-12.428423980566963,-4.346798231242246,8.0816257493246,8.41832303751421,-10.210155414898948,1.8756975887496314,5.499717788311163,-4.837400888721587,1.1651878419371746,5.281245636031338,-1.083756069743008,1.3765626345855138
-177.0,-5.3416005091048095,0.8214436088219957,6.163044117926622,2.2888389410719165,-5.707025443644383,3.4993164700467667,-0.24012646350702327,-5.168993159111284,-6.433115437820781,-4.920617808296723,1.0379623490858658,1.2153863320315912
-176.0,2.094243070465375,8.515554520039982,6.421311449574393,-5.355095048168557,-2.1979949353304917,7.477335693336468,-2.3073756153641014,-3.6330044341684964,-2.884880113781814,-5.191108223916418,2.156330031890253,-2.0447705609735043
-175.0,9.495555111156364,7.894027162212338,-1.6015279489441898,-8.66387387376175,5.511323179113991,3.080515924044081,2.446815043199419,-2.6693108061638258,-2.2298110064943057,0.9405224310448141,-2.070195765219043,-0.6561455873952293
-174.0,6.037143929642475,3.2796342502217306,-2.757509679420716,-4.622403945308816,4.434556905962275,0.2796522978435212,-1.7105446793357328,5.839004175189022,7.684327194217124,8.027374408127876,9.899561298147452,8.281498937331895
-173.0,6.69308912752172,-9.01030745472675,-15.703396582248308,1.122876973489317,11.151810912465468,-12.331749814398794,-9.506582379254235,8.607780778944713,5.209656282382039,7.7961638287660655,5.971055010711385,4.973120722298647
-172.0,-7.175762303885252,-6.7449932757899465,0.43076902809554696,6.932178797058897,-3.7749640876889687,-3.2035818609748006,0.8496317651014786,0.7630594423031138,-4.707931122204155,-7.055719150626875,-10.083735023584769,-10.978325492571537
-171.0,0.6504363392385804,7.841587270872444,7.19115093163397,-4.189207303365041,-3.2436042485550276,7.5561080852310365,-1.9141980233484985,-5.806615067193356,-2.667245393712048,-8.263831025495813,-11.259391439391177,-8.372345406149213
-170.0,-6.314798238924669,-6.122484092322563,0.19231414660202928,6.2000767246481585,-3.3036344965480295,-2.9184646136037826,2.7338458160073404,-2.4677673312920634,-2.817819216585313,-8.791892436846759,-5.243712736858609,-3.7966975591348637
-169.0,-1.4575015175664188,-5.096789806586237,-3.6392882890199543,3.2581365754845524,1.1248810959881346,-4.395231016156317,2.849310062183427,-0.6373612926319718,-1.988420191918375,0.1908832418199471,-0.6299213554687186,11.113572069530285
-168.0,0.25679189807909686,9.307516211464478,9.050724313385311,-4.8054578290592875,-4.3555416796826405,9.153480692133689,6.898687050565496,1.3218401050299453,4.622296985388589,7.6156776156895445,9.373115928527469,2.534004833681574
-167.0,-5.149269187113018,3.348546590099385,8.497815777212512,0.9485826670443327,-6.853466244778736,5.894917107610859,4.794372012229243,-3.2305229004551728,2.9203792139816067,5.616462198890324,7.8762804013095415,0.32459108844112095
-166.0,3.8216471977991255,0.04112709345851373,-3.78052010434043,-1.970511646832596,3.776235376650196,-1.8255596741163473,-2.9699625447166476,2.573054923824808,-3.195163884438384,1.2008801143131178,3.9051341270970683,0.005719277119373922
-165.0,-3.116084758918879,-6.4604600338159965,-3.344375274897032,4.819616973027168,0.09051343987589178,-4.945313445013244,-7.000946057205111,-2.127309505941991,-7.417509169224682,-5.537137083159363,-4.274731415869152,1.7575172076303522
-164.0,1.2123024435466094,-5.428229276091353,-6.6405317196379965,2.132660323352047,3.97875264917477,-6.006086661626695,-7.12411590713754,4.544441301184285,8.746095673852295,8.816008141379708,1.0882399631533992,1.7056964890648783
-163.0,6.407952473056107,2.610192564757235,-3.797759908299003,-4.567474073759741,5.070987121625817,-0.5696413987663842,0.3078587147623262,-0.7016285457252991,4.5111610332143925,0.49360787041944443,-0.6199342754869686,-5.022006769465583
-162.0,3.175766379984612,1.2994902587138555,-1.87627612127091,-2.2193398849017187,2.4883040110004853,-0.3419051455565497,5.0001060038165335,-0.44880420227074586,-3.5297028906410857,-5.125881307206515,-6.715915389859407,-6.088808692525937
-161.0,17.246775546630747,11.66919575070204,-5.577579795928781,-14.44000137718486,11.449279935985906,3.0777304340166043,-4.661843450571298,2.434914309455333,0.5180009923538387,-5.78870205544218,-5.339721459934221,1.9372764931378437
-160.0,-4.87263043417691,5.240799957962702,10.113430392139614,-0.16546954484377752,-7.456600126736845,7.719928253586291,6.482401992417933,2.0134990573181684,1.2722278745104458,0.15951281210480373,4.130820325120739,3.088359676662562
-159.0,-27.31307921853209,-17.033737010494196,10.279342208037964,22.114001694475625,-18.75747618770965,-3.4008452685031396,11.910684749800616,-6.349632452734054,-8.692304423810908,-1.7901667753091757,0.3805814083669863,-1.3891252857206595
-158.0,-0.3117884776649422,2.002855674367943,2.314644152032958,-0.825949801947889,-1.349749126082532,2.1453903494810915,-7.894192118333587,-0.34094213668599194,0.9030270833711511,3.6818843654902444,2.201150569642857,1.5917226456450158
-157.0,-1.100755869337243,-6.337541776396899,-5.236785907059632,3.738325029900315,2.0337621233329215,-5.7950742067769445,-8.407747131119253,0.41802395535076964,2.480602972316702,1.5589042621504796,1.9266860135957953,-0.5680640722609545
-156.0,0.1295094027962166,2.885221752556787,2.75571234976056,-1.4889650623263009,-1.34794367852678,2.8119339284833793,0.3235575430283264,-3.8693613866702288,4.726812185407171,3.421250602984773,2.992399553529877,4.873147852801285
-155.0,10.543311101939947,1.8394715559327393,-8.703839546007186,-6.2522774684344435,9.66400334220634,-3.446552324123481,3.3052758774555904,2.979156204808204,-2.8259858005003053,-2.718372365772952,-0.6951514175979194,-0.0012560131255809903
-154.0,13.494928115227651,6.927187555549248,-6.56774055967837,-10.19274049126734,9.988309590727171,0.15694692351784068,1.1896247680406806,7.335834957971758,-3.4893154238580495,-4.72038138497725,-5.276769232867873,-4.549448318727255
-153.0,2.91849208915864,4.444258497757686,1.5257664085991287,-3.6609744941284585,0.7286724029486269,3.033394071296655,0.8886189632392946,0.4746436130213465,-1.9045796725585054,0.3235334173635933,0.4083386659334187,-1.8043383325441074
-152.0,-13.005746377855498,-5.672587701316857,7.333158676538685,9.363514377846489,-10.137199650441248,0.8746854626085896,0.33743086570796,-4.438699047625006,7.200255652851577,4.755355696574056,0.8480384538762595,-1.0122357422226538
-151.0,-2.357953166119204,-4.5366195769507165,-2.1786664108315588,3.398321747926482,-0.05352278341139094,-3.3912486781497106,0.19510333375386246,-0.6306119085574133,5.57753419618907,5.926803364165703,-1.550933579992697,3.1026049161839615
-150.0,-8.338935194178703,-2.9274792736676014,5.41145592051099,5.668979460462264,-6.911298863157294,1.2129352371079896,-3.6699770975030876,-3.522954596368474,-0.611695470905455,-0.8165126832592084,1.233659245326689,-1.501673855852282
-149.0,4.4630466635142065,7.276056239438244,2.8130095759239144,-5.907251739089155,0.7955582400264816,5.10010030046356,-2.5257809171974204,-2.6260637690299453,-9.309360186957514,-7.944358508714909,0.43761111483049464,3.3388608544829346
-148.0,3.921821538704778,-0.6121963076246268,-4.534017846329439,-1.6104113413004932,4.2024918129471835,-2.592143018491792,4.382350320218121,4.271679093316082,-5.182998884526521,-3.3835841502465094,0.5708013934080991,0.6203612817435055
-147.0,5.826127567617458,0.04326553346962869,-5.782862034147771,-2.9684393562069724,5.8573601185405675,-2.8888090908972957,-1.7948067434392283,3.7744284757196,3.847926152483738,-0.07780639696465652,3.694103366172609,1.3845516396244728
-146.0,-4.3177408670330015,-2.122837531317681,2.19490333571546,3.263042139470731,-3.2876221015155807,0.012142723228049768,-3.942095640852,-1.4048042471768127,6.673761657094632,9.012480651139878,1.6425412134499455,1.2208340009544612
-145.0,-2.8573407491304437,-7.21444263625119,-4.357101887120642,4.995580885557756,0.7879283885887166,-5.81825387568734,3.4139428838646393,4.520380436850343,-5.228265808990312,-4.203329412620682,-6.483470878334095,-8.693436919772125
-144.0,-6.497477295120436,-0.8843134573991187,5.613163837721324,3.6459165499922577,-6.107329728785052,2.401072071949846,5.449664393486623,-4.19080561040899,1.4837056423007489,0.17688478990354495,-3.2549004474172074,-3.008815220062589
-143.0,7.324609613120277,12.707823572840503,5.383213959720114,-9.985241851568297,0.9868796726166598,9.074495762132567,8.116248132397782,-1.2742898969375178,3.817160964559823,1.9620146986900941,1.888003545183064,8.094301603226691
-142.0,6.809296774184846,2.0098065458157937,-4.799490228369118,-4.377521274425398,5.813317666897439,-1.3696337448835223,-5.672456559741139,-2.0099414282397294,-0.08304342762587447,-2.445490365270869,3.425133459574697,-2.864555223787902
-141.0,0.8849067918967548,-0.25559883909584036,-1.1405056309925568,-0.2768380535303905,1.0194335044667622,-0.6725635589985378,-8.184629125159846,1.4816188404766393,0.13378507020314265,3.1014186311756204,1.1582280361449282,1.8999762468123966
-140.0,-1.6968338050784846,-7.206778030399063,-5.509944225320466,4.420694869047017,1.9165954984606648,-6.408741221832929,-0.5434030287069245,0.7544314056593575,-3.1286224118755093,-0.787580116902499,-0.9698073622317893,3.5503106148280397
-139.0,-8.298073246799088,-2.901789476912606,5.396283769886596,5.580645906559797,-6.829298095447088,1.2003111842271674,-3.1585584492371597,-0.6563331413769633,-2.734413233120913,-4.487481984142041,-4.4347880666453445,-3.7112031106971317
-138.0,-2.731073787576409,2.8106786589511485,5.541752446527662,-0.047846265221990425,-4.186975000836441,4.210583234962712,2.6401208900467714,-2.7908493817587585,-3.1175765125421147,-1.2445733869642464,-0.8326984327014616,-0.733133049870452
-137.0,0.42996330200295274,-1.8635939984520362,-2.293557300454925,0.7171949250144752,1.4002832936324519,-2.1215109221254704,1.0959984512677763,1.7406707564924713,-2.2904090517043536,-3.225056355246657,-0.5584114879418947,-2.503870600868915
-136.0,-2.0846381889592305,-0.5974463312480158,1.4871918577111494,1.3457436913250738,-1.8178573000745237,0.4818812075022926,5.562074361074229,-1.7430333841287282,4.615214646341218,4.27415570624954,3.69844297312431,1.051016147277081
-135.0,2.201107320127321,2.4895509134560427,0.2884435933285635,-2.3405983333732916,0.9294021144377972,1.428089520895964,-3.0553378330576626,1.1552061616039644,8.068717579406961,9.075207418724997,5.449110564771463,2.2103854982537556
-134.0,7.495333286589424,7.368581585561104,-0.12675170102840672,-7.430809087697889,3.8643127476690626,3.5847937048394023,-1.7233754238614987,6.217280730594626,6.799198479704002,5.724711975639484,5.143848196411203,4.752272191079038
-133.0,12.559369652026717,8.0839066913938,-4.475462960632837,-10.326523302866294,8.490172371937508,1.8513592070564393,3.382913043547306,4.786207460703521,-1.63084689316752,-0.6393223290620773,-1.0542020882031535,2.429467847921753
-132.0,3.7963241523444506,-14.61774525864365,-18.41406941098796,5.398587311689247,11.152284864097787,-16.54339555721792,0.4630183744351654,-1.4124994340245958,-11.910550714730519,-18.58412056514404,-15.337365086374746,-10.197862602477489
-131.0,-12.210305438020777,-7.178390931454686,5.031914506566208,9.753584331195132,-8.659342721589853,-1.098558230546975,4.2685029190460275,-3.2488382471285333,-1.144046433366686,-1.209514337101444,1.4261824664927962,2.402869553114045
-130.0,-11.408339901743659,4.5425862317867205,15.950926133530436,3.4065911992595046,-13.647362844161144,10.220622627651082,-10.406331375717452,-9.001516140352289,-2.681193423468566,2.112358595018786,0.9069952326546693,-2.839183062923143
-129.0,-13.179756091089647,-5.9184112408168215,7.261344850272803,9.517243275310854,-10.27624088268356,0.7202577127129137,1.1870769295858041,-4.536375202818048,3.3589422852711106,7.2167615256126,1.8423410974987968,-1.4204435178326504
-128.0,7.090497737621006,7.614333617730205,0.5238358801091234,-7.388020623826419,3.2974027173829774,4.033187905395874,-3.6518074826646334,-0.6626598160749393,-0.8468273125271706,2.0799304218260017,1.8403126067219189,0.8181905439945332
-127.0,4.160863315817485,7.569696090176601,3.408832774359036,-5.823617717479289,0.3829522685959357,5.525440014383596,3.8673219026372716,6.4811223470152015,2.64735898176957,2.206536436899893,4.547359543823189,7.177296022806983
-126.0,-1.6610117200865258,-7.21579890002987,-5.554787179943368,4.480929906244075,1.9502496039347599,-6.355215482761761,8.38761474395102,2.7023392213225312,0.7750199752110807,-4.1909342518845545,-2.7784092073395774,-2.250549456509405
-125.0,20.195226872074674,5.965480058731837,-14.22974681334279,-13.114119373334201,17.217063608285542,-4.185360038021426,-2.364351129608418,7.576083118546468,2.7122661211101873,-1.785308859299001,0.05141148812323232,1.7165093009911034
-124.0,1.2775326664033129,-4.88176230229326,-6.159294968696376,1.849569719300172,3.7292832420198474,-5.497407457224645,2.8059370634530794,1.9942105669773182,-2.06016473489748,-4.717829947483025,-2.714108595833333,-0.49391870601173626
-123.0,-3.084935752974484,-5.993013608115193,-2.9080778551404034,4.508273631436117,-0.06699665718447223,-4.506040061036542,-4.437711457551714,-3.5337595007505285,-0.9881556503526321,0.5280834939830403,-0.527158961183424,0.8340866469768271
-122.0,-10.904837619587045,-0.20731216829989751,10.6975254512874,5.522792501127197,-10.845341626075605,5.271200220048382,-6.863615913053948,-8.211484118750539,2.079677263378029,6.545646246316575,3.041482204612937,-3.0218407497606927
-121.0,0.5620282949519435,7.394696773185984,6.832668478234092,-4.0173548541512085,-3.165793951144618,7.1450457049225555,-3.745633404722809,4.910503128878485,4.691787592816315,5.579644396752432,2.5099864320888963,-3.7792052662441593
-120.0,2.060671653036877,8.131035864092548,6.070364211055546,-5.063414464508043,-1.944334816556986,7.138798942453642,6.134438088013499,-4.732346610366698,-5.475321986834201,0.7370490588789766,-0.9054795085851506,-1.2397903880992893
-119.0,-1.436939614922507,-5.567582095186324,-4.1306424802638935,3.5281128561733426,1.3378041122892181,-4.883168221894636,5.093478114726975,0.7994103937388166,-2.644807588036198,-5.193846567417644,-6.40627236135562,-1.6909560500316203
-118.0,-2.0515110518138435,3.4287567855107675,5.480267837324515,-0.6665611775249682,-3.7698489050402637,4.425175833187771,-6.559225710176643,0.5510733753175979,-1.1683996610556746,-3.343109688962428,7.6281345386557025,15.122210988692261
-117.0,-6.863339009961507,-7.428179224650496,-0.5648402146890938,7.167724148515025,-3.152627513944392,-4.024126135120248,7.007971522908798,-1.428214312310744,-2.3529226483185606,-5.913998398030576,-5.245333476863863,0.18591309243353482
-116.0,1.1448014008260006,-6.784651902244018,-7.929453303070094,2.766261268372924,4.530197999907486,-7.307209521878928,0.9003005214070783,-0.34377920570153675,0.767867984876383,-2.275779662159221,-1.9968576437869774,-6.318578103488283
-115.0,1.614344263523861,-2.4674417116392604,-4.081785975163154,0.4566496158982134,2.83459994067747,-3.3067639657169363,0.19041625501095977,2.8286506270001253,8.1482796478714,8.681694772886908,2.7262631997349955,-4.692389337172581
-114.0,9.905135970025267,3.1416391022091186,-6.763496867816137,-6.566442080808358,8.312989187445483,-1.7679220657178112,-1.255897520413631,3.1857530670035485,-1.81183679542219,3.206695453831892,-1.625950780691817,-3.316805232012565
-113.0,4.095494915309163,-1.268787772649235,-5.364282687958449,-1.450890574853842,4.779773200007314,-3.3547661043449573,-7.523801519442101,-0.04119473291770581,-2.035447994153297,-2.21830758827432,-2.1521137403662327,-4.300488466838433
-112.0,1.6726063358098588,6.097790999066529,4.425184663256673,-3.8384683324992674,-1.332534657448171,5.301380152820238,0.7984365121327488,0.9183791805347428,-0.7945657028849334,-1.1556818437006084,2.669142158399622,4.265480739864206
-111.0,-3.022619005023584,10.574203670178125,13.596822675201768,-3.7232057210448244,-8.349176847793768,12.04770392626,1.060951080313311,-1.6009617102337907,3.039706877580022,4.624090653861549,10.731267601974356,13.737768089677528
-110.0,-2.1898952687656883,6.204694217658972,8.394589486424703,-2.027384129735713,-5.334825356806754,7.342285651411387,7.332133912709839,1.7951611769447475,2.769800089056014,3.8210809311798553,-0.07928692690657568,2.1117387430298216
-109.0,-5.910425226927753,-4.719441515016652,1.1909837119111204,5.300799093422172,-3.516722602644041,-1.799427188003596,-0.6607066735805689,-4.114199102251748,-1.0177165213069623,-4.651272981706025,-6.047392548194333,-4.767128200377078
-108.0,-14.05955148179224,-9.760896892064927,4.298654589727279,11.900573503752074,-9.225124376904388,-2.6887383826144178,-3.0673052642372687,-10.037330975383501,-8.795236625148162,-7.465930536247554,-5.55057854007763,-5.194413556975075
-107.0,-0.7712502824791407,-10.60728790565605,-9.836037623176917,5.681853452713366,4.565198663183568,-10.261775301141942,-3.409563325222511,2.7109523961084325,0.38981068846691214,-1.8677875130219381,-3.029803661650847,-5.748597921381279
-106.0,23.13984007898907,7.345863349985342,-15.793976729003806,-15.25056371432228,19.501561220030972,-4.269822028472972,-3.4230873275192795,7.867010555961887,1.9934746699270707,1.5597339698257564,1.3987243044622366,2.418416088181262
-105.0,8.822033471658601,3.0277517878855886,-5.794281683773085,-5.935036538307386,7.267702487539333,-1.3560976026959222,-0.32456150962379304,5.459350391240234,5.245685493529372,5.07722552287586,3.862275482547462,1.6303819755125437
-104.0,-8.964957906509506,-14.064985111335496,-5.100027204826001,11.579815636187357,-1.8893742614327085,-9.559161542231472,5.148044565328525,0.4587048635489781,-9.105374583223268,-4.67121731887846,-4.1250328857804455,-1.666859358858137
-103.0,-12.448637120166246,-0.1894991476929829,12.259137972473383,6.30090201377553,-12.384778734139411,6.057942480478891,4.318089217401078,-2.854298239274696,9.578598288715485,7.438958797917574,6.387252153564028,6.0509674420028245
-102.0,-6.339120755902466,8.453800490554636,14.792921246457212,-1.0796350441784313,-10.593500404194383,11.650154336641616,8.86170741569406,-4.327581335315451,-0.5816273977743496,-2.521408845063168,0.8357731491442486,-2.88679754949885
-101.0,-1.8941453095809377,5.148477743682481,7.042623053263441,-1.6530203037413176,-4.416076901401942,6.050009147197954,-1.5037173348366064,-7.675032376863808,-2.080636704184254,-0.037967348856607575,-2.050278901917119,-3.6898443848333176
-100.0,9.034015849983895,6.3743843099293525,-2.6596315400545762,-7.6539413225511375,5.818641128291696,1.818963503806295,-8.283542044195444,2.2907263980335335,-2.4427654443333267,-0.6918755151747924,-2.3073401086286283,1.20234209630877
-99.0,22.170906808395582,13.04424918989325,-9.126657618502492,-17.637525254661004,15.616377797150918,2.0049168248723657,-7.809920272847816,10.22407277113524,2.903629802042461,0.6743519178292585,3.688135680534691,5.517257204366652
-98.0,6.5428684854004295,0.9854672424704611,-5.557401242930213,-3.794390854187105,6.090627922642443,-2.3155322848381323,-5.100119683452466,4.728643930849213,5.452776532047519,6.088553462834815,4.50408911807213,3.4378627561621644
-97.0,-5.612088063811492,-5.508818530660515,0.10326953315064902,5.6093958154565895,-2.8235332709987926,-2.653609041553283,-0.1120895384315661,-1.1237754279937207,-0.39654348609686596,2.3171898871000383,1.3405859993558251,2.6857267617677896
-96.0,-16.150000140428215,-18.752828326352148,-2.602828185924068,17.50039088643967,-6.823875656061957,-10.709865131051881,3.470721579627667,-6.814436908810293,-7.015217578068517,-10.599437502973764,-6.120928765761283,-6.371010231461302
-95.0,-22.473606983803286,-15.81758966419661,6.656017319606922,19.114071399240114,-14.540332033600228,-4.616268304443288,13.490467224071782,-7.787821671856266,-7.051114488137487,-6.3030657248934,-9.007955400952778,-8.794391608088342
-94.0,-1.8193880800195146,-0.5921614979465586,1.2272265820734796,1.169624195041969,-1.5789749969036038,0.3581703077824676,1.8675477297113439,-1.439888543061775,-1.089057428212905,-3.8223836633386234,-2.784044719706655,-3.5584473485701116
-93.0,8.407272170080443,7.596734798501984,-0.8105373715778654,-8.045625818326497,4.633750856622655,3.3547189270866538,-1.220312203396777,6.106734950734666,7.253581366244804,7.1019999270296275,3.403098183734906,4.389337497973389
-92.0,13.963693474704554,7.675353045547583,-6.2883404291566265,-10.793223427648709,10.155775119573692,0.736553800194085,-7.061287314673792,3.1421377188830193,2.2102729268595906,3.2804800892508617,6.438816390111814,4.432539289815384
-91.0,6.754917451181797,3.8341584587647226,-2.920758992417148,-5.275875355889051,4.874766367965942,0.5045228313382459,1.1268936803124125,3.310412815642779,2.145418242455465,3.213297019805597,3.642307585348333,1.7016693177127662
-90.0,5.542411497663905,6.5940842361575625,1.0516727384932238,-6.0534824105347385,2.211242971324865,3.796676592961434,1.635046334344695,1.471719661727017,3.7132349159581315,4.347166637019068,1.7107025684538093,2.257538823635894
-89.0,0.1725374347062094,7.327935542785109,7.155398108078249,-3.7341990891544765,-3.5194101485209726,7.217517065098314,-2.8267452817203442,-1.4797449310518775,0.6994816197829256,3.0898735010247127,1.9137086675240138,1.8596946228290405
-88.0,-11.738360674837082,3.605247290851384,15.343607965687912,4.0887401343736025,-13.566036200855795,9.44778230246406,0.8363321787902909,-6.1163613662248055,-6.555676321975144,-4.591531233641812,-1.5621532641799643,1.373625050062748
-87.0,-4.922796172397053,-4.326109774938581,0.596686397458229,4.577066762932935,-2.7070343506266212,-1.8985469768985148,-3.743243036721169,-2.3914852412335574,-3.5114739304228646,-5.51240936270565,-5.451432958362232,-7.2734701126789645
-86.0,2.211907645717372,-7.974694066587605,-10.186601712304853,2.843622927404436,6.168677545207371,-9.045858875951424,-5.392548799030706,-0.8989157748586194,-1.505201999674897,-3.8357937583597432,-4.81897972702332,-3.3994229387424815
-85.0,5.347312362733902,-10.592042217827842,-15.939354580561258,2.670969336675234,10.684591865067231,-13.241043021485634,1.3431217756780645,5.714562464351252,-0.44199094177594245,-4.06942280347155,-6.064901082323409,-2.5907328059539174
-84.0,-10.995281499308495,-14.933728160861937,-3.9384466615528675,12.938390143084247,-3.5736884808880847,-9.418710665878038,7.860329550827298,0.31678742619192857,5.3842487904088365,4.1671773965612955,9.512296394268677,6.8491977080059865
-83.0,-5.329188122860066,1.894286836490517,7.22347495935106,1.7699933093700047,-6.2499964191283945,4.57355282139465,10.859934314953374,2.8135299607924282,4.527047029174409,8.887293872232384,5.595864510206793,3.3922187221319455
-82.0,16.799971476009354,20.61071675964804,3.8107452836388767,-18.73523791196509,6.515692168830663,12.148638515710958,-6.763444192506707,2.601100251190208,-1.936676476077634,0.26655348253247535,2.337150016650945,1.3518855454928507
-81.0,12.646248340918442,11.91560201116474,-0.7306463297537729,-12.316629162736348,6.628289440967157,5.6145330239741345,-1.4349897637140339,-1.7713695318703868,-1.8589548011101265,-6.560809977091329,-6.472125963927615,-5.714587363296382
-80.0,-7.35042218527194,-0.8252480124252362,6.5251741728464445,4.125122535870453,-6.918482464344727,2.878753771007035,-3.866756600573152,-6.016943716582055,-3.018670343855605,0.015595366349111073,-3.5177221902948466,-3.43751468971028
-79.0,-10.15885891767877,-9.851879891028538,0.3069790266499499,9.960619227048971,-5.209734382979503,-4.8165229484418,-4.162780627502917,-3.0586099593898224,-0.4676223194676816,0.29649258361672814,1.5043491225197236,1.4771390025369193
-78.0,-6.115119581579369,-9.227274322916852,-3.1121547413377844,7.706346172227425,-1.4718936874580568,-6.131701359028114,-1.7312323161400522,2.4245078430538327,2.228483454513801,3.724781125450779,5.159755356894412,5.967236896880806
-77.0,0.6291013337261226,4.01948912808883,3.390387794362449,-2.282778235123903,-1.4219160231032009,3.6641936495168856,5.306108370440684,0.2382274810986822,3.038500535084882,3.049032256674469,0.06306966162442151,3.3480100319495243
-76.0,-3.322007161316394,1.842321131081808,5.164328292398114,0.7133595213369641,-4.276264113865938,3.5382731524212896,4.1213327669711886,0.29028726602814015,-1.9158882301685312,-3.129818605049689,-1.4841728884505412,-2.5197004005512604
-75.0,-1.9762523998674664,-2.139303699841526,-0.16305129997402723,2.0440842352400725,-0.853474074054694,-1.1998351116578,1.6968602009984664,-1.10682894904257,-4.597450734086681,-6.0634247650850766,-5.922071218987054,-6.506522809977003
-74.0,12.914760556831972,4.698856348381713,-8.215904208450095,-8.808878716972018,10.54588335335878,-1.733320212861419,-4.2547855556923695,1.1235787286784547,-2.17726105467779,-4.791691351802073,-3.50349981758578,-8.678660914633383
-73.0,10.909317745093729,8.346551397482052,-2.5627663476114626,-9.622719697900266,6.721217767007978,2.9138335407063445,-4.846375018320509,4.029955288649832,3.465329596764078,3.256349920987581,1.048210170220953,-1.635877986845443
-72.0,4.3334237872181625,-0.8729137402392726,-5.206337527457109,-1.7243873290698044,4.75799990659423,-3.0183538957120875,2.050403416215594,3.600003389938381,6.408492985058826,8.43926877137969,9.490681387886148,11.17729831817563
-71.0,-7.044357682578524,-13.968479052858944,-6.924121370280095,10.505488169727784,0.007752280637184139,-10.501864931627331,4.441767321486096,0.17941793601619083,2.7783414555444264,3.2762498055093796,5.213057883863971,17.626923193837946
-70.0,-13.167370561327353,-12.589441039099194,0.5779295222283525,12.864146906143086,-6.884962173116911,-5.978940969283006,1.6205514329640482,-1.7485547965359314,-1.449386093880162,-0.23141882815505754,1.768713391307565,3.778748074478049
-69.0,-3.4402001071188906,7.676717120725465,11.116917227844354,-2.1498589463858924,-7.295257381845134,9.427685767315275,-1.2593370892447622,-3.890905583738792,-3.9145069090940963,0.28323817417089825,-3.6700500957319413,-14.658368780067416
-68.0,-1.613628978307034,14.775949061098698,16.38957803940558,-6.551840304163406,-9.025719491866123,15.538172546855005,3.3339240324128943,-2.7188156258373453,-1.9201937432731815,-3.2151442620977075,-5.817575553381166,-6.93091046330966
-67.0,4.9041650495574505,4.045188362617978,-0.8589766869396431,-4.460103526211754,2.8478147975195354,1.5503676368090131,-7.2828695491307744,-1.1421511267851578,-2.0463373397157714,-7.525870837922928,-6.4541961850402165,-7.315580454015267
-66.0,9.29905178966225,1.8515334806111716,-7.447518309051222,-5.569801338838344,8.408138127714142,-2.761619783718088,-3.034846292744508,-1.3212614476002966,-1.2275100327265474,-0.7803027680946033,-1.5782396639434237,-1.2308378356649299
-65.0,2.513883074911412,-2.0329094446586025,-4.546792519570084,-0.2375350080518821,3.5566797523742473,-3.2542920347727113,-3.1382462816355567,-0.05984037984029067,-0.15019496538230281,-3.198262126366202,-0.6630924331426674,1.6058326353775063
-64.0,-12.300435063974557,-8.749594929027602,3.550840134946891,10.53104526665834,-7.904415877506138,-2.5655073065649345,4.38802473878552,0.9810347338703735,-1.3997038132941357,-0.7011711052507819,0.5628600138911279,-0.5378275005364106
-63.0,-0.8906785061940958,-5.4089500867123075,-4.518271580518228,3.1623599922433643,1.7553196512825098,-5.010942785778132,2.740580198693587,5.6243919458187746,5.340946820694449,8.494967861799452,8.871679738614727,8.123553665260985
-62.0,5.724863897486092,-7.084432821454205,-12.809296718940235,0.6210491086863783,9.290202926121456,-9.997282972088234,4.273903952704553,6.787134591755143,4.986075294191875,7.386543345448626,7.320187730884641,15.00572731712949
-61.0,2.614253743282543,-2.4174278789043315,-5.0316816221866905,-0.0718050064618393,3.8514454047740316,-3.699463737672648,0.16004666195060668,-3.932429618270127,-3.536832297909,-0.04787856178705141,-2.904637685616017,-2.2127889197696096
-60.0,-7.174217949119335,1.6972192750137172,8.871437224133313,2.6914395191931866,-8.066983466034127,5.306929641961527,2.5079984571098213,-3.7952227641266543,0.45759851693345044,-2.852536268042731,-0.3513564584508404,-7.419059889477679
-59.0,2.2373375478482886,16.994255625794498,14.756918077946391,-9.580084018737796,-6.219974692057541,15.89747049065608,-4.371689387392889,-3.959459989057374,-2.615389503109649,-2.6510188770916785,-2.617068250318631,-3.361945891119528
-58.0,7.227429724891589,18.84452567258933,11.617095947697837,-12.996412059747337,-2.2305342311800476,15.175650848120533,-8.628878359893747,2.559931921546226,1.5620009888069202,0.5440366503970941,-1.5186873665168337,-1.785116069517442
-57.0,-0.053566339787829875,3.160321683623054,3.2138880234109264,-1.5883325759793423,-1.6684617184691093,3.214744624084366,2.1196871411637552,-1.9190679715362104,1.4175486951589304,-1.0317596496732415,-2.959535602217974,0.30617470820203696
-56.0,0.7825754932548391,-13.192135795405449,-13.974711288660242,6.252921019306234,7.4218016866073695,-13.55030430877757,2.8659191705946405,2.1047955220050762,-1.8425556548675872,-4.268425342823523,-3.5700111479095407,-4.755327354624811
-55.0,-2.317623397985299,-23.881774702202417,-21.564151304217148,13.072592042519982,9.664514238703942,-22.763238487268584,12.763085293913482,4.582165895592648,2.5314514438505364,2.056146540196907,3.974749325966552,5.700194577130604
-54.0,-3.7935675728764187,-8.045568807892288,-4.252001235015948,5.894033815274602,0.18942837206098861,-6.106804373491784,-1.3178840421354208,-1.624355134039626,-1.9892824299624574,-0.7712974537798789,1.5107776995911304,-1.8021798417424537
-53.0,-8.959387379632469,0.9861219509906523,9.945509330622912,3.9602092483501212,-9.415761871288625,5.429452038871794,-15.521335135612109,-3.0871349685561573,-5.078333869801218,-1.1682545529358226,-0.25903347141908384,-1.7807896656743516
-52.0,-6.648586968548706,10.320088055556017,16.96867502410462,-1.786376330183727,-11.852672340429823,13.60512715832526,-3.2459284734207348,-2.353206093065249,-2.9526085524682726,1.2668650987174963,-1.8335991046642404,1.388960584354323
-51.0,7.469858301145296,9.801180431373036,2.3313221302276705,-8.668711368022667,2.5239901399091265,6.1006423725277195,1.0454509633023432,-1.2953291782228915,1.0044391444588736,-0.10522928852999547,-2.5558842745596158,-0.09260009881367504
-50.0,11.003059955377719,6.118835871581059,-4.884224083796684,-8.518598551390415,7.9772565181007025,0.6464437525000983,5.246879874049268,2.8640875250427924,9.048323626221888,6.137782230156492,8.146531496356493,3.965878127387653
-49.0,7.555019736113026,3.0727934365778884,-4.482226299535265,-5.351791235878177,6.0542433000908655,-0.7574044737693946,1.4413316280321449,-0.8967823439491636,1.6848276861762193,-0.14374770475553822,0.8380996540651897,1.3525177759194118
-48.0,1.405890788531147,-5.4735057659958,-6.879396554526997,2.0752329526551687,4.181970617474677,-6.1495580259933025,6.787959130646597,5.254261238274442,-0.02286705470187278,0.663114150586144,-0.7351233893175346,0.35837208946865895
-47.0,-0.6512123936505627,-0.3181069723335268,0.3331054213171374,0.44934917102344185,-0.5271734729443494,0.03957294223711916,2.8104174990701583,2.361267499156706,-0.8312178092940277,-1.112791322747137,-0.6921387722354655,1.3370352182487018
-46.0,-9.48003041704479,-7.193985182228342,2.2860452348166396,8.382650786909908,-5.914416452452706,-2.4922633961261482,-0.17550914699700448,-4.687241713347873,-8.719862454876361,-6.591628249035915,-5.827543180325446,-4.98979356601808
-45.0,-5.082241754771256,-1.7351185555592696,3.347123199212209,3.3765251031016064,-4.244451080852507,0.8555300126623981,-6.7602110453305535,1.3069068084822202,1.4775060723519209,-1.851394436391725,-2.148217049238966,-2.0004131610539204
-44.0,-6.275768786473433,-0.8540860590533805,5.4216827274201655,3.5314353472959734,-5.800657185558112,2.261202870093643,-3.466951034084963,-0.3446859635043831,1.8948874140888892,1.0723650183171445,1.4285984646117842,-3.022994894278161
-43.0,2.0485857208800375,0.5146386558641749,-1.5339470650159062,-1.2401959979763417,1.7574448522873283,-0.5307394376907381,-5.822535983653742,-3.5813768651227784,3.6963868458838975,4.341657071686235,4.25459981523547,2.6512598589181495
-42.0,4.456360028056348,4.750459412327668,0.29409938427125004,-4.646430917088676,2.121386224079572,2.49641230435916,-0.7062979155539368,0.0019707109257263156,2.4778756803365547,2.020868687711752,1.7600888598563216,2.5276538225875873
-41.0,4.407829066880519,3.9214993307140187,-0.4863297361665666,-4.135273216868621,2.4817664223612117,1.7602924876249388,3.818682467754552,-0.8263514570087911,-2.2912188682903754,1.4041786899461892,0.8401678712648741,3.6869649754094773
-40.0,0.18061037295770355,1.0973951027790818,0.9167847298213088,-0.615410044429848,-0.41820112375939633,0.9583028165651948,9.465317942256524,-0.4341581301708938,-3.702305031262852,-2.2174379852759243,1.2929749672499338,-1.7713938156060909
-39.0,1.312864647972372,-6.440860587145652,-7.753725235118101,2.583076262438962,4.555826719641106,-7.078758493402555,5.738530838037493,5.439786204270253,0.0931951068011505,-0.4713706144263695,-2.344272684541732,1.0511722749894366
-38.0,1.2532780613148438,-7.133043180618999,-8.386321241933826,2.877174701527336,4.7582776505698385,-7.747617529490373,-4.838792817801548,-0.47002489232132794,-2.8913796635574998,-2.217613341265268,-4.277654488483456,-3.198861855430829
-37.0,-1.1425009171777467,1.5634890291648222,2.7059899463426307,-0.19613195634189773,-1.9100612636571273,2.1473747783878068,-9.202356719245742,-1.170927682467191,2.577785334109815,-0.24940770385255762,-2.325369821943343,-3.2403941773370173
-36.0,-3.5926987752339623,3.9583854558389397,7.551084231072944,-0.16889814085855392,-5.556756009690327,5.774658283878933,-0.9094915632594844,1.9155189028322113,1.3209116601993638,-0.5857584682225,-0.30261840385775973,-1.1871161782270647
-35.0,-4.492060763139291,1.2629364401593972,5.754997203298535,1.629497902728884,-5.102199841221701,3.5401911533636854,5.375649206813421,-4.75410979247898,-3.4721902394045157,-3.1794296810640508,-2.360016271123773,-1.7923747926431475
-34.0,5.287824460422297,2.660685013724798,-2.627139446697748,-4.0353177365046236,3.990221557281858,-0.019532642576343573,-0.21604854079149405,-0.04115402688982028,5.314951541200836,3.763566098829571,5.331340873966088,5.006768556515261
-33.0,9.787214604039127,11.338322110642098,1.5511075066028481,-10.54024379285724,4.087043438811282,6.415713813954778,-6.573021930443271,5.442657322594237,6.471213679635252,5.818907851312597,9.575624827178055,10.358833007036182
-32.0,-4.50519420865601,-2.4770527465918697,2.0281414620642857,3.520510291686367,-3.281974595482546,-0.25203645751830467,2.2195896074571904,-1.6584214834194637,-6.319401104738173,-0.4446564529710151,3.0726223797954653,2.3232561199964192
-31.0,-10.734782460665295,-10.76094048370828,-0.026158023042705425,10.785385227289206,-5.356518380285003,-5.424901056612978,8.469549435382646,-1.9835397476176697,-5.634860334596242,-0.8615071249948593,-4.191196797965404,-7.742081127522901
-30.0,-8.711559423394949,-6.611459510200043,2.1000999131951725,7.628274890035094,-5.400316309998668,-2.214344552378348,1.4059207761379762,-0.7645367933153377,5.9091579382403445,-0.7354706638631188,-8.165440785353736,-6.84991792351171
-29.0,5.591404670951677,-1.8147768492254759,-7.406181520177,-1.9153300584481876,6.505112021387935,-4.5739055996833615,-1.738509143430831,-2.3045507158342655,-2.911196841032511,-8.131082515436646,-9.945936479803809,-8.656482401568057
-28.0,17.49168108913109,-2.425236347217828,-19.916917436348946,-7.556931833578142,18.704579115439103,-11.135483658934247,-5.579984248300731,0.23953517550081282,-6.44463586040272,-1.8967227372061184,0.5170818288767149,0.6580724586580553
-27.0,5.829828881207753,11.939832598187488,6.110003716979634,-8.829527803845329,-0.1510178636651185,8.984740528924483,-7.009917540942822,6.866521867213125,9.693170545649256,10.47192972304063,13.58802460111678,9.681686074844356
-26.0,-8.294389560069124,16.36967172432538,24.66406128439438,-4.062947987077277,-16.50358998618314,20.56024203779677,3.7855778586937445,3.3166879973495513,8.945028197361031,8.144106604154787,6.289929174586296,12.573553968532533
-25.0,-13.551150637099791,-8.978992749514578,4.572157887585158,11.237357953467857,-9.019356266498116,-2.23550322836976,7.093299487646122,-1.0720484340076641,-7.346944072256256,-5.694271995331685,-1.1297837353825084,2.4348396286027434
-24.0,0.3429518504966351,-11.059678325415433,-11.402630175912169,5.408034005987453,5.828894128509997,-11.264337305578621,2.581004087196972,-6.152284393856096,-9.22018234494244,-8.675759831135606,-6.03508811434085,-7.401021498128685
-23.0,7.36585799665758,-4.228877963367653,-11.594735960025297,-1.5969264928399078,9.514426167935317,-7.951425638162293,-4.472954991732698,-4.444317992400233,-6.4840633306910895,-5.68626130028874,-7.595884384062374,-8.332318184975795
-22.0,-0.27976485315151,-4.1013595480066325,-3.821594694855091,2.243478043122538,1.8112151431020305,-3.932585837698127,-1.294158484012568,-4.863260716544352,-0.2256083981435042,-1.0757218328771752,-3.4292996572579986,-8.15767634141722
-21.0,-1.400646645599704,2.8300812516840157,4.230727897283732,-0.7370176837086746,-2.8429426227776116,3.548703039914349,3.1490489810740545,1.8233080924532554,6.777481137855868,1.7120889042551861,-1.3167690606557212,-1.45274572831631
-20.0,-4.256093183749567,9.558345608647597,13.814438792397159,-2.6704772465067896,-9.049692016316003,11.697710008688455,-2.8846508913591364,11.551180861355261,20.850350671239365,15.833607904510238,15.250665732051374,11.76938470064577
-19.0,0.526743805067242,4.422994675569782,3.896250870502424,-2.4931393927607832,-1.6885819363965884,4.170482210148498,-5.8432016318584195,-3.10718668349035,-6.928405005147969,-0.9326488167747868,0.6886255838404214,-2.1044701559696524
-18.0,11.969501005778252,1.790101380056473,-10.179399625721937,-6.899352330182914,11.075801797668955,-4.176943663238063,1.579283697361403,7.194117316522871,-4.102996068490004,2.2600521102540814,1.4012658640138922,4.350379417199238
-17.0,3.1654731873327315,5.161580488141279,1.9961073008085135,-4.107575083746485,0.5841678827683072,3.530370782796826,3.951697593351972,1.661082073534311,2.4381076393537615,5.15540318007336,4.547706440368642,10.868155276683696
-16.0,4.156953022256319,4.158982585319782,0.0020295630635760453,-4.185051266589741,2.0683256138011625,2.1257146997620495,2.8136271065275604,-5.29788278904113,-8.336822865136684,-9.823162291628137,-6.1621726221251105,2.2997726606397997
-15.0,-14.737039611419432,-16.638432430134838,-1.9013928187151763,15.735016595054041,-6.440316117355104,-9.290219755401077,3.3526737300762672,-2.8424893556560913,-2.310374015241056,-8.565757552725305,-8.266826339373418,-12.04091288298485
-14.0,-11.18118218868603,-21.174619229743193,-9.993437041056794,16.142534006567782,-0.5526153419775204,-15.596315816508346,-1.163962441898039,-5.449560760942239,0.2882019278142922,-5.867769051772027,-6.798217574877681,-14.984638059801483
-13.0,-0.22821105195747649,1.19981823565581,1.428029287613625,-0.5243983869366424,-0.8002355181427625,1.3024751443160927,-1.668921081349637,-5.048633846592362,-2.684685940408575,-2.561369355051661,-3.1446663862621467,-4.99348014468705
-12.0,5.265683784296991,10.176227667943499,4.910543883646685,-7.683459331270029,0.11757095260732468,7.525677238183395,-4.553764417231068,3.962056362112298,2.6413516334415688,7.941548275722765,5.810078701438985,8.089978854442672
-11.0,0.49687616439272464,10.412783760290328,9.915907595897641,-5.419649069593887,-4.694259220058385,10.213990567262965,-0.7286241046890365,4.137992801117268,3.336688312382872,5.50978944686269,9.046792204821868,8.697204043247467
-10.0,2.104852262394649,13.436674294651318,11.331822032256412,-7.816511803592592,-4.5961025960247355,12.341714262535088,0.32019017131553285,-0.5841790158039055,-6.600290686672166,-1.6917852799821356,2.995659539098635,7.952300146517522
-9.0,11.847488277843464,2.4264368191706405,-9.421051458673425,-7.105997310078344,10.658056102992578,-3.4733221122590665,-2.105959812363989,0.10531949593311918,0.040131303430115284,1.6661868511517548,-1.553703951289318,0.10143383090551872
-8.0,7.1716321398700025,-8.39542318038464,-15.567055320255246,0.5626572437147219,11.322778754678174,-11.965862333438512,-1.375519073677107,0.5590717209766183,2.9357631115466374,5.233916491245362,1.4425827977407484,-0.7726023374442368
-7.0,-0.8680225363391035,-15.385962067928755,-14.517939531590006,8.156570249487718,6.864951234454414,-14.940481302156751,6.0944361989513816,6.162674786024343,13.071538832962574,4.901823734063604,0.9621504474513549,-6.093672349297042
-6.0,-8.515184338424966,-5.63033036301783,2.8848539754072444,7.026339687593578,-5.7337038458502345,-1.3607238400921453,0.8387106548341752,3.3923051940621836,1.9535583783654744,-5.563910089339759,-5.80932499210466,-6.258567943074272
-5.0,-8.1737391720231,7.583857631770969,15.75759680379438,0.3335154525692836,-11.998119847493196,11.607946560850754,4.377366720095777,-1.3591220441759964,-1.195142929700327,-4.648237778218033,0.45430423423008115,-0.914881035693984
-4.0,-8.351390634202515,17.78262957236985,26.134020206572742,-4.667576585204033,-17.19884441789888,21.980562200623446,-4.481824693532873,-3.6969914302799354,1.981344956262868,5.183820833619627,5.886495891342416,12.25816088324109
-3.0,-5.733029163167863,0.36772888665930203,6.100758049827338,2.662929551279289,-5.877866022774608,3.185659461762018,4.030912853220366,-5.090855812315073,-6.377337647583368,-0.5674231659211657,2.0511784548635053,3.120212866278698
-2.0,3.2251170249869987,-11.73475446357348,-14.95987148856048,4.24470858610075,9.047491974093067,-13.307801069080144,-3.275036352023592,-3.422317694617489,-11.395478422408594,-6.364939415143624,-7.253150716313646,-5.936723122768231
-1.0,9.987822348549821,-18.782318187520076,-28.770140536070034,4.392198636545345,19.330372524997287,-23.726285499833843,-1.1037329140744956,-1.8653305170304697,-7.714299848847633,-9.080907242288179,-12.20625944008164,-11.515647764519485
0.0,13.445609911735058,-2.3604243203026396,-15.806034232037915,-5.549389156010735,14.655770361257224,-9.101476099037326,-0.5061224006235778,2.8830966039403667,-4.189026442024901,-9.443395446816186,-11.894525830735484,-9.422237982752732
1.0,14.842885982746346,15.368428855148053,0.5255428724014237,-15.121391457533207,7.1925918740877535,7.937717021965451,-6.811313605611256,2.798967877088228,0.3862610615307158,3.4725522580044377,1.3614796105225422,-2.856030521292352
2.0,-10.221717321579476,10.058328872721486,20.280046194300816,0.05163454896247277,-15.209555617483005,15.165315601703371,-2.9425004604566194,-3.0691684061791076,2.1398541749160804,6.471610288241569,13.403315041968405,12.787298652529488
3.0,-21.7413068725486,8.765600534369915,30.506907406918835,6.520317984003144,-26.15290219391905,19.63272077238819,4.072568332155146,-2.6878689891857506,11.754525257377235,12.96854249203318,23.855816162743952,23.97578250247838
4.0,-4.140481131496193,-0.3878096551546175,3.7526714763420514,2.282512678393044,-3.968495202045009,1.6739672125327765,5.444584296560256,13.698235531306606,29.76062533063979,27.037585836464213,17.72280068627399,14.196730542637116
5.0,1.9144182588950516,2.424338203243006,0.5099199443484674,-2.1597497261754803,0.6829015815065036,1.4498192033298327,4.304353181906805,7.319815983042203,10.813321227675146,7.124276385952706,-1.4762756574913989,-5.810680804599691
6.0,2.7772794512529853,-7.973000574362471,-10.75028002561542,2.6055698359503947,6.741645045477885,-9.389132995962754,4.8149523674569,-3.7270636835515107,-13.204913252479109,-20.76088544887554,-24.227057853811978,-25.63807408241566
7.0,0.49239904796855694,-19.278408056423444,-19.770807104392446,9.405069628807144,10.180950161030687,-19.481992100159278,0.9203167586341386,-12.696883391948711,-31.903818100921445,-31.19025338164078,-30.206681195430644,-20.732781437738435
8.0,-0.3406946044103365,-9.579212444972026,-9.238517840562235,4.901862662448079,4.4102047132523445,-9.371346462400627,-0.9324009849833665,-6.421801113387652,-15.620161030892902,-12.611561733080912,-3.0831908368500365,1.2823457594368612
9.0,3.271158091105777,3.4548995887171894,0.18374149761111536,-3.3321297205146276,1.5755066585919157,1.8555702707760582,-10.422025991112012,3.436500977879329,4.20258491248652,11.596110977316023,17.4072168519886,14.552479476197282
10.0,20.907376573694634,10.25099788712567,-10.656378686568779,-15.617396148244334,15.80918459612164,-0.24408779496588107,-16.67210602300307,6.272607655847276,8.870263339675663,11.970279308699428,15.885850248961125,13.068212789133868
11.0,3.932431013254443,9.00316642804757,5.070735414793484,-6.4195834199109125,-0.6198446761151959,6.996699674705066,2.339429114229924,1.194583488252316,7.4152683253115885,5.2039691773308885,-2.103064584958334,1.2838951992109493
12.0,-16.136164156251837,4.618389125736098,20.754553281988308,5.733624427757939,-18.411383315472417,12.645440620330817,14.887150140556729,-2.966994110010002,8.906195415925598,2.4083390837176673,-9.312977509020543,-11.701258910164643
13.0,-19.951506957709725,-0.2683605801053357,19.68314637760457,10.087757366146374,-19.85256188884082,9.741648562556199,11.60420936460874,-6.600056612191693,-10.336581869397067,-12.03291289309029,-7.30350384738732,-2.715512640097145
14.0,10.442122438032408,2.4178144894542153,-8.024307948578237,-6.372051880755568,9.287311300377262,-2.7746454941787544,-2.259822686956369,4.9109298053367105,5.317455560761495,5.2926313120913075,3.367183265684178,0.882189606901991
15.0,-0.6428713363638126,-0.08263605551867403,0.5602352808448869,0.3417981395477985,-0.6175117349879395,0.2607174240997061,-7.49735638265539,4.0256839579516654,7.1834974812295584,9.70273488884356,9.344779448254275,2.2440456773731574
16.0,-2.635276773914223,2.210036328906366,4.845313102820095,0.1900095097031258,-3.751874172827426,3.5430556587841275,-4.295055582786389,2.9058495235626083,7.011234745693713,13.099038408711927,19.768110580853293,13.665772741052097
17.0,8.106710064687341,-11.245391830541605,-19.352101895229552,1.6219767484653431,13.716782340108363,-15.367599722068803,-3.073417336928263,6.925832522184362,1.8127697662461961,1.8215935752255656,3.033956125585931,4.065289045064082
18.0,6.012291674305799,-9.69521462730533,-15.707506301611474,1.8097670123436487,10.841518246168498,-12.695165309603691,2.967078351462145,-2.4678114877367285,-18.95120661639757,-18.171471270833187,-14.572273664848899,-6.511403668182614
19.0,-0.4651358488578792,-8.170018637790742,-7.704882788932498,4.278490388521144,3.593409614142879,-7.932493455461781,6.043822834370333,-8.974638360790202,-10.202539700332778,-15.662356792099343,-19.603132713004417,-13.799499373340854
20.0,-4.122164350446918,2.5870667795972198,6.709231130044925,0.7990288259682241,-5.370618494282189,4.6548423299802595,4.115537304799085,-4.378483313421556,4.280539892038003,-2.9124656005707337,-9.331113933108805,-8.498914279772865
21.0,-5.3847629726044905,15.073436001755937,20.45819897436099,-4.820110287801817,-12.880006491866235,17.777192792048144,0.3181299396008761,-2.350770490953449,5.875234192777221,6.599346963086982,5.3552111874604265,6.678503443119576
22.0,1.7704303872582448,10.895370384277577,9.124939997019423,-6.391738324684715,-3.7134329854165813,10.028278412772298,-8.062677207604304,-0.5855662264065962,-5.209053645536414,-0.8151565903573603,1.9425135508942164,1.8233080170171618
23.0,-2.061155262372347,2.052087076554842,4.113242338927049,0.024739033161655044,-3.0397995213947455,3.1079293888981248,-9.5504242505863,1.9087333711402348,1.4839504571020887,3.2037617142723,6.827098046323454,1.0533064706012345
24.0,-10.141782841763415,5.34936429972688,15.49114714148975,2.4219774627066957,-12.84181961366816,10.372382947685756,6.22531950543205,0.16450956324738275,-0.3942674187342119,5.268064542853481,9.643710154460187,8.802267901611083
25.0,6.839036811114681,-13.309583210764316,-20.148620021879577,3.271082810902385,13.47267551064788,-16.774246922463718,7.115761214806867,7.795264050117487,10.631648291692693,8.75907369314305,10.532585391796143,1.4105774272401037
26.0,10.330541785221772,-17.180103652609855,-27.510645437831823,3.394122449550941,18.89983394918947,-22.312071546908264,2.9240843142546447,2.3861457925694545,1.7088412914524769,-0.09168871492909059,-5.860104272995724,-1.4964696485554065
27.0,9.096477586794993,3.4899888170912607,-5.606488769703459,-6.312477055121551,7.327140434518144,-1.027118220984482,-10.179645730571245,-0.3698560545866374,2.423542275816125,2.857688190779415,1.4963637492327155,3.790425606875785
28.0,5.78629243070649,17.610278739277504,11.82398630857152,-11.710025187193809,-2.9702849473334814,14.667429370706191,-1.4229153809599548,3.975482878928121,7.576966683278317,7.291361890097914,2.9468025695416156,4.705365511462929
29.0,-11.298247426927208,-5.3902175677820985,5.908029859145483,8.333984040002186,-8.638660652263955,0.2878793592815274,2.519593511971949,-0.5866308180282285,-11.530307054039673,-11.632484883264093,-10.58523088320546,-10.512780363142312
30.0,-19.841056509714754,-29.97941749945641,-10.1383609897417,24.973544744808585,-4.810383884827165,-20.02686494540236,8.228930452430244,-7.566865545864864,-19.770672772172887,-22.884073973672066,-24.653441467226976,-20.544714801422163
31.0,-9.996290868176159,6.697590002497085,16.693880870672942,1.62285316519492,-13.302102341255804,11.65503730387058,7.10315426593147,-7.831202951560184,-1.3887575330057373,-5.637430596552505,-4.746636652150953,-0.4298548135107172
32.0,6.182792059217693,22.026250235613293,15.843458176395218,-14.14583063482147,-4.860407908135426,18.98053655825241,-5.062164268019215,-1.0836799694001487,12.881731799024,11.122405399308423,14.152952906291263,9.830949876312404
33.0,18.372544062807545,15.412414307762525,-2.9601297550452808,-16.870619603507347,10.643538176227137,6.200222825050374,-6.6323323295967835,5.319029768935693,7.990094887769515,13.557071631845481,14.86018861982657,7.508371763886395
34.0,15.003169040672265,12.339145580822613,-2.6640234598498256,-13.662361150050758,8.817036986807851,4.816302907130721,-7.577590024443364,-0.6496742927930383,-0.9986297960034021,5.762262155968418,10.452924304305665,10.026908791026692
35.0,2.6691713553088583,-10.326458068005511,-12.995629423314355,3.829731260600825,7.818910422985043,-11.6813076505266,-2.3235967350032967,9.045244676192706,4.781307429281744,4.259868385333654,8.46973970917486,7.800349338502476
36.0,-9.79694981142146,-24.235889557692275,-14.438939746270691,17.01682053864978,2.385166981043883,-19.28156915177894,2.6290185758294173,1.2338689077267775,-4.1217450965185805,-7.065000663633231,-10.992475392504048,-3.926334354928348
37.0,-11.412603065413201,-9.69048233940079,1.7221207260126938,10.558316665166178,-6.586849118425186,-4.012211761677996,2.068527847684358,-1.4648019648364516,-5.106497913557485,-10.18258495867696,-13.667974777799676,-12.489791435770453
38.0,-8.826381054051392,7.1828517384852395,16.009232792536864,0.8403557742386916,-12.444536930783213,11.562179706573232,7.317492512789457,-4.933902731841884,-2.9272397636967615,2.7169690530488477,-4.862753841617103,-4.262728027853042
39.0,-2.6514253565836334,0.19580278845522514,2.8472281450389723,1.1820603842354105,-2.783392220987448,1.5616096697614203,2.7473073167997297,-6.3134538900216715,-6.293460573354862,-3.93212634089734,-3.720123848468436,-6.961962425350969
40.0,0.2035194996896123,-7.020612408214079,-7.2241319079037485,3.455206043170643,3.753450261127611,-7.084956052167397,1.5436523656416583,-1.7927845257610464,3.762685416927041,0.21877133451439468,-0.6155413294751435,-5.738925120671878
41.0,7.650151474803851,9.03015711035447,1.3800056355504853,-8.362271796471422,3.1736036809231636,5.1632418635958,-3.1543362920718034,5.695435272487943,9.030679935373074,6.422322640508851,7.1601474160878755,10.619717462244804
42.0,11.170496053626966,8.971775888560234,-2.198720165066825,-10.08873017561429,6.647565187779702,3.424250568492207,0.07386232612492583,8.18898682697464,8.503657535412868,8.27653826348738,20.181671398310712,19.335187354662352
43.0,9.260652739713748,4.314744211215393,-4.945908528498453,-6.8063449902969255,7.151121015165493,-0.3557110030309891,-4.071766685654957,7.690190625614102,1.7191948851987924,2.7673552023512586,2.677212942155764,4.319641922294025
44.0,-1.925177712738674,9.477387286903566,11.402564999642186,-3.7211335780106083,-6.6881757366202415,10.399892675021686,-3.223889234658193,-1.4548326543862213,-5.156710191322872,-5.4065886682192215,-8.585105357499728,-7.175651537877299
45.0,-10.486697615091018,-2.2916190336882276,8.195078581402775,6.3587913244668925,-9.360800485200667,2.989365162806287,-3.4010950384765177,-16.479582122186002,-15.455414157919806,-14.233715162622415,-13.143482323538354,-14.747296390258525
46.0,-14.392208287355869,-19.92964678087136,-5.537438493515539,17.12545095874766,-4.446926847981069,-12.697550519230706,3.194023505545183,-9.464722961822245,-6.030254382233996,-6.667345708645782,-12.62330129321516,-12.070721669882563
47.0,2.2090202195114994,-3.637990415897537,-5.847010635409017,0.7564585471768819,4.004584865027643,-4.786739545707217,3.4254850879443346,-1.3302752851596171,0.12800991136212714,2.4470692746136473,-0.3489262508129656,7.4584123695566715
48.0,4.7427869777738785,-6.725792482491206,-11.468579460264966,1.0369474727937025,8.154198910179437,-9.063349938704517,0.5148524518936846,15.251760580847167,16.575646167529126,13.34720560687913,12.780130358437894,6.674970275943178
49.0,4.193009159858768,-2.0274119671056274,-6.220421126964363,-1.1086160530598488,5.2478361134760645,-4.168465493161197,5.985205133201112,11.760227995909315,4.215215271602236,5.16017949382975,7.0944332807568005,3.6659077734283585
50.0,3.1331733541087523,9.864741861033174,6.731568506924359,-6.515472875386435,-1.842340349607015,8.33351651502602,-0.5819871260353411,-0.2831303675484058,0.07696732896969127,1.821714599407671,9.542643679386988,0.623293008465791
51.0,1.917300653389694,22.146966778106062,20.229666124716317,-12.04037397658592,-9.201026782473443,21.22503372768871,-3.617068508763052,-7.1392189136744655,0.899023832587463,2.6266609442034303,3.779961847663826,9.692922170354283
52.0,-4.300789448236427,4.44961675155103,8.750406199787403,-0.0779109488075509,-6.488622316064692,6.558882741086413,-3.405687575441371,-11.112814000192131,-5.95979352852014,-5.3498939223689295,-9.913616149292187,-4.091521892837534
53.0,1.0655124231808206,-4.789778942594667,-5.855291365775555,1.8584002117074812,3.5049594345394985,-5.363488365128792,-6.043811522860409,-2.276698906681327,-9.429192301368506,-13.074389398207579,-15.21883283933052,-10.956870509611608
54.0,4.834396889025254,-1.718211224802352,-6.552608113827709,-1.5671821695548975,5.669896583304045,-4.097762795450571,0.05083909099199024,2.7843930621171142,-3.4061580938322926,-3.898853878373342,-0.6115839210977718,-0.031889584490266465
55.0,-5.658630283159607,-12.449346937315397,-6.790716654155861,9.114151818733019,0.553584614373237,-9.660595328466567,7.326038243702697,5.713031702748988,5.99171049473466,3.55990901814772,1.6794095834637854,-1.2818487751585752
56.0,-8.671049817250923,-26.008612526304617,-17.33756270905373,17.309303698177924,4.329801922116776,-21.632545625954496,6.060711733546704,4.570652938975611,6.710423361862993,8.215765494197553,3.063823453479313,-1.2795936864250483
57.0,1.3247098689439074,-2.8606042406533305,-4.185314109597228,0.7250367065775141,2.7562650638547503,-3.47767970504718,-2.5866435112955455,4.062014640740195,3.5189940945233342,4.340940298765908,6.5293469649471305,5.087796225718275
58.0,5.0953174493528826,16.864144602493994,11.768827153141173,-10.954780878276333,-3.336056915054061,14.289717697687298,-3.0219094943150373,-0.834036908862635,2.740306844287428,3.823559248987718,6.190326621492418,3.759047259604446
59.0,4.957693446523079,18.04758462560323,13.089891179080272,-11.485580961410756,-4.070743289401086,15.549342894725457,1.153694192487063,-6.375075372083352,-7.243290838802978,-8.82816658236407,-2.331848643197007,-0.6898917474745789
60.0,1.7687196290846656,17.17892967348297,15.410210044398468,-9.46092797828117,-6.833788411759686,16.281605996210025,-2.2912667264957536,-4.113503490878798,-2.226027073427938,0.9328450947629312,-2.970515640320314,1.3577247988685845
61.0,-3.280545648247432,-7.900306997664119,-4.619761349416624,5.602713915933978,0.6475084831242439,-6.268806556377578,4.407641265006134,1.9703564499480235,3.151650884874628,2.622465882838138,-1.1998392559452653,0.22633416394404696
62.0,0.9664649719061205,-9.864542166204709,-10.831007138110818,4.384613109456612,5.9478998241486245,-10.355241897907849,-6.7400554883612696,-1.3123548477355698,0.24814328612801118,-2.001328235485245,-2.313397223013337,-0.26552378839402224
63.0,-2.529995593280296,-9.44960027612895,-6.919604682848693,6.007588161441697,2.2393073018611784,-8.114951700813268,-1.9695821036919938,-2.1323351402463686,-9.638967537152539,-5.9858962677466,-3.9295212328158193,-6.528658815098067
64.0,-4.863994116644191,-4.587707674133533,0.2762864425106075,4.747413240277197,-2.6063093731099354,-2.1690620021754343,4.626351022129348,3.957637375589357,-0.7764858656531244,-1.9766972458413832,-2.1884465109396216,-3.072185435324406
65.0,-7.672016504637551,-3.942717558926228,3.729298945711262,5.832216303389664,-5.737164153859979,-0.12635187981749763,3.786198567837338,0.26532623174355363,4.8798341115025865,3.5633869272910146,4.549795033612345,1.0579752802425773
66.0,14.302997614520292,8.856687340326168,-5.446310274194209,-11.63130153838215,9.916692900761834,1.6781588486183763,-3.6841606216397844,1.4908988181777385,7.684608271639696,5.635427608022689,3.6781168131803246,6.634961556691115
67.0,12.45491899949994,6.578037187635783,-5.876881811864199,-9.487472438737068,9.128184889534275,0.3164295760887541,-0.09969315900707956,8.036667927552958,8.174920722474425,6.3457711894144415,3.045177043932035,-4.196694042331382
68.0,-9.777241651931767,-4.556104641648942,5.221137010282879,7.118469887082043,-7.538702941339085,0.37176428030960773,1.1306075598592578,-7.764664815820233,-13.832899332698423,-10.579760266634715,-5.6356384991760615,1.5660411453699257
69.0,-7.9389933211871515,7.173486385969827,15.112479707157123,0.41542157128445356,-11.488324777103315,11.179610906307431,-4.089000247336012,-5.231462776818166,3.3373745639182886,2.5508137754840887,3.9932772335409603,4.5538129071557565
70.0,-8.019009155596773,-1.432716709267356,6.586292446329556,4.761779714926526,-7.266216791776296,2.6133358371818742,2.3175397783895963,2.044746575088343,-2.3247134995156045,1.0486696703437595,2.5553869504982103,4.4240607183409395
71.0,4.906767509366624,-3.0261169010679976,-7.932884410434503,-0.9788183442424141,6.4563963222356255,-5.520691650230827,5.591038659777641,0.5783400487510977,-5.803117722422403,-6.87958812271788,-4.546475660655455,-4.989163693305082
72.0,1.9839321130336374,0.8240247536114973,-1.1599073594221583,-1.3589989956591069,1.530380701048383,-0.2090956720007786,-0.6031873331521542,0.7484311620886112,1.027096755789529,2.8718846786899097,-4.875734728828173,-6.863596981415354
73.0,10.408141051761982,6.213629236658818,-4.1945118151032625,-8.340643148210074,7.259826562949807,1.0445853827975724,-6.571812163278814,-3.120490585538845,1.4289737508448839,1.4333519980403473,-1.395146341838208,-1.3707934491039282
74.0,10.777241014517193,-6.258705094497856,-17.035946109015185,-2.286681931227135,13.942441997339003,-11.696555976178177,-2.261849222411214,7.333941052774785,4.97064193518266,0.10919428945376464,2.8076243010330213,2.7951536699379367
75.0,-13.056792452554934,-25.912185027120966,-12.855392574566178,19.45735033974464,-0.14639917186341744,-19.361512226789262,8.020215608328172,2.9925344068271116,4.206150069507581,2.255799870129375,0.17091561371909303,-0.37784651606318265
76.0,-4.0757038334740825,4.20386361908524,8.279567452559233,-0.014038459734549313,-6.147746928991592,6.257293564164389,-1.2574399068776334,-2.5785625024059353,2.1900089215388503,1.2091020127100647,5.146464903390383,4.9442341107397345
77.0,3.079500217931826,21.790075962875072,18.710575744943263,-12.387614229381136,-7.78758380358331,20.26222920888609,-0.41877584206264556,-2.2614144017821767,-1.1034514671570466,3.9780390048849323,7.035992991271762,5.207415386206272
78.0,-13.490869660485094,10.715416707713118,24.206286368198324,1.3524962034906487,-18.898625760926766,17.47388935153008,-3.448271439994926,-4.171664861334437,-5.685556364135163,-3.089956793730602,-2.227169460665407,-2.653883779387924
79.0,-6.213067177471483,4.670275233411375,10.883342410882936,0.7320821817364498,-8.515387638665912,7.717552630391686,-0.7040533772910132,-6.490826825844867,-8.434363295654094,-9.380707312402892,-8.03338005775033,-5.424271711191217
80.0,9.22039122396969,-9.12494194955612,-18.345333173525763,-0.01245205329152007,13.822746721715403,-13.704785533383838,4.865678940008809,2.984816657394494,-4.977800414451178,-0.8074116687405377,-4.182284863949026,-4.469433949594916
81.0,11.300736337094014,-9.39364961608458,-20.69438595317858,-1.0007807772588548,15.967315446819807,-15.000554572397391,-2.933596422840897,5.872210467891226,7.10474105723409,0.36896414917556475,-5.931465552412401,-0.8126956229667837
82.0,3.2004156628511042,-9.042928880926848,-12.243344543778035,2.949933317647983,7.699939804387389,-10.665935541115134,2.319857816109091,2.2356829661649846,8.18608002827207,7.553634567693818,6.389155553470987,5.814563240649741
83.0,4.118970142442759,1.9200406347719392,-2.1989295076709094,-2.9924939820225145,3.1433566636797234,-0.15320976753004878,-2.2147470395542976,3.278219130663838,5.883988249234334,2.988586940491686,5.762842635352877,1.7473726104474308
84.0,-3.7201971549805166,4.398638586143557,8.118835741124018,-0.3129937008796212,-5.931647312545208,6.248653979103802,-1.9136452379397175,-0.6997097241399728,-4.3738354889084,-3.367841657178238,1.212725508058944,0.346441077142722
85.0,2.241876807536306,8.82955270241342,6.587675894877116,-5.588900002813062,-2.105850540374247,7.696575506877365,-1.7595632977149815,-0.3293633130552749,0.015505787822636785,3.2500501051852755,3.4021857336457124,2.039043479200021
86.0,-8.134717601363139,0.7148488578687378,8.849566459231895,3.7341781215484673,-8.506100830360515,4.764024360901628,7.46993610315028,-2.4975390788550897,-2.648370791116833,-0.36526334854742326,1.5746319011319736,-1.1480437538866697
87.0,-14.480700449813833,-13.549871976183148,0.9308284736306609,13.958560582288932,-7.724165184016138,-6.256641215565429,5.869999384273827,-3.884177214053702,-5.806005510096362,-6.894282434105095,-8.6211910956563,-9.180553767953125
88.0,3.6609032775971064,2.3376177117113306,-1.3232855658858238,-2.9797699732234575,2.467569801537769,0.4749198317511707,-6.722348356048183,-6.623015418985366,-6.067710523498587,-5.898737307691621,-8.232712564510852,0.6716372402514899
89.0,8.811359868477448,14.654655785821713,5.843295917344239,-11.715183613054576,1.5309464192224818,10.292427948971646,-7.3095927875923845,3.8383227279230607,8.541637076287536,9.500722631870406,6.286035158714436,6.592614682565053
90.0,5.31573712289765,-0.059126181363771124,-5.3748633042613365,-2.610115521492112,5.3054710835537175,-2.7515105186327955,1.252646627143465,10.77273393940035,12.247937709183777,7.515452745541677,10.578420551434204,8.038742088199353
91.0,-2.710512157737174,-8.533697494125693,-5.823185336388399,5.643213321291098,1.5870833835714073,-7.130660183074895,4.181298654412622,-1.113796817081477,-1.073404034849493,-3.5959716745628594,-0.9802250935265402,-1.1901168424964452
92.0,-8.779305492074474,-8.31497948560905,0.4643260064655115,8.494580738700337,-4.598911187449934,-3.9521030204612435,-1.3290072025803144,-9.221005276870894,-14.50588074992757,-9.114885493839932,-9.329698302641814,-9.422798126456337
93.0,-0.631099835737172,-5.442869966886738,-4.811770131149518,3.0693048081440653,2.027578515238557,-5.151521515384064,-0.5503167875164019,0.9001419918350446,-4.531155484954083,-2.8741452612965843,-7.48774626650279,-6.249608392277364
94.0,4.771024431966514,6.141089755836498,1.3700653238699678,-5.496654647062136,1.7112523462301854,3.730842368420679,0.52333985590725,0.7080797702626641,-1.4740629253791195,-0.28077776580921454,0.7302109933552816,-2.831533632994177
95.0,5.546804918883014,9.753402202118295,4.206597283235215,-7.607531218404584,0.6781902088392994,7.030196563647742,2.77989953639389,3.2286306266139873,9.162475548922245,8.586556783932114,11.65688772546261,8.909211713157045
96.0,2.040730907581889,4.658405753791616,2.6176748462096424,-3.383305389453234,-0.27991158276867045,3.603501084326654,1.6479215634869828,1.174447358666328,7.945762562778766,6.7875300946818635,4.010292327115863,5.309325280856787
97.0,2.662206430730135,1.602541606299119,-1.0596648244310902,-2.0867999205264334,1.873138238987634,0.3094086979868038,0.979473469468686,2.333910867710765,4.2762715232454696,0.16486364126441178,0.7529888361408994,3.148045509784029
98.0,1.6976112578508604,-1.5386167709321796,-3.236228028783154,-0.11324726772744098,2.4850836952488655,-2.4326863324671733,-9.218537317514343,0.36549554759513014,-0.9470291656747618,-3.8651226946846466,-4.303195105380188,-1.905212145240597
99.0,-3.067001115404608,-5.114878959170518,-2.0478778437660163,4.056716381972208,-0.5634531998086985,-3.5491624138454565,2.9459562009485527,-1.9771214421330858,-7.028678396347553,-6.641389238331305,0.6465033656894383,-0.561137936395306
100.0,-2.5036047936391252,-11.84432408949576,-9.340719295856772,7.219514665947291,3.4489856274834785,-10.557878525188384,-0.13990583437245074,-0.5542892248269506,-9.097995593416798,-2.373838659874865,-6.0866262709130625,-5.570594903303755
101.0,-14.814454520525242,-4.728725993579435,10.085728526945735,9.741953866059776,-12.416714936985604,2.6399465345316413,10.566310141196269,-2.736818398852524,2.6433770631901434,2.4010495513179566,-1.3961788226078244,-3.2169023871020612
102.0,2.3349486329057907,8.202848160365711,5.867899527459966,-5.21354664066938,-1.8120851884592155,7.0041432265014105,-4.639072202576561,-2.1106221093630317,1.30034461057573,2.303565213476211,2.3548568745512264,1.271248706965943
103.0,3.8450486434361473,15.096713462644663,11.25166481920867,-9.486439296860205,-3.751657527308387,13.229163650071127,-11.639897138674222,-2.6297994394069897,1.2937650260490405,2.5263605560623805,2.446708243637725,7.01894027578793
104.0,0.9967466479683234,5.498400253423356,4.501653605455261,-3.2557879460754693,-1.7255291661404395,4.982403687744656,-0.7945143418331417,2.41263384712804,2.4635772364554547,-0.32984793155102254,1.8012861281244463,1.7873646791639488
105.0,-3.518384244114533,-15.512947288883673,-11.994563044769116,9.511842406521076,4.262945887444325,-13.767404999093975,6.665084497809262,0.07746329520477868,-5.133856001129752,-7.038661035333332,-8.646445285706903,-9.720657061229144
106.0,7.724821415759012,-6.265112080747675,-13.989933496506783,-0.7341578949320455,10.883084316818985,-10.139549991760575,5.384293873294929,5.994359287717091,4.189866432473956,3.9845215718851823,4.362913373094041,-5.485197646352315
107.0,9.851372815183579,9.634961427752344,-0.2164113874315614,-9.753442507716946,5.063461355986365,4.696951249474077,2.697719326386363,1.1004625808396162,3.0247303851274228,2.559741372056602,2.980204772104429,9.735528225866993
108.0,3.8251681665963533,-1.4418970924789543,-5.267065259075622,-1.2123786328718635,4.502416135912933,-3.28957013940115,-3.056429359732817,1.7458536431474014,-0.12184805852566205,1.8017921349270827,1.0916090408168948,1.5279380247724448
109.0,-8.465650824484474,-8.183523356420864,0.2821274680633956,8.370000956487264,-4.412689024765267,-3.9667072726452757,-2.664722273771673,-3.9183612703850694,-1.478490130189157,-0.8022356126272123,0.28082623785970684,1.394546469897232
110.0,-4.261689761219472,3.136703420565895,7.398393181785398,0.5174503474536416,-5.787736365553247,5.248912830103031,-2.688449119862523,-3.9786345459615218,2.959000391826516,-0.031620401125591835,0.07685329192594859,4.75924234583376
111.0,-2.717016977820877,-0.11770724772206176,2.599309730099053,1.44293118544012,-2.695701127516256,1.218996489909621,-2.3297632627495197,1.6781001000928295,-4.316165934118983,-4.093514524609603,-1.7795496391560843,-5.0384220663794395
112.0,-8.72427459306713,1.0081826724988763,9.732457265566374,3.880521330700495,-9.191237845672028,5.423455450732742,3.3411678753287286,-1.319971304662035,-6.580365464298396,-2.234178099997992,0.5948344211537031,-1.9132336842736342
113.0,-0.17556769390220728,7.000233998695684,7.1758016925981085,-3.388098989424172,-3.7228328353102875,7.058117729632405,0.8654538059215301,-0.34472741103479493,0.10051148746153782,1.4496184546609006,-3.9694686268047934,-5.492377657724126
114.0,6.011056001366169,6.347964546731556,0.33690854536522236,-6.229113672876119,2.8636966548495484,3.3083268577530633,-0.22588856213940578,1.836085877679323,4.476990284458832,2.48213329214609,-1.2236971332983912,-0.3285075829042765
115.0,7.159356451629513,-0.9058461282621428,-8.065202579891906,-3.091999705709417,7.636119526167067,-4.4441670930839745,2.473529357827219,-1.0588666845785386,-0.6171288656770897,-1.6915155238811663,-2.9906713560432596,-1.4087403838353878
116.0,3.9244392249192064,-9.001856782358042,-12.926296007277461,2.4988210915828932,8.44932103760833,-11.00299311542013,5.376431687628263,5.958191481930098,14.721542753267727,7.143788645675958,9.30803643713488,8.725235077447206
117.0,-3.8990404624096264,-9.185843814627702,-5.286803352218028,6.504038082511453,0.6416730440775433,-7.195885708514181,-3.9845355681841905,-2.0418575028340538,0.9486881575649004,1.2087949105532254,2.9692254547600547,1.0528219928583686
118.0,-4.352142699089189,3.4346031420381378,7.78674584112745,0.49817917368715925,-6.039062827679273,5.653423876475164,-5.220301211248072,-2.207575435623003,-7.558916012552055,-1.9746603257262738,2.161783778985429,4.060374510478474
119.0,-2.606055686779974,10.731539889016563,13.337595575796632,-4.025558457312902,-8.016524097719252,12.001430264009977,-4.641910851745267,-3.441884312028211,-11.59461645829803,-7.468434252695954,-3.3745534555347305,-0.675470627323818
120.0,11.785972015650398,-0.24881017714942022,-12.034782192799755,-5.812365932468379,11.946857353279796,-6.172896541683418,-2.3122484117578948,-0.5726230988808589,-10.212818672205218,-5.786700558090747,-8.597719575320514,-5.751507030667106
121.0,-3.3903927846578643,-10.679735309811178,-7.289342525153295,7.068600050191552,1.9079224906635732,-9.01532994279879,7.679994125968386,1.8238608628768227,-0.31421720837027767,-0.16100652314061126,-5.988892762835832,-7.856382750231461
122.0,-7.113912480210974,-6.789055066412436,0.3248574137985689,6.984394749063204,-3.683125602433096,-3.1855562941387316,8.175698731079109,2.421014635115443,10.205811507674655,4.760081401118613,-0.5642238323280582,-5.964689152266718
123.0,0.1283948732421072,3.5103675048403455,3.381972631598166,-1.8655521439406004,-1.592794875572161,3.411591019271755,1.2501362397284792,3.8685578465490815,14.622521026812876,9.051136564001604,9.275843429164562,5.645365069120365
124.0,4.81505662608483,10.29192001982329,5.476863393738215,-7.600187934019799,-0.37885675419277787,7.926183080622529,-6.553648746772991,2.408555620609375,11.273920808044739,6.03110169616736,12.53767962345465,13.65932697659068
125.0,-4.2841615210798,5.56723839961011,9.851399920689651,-0.6102042952123474,-7.040675846697076,7.749205307672868,-6.431526253472568,-6.8142963446785,-6.06798121020119,-4.326252120665282,1.7841135673301682,3.8618665021244425
126.0,6.849440721794048,1.2974968805212583,-5.551943841272968,-4.042452423214641,6.145434083589797,-2.167777457440958,-4.758820232367463,-2.3173407083705926,-11.404082962413675,-9.645400767013065,-7.823658696924989,-4.205321333243839
127.0,-3.5928705276662214,-2.194133915951837,1.3987366117142939,2.846644310955287,-2.475136593042457,-0.44049191826255996,4.6220559638196885,-0.035322685152629596,-10.535651208796118,-1.7851225463342262,-8.71967827853317,-2.5194709746326165
128.0,-8.691750397492656,-3.687245911479197,5.004504486013553,6.223904715530312,-6.828878071252533,0.691078925031138,8.81923727355258,0.8176888634642193,-2.5432650761910773,-0.8750394119394511,-7.2603208592806965,-7.535528971511502
129.0,3.92986596238809,-1.2187774257932853,-5.148643388181107,-1.3172984813660733,4.558670071980246,-3.1562077243521536,5.414868712610609,-0.9865731535155531,5.583023993332887,2.4456954605998256,3.0875274342683223,-0.1775436806005164
130.0,3.245447602387154,-2.263903655495575,-5.509351257882339,-0.5272169331015383,4.398112654011505,-3.943676516658674,-1.7688885715352831,3.6706595598904297,2.1102736131149906,4.194319161507289,7.104455278527728,-0.2736704702328987
131.0,9.861049431366578,4.879342969197843,-4.981706462168466,-7.403878662890039,7.3649013213031385,-0.034904265900142395,-10.052624987587214,3.5800007216066874,7.208245786473478,6.2299351671311625,5.489869564393048,1.2283123749518166
132.0,-10.854222505256464,-3.5152573443409083,7.338965160915645,7.229947184601243,-9.073242047586273,1.9246103737150722,-1.0790190756338056,-7.5485918365945555,2.6023274407890176,0.6902370745219808,5.29176627676141,6.750356094756994
133.0,-6.884396545224282,-11.712006286977713,-4.827609741753603,9.261568079033987,-1.083289009335485,-8.257342363882913,1.0201922142944262,1.9139228655176925,1.0299977460788954,-5.621010097239958,-2.1219734976484,0.1510738195632748
134.0,4.864878302272413,-4.9155579866889285,-9.780436288961639,0.06148271609404965,7.347116961450257,-7.331894177409219,0.6391712235517235,-0.4308739673926517,-9.515930132387048,-9.152708382816954,-9.211874801497192,-2.3260694253399627
135.0,11.580165011097996,12.076695488210838,0.49653047711257736,-11.878695982028665,5.568031506448444,6.231396254474744,-0.19067962933971616,2.839180028862977,-2.6814055698267234,-1.112645974829189,-1.9105014246037282,1.63963372483153
136.0,1.2319906922638273,8.946012909918522,7.714022217654527,-5.068200306447976,-3.211175851968455,8.363859957622497,0.5787491479421043,-0.25793899612832927,-2.630609100478006,2.4455308924983536,-2.7217284096977794,-1.5439109465095773
137.0,-8.499311784449368,1.8986472153889746,10.397958999838274,3.3149829245748066,-9.492192323162929,6.115078396783056,2.769094310585926,4.051857794416566,13.630196256473125,10.84552067328194,0.3375386357312915,-7.3025440096438805
138.0,-5.142621622910919,-3.5213760121599966,1.621245610750921,4.342927729330707,-3.3407224773812567,-0.8933674468435022,-0.9355939914238185,-4.315157982413519,-4.300682214629098,-3.0664127395834306,2.3586406365758203,1.1169274304991847
139.0,-0.426233110910621,2.400604132532189,2.826837243442919,-0.9775976285896522,-1.6589209139537147,2.600326987846031,2.6022455273706493,-3.7593209908432943,-3.142817602658885,-2.057352769453752,4.0379323966025495,4.826827854164259
140.0,0.894253813145599,-2.4566914348798146,-3.3509452480252104,0.7910113088572608,2.0932001986236504,-2.912789161500787,-1.9005281109281746,-2.275483442210456,-3.7028215727295755,-0.8942434527647247,0.5998455267962988,0.15334454757774196
141.0,8.142789082898627,6.529849599031226,-1.6129394838672546,-7.404604528139352,4.927549977324649,2.448756830723333,-2.3683694491990055,4.907310383626135,3.604698791432698,2.5984254343350104,4.365023140810198,1.7541083912786113
142.0,1.6534119099844267,-10.53961645880708,-12.193028368791426,4.453995576991334,6.892398346617201,-11.381563694248008,-0.7197223656346514,2.1556330078363892,1.4858451137120903,-1.5633220263459529,-0.7024731250294991,1.0634716655574996
143.0,-8.580327645892684,-8.117513958479378,0.4628136874133144,8.359941834136386,-4.554852546526636,-3.851289844053267,3.2805368394488057,-4.349609811825797,2.5464650141200615,0.46815715535449987,-2.0430397762859007,-0.980784551195715
144.0,-0.47930704903710764,-0.902021704626915,-0.42271465558994215,0.7019081016196882,0.015668893760596547,-0.6168562896830077,2.0180086857692494,3.9455192889920605,1.237567937058183,-1.4051809771899402,-5.367880607522729,-3.326442219385826
145.0,-5.500748627244932,4.0795987347643905,9.580347362009174,0.7224766060938363,-7.495889012536515,6.868239029716005,-0.05640028450060419,-2.305739287552703,1.3330015889497964,3.1334956169526658,0.566479171594402,-0.9100460434532409
146.0,7.617570706322308,7.570848827924912,-0.046721878397437244,-7.58135429640758,3.8012587185683087,3.7183223613040086,-5.739857202892976,2.130958910983497,-6.446232075981442,-2.9819523303204774,-0.5724363458517607,1.6093587605908355
147.0,6.079597313252148,7.989248234091816,1.9096509208397685,-7.020965931111853,2.059105990017275,4.9071419701367205,-5.209027762013281,-2.771364776793179,-6.158664622994575,-3.679464817093252,1.5718689777084016,4.4480518014826025
148.0,0.996554144686431,-4.684047332524799,-5.680601477211068,1.777943297431353,3.31818440234942,-5.14044694911213,6.135113034378417,1.8800804989957713,-2.0699364433929497,-3.7865364981455887,-3.0747033569215945,-5.483591725636121
149.0,-1.6815054309907922,-8.246390941961725,-6.564885510970858,4.974967094766612,2.5044326847949545,-7.356276976226511,1.2390917357898883,5.207495670259192,7.785229569430802,7.913614621251204,4.342265313957303,3.7745017745148624
150.0,0.33746631336450683,1.326367417000768,0.9889011036362574,-0.8237521461248609,-0.339714795915531,1.134977022918946,0.9340409211436775,-1.4312082153486216,10.7163818123655,7.099242648596823,2.3586462361511247,-1.5752501446905227
151.0,-3.7282443930855877,0.47643495760029064,4.204679350685788,1.6314683524068543,-3.981530283023976,2.3209980424421266,5.943622621389143,-4.216670812699254,-0.212840926677492,1.777130825529163,4.578472058787095,1.3374489510676777
152.0,-9.52333550095889,-5.538096797221452,3.985238703737349,7.535311769886072,-6.7733907366520185,-0.7985038298940836,1.7704586225925274,-3.8343860928044657,-5.960982228975277,-6.193778350446561,-7.394777121393711,-12.688025770744634
153.0,-3.345069860427783,4.8755665110778015,8.220636371505554,-0.7589791403638761,-5.807981648839701,6.5175878268729095,-11.725843137002071,-3.236248562108675,-8.403667308145033,-7.018609868354912,-6.372038248052409,6.015455394068714
154.0,10.131829866562402,9.120166256583882,-1.0116636099785707,-9.61513432939909,5.618886851287104,4.089618436498011,-4.8634170946812505,1.4573330018689437,2.0299262964560207,1.207349206191632,8.555218528487078,12.544924989414662
155.0,11.468082772763907,0.91436127846737,-10.553721494296605,-6.17328397100434,11.052630573033685,-4.798913467874984,6.574569766011663,7.864421040880796,1.6126067213406385,0.1908073862966731,-0.04383423100353401,0.23237807165164792
156.0,-0.3555438361498231,3.520746320413315,3.876290156563112,-1.634697029931862,-2.1562911199844876,3.705869815336776,4.079721860145527,3.7937038352722454,2.7608104430284013,2.1200811150430905,-4.773347844388148,-9.48391574074338
157.0,-4.909244615702137,-16.294181548572688,-11.384936932870495,10.559132917215862,3.1964227606786175,-13.842175004396845,2.611947074968009,0.9117709412116022,-1.409686025607563,0.017592309075129542,0.5435156380305453,1.1825943141749944
158.0,-8.996215487205456,-6.551907514024284,2.444307973181327,7.819845816254456,-5.682050101620266,-2.0617329367414357,-4.744400553057211,-6.447503100902872,-4.104507878479456,-0.5757434396696395,4.872173074634485,3.168250679926518
159.0,-14.841945079628026,-3.505713610722362,11.336231468905858,9.228553296470475,-13.048747776059654,3.906879639979575,-1.4705033205472278,-9.14193275484105,-1.3664166756162386,-0.9740599346067536,1.11862793549034,-1.0799116709220815
160.0,12.231771029946202,11.563830195648906,-0.6679408342971778,-11.914731198600187,6.414121284862535,5.4435707384662235,-4.047990014110193,-0.9951019082207742,1.8074451616106901,-5.068076871408322,-14.463698896661661,-17.94211644385212
161.0,12.819201909140585,12.191066076322938,-0.628135832817653,-12.518386739487307,6.690734673020978,5.784819002924301,1.1117560661024304,8.729035269961713,8.87965988264446,7.395926080583407,1.7053891566424042,2.1150619887964863
162.0,7.023600139826913,5.019471336330237,-2.0041288034968616,-6.036025323801435,4.483846609678933,1.5215982605273481,6.659764342253064,13.998293780228062,8.230762184947991,12.232958413191959,21.045108305284362,22.69659755891882
163.0,7.237419063782245,-0.7013868728951898,-7.938805936677706,-3.2893491221692925,7.640085870395713,-4.372560903616877,-0.8738884511988854,1.9197386187219205,1.8223902859805456,5.377241719485884,4.676610449378869,13.855349504937594
164.0,-17.148991257516723,-13.29549807993947,3.853493177577009,15.267875139572652,-10.445747305051453,-4.681969073646455,1.985068804665085,-14.847571111425296,-13.162792558166842,-13.593629899413202,-17.88703589273619,-14.257357716757928
165.0,-19.089038100061202,-13.524300667409111,5.564737432651921,16.258922669151936,-12.347009789325334,-3.929459699291845,-4.023958170708097,-11.885868955944627,-13.76214687213172,-12.741937837936085,-8.679233551913995,-14.021895161903203
166.0,-0.7067904703251688,-3.5993323864110733,-2.892541916085934,2.169717990190734,1.074355760438178,-3.2666994555108917,3.648290662766669,-1.6780852177590262,-2.0735397508736666,-3.0603799872100623,5.569295019110961,-2.5202506232955226
167.0,5.137529701955769,5.724466738982507,0.5869370370269392,-5.425054226514231,2.2559287375729613,3.137043989100971,0.5680146320338353,4.617458687820682,2.019403885200262,1.25455544238147,1.1182902242594965,-0.7544421762746212
168.0,15.040998000012868,8.567236601656903,-6.473761398355698,-11.802595131675409,10.734814558624224,1.0237150059341253,-4.623247644775223,12.328808602404793,8.88839042864609,5.9471722650767465,0.7901648497425129,4.545613659768971
169.0,11.507623109837327,16.812458761453733,5.304835651616559,-14.155491370337003,3.0747050171782506,11.025546914871716,-6.121988684083266,8.432616233096251,13.631488551083386,8.869394161153616,5.293373065170993,7.383640417068002
170.0,0.7023557318408384,11.1844734990507,10.482117767209859,-5.929129666635287,-4.840597036128897,10.865578670232793,2.076402150497369,-2.4219241854658815,4.975292889596212,5.33090907860179,5.351621251934077,5.730658103720298
171.0,-12.270892491738998,-10.042614778826675,2.228277712912159,11.185021254841446,-7.19966060674048,-3.8881895110247418,6.091002073399683,-6.815686242026238,-5.3590264410930235,-5.9230411244952785,-3.8662274684461693,-3.8362413567965667
172.0,-0.1858350827528641,-17.34044613474386,-17.154611051991214,8.727476818310997,8.460453045759866,-17.238666576474134,-2.1959290778855687,-3.0299384042364244,-10.909803472539128,-3.253795785643424,-7.10459142650794,-2.6789580915055957
173.0,1.5746705373788945,-10.551910706611697,-12.126581243990744,4.465372011787482,6.834966971418995,-11.335429108624265,0.1780682381210088,-3.6335505910522623,-7.985859217319404,-0.26285926186375574,-2.0008327546758085,-5.273408385907197
174.0,-16.442664478929945,-1.1306856875937168,15.311978791336191,8.771400487950503,-15.88357696085382,7.09470669283362,7.275200195851356,-2.886685934770307,2.045990205239743,0.5971419059181589,-1.4031667151250602,-3.804856331885819
175.0,-12.095088458051064,-3.523125468176878,8.571962989874109,7.796985659786791,-10.33208879214844,2.5328251187781268,-0.16292017846472873,1.152317490484994,1.7341926808259662,-3.8758547160492256,1.2108410000350316,3.674790155238642
176.0,8.386398658829913,9.637790391671807,1.2513917328417223,-8.946142759943651,3.5724173752179915,5.38085504457834,-4.8400383001427025,2.7337770562741968,1.3705157418386893,-0.9463772979577336,4.797050543694054,-0.06801486362256104
177.0,28.382214612667923,18.639087936576846,-9.743126676091144,-23.52641647636242,19.06540872189408,4.470190885420359,-7.544545863216601,8.491652616554656,6.731805018145168,3.302455746942283,5.307576581246459,3.9951003764985185
178.0,5.726384375181581,5.489068971809871,-0.2373154033716891,-5.627507187696565,2.976808401383648,2.654892677952694,2.133637851702758,0.02815943280091915,1.1386073469263938,3.4735568465913262,4.465519747059785,7.877192542442039
179.0,-9.110520360349634,-2.618541897416736,6.4919784629330515,5.918926907512784,-7.818089669204063,1.893175902201142,1.584727729758632,-2.914686290205485,3.7017515262122633,3.463223656346809,2.823062741791168,5.567695624820082
180.0,0.049589613219723105,-8.78712433238656,-8.836713945606007,4.33910759556343,4.413237258365929,-8.770903187653762,-1.1204470635683914,-3.2604120324290022,-4.875190952200416,-5.473322674884219,-14.413962672046319,-13.249990973410815
181.0,-15.092146637206906,-11.811729401904731,3.280417235302474,13.415900965953053,-9.148684458239016,-4.297721056196263,3.1570870328535148,-2.426709502932286,-6.732403577877746,-7.261846665096186,-9.464408496498113,-13.474983807052332
182.0,-9.817838427760538,-3.824836127343402,5.993002300417341,6.856689681619368,-7.87475356572388,1.1361959458173638,8.57595380131562,-1.8265745975559466,-6.703866154311479,-2.3217451010407832,0.5089575543954217,4.196560932962931
183.0,7.429952491658746,-1.5531272681521808,-8.983079759810849,-2.9892966295184022,8.23557101872496,-5.290124109540824,-0.6848407956991194,4.233954185362677,8.094860728218272,6.656749499606075,3.6595608637929096,9.596092031803163
184.0,10.180298407251268,7.936729910128901,-2.243568497122409,-9.036769135868647,6.165275616217384,2.827497744824051,-6.231641227684088,3.7831885642072587,9.826116962918567,9.835501142231216,7.310532196402262,0.07340928443427064
185.0,6.48287633932639,5.643911253030953,-0.8389650862956312,-6.044850979792615,3.620063778032353,2.3838498135284123,-9.137833491856927,1.7748824489045343,-1.7715522353324138,-2.6324049185359564,2.566987866603883,-5.144902605077631
186.0,-3.5681465789150666,14.45269271877721,18.02083929769199,-5.423116943280387,-10.75030762748762,16.29450702244527,0.1500340674227605,-4.347746891159091,-4.447121110594386,2.1164174495406183,9.521012101376773,8.171144112612057
187.0,-14.468041624638698,-9.89076438527653,4.577277239361964,12.202760819121167,-9.552367155210591,-2.68271020786443,10.373157477593047,-7.147688916361951,-8.051417841958093,-5.351217488322678,0.5004973562155959,1.2410564469580514
188.0,8.576065233637252,-3.558839927143357,-12.13490516078067,-2.5575158807515734,10.406759851558501,-7.879425760866006,1.5260413955358896,5.16893381566547,4.263471777084526,-3.3854728439088313,-8.97196141055899,-3.3621114664385696
189.0,1.6061339542134725,-3.353138238779953,-4.959272192993385,0.8315066613329518,3.254482643425709,-4.116751248071474,-0.1404945673474498,1.9809800406810707,-0.02612883342853256,-4.050225619478769,-9.699513234921273,-0.6232932410640855
190.0,-1.4793870387534085,-5.401311996812921,-3.9219249580594093,3.4826163637664127,1.1897542275553548,-4.706137588624964,-7.596415225994319,-0.6250847143113685,3.2752948440132084,-3.733570728193926,-6.006900171238748,-1.9126407064685789
191.0,12.74059227330075,1.9937704820912923,-10.746821791209387,-7.322139929829246,11.786139820927033,-4.344609991620761,-5.0798535139025525,5.952892606333652,7.114023871493578,8.228662976824406,5.80389556805539,0.9852476643050649
192.0,-0.07840665613859743,1.8441021215886406,1.922508777727253,-0.917215654913035,-1.0417492492309441,1.9164084047419143,5.033267514558231,-1.699913991131957,-3.698723038432534,4.2227983089253565,1.0367433228212257,-6.363117213930574
193.0,-14.834783422729114,1.881773294417941,16.716556717147082,6.438075871210696,-15.742167269430437,9.257728691877338,8.107936283806914,-5.848089765307084,-4.575793195809289,-0.5541580690397452,5.394367886223588,6.059467979305502
194.0,-13.295413817908546,2.1985626448173314,15.493976462725898,5.5820948759165345,-14.363496613747925,8.889392565678543,3.79833987256265,-3.901122906655849,-5.593005721428428,-1.6033009225663701,2.5095217921252244,-1.908840621548531
195.0,-0.4348653439759742,1.6489800703891213,2.0838454143651166,-0.5811152937313568,-1.3076677354525126,1.8363475190827039,-1.9375498122031796,-1.6179722827545537,-5.337111528297813,-1.8014890770272571,1.3053609711711047,-7.590223902215353
196.0,12.650109711967607,-2.898501123875994,-15.5486108358436,-4.93548114987423,14.129875142916038,-9.249884120175832,-3.259719185544526,4.132660282136882,1.2727500418582287,-4.166737202902628,-3.816262581514633,5.75521485414522
197.0,16.32858966075762,5.488540065126878,-10.840049595630752,-10.89360508874953,13.536074515237484,-2.7009606821941405,-11.33963259644502,7.095198854102716,19.65944468292703,8.081402429489996,6.081528207959413,10.593593570499129
198.0,-0.5092386111973948,-3.6630507687452907,-3.1538121575478986,2.101066705218839,1.3519427212664343,-3.356284874142723,0.35911804634602795,0.768963629413189,7.910470017755101,6.502788640659832,7.294387123376108,9.538056261800513
199.0,-10.781369622589965,-8.076836176268039,2.7045334463219124,9.44831765141991,-6.7153242209006265,-2.63722812931322,6.841444555096814,2.1551417284238963,1.307466438066275,0.4056823061283841,-9.282719292728162,-5.455107788764602
