Time(ms),I,II,III,aVR,aVL,aVF,V1,V2,V3,V4,V5,V6
-200.0,0.9212636893814823,-7.911563771534411,-8.832827460915375,3.5397450693397303,4.918079043263562,-8.323553129972018,-5.2850213905726084,-0.1126341574400902,-3.591105059404504,-0.5191869061377536,1.6179256471369046,2.9285917423963275
-199.0,-12.503435315222307,-9.044298402036247,3.4591369131862395,10.746831561997311,-7.949333615632281,-2.815957859094283,7.421219168915545,1.6703639713983605,3.780233992662424,4.076187057697763,-0.5503051223616167,-2.278916542262375
-198.0,6.712952479548018,5.302213870514932,-1.410738609033197,-6.02863256747161,4.088516055831288,1.9278764967956041,8.734153301261987,0.049031571073438585,0.22731186375280155,-0.287889413160783,-2.3867037086449945,-5.408203551887025
-197.0,-5.615273051934619,-10.286702238886118,-4.671429186951771,8.01299682318009,-0.5246974062883023,-7.495278271560966,7.9721486038332685,0.8616395159940355,-5.282777879034128,-8.541143773285048,-8.13309495750692,-7.358112511597236
-196.0,0.8766658658932714,3.1186336181190546,2.24196775222551,-2.01218118740451,-0.6536967497696515,2.6600469721755458,-3.4088630550910874,0.5321783939037781,-0.38955077492293133,-3.4621943160912614,3.479317209840031,5.284767570103671
-195.0,-3.462388085720142,9.727890460232064,13.190278545952003,-3.147417095434461,-8.371412167414093,11.507642418645899,2.40878031794742,-7.3013177130137805,-4.071539481007756,3.139521750292596,4.633966260983143,9.234760629839178
-194.0,7.366336015669519,6.913303503248751,-0.4530325124209176,-7.156859812707239,3.947738061241939,3.1856887518261763,-8.405071858371675,-2.48679275275166,6.833422077229612,6.50574018230883,2.8732765756656016,0.8766995209010737
-193.0,6.596481827624278,8.83991677185154,2.2434349442272685,-7.739272312275905,2.1384046088611957,5.560371829752213,-15.766601100658267,3.956139487596742,17.15742231525648,12.759950780990367,8.603300308699385,6.283694662144635
-192.0,7.553768124938578,-5.1896785517920705,-12.743446676730628,-1.1291123390408722,10.18952662681733,-8.96126799188331,-9.923416018883426,8.657005038794361,-1.675164091733489,-2.1366092171388527,-1.6270237188433274,-3.214381749349739
-191.0,-14.800308737271717,-20.187606784327123,-5.387298047055383,17.463634732736352,-4.745806527823334,-12.790137681257335,12.226462719483266,-2.284293031388026,-13.099168754951924,-9.546784683862162,-11.075840962922218,-11.93574684260474
-190.0,-5.5965616441424455,1.410902081222158,7.007463725364746,2.137543276522244,-6.264499963570764,4.205947791910664,13.235201869356528,-1.3023813751560394,-8.532448759049036,-5.4644039967859275,-2.3502698351930578,-1.474195675363962
-189.0,5.068349118230486,5.122530073065705,0.05418095483549967,-5.132410267550594,2.4650647372123133,2.592211579787422,1.6612509464645182,2.174865982774046,-3.8233603058735905,-4.949519160217868,-1.8513527078667433,0.837009395361386
-188.0,-5.649009571972219,-3.6307472464813277,2.0182623254911705,4.679110488332277,-3.795106826216447,-0.7894022133450227,2.8269904105081314,-4.676987790560819,5.9786818977236,2.826730834357124,2.902757441625778,2.3019822195710518
-187.0,-4.450305657489304,3.213438647225943,7.663744304715378,0.5764148128380944,-6.0921332441412686,5.470973703966513,7.882960413920389,-9.848517580125527,5.418265561453586,6.399615762315233,5.9311444941288,5.406083861506336
-186.0,18.1738468488176,8.75230877204704,-9.421538076770645,-13.507440923390906,13.8494529184411,-0.3668942807436766,-3.3190284675067883,7.8569980556670185,1.8143082477122592,4.1532479252913,0.003907902427455312,4.236565418046756
-185.0,9.716237223807532,4.199177679738738,-5.517059544068941,-6.924883243916601,7.599376503211948,-0.6820230144786643,-13.70341024077765,4.934159770229372,0.5306908246246982,-2.3154330937665,-0.629457487671292,-0.5948204783790612
-184.0,-13.024914608760383,-5.933100112921866,7.091814495838407,9.511817709334306,-10.066508696142716,0.5588661463685066,-11.749821102791726,-0.46507996468183554,-1.5295913873184226,-3.104679582611507,-2.6502083152540177,-6.908888577816661
-183.0,-19.302249562493504,-12.673473563605748,6.628775998887761,16.02253481471536,-12.967454529524733,-3.0463360316466765,-4.095041866817199,-3.472550872830603,0.26317052891727877,-0.005747627371771147,-1.1938275776609941,-3.2280429127997614
-182.0,8.927140844573065,10.688269009017286,1.7611281644443049,-9.84850803308874,3.5826032058688053,6.27223191754792,4.078688560104381,1.1149614810446593,6.73750118463438,5.088119855932972,4.320858624637456,3.6757926118782787
-181.0,12.778681694756187,2.460691007615669,-10.317990687140433,-7.656929651938069,11.544252365708097,-3.8890193952510193,14.440052916318475,3.849866830038791,2.8770240157566342,5.442833790292625,6.666736624429033,3.8395443724721807
-180.0,-1.7434823423833379,-6.8898621855426825,-5.146379843159396,4.360741511610039,1.689316249332693,-6.063338434107668,15.109727583113752,-0.7595833657763529,-16.385814851717736,-8.629029330740781,-5.9440082519633695,-3.9284664359647508
-179.0,-6.58921667479505,-6.625048215365776,-0.03583154057087823,6.573091966804597,-3.2992076497513327,-3.300145046694781,-3.0147643881086044,-3.340776659145588,-5.488703192669128,-8.553007776491897,-8.532429203672116,-0.8080331928358964
-178.0,0.14401185317464615,5.267392566165938,5.123380712991169,-2.6625466196011023,-2.4435639576761776,5.224840626474809,-9.069796884620965,-4.517028895319512,0.5652932208465078,-2.4916507035216906,-7.436358902112635,-1.5373188264258806
-177.0,-2.934324254947515,0.693041649605211,3.627365904552681,1.0817361131565195,-3.2421817108766495,2.1110544010608736,-2.2255121830014906,0.33468240230847734,5.170619493645267,-1.881197770607194,1.6762109547346107,-7.72821152072013
-176.0,5.027496925374066,8.562433210724166,3.534936285350226,-6.759139251763544,0.7029496126676622,5.999193071072809,-3.6886629414831082,2.6926436621341656,4.921606293245448,7.106808814410342,8.3618903867531,5.69303673021396
-175.0,6.336589181168175,6.529212176241092,0.19262299507316483,-6.4790996667939815,3.0300970326414403,3.388508550666857,-3.7174720206928074,3.8574638634117653,9.125223219977368,14.237291941109074,11.357162683889014,13.817655978206416
-174.0,-4.017534269490072,-2.1937239612710133,1.8238103082193613,3.137171779754175,-2.8782174419098814,-0.16036905983201932,1.6616705855552638,-0.193066697240881,0.2769775769850069,6.2836762705863425,7.408618460357466,5.399394352794997
-173.0,-16.0595037127958,-19.104449804975783,-3.044946092179784,17.537145453200093,-6.535250959819702,-11.053943795495314,-0.07357310810654072,-4.575129437992374,-6.7165701741187736,-8.568216642347362,-7.279615172178534,-6.014699994810522
-172.0,4.305175334034393,-9.90318740397133,-14.208362738005718,2.8388589432647127,9.316458917806024,-12.039093326991326,-3.121334571726133,4.838811327637579,-0.9285994801475557,-3.340268410909778,-6.57003328041647,-7.86225052020977
-171.0,13.912670891156525,8.203353977492071,-5.709316913664589,-11.0098279315265,9.79884600887927,1.181129925620791,5.442808311974925,3.6998458263718863,1.932108705097709,-5.350099523297524,-5.124644069792567,-7.278449431551249
-170.0,25.5881281872746,33.737293708214594,8.149165520939869,-29.68498535237021,8.709807755801625,20.953006284785957,-1.978586306186176,5.381769455077941,1.475616183883202,0.5042724246638937,-0.1608875698841281,2.4110642571906347
-169.0,-15.290243858442398,-6.492409395056271,8.797834463386076,10.874271914811146,-12.057110720492584,1.1607379151381298,5.404566400448203,-8.42162952172534,-8.830472941338794,-7.821274901726642,-5.254293757155465,-4.5750450622960175
-168.0,-24.531985278311048,-16.13307592711338,8.398909351197624,20.315147826220528,-16.48745848876691,-3.858847414303901,3.891340851377153,-9.208511914171451,-4.261720569717947,0.7017608868904035,1.3743465337784861,7.001591731734682
-167.0,-5.823362728276404,-6.01633450305661,-0.19297177478020844,5.895784837946774,-2.849380996438544,-3.0938569014632087,6.987781565807921,-6.173461625115082,-1.0092113397309732,3.354791852626253,5.1112337057610375,6.808784768504781
-166.0,0.756804524979457,2.11042400259474,1.3536194776152992,-1.39054649718976,-0.26558552952141024,1.7476307673095786,2.919972321453936,4.948545170630517,5.251903628341234,6.413622652520514,4.929965639896055,0.519503354936595
-165.0,8.781636298540057,-2.51003592770115,-11.29167222624124,-3.184686571047828,10.061873353830897,-6.9575510353015595,-15.470644063033655,7.385094179150602,4.2171105542107705,1.82261972954457,0.19613412220803728,-4.300261398422771
-164.0,-5.125717852576042,-5.911782654071702,-0.7860648014957325,5.538085300696541,-2.145799181593917,-3.3197647595154836,-15.736046108874085,2.0439327238033833,5.080401251999126,3.0300058967091945,0.11280358786198619,-3.1915634499306944
-163.0,7.126114642243586,1.2239663141800854,-5.9021483280635385,-4.159810242532101,6.543281706028127,-2.3032107333415146,1.88019543923237,0.8769121236465693,0.4038513134268742,-4.4998754037444035,-1.9287203751893145,-0.7969509604334926
-162.0,18.632646873752854,20.230950461644568,1.5983035878917655,-19.412358114130853,8.4766257062539,10.877231051821783,8.006897286838797,1.3595907001491496,0.7997126108227526,0.3633865938266254,1.301107901442764,6.5082595995275785
-161.0,8.853456737064123,10.348534295244729,1.495077558180716,-9.569766921896953,3.647986918790426,5.888153668802613,6.247502313060491,2.017471534340561,-6.987712796646033,-3.225135959432312,-1.5789215457433083,0.9125419948179663
-160.0,-11.654649490429197,-11.851108228842026,-0.19645873841259887,11.72149700517382,-5.754140060590325,-5.976712284209188,12.879822034220204,-1.334401429846769,0.3954040897381734,-2.9061541733790084,-3.513335947425192,-3.829590859093999
-159.0,-15.543286243931991,-10.804588970339102,4.738697273593132,13.15837653933606,-10.086482588220067,-3.0641638294886846,-6.2387677283310214,-8.1600836899946,-1.1388055462851527,2.327878161146857,-0.5784041926802104,-3.72324296491497
-158.0,-0.9370811224515663,2.697514565675972,3.6345956881277024,-0.8848388610855,-2.315029629976075,3.2127930336512183,-10.683921387047564,5.781309980265578,6.028701167421286,4.28200991413049,1.6607555437045407,-0.5127953228509365
-157.0,1.936099430977281,-2.3090760627409996,-4.245175493718236,0.18493112649284527,3.130690169069907,-3.3111823178065403,-4.591169999886901,0.41961117622175953,-7.084819892094167,-3.692283390381752,4.0871097756352075,4.336160823118885
-156.0,-9.653234992743752,0.6980989053595302,10.351333898103197,4.470660286917472,-10.052773207766132,5.565854732220723,4.132905521323074,-8.411146445981911,-5.745983656583512,-0.0708943342433101,-1.1013556445491575,0.47816823780487394
-155.0,0.6125719465935225,1.9170594875224425,1.3044875409287016,-1.2835112796660018,-0.329082208067053,1.5678485931308614,1.8757818678786722,-3.6110436628809763,6.513895792040746,7.0451455573836075,3.1376032591328413,5.492377722259983
-154.0,5.196620969814568,-8.917732550407287,-14.114353520222108,1.906187886298265,9.663830875258734,-11.4870899631785,4.990370137651915,5.129763379440789,-1.5996615147472708,-7.7786021594091945,-9.516492351706408,-11.546382597159727
-153.0,3.6062930580690047,-2.1642622158771414,-5.770555273946311,-0.7667768165066295,4.692704045632457,-4.024655539132992,7.31637840286765,3.0545529409257943,5.075578720323264,-0.6889543143723713,0.3786958799246607,1.5773752818939526
-152.0,8.402297891840725,6.910845214797248,-1.4914526770434793,-7.63078937376961,4.951972522685997,2.7249092298122455,-0.3419969457345873,6.6694351235123825,4.57677909568947,2.9728296940459176,6.131640651736258,6.939673505538963
-151.0,3.8955351737483235,5.613456816834024,1.717921643085852,-4.728696383557477,1.0988228186012952,3.6777645804712344,-9.33207350034426,1.2581815219280603,-4.690803856812256,-5.747201079174917,-5.200179910346979,-5.608747222790388
-150.0,4.487946359013812,11.475277131023502,6.987330772009904,-7.9491620375224645,-1.2321962395488817,9.244812704642522,-12.851167583308111,-5.014408618538182,-5.860049220598958,-3.665581132349418,-1.6216844562857147,-2.6024414773619897
-149.0,-9.69951000224557,-2.2781482954267624,7.421361706818898,5.9531613381056525,-8.613239733544658,2.5911966889168827,1.1852141199348196,-1.2870112087328964,2.3164954732455545,10.494354645835493,8.156422292184187,4.313292344018843
-148.0,0.007665621129516076,2.0247101934937763,2.0170445723642016,-1.0408890573232785,-1.0490563528291936,2.0496690885942512,4.925922703272451,2.9615912851539954,8.930670667802644,9.206410905600872,5.881705342672663,7.833927677167279
-147.0,-4.5890196072784715,-7.7315630790634335,-3.1425434717850513,6.143602486173645,-0.6805789715361619,-5.4773588473862365,12.269647236763147,-4.138690428209621,-3.701886507702894,-1.7752742130811932,-2.716349738458094,-2.796946472986799
-146.0,-16.29429447467474,-16.332640879560397,-0.03834640488564567,16.299956853714566,-8.076863820518005,-8.218493700774205,12.291388381698308,-4.311181173226799,-6.142130009190402,-5.387111452456113,-1.1730395525514055,-2.6973532534888003
-145.0,13.11151814782176,8.640865616123422,-4.4706525316981685,-10.812734628804634,8.772220283554777,2.055191704194659,-18.932836831666776,2.9611424253996095,1.4879899435294568,-2.4651943719461586,-2.843094733688699,0.8766893845245205
-144.0,6.364287070330974,6.007020491872849,-0.3572665784578972,-6.2063888748195035,3.3504652385888614,2.8721837851604644,-6.45887424459277,3.102510225847432,0.6391443146655127,-3.4503629459440055,-8.809319739550988,-3.9673550114863168
-143.0,-0.07866187201965413,-9.135665413845341,-9.057003541825617,4.579378923427621,4.4859236054694405,-9.05421846072864,-0.1300811971344169,-2.3461569122205197,-3.6159154346166504,-7.334737772487619,-5.677158713926605,-6.846079812960982
-142.0,-7.934579689330498,-7.632314746170338,0.30226494316004837,7.827883603103355,-4.117695291070501,-3.7087802723470777,5.101286685348638,-1.289303094228263,3.12041963695279,1.315708915484116,4.049167308020548,1.2149921456587258
-141.0,-8.405978960346479,-7.09852592412447,1.3074530362217196,7.713613934524349,-4.856493029730513,-2.8676471561612855,6.689874032185634,-0.9156737300741175,-2.574461588549413,0.388273145533915,4.385240373788939,-1.1587207281996679
-140.0,8.388319145911908,13.370501675110699,4.982182529198525,-10.840497669045448,1.6975987693851575,9.12019665238857,4.8963516712418915,6.587587961990086,4.596818103268121,6.880276831568678,7.83104068500766,6.649146278095142
-139.0,11.13084904577319,19.278431285159535,8.14758223938632,-15.24248620809098,1.4755099310440938,13.733581256231794,-6.301150570624568,2.628502891016346,6.463020135729988,10.831156080921032,5.890461130529533,11.683563237671446
-138.0,0.18806563690681788,9.678695613642958,9.490629976736338,-4.887968923747634,-4.603087445553779,9.60727933386827,-0.6677495160716378,-4.907417089901353,-4.396100191133405,-0.33457777972587266,1.2612858122759856,2.5742639921010806
-137.0,7.748893274114952,-2.8870724881626506,-10.635965762277394,-2.458341353570202,9.14561969588764,-6.732832701480419,-10.648693973775767,-0.4808630576453927,-9.37893190801915,-8.82785207346598,-13.055867179235282,-13.162297937936751
-136.0,0.24944417781532513,-7.036543828974723,-7.285988006790004,3.372227600809353,3.7839888205967434,-7.202209200800546,-8.019663197539861,1.1414077753130325,5.500208846005458,-0.005668160721341131,-2.1142164699111223,-6.38594373013593
-135.0,-9.863703578486742,-10.007384591465676,-0.14368101297901958,9.919533760418378,-4.85634260814628,-5.106001294281934,4.671270683837962,-5.410686005875939,1.3604481915206514,-0.11174711788063707,3.3188762088995034,4.8529768236332895
-134.0,-14.158896074144467,-12.336631624659292,1.8222644494850546,13.314309606563963,-7.994330993751921,-5.1990745242123255,13.840205197102609,-0.2316027818904267,-0.3615718007544928,-1.5272616859033543,0.013274926555976618,1.5972282528591373
-133.0,-0.7611489497867661,-2.392118041202834,-1.6309690914159636,1.566255777959654,0.4302857800363782,-2.0248806404853186,16.65486578306098,6.95656509727606,8.171396380775796,6.06399454486507,5.862787082133682,5.75057313143123
-132.0,-5.877415508645192,-8.834026531925058,-2.9566110232796365,7.344945743579544,-1.45906669161537,-5.905268188941967,-3.877083901966696,-0.3436460244791735,-8.903384706159613,-10.425985730776134,-7.129177050701076,-6.454784303775447
-131.0,11.716000188703251,12.443227512246889,0.7272273235438566,-12.092864833032353,5.5075928780841,6.574114681779843,-11.624182395899005,0.11600904876683937,-0.26153411452163366,-0.6562474722856633,-3.565091772177255,-3.0012045599683144
-130.0,13.763296145093953,16.55456211821316,2.791265973119236,-15.175996236087578,5.515000078886718,9.656344541892487,-9.446000723336951,-0.7377712288240138,-0.8214807137408581,-0.6050360036685596,-0.5329492499737954,0.24364418669512444
-129.0,-3.4142019443691956,4.01902773973408,7.4332296841031065,-0.3233446303456873,-5.456434141031641,5.779622617643745,-2.404374259478587,-7.205100322622783,-5.541870569916504,2.7765466903047322,0.3855447743335817,-1.0487647247809284
-128.0,-2.600371686838619,1.827946788164967,4.428318475003224,0.4415265672824291,-3.5313423725165642,3.0925397154371055,-2.1113088088977348,0.23867292972344734,6.244806171570465,10.292769986309732,11.926712795640011,6.934004554461095
-127.0,-5.887414002690951,-13.338225551056494,-7.450811548365895,9.589070796510683,0.7772133209761423,-10.361611123628009,8.459575760573872,3.1313886883542947,2.768048819254613,0.3287215978940292,3.634924848371438,-0.2543749392362842
-126.0,2.8659696993345944,-5.962638474056882,-8.828608173391599,1.6049026584960293,5.851272797437439,-7.450035882816269,9.413913780846656,3.9624620286076446,-4.323207036104262,-4.286348190575618,-5.699431225872059,1.2093949221302462
-125.0,13.027803566892368,13.633393618781124,0.6055900518888517,-13.350820977896854,6.219607686344299,7.138148107965495,-3.6066853169347617,8.418668038281776,6.948634166430246,3.535923352199256,-0.46263408053358024,4.068902763842502
-124.0,-8.606885909610641,0.7264658495838907,9.333351759194777,3.9202870234516176,-8.960505487952709,5.046380017299971,-9.612863083997222,-7.410207524250617,0.6207632377190617,-3.7844128383077558,-5.868958078544822,-4.500850189151086
-123.0,-16.289242364392205,-17.01550479205896,-0.7262624276664904,16.629473975727212,-7.773670237598724,-8.853250328922,4.174926093510663,-8.924870346579095,-5.968809856744413,-8.95793850986322,-4.510933158634961,-8.502975442567859
-122.0,1.5958596619126437,-4.885949901898158,-6.481809563810623,1.6155752090607631,4.0421415911624585,-5.662579093819412,4.604130138797986,2.5902482157975673,-0.6334283752288625,-1.5864426337977764,-2.2079590273717935,-3.42310256154005
-121.0,3.914150534402255,9.52798555458746,5.613835020185226,-6.680715481791351,-0.8537895787695375,7.5184738869363095,-1.1180353231730136,1.3697884621193166,8.400991958454084,10.999942144623116,12.25861993488919,11.53528696107119
-120.0,7.757815322622151,1.9630336549622003,-5.794781667660028,-4.829033178156767,6.762502383657293,-1.9628998639427007,3.4312209677563286,1.5575248631448488,-7.828330383263738,-5.550060400708038,-1.4205892305999797,-1.4556585905399766
-119.0,12.712559899943455,13.2473208147673,0.5347609148237991,-13.033795958854874,6.063383130627301,6.928157237547032,-6.095776832712159,2.7757995064139767,-9.803386475175785,-1.3743310067192493,-1.1560775546619606,-2.488246981227211
-118.0,-6.26689802605889,3.744064892627202,10.0109629186861,1.2840301673621584,-8.097834581152153,6.919977475867392,-4.916574951170672,-1.7795731716487284,7.747822704909559,8.471915373842878,0.45507188844372637,3.1894945528718557
-117.0,-10.975343081820942,-8.796751071319841,2.1785920105011445,9.911008373369851,-6.625243453758163,-3.340174575879651,2.542212679304029,1.8631481323899963,5.464436912726134,-1.085007757273217,-2.1051979299228814,-2.6907373261072163
-116.0,-4.550159647104721,-15.938426431272378,-11.388266784167733,10.275215768562026,3.4422278074728787,-13.61122274934717,4.877325638135968,-0.8259472872859106,-0.8461418676115255,-2.400842481863246,-1.8193868174023808,-0.9476523324459545
-115.0,-2.9631188358925393,-2.845787868328472,0.11733096756387607,2.8642264141700995,-1.5200772499390114,-1.3880421229938156,0.20772883397855857,-3.5151636218305136,1.176008250912398,0.3382146608031622,2.5910018612793126,3.2879521800912697
-114.0,14.500846923801976,12.946842504488794,-1.5540044193133729,-13.75690077405231,8.048408418982591,5.6730153764434945,-1.8335981824429954,-0.6711793496143956,-1.21541606604919,2.282171217560214,5.285163375620636,4.245800596403614
-113.0,9.307597664418173,4.292541576306874,-5.0150560881113835,-6.827697534378633,7.18526374691077,-0.38653770081133443,-2.0210382797974225,3.9866054806603834,-0.31836757268068583,-2.043233085638721,-1.5700505458026393,-2.472497216062645
-112.0,-6.873918401240589,0.35694145298453694,7.230859854225237,3.3130948566129064,-7.104521888188754,3.7657383252052075,2.964744828749109,-0.6109106791714445,-1.4085802085930492,-5.467885151837157,-2.459759194477323,-0.33798746742217634
-111.0,-13.99984981896557,-9.698245356936729,4.30160446202909,11.827054082584677,-9.202434247379122,-2.6495468163074594,3.4109519414164913,-1.8700118148103249,-0.37925630743200567,1.0975137786641178,-5.447151117332647,-7.767114607906239
-110.0,-7.797857757840898,-8.697678737890495,-0.8998209800493608,8.306083317478341,-3.424496057432095,-4.748788890010663,0.8863289644294681,-0.7296415452803644,-1.243073549013174,-0.10717631059405365,-1.5614722003067314,-1.9128462985598342
-109.0,15.562196952332492,19.149284660373937,3.5870877080414907,-17.37488791049141,6.007410612507533,11.344413560134967,-11.5491361622107,0.7568323798019676,-0.6005527458608125,2.8190090781912924,3.1238427572545557,1.9684640670961686
-108.0,5.87117119691619,10.27872411227689,4.407552915360614,-8.093271316163086,0.7466255967053081,7.327483066939953,-2.400710520981733,2.0858204690566478,5.640658035280728,4.431125575083053,6.990572650918322,7.892093174926734
-107.0,7.3315486503052725,-0.10682264913480033,-7.438371299440247,-3.630699897941523,7.396269196218483,-3.7790631506712957,4.463060242405184,4.7909583247596,0.4013744210125636,1.4216765433482377,2.897379630724112,2.594116580941633
-106.0,-10.890829222176848,-19.619453378809613,-8.728624156632945,15.235838766418176,-1.0703865778146016,-14.17284344458109,6.329428861452754,-2.615780790170064,1.0524760565972224,-0.8999951871427339,-2.459210822482211,-0.965326224681756
-105.0,2.1961182507117405,-5.50873483255242,-7.704853083264211,1.7141741428948558,4.8853983773046865,-6.601815131831241,0.010839060630299269,-0.7572563587534132,-8.922794377350423,-7.1150050165771495,-7.550017610900638,-4.098334890404063
-104.0,-16.65058765846466,-5.965945808968496,10.684641849496288,11.285835109650524,-13.64750740937734,2.3627804944648805,6.445851754076302,-11.11509013947645,-7.6652736998229045,-9.580818034707661,-6.817219058130974,-5.78158818044435
-103.0,-3.5614179251451947,8.71125827778905,12.272676202934436,-2.5982116947871794,-7.8875668767556775,10.488346436117476,-3.762926714169457,0.37815291499350545,8.708889172469757,8.38632680162965,4.267356353133398,1.841357114174305
-102.0,9.566414553477424,12.098806624842696,2.532392071365387,-10.776925162328808,3.478985342782715,7.300585300637699,-6.522760858315452,4.790499469333751,4.312392885251342,3.8407655809210346,5.279536094373867,5.151215313686577
-101.0,14.397526115733346,2.4818823615213566,-11.915643754212045,-8.461389984005503,13.208888798185255,-4.745393172088049,-7.150604232749492,10.783643411712415,7.205210697976726,7.07305360600446,6.070007194718052,0.8523088551067439
-100.0,5.757746707227365,0.6169270930582686,-5.140819614169258,-3.206666574920254,5.4328927622864285,-2.22462887970761,8.037316568775264,2.1986039176906873,2.9595149458861676,2.056418359823915,2.6479158003034877,2.551526851318644
-99.0,-13.86674381777684,-8.044881189791713,5.821862627985077,10.939556041823515,-9.85395596802082,-1.084208039069909,2.997674364071044,-9.898108807728846,-8.108632071794013,-7.592196092003619,-3.9639567484959564,-3.835919287460007
-98.0,6.027432796135209,-1.943359138083041,-7.9707919342181395,-2.0548129063768243,6.991694008638835,-4.935579156538085,-1.1058817683056672,0.09021735065729697,-10.739261883939172,-9.546567665967139,-9.062707058594967,-6.710226348880986
-97.0,-4.8069249462913675,-1.858522641903848,2.948402304387767,3.402056483362686,-3.8874643922345857,0.4861918740480262,0.1698788017953372,-1.5887409954992804,-5.86630200978434,-3.6061435105477893,-7.7665801513636765,-5.386965043027646
-96.0,-20.0749635244115,-8.607018320538582,11.467945203873187,14.333844452354011,-15.78716292504668,1.4525000121855758,1.7261161434997536,-4.433642610392692,7.7257314626398985,8.41944792257588,4.086233895352209,7.239803450370319
-95.0,6.493629933099042,1.8227014357317555,-4.670928497367238,-4.165492179129434,5.637883099069494,-1.4763798289613947,-6.8981894320761015,2.5634881778124528,8.900901700578432,7.226706831375122,8.135655599235175,1.492175610048244
-94.0,13.065376740061007,19.130370622987137,6.064993882925956,-16.10912355628799,3.4703511276862073,12.629946357454827,-4.465055708545694,5.201226444909505,7.577584137071659,8.277043003844375,12.069717790906815,10.600900168038153
-93.0,16.237832135925405,14.139988482862496,-2.0978436530633155,-15.208335860804194,9.133882801695611,6.059435039104816,-0.8925538404784963,7.636832712918855,4.213799134262666,3.0086251973893123,7.125486611522482,10.402643763859484
-92.0,-2.0286783740763994,-8.839319249884802,-6.810640875808846,5.4029549222575675,2.435062623644793,-7.860060178702544,12.620386967539321,-5.407400479256233,-12.552053062078475,-13.293636791201653,-12.915551009215053,-6.801439685175325
-91.0,-1.209142652203251,-7.905538698342388,-6.696396046139277,4.592106199414213,2.7899340696262236,-7.254018580901886,11.301745663598457,-2.6972213875752082,-16.778624826841632,-14.176424165160475,-12.871058824769872,-10.921074196166172
-90.0,-22.212870502600165,-18.601447122018158,3.611423380582187,20.430489325541835,-12.94098269552655,-7.526650845901277,-0.8114729997378962,-5.373633339355226,5.42203526947187,-2.5581501966689073,-8.221559943135592,-17.468644050779172
-89.0,-11.776805139338503,-15.929215366006087,-4.152410226667293,13.869035883259173,-3.8380194566588104,-10.075848528765672,-12.838612735966413,1.8762297350902633,7.1081279984285075,3.692668390428194,-0.90238047765573,-4.260105411285185
-88.0,12.629569927697414,10.342041905933785,-2.287528021763414,-11.550092039196487,7.433684002167047,4.0646366627851584,-14.542671453477611,3.45901377796029,7.104227473123,10.71205592419545,10.795431733630124,9.837028074583634
-87.0,2.5024190437508693,9.587398591707256,7.084979547956385,-6.026121473752414,-2.3175292393921434,8.2872561785202,2.745262050727442,0.6716442450267732,-2.301915461259993,5.346790832921372,7.05968198897716,12.046126218860984
-86.0,-0.16907588436406495,20.18893281623633,20.358008700600365,-9.982351190570489,-10.213861446569174,20.296802992711417,6.859036294353034,-7.391050788947659,-2.907095509857898,4.377519962489506,9.701947102685647,9.573947831370573
-85.0,3.32925247448469,6.11205505391924,2.782802579434544,-4.682539280811625,0.32012589548843784,4.467397013815513,9.859147607836896,0.0002601786804234951,-6.724513505005861,-6.237252989381373,-3.471917773102125,1.6073231478263539
-84.0,4.421181009170108,0.9711016718096421,-3.4500793373604406,-2.7278451989313774,3.9022875492370424,-1.2188341683417812,2.2396139994758455,0.5027304943885174,-0.04342487923342153,-4.047252141538001,-5.951210879616815,-5.463339241265118
-83.0,2.453901573557297,-15.463743040744092,-17.91764461430153,6.477596825499837,10.152738627078167,-16.665896673023568,-3.995890119349524,7.350860012547853,9.264847310790486,0.6056004087634435,-5.242711944821548,-8.081479947698512
-82.0,11.704697299654834,-3.363829105038901,-15.06852640469398,-4.199378150970859,13.434192104476486,-9.26437262479325,-8.216223698499256,9.060403144257862,10.221256372925868,6.167743197314053,3.589144197983634,-4.908911854278976
-81.0,4.920077878261346,0.030769126012520687,-4.889308752249052,-2.432556933104225,4.876217217053382,-2.472337350071334,-7.51041110707795,2.1294103690446837,2.1843631730008215,3.83750229202691,5.814672300152562,5.250016875003983
-80.0,-11.259385543272773,-6.138240362603204,5.121145180669541,8.653300224265703,-8.216089344062745,-0.4700662946994527,3.557723244902852,-5.1297396817979735,-10.09746186899332,-10.021495728807324,-4.360606421466276,3.359566623988442
-79.0,-23.286058951335896,-7.793598502081675,15.492460449254425,15.564369047131194,-19.334484858740858,3.887847480508341,9.357656234571898,-11.097577708562532,-16.77136477521075,-12.795243157153799,-8.575728839884995,-1.90653106693896
-78.0,-6.432750909143069,9.88012151501411,16.312872424157433,-1.7036429734264429,-11.396264875273152,13.053969804595662,11.675167653937294,-6.140244629613283,0.9755735077766241,2.20916824317095,-1.4284259881370909,0.07122047803880083
-77.0,-2.6784011469139406,-1.4685658224583653,1.2098353244557352,2.094936661985848,-1.9686140185147183,-0.17453143997986054,1.258762902923821,-3.9805813130916214,0.2773902168202771,-0.039278831221879695,-3.891663616648505,-8.760865024284387
-76.0,8.291351143956666,-0.16343901796978066,-8.454790161926564,-4.035578902989356,8.424785009926197,-4.276626057933231,-5.657136565489914,3.409969516053325,7.492755858850875,11.026909379082893,8.410262645857056,0.909636905196864
-75.0,17.052496665697124,8.382271752651047,-8.670224913046367,-12.757464125831799,12.830663194257909,-0.10959494293043082,-16.643132753712692,10.875409843449138,9.141284894651815,8.379740752271374,9.864583671335962,5.444006925956471
-74.0,2.3644615975078285,6.22969092380872,3.8652293263006667,-4.326300440023487,-0.7852217946434976,5.086861477953362,-4.975751624740032,2.141894650234332,-4.728643687748047,-2.5574023684172786,0.6493281936051334,3.3370962554917663
-73.0,9.23409276588967,4.401797952982539,-4.832294812907186,-6.837977393973016,7.0732822979866405,-0.2478564394222999,-0.6316847682267315,-0.16407941753447997,-2.50935021942745,-5.370941295429494,-3.4018507797656694,0.8996625595665093
-72.0,1.7052340791548564,-8.827628328104291,-10.532862407258968,3.547786926679244,6.156388072410861,-9.706822061393904,12.078546499915097,6.612612035705723,10.569582974383508,7.81291754654119,3.6198662400152903,8.664295796960765
-71.0,-2.897457999180523,-9.272590625830013,-6.375132626649185,6.154741303742404,1.6963006498081548,-7.847524161995086,4.760074914395396,-2.2023709483411444,1.899753948035898,0.8496884075310236,-2.7523213280235534,-3.0891971352381313
-70.0,-8.905062341730682,-0.6072576230129201,8.297804718717988,4.750105245984057,-8.64320826135701,3.8988093898432368,0.49500194668950037,-5.686665934184868,-8.582069029253521,-10.576599068703274,-10.766325618046107,-12.381224094313788
-69.0,-17.425643315536277,0.8328073887268967,18.258450704263208,8.292516715669636,-17.802437255697633,9.514677979165603,5.440938799501518,-4.433979675417998,-6.496728959621898,-7.101533799165597,-1.36010503202594,-3.9264570358120254
-68.0,-10.537551736244634,6.241710360939826,16.779262097184308,2.1452594725196503,-13.614616131653332,11.47146552163431,-4.496102883111242,-2.969160800481207,1.177872014891336,3.4525248725964275,6.993378803403665,5.300767455111187
-67.0,-0.7272563434823311,-10.881304989556305,-10.154048646074191,5.801333078676381,4.683499348978105,-10.485538679785723,-7.4430313329504,-4.945147710161962,-14.48156483419032,-8.874419887926708,-5.362839787838944,-2.8306979572308015
-66.0,25.608422403304175,8.287751332580509,-17.320671070723826,-16.953509082882498,21.43968406771569,-4.488629000647955,-2.8514124130147307,7.170498028464889,9.26888205702047,8.732886218474876,3.0427684298583637,6.622978576455576
-65.0,16.007415410000412,1.8770187091869515,-14.130396700813476,-8.952508769223986,15.048116793610884,-6.098054270714336,7.67397719854192,6.383425195891082,6.777789008379603,4.276981226954532,1.2747138058364778,1.6329990377315138
-64.0,2.4428549885848785,10.089743118514516,7.6468881299296765,-6.283326268486499,-2.5417120166193357,8.82437927677271,0.08073692744737393,2.9817033356463014,15.100995715029189,13.589027120576418,8.280259846854857,2.111142593093897
-63.0,0.5500108634315799,5.793676334828409,5.2436654713969935,-3.117515568644594,-2.3652232082995157,5.484990350097326,-1.656214148304819,4.840274537738197,1.2651494178589031,1.5010608602602291,1.1250660021441292,-3.7677942294725275
-62.0,-26.13385129536142,-16.119937035153697,10.013914260207905,21.095955806964945,-18.094906036405764,-2.9960088435831738,-0.36535147648189403,-9.046464388472398,-9.508238024895087,-4.3250555810573035,2.030458970644965,4.4576830334614
-61.0,-17.79815354939882,-14.3816092302956,3.416544319103301,16.054690453759477,-10.555060661952332,-5.493520915562443,-7.19568857699086,-10.18057222298211,-11.008188065445042,-11.599836859490928,-7.674869198418545,-2.9981510186823765
-60.0,5.98168212432226,-2.9885751216669494,-8.970257245989249,-1.4542142462860363,7.4415629446831435,-5.983449223662129,-9.366227935146973,-0.31613057154432234,-3.8598445887297848,-9.862428491933196,-12.28366731500349,-7.902029601833248
-59.0,3.38423707511764,2.9058348833821706,-0.47840219173556564,-3.1010445554820527,1.8873999208306782,1.2110744122640997,17.909462779575424,4.733389864843149,2.1674704511791303,0.5063200468446061,-0.13124966199667476,0.6007400315434914
-58.0,15.422428423850263,10.219389055307516,-5.203039368542926,-12.85224463200223,10.338057908154653,2.5009898721670147,13.673515754437531,4.367884930388744,-0.24869134632261347,0.02275614875005283,0.7069776905724268,-1.8583403149910502
-57.0,19.546787213640876,18.123251476230394,-1.4235357374107294,-18.86282395777412,10.502870484681376,8.333419339042967,-4.286517020628312,4.61210485022556,7.178114850041906,7.96012743567741,4.8799187199087095,0.43214041169577433
-56.0,-4.019963437959623,1.004115105328287,5.024078543287721,1.4821633718691576,-4.508413106066535,2.986214561795767,-4.939240622894671,2.828785253165405,5.5786187110327,6.636400039355386,9.22890234330201,4.7504006765256275
-55.0,-11.609245536607366,-10.669553133875766,0.9396924027315547,11.191945200176205,-6.260613292407324,-4.824688444804263,-6.742489080695154,-4.09255932091832,0.5207413211091536,1.8614971622254028,-1.365967087252404,5.332998282726548
-54.0,-9.352915256461067,-3.3888131590572925,5.964102097403763,6.341511443089879,-7.718967226896239,1.3205060715766703,-7.52966985796169,-5.085454472673672,0.1819114831053119,5.869374988802106,6.6201521452873555,8.010399251348309
-53.0,-12.854569138187006,-7.539363192415738,5.315205945771251,10.240952570746508,-9.058985275193274,-1.082354135340326,-1.0081766489178703,-6.8040935132199,-8.76754921892531,-5.354852643912752,-1.9682319288563463,-6.834915287030979
-52.0,-3.0482587743643412,-1.933353016718991,1.1149057576453707,2.4492628576705444,-2.046425399783086,-0.4577604178892103,6.460702763205348,3.265505248259636,1.4992031343395658,-1.3253490988528345,-1.477580598777518,4.369518607586972
-51.0,27.902513711253153,7.14728144729129,-20.755232263961844,-17.49464709765435,24.294492691805946,-6.850075138074171,5.421837641343963,8.067325000185463,0.44294419251155537,-3.31926017996246,-4.615705741067696,-4.058642306639126
-50.0,10.995810784252695,4.346091835985302,-6.649718948267321,-7.72521448049891,8.796047178269557,-1.116592527567894,-0.6609241618672774,-2.0073922539202202,-0.3932190845860162,-6.710891978610764,-6.811915791572284,-10.939950620950482
-49.0,6.506284615099172,11.032026000600586,4.52574138550147,-8.74790039048508,1.047346436012269,7.815637559003784,-1.304296068160232,7.578160684485775,4.13488657324197,-0.0719454255627543,-2.924943853626586,-4.780465734702666
-48.0,-17.807895523053226,-11.84030600153518,5.967589521518095,14.84560516130189,-11.907485257281829,-2.978030415214838,-2.7870244784670706,-3.977004200476127,-2.880936302644494,-3.5057648387292204,-0.3641948831783539,-1.7736729466132388
-47.0,-28.534681588359327,-17.149279562602725,11.38540202575659,22.867383993394327,-19.980869335589325,-2.923739426074051,-1.4335444542929223,-9.692790387506324,1.512625366635501,4.966889272896597,3.16103443937157,6.818444312016864
-46.0,-10.291686617400568,-5.398810225809587,4.892876391590932,7.79864966311423,-7.616662805875966,-0.215351507179518,0.6675325584341232,-1.039743131720737,-4.8322478490649186,3.9959443337010647,4.427749769948057,6.009014250399525
-45.0,-1.462915258638615,2.809057956107295,4.271973214745893,-0.6329101008708111,-2.8183451738311844,3.5806292863254714,9.493268126823622,-1.379036333117663,-3.9776033043684094,0.5558078260887358,1.0893465856254139,3.4464241272333442
-44.0,30.113034195675134,24.46688703431276,-5.646147161362248,-27.321152579376687,17.92236843960773,9.376190501793271,3.2749787662317695,3.264060028001197,1.9498323697277826,-2.1567861496382235,-2.360630735135421,-1.920937566722623
-43.0,22.81142660835121,10.260370310444662,-12.551056297906383,-16.56189158797196,17.63832694064955,-1.0954623687345642,-4.875493380934404,2.0981232169431214,-3.654748591779659,-6.115808442354633,-3.560519967280415,-2.4078173204331716
-42.0,6.056255614277514,-0.8756891941753819,-6.931944808452907,-2.535402088631436,6.443947351761981,-3.928554222176264,-7.686756582405428,5.660796348951741,12.28926947800184,15.014369985038503,18.468580286641554,8.751020919060753
-41.0,-1.350454352441074,-5.783412971491532,-4.432958619050726,3.54207548860748,1.5627835287903502,-5.132084789150347,-3.0006168179533557,5.271811720100323,7.83444762491486,7.088393825529276,0.4323811080024771,-2.6879569068101192
-40.0,-20.038116551992875,-12.61288349464628,7.425233057346188,16.297197775156633,-13.716358986661005,-2.621396610051907,2.1196812848440736,-3.169829491383107,0.6396340683350492,-2.278227329524678,-3.2098292018338013,-1.2913867629957339
-39.0,-14.021290960930045,-16.664561996454278,-2.6432710355245037,15.388514338347347,-5.678409693081905,-9.610592427174712,3.7769400503241104,-0.17413182728035315,-6.0765282154614315,-11.96020431096771,-11.428544116961215,-4.11186552828522
-38.0,-1.8507095545023677,1.072579065366817,2.92328861986924,0.35065220836432864,-2.3793221710979378,1.9523379070550977,-2.163192403792955,-6.796750265568321,-9.132303274257936,-8.84182123418817,-10.575770179038933,-7.753381230478179
-37.0,0.210809481002455,13.431878023250375,13.221068542248252,-6.78598553993621,-6.4987539083390935,13.34989082184097,-0.45360970062237804,-1.4954161248688624,0.41921238139335504,0.2910710979454638,-0.6933417217071813,-0.9823927630578231
-36.0,2.7370786326998493,10.835653689148405,8.098575056448928,-6.755554749265175,-2.67442344345412,9.483838799918072,2.467190274972811,-1.7122942488468111,-3.6804152291513352,-0.4596060077275443,5.529757728782903,5.392863591584447
-35.0,-1.086867432618261,0.23200247452448863,1.3188699071430625,0.375214407837114,-1.2741925979007132,0.7900113138008109,3.5772019664841617,-6.309110282159053,-5.401117312247609,2.8296207618858022,5.018301577708563,-0.2500195072217357
-34.0,8.147440766458757,5.132834154501872,-3.014606611956754,-6.617663376462952,5.591210014541916,1.0759518493152775,-0.06787073017397982,6.145375965342904,15.316784871084334,13.201831458004381,10.476397135110687,6.974098565912801
-33.0,2.2547437700197177,-6.679244142920887,-8.933987912940616,2.1526479039929605,5.609943216764483,-7.8634771569364785,-4.031731068812896,7.718652531068466,0.6223778513081264,-0.46586838388567564,1.152687215336286,2.7879137724659477
-32.0,7.088709300446704,-9.697477841165307,-16.786187141612125,1.3220809206536126,11.961847629396084,-13.214504452938227,-0.7732313811135745,2.618113169586186,-4.384896663751176,-3.479289723884538,-4.131572377881447,-2.9521192907833944
-31.0,9.034174609851085,-2.0439266477744296,-11.07810125762567,-3.4756759917819275,10.092651803535125,-6.530053988068089,-4.677697968667983,-0.5036745335498911,-1.8038793910006403,-4.486539731985195,-8.552793713261329,-1.5567751856243204
-30.0,-11.351955569528764,-2.429206723780661,8.922748845747925,6.915703292092678,-10.165637566624987,3.1996881813836016,5.594236738028675,-6.131158635588015,-2.4447298187068247,-4.79759509748223,-6.287538853532494,-6.050674948891301
-29.0,-11.732834682865018,0.1492143789854261,11.882049061850282,5.825992177832655,-11.822417854637852,5.966757814637836,2.9997806395216644,0.4790168591513817,7.412539622184509,2.882684140063941,4.50986502875031,-1.9353928223622843
-28.0,-11.383716165331686,0.029775280828783224,11.413491446160352,5.642998518053453,-11.403579772688445,5.749021573869549,3.649386311584303,-0.5501249007175892,-1.114394504966178,-0.5252267833468742,2.1540586879577965,0.7053964032245523
-27.0,5.1059794194046555,8.363884861262541,3.257905441857911,-6.759293922245746,0.9238317931317388,5.837429606688891,-3.6506299817293115,1.8333473005615393,4.378787175437479,5.649141695757557,4.94508160093956,6.365487391821502
-26.0,13.902834854019797,14.026924174216195,0.12408932019654983,-13.982829822015304,6.888166527774504,7.104489346271983,-5.082000900324889,-2.371442295750493,1.7530274147181375,9.252925221112818,8.546105253723884,8.358411674551736
-25.0,8.36543137742062,2.8748991462746227,-5.490532231145807,-5.636044422150028,6.920952623144638,-1.272983343823154,0.2861646440776626,-0.17267518415618166,-7.0262288326361,-1.9213412829562206,-3.5904236657113944,-2.7002126738681493
-24.0,2.8749434070801767,-9.452311252525025,-12.327254659605,3.3493836739516873,7.585484670266002,-10.925975876395631,-0.11575702849401015,3.840693095331332,-3.8315207561775093,-7.067484024988042,-5.542714318095136,-5.727534698733986
-23.0,-18.613989559113115,-26.230881980437893,-7.616892421324643,22.39893704986571,-5.4443018004298205,-16.952801836771663,5.998922362736503,0.13094812397347333,-0.5218235988383593,-8.862731915658149,-9.614243326227587,-9.0170762559006
-22.0,-1.3947086483588729,6.407127434675167,7.801836083034217,-2.4583920731785067,-4.629878989020569,7.080532679627837,-5.817337776859272,-0.4186010088429226,-1.3460669386771382,-4.237745546041802,0.007247888784438494,1.0781519655547056
-21.0,-1.0230847847124553,2.2284413210184244,3.2515261057309894,-0.6417490176466205,-2.0942922301617113,2.7181747366270828,1.3005743670280654,-6.520127014880288,-3.7116928875960356,-1.2351289871986055,-0.31693514085598995,2.9722659045201056
-20.0,7.293281684061057,7.374288812220191,0.08100712815902122,-7.380478511217753,3.569411930392272,3.784809810583043,-1.5357160452669463,0.5531222298929424,3.6677031689542137,8.889187593734283,7.387897267546761,6.015476490051757
-19.0,0.5914176030590901,12.511399054729331,11.919981451670008,-6.525276674301589,-5.699457693088485,12.19399394253623,-0.7619576457183815,-0.09823183138109703,8.969966949729555,10.87891665229526,8.217129518791749,3.212365445535736
-18.0,3.692376494709289,-1.303390653859033,-4.995767148568642,-1.1715970703157401,4.39073966305728,-3.091718581643386,4.660940093898332,2.475969986519123,-3.153499596996511,-3.92934731113189,-2.713643924607791,-2.598127082097661
-17.0,3.0862686977366125,10.97986358857503,7.893594890838109,-7.010255859159718,-2.432200954671994,9.417745871564225,2.9432769147800437,5.213247110819757,5.669533549909083,3.760371224879509,-0.3428027200626301,0.9573888432708306
-16.0,2.406875751970354,-2.624881011350732,-5.03175676332129,0.05576556974520691,3.7724913466885974,-3.845207825558237,-2.424795672262554,4.482616172113254,2.97235774759737,-0.6162769258246152,-2.3004069727082603,-3.1305959477465928
-15.0,-11.116251915874214,-21.073674395056962,-9.957422479182805,16.12477551725677,-0.6034291109091479,-15.531593018378583,-2.9138126311384176,-1.972779436961276,-0.2420837489525154,-2.1460361606031606,-1.7122384679153626,-0.4189864461791819
-14.0,-7.583567658547526,-24.48198790059686,-16.898420242049202,16.066788513674354,4.633186985253403,-20.707826544248427,-1.9080338545045523,-3.6455533845822505,-16.00278270575237,-13.33954426350675,-5.674146115949275,-5.959315749521083
-13.0,7.649781110254132,4.295333728321124,-3.354447381932803,-6.014866148282852,5.476130433969555,0.527262872846773,-2.349114073649491,-9.268982387539976,-1.136503025272309,3.2458991341081447,3.3549902450597955,1.910347958729826
-12.0,-1.1836848534326756,11.759592103968984,12.943276957401837,-5.330672847641621,-7.013079198070104,12.323222681080962,5.91781693592419,2.552026145918835,2.337556154034915,2.2317274870624364,0.1718990849928379,2.588963477080548
-11.0,-7.939639088667775,11.670531724162974,19.61017081283093,-1.832793334585566,-13.805045905706372,15.60552527255237,5.241228210749412,-0.5391136033676039,2.6410492842395628,1.8025874804808728,1.765554324357878,3.9252172267022747
-10.0,-0.141126782502018,10.050957382877701,10.192084165379814,-4.927813441032346,-5.118257290038797,10.160555233231365,2.5360061072095927,2.3273826025880164,1.2792536462580473,-0.8363833877411944,-2.817205102794947,-2.065411204062789
-9.0,20.53941789549149,16.547277285472063,-3.99214061001942,-18.522601676598292,12.236952869210155,6.236478155961017,-9.157793045982295,2.7826738681778234,-2.4531755259405887,-3.0466729182683734,-1.0419135488649163,1.1455488368931543
-8.0,9.26665270977837,0.7136815393366227,-8.55297117044165,-5.053802318704046,8.883923026703338,-3.8790710318796076,-4.9809132376786,2.011627981721228,5.814547919505142,7.159033876977686,7.322117259409786,2.7387871705204914
-7.0,-16.50189018769681,-28.31078625539507,-11.808896067698143,22.417931841742295,-2.2904005776305647,-20.012830565529313,2.718759664189639,-1.86923678562709,2.869261936106182,-1.7126881437321262,-3.137110971279051,-11.47535701439741
-6.0,-2.9093555095105748,-6.277404878107438,-3.368049368596761,4.604568042570984,0.2089656812118288,-4.846766852986979,-3.358941649393307,6.951515971697972,9.029972912231894,11.71390858801719,9.160710845692103,8.122299562339915
-5.0,3.57701492453484,0.5477145804114247,-3.02930034412343,-2.048087975968789,3.283096378368706,-1.2588614588411469,-2.514314284342304,-1.8280190713263436,-1.7049311500299396,2.6276472099343318,1.2936443580400696,5.74432603376747
-4.0,-13.74980896263914,-12.184389191297585,1.56541977134145,12.98752338370528,-7.67962398214828,-5.325791591907868,11.6688210408758,-7.1879231083311375,-20.145003141490793,-19.588872390306094,-15.270380358877494,-6.144542370391593
-3.0,0.34812528956901545,6.491562734117029,6.143437444547889,-3.4701805683666653,-2.8446103822309508,6.29792338335303,7.565610742886802,-2.4871211261443045,-8.596993094458412,-10.150070941476212,-7.608117957393709,-5.4918749487207
-2.0,11.037912381504391,17.474710792718927,6.4367984112143715,-14.219746396015601,2.270598956074347,11.929177973416127,-1.1565916266230447,2.238272402346454,9.564421867636657,8.276716644956078,3.5387485668570635,1.9076678667270048
-1.0,6.838158936308928,6.1862937950733645,-0.6518651412355814,-6.547754296270603,3.7116344132174452,2.8116010212983387,-5.708141948246468,1.6125097942873086,8.400942526463647,8.166373565352139,9.232969655840728,1.7704943709652663
0.0,5.405151045454905,4.479463688909595,-0.9256873565451771,-4.895097948869598,3.209222619982459,1.8160756268296923,-12.334865022739498,-1.387016169700118,6.83089007102269,6.7582755830119075,6.290785043244982,2.7392024734683074
1.0,-11.673461379186795,-10.011486484540058,1.6619748946468802,10.811871102644696,-6.6234849345668145,-4.214487941537378,-3.630451286116628,0.26151362009103063,-3.2118600378421593,-4.573841144772671,-4.3925022872214186,-4.214077621994603
2.0,-17.257642645880736,-17.83059635893082,-0.5729537130500086,17.511917224040072,-8.37530973160688,-9.157290122584966,10.099436728823562,-2.665091185754166,-3.13134088112819,-2.704196560597526,2.944624076468652,8.292726221865275
3.0,-3.105491937469024,-2.9706760295199235,0.13481590794915288,3.0817316984700946,-1.6520085738074675,-1.4424414926508673,6.889402280227557,-0.349061807432416,-6.173364095581167,-8.790715575128969,-6.620336287420775,-2.9334961524447025
4.0,7.802561758422924,6.841590438399098,-0.9609713200238201,-7.359861372169831,4.427818117522582,2.927123837819876,3.6008081499137305,4.606976788476896,0.2239717537502588,3.902171820726651,-3.749892218877662,-4.221935577450258
5.0,21.438307667918913,20.25593659079404,-1.1823710771248244,-20.807416309150593,11.274157036809942,9.533393184077319,2.374785445013978,5.1954866123845,-0.22728314123545124,-0.5769684658538848,-1.6029790957089083,-2.0075996637515425
6.0,12.69235112108106,8.42074972941397,-4.271601391667167,-10.516252664460456,8.44024814131815,2.0769266503943147,-9.391473888650866,4.967909069707122,0.8435959968857979,1.6102157636549206,1.6049777911339198,-1.9974346546820685
7.0,-7.635503344192632,-3.5951960002110934,4.040307343981388,5.5789059595700765,-5.806784263932084,0.22529990350258355,-13.647723937888284,-5.843940471627309,12.49691733280305,12.651052451096962,8.949055096537217,5.79427295604814
8.0,-8.65775850034521,-19.90552749615884,-11.24776899581373,14.247690410564884,1.3220179678538102,-15.578713859294258,1.8746949356588978,-6.455149028408018,-2.379586892071249,-3.9397937516336587,0.9281433818448783,1.667892298126646
9.0,-1.4875420016992358,3.5662272119236693,5.053769213622999,-1.0712132127393534,-3.244307487973518,4.299319684656437,3.2405372659841603,2.0237074317325727,5.786272661859104,4.003899406195431,5.278145676670359,9.812197006452854
10.0,-16.27084196501414,-10.346542428815491,5.924299536198885,13.356718967319912,-11.146760744992745,-2.2320823480404313,11.755369386958854,-0.5020030392639624,-4.171772475458875,-2.4432880211191788,-3.615198909909953,-5.2180848111824965
11.0,-16.73745208276906,-18.366430226522095,-1.6289781437528004,17.59995298505096,-7.5185507281807435,-9.949686417842333,5.3316936833252795,-5.5079850350269774,-23.247693978589083,-14.956543270380948,-15.394797653969423,-16.24734689398902
12.0,12.516084327328166,11.594653829699872,-0.9214304976282832,-12.0874655036116,6.682759725246317,5.376971193351065,0.16559957526837943,-1.415362858179237,-5.716033519336539,-4.299593905023304,-1.3654476018483743,-0.8649348016244884
13.0,14.559847577538125,26.383649771212028,11.823802193673778,-20.50677407974908,1.4165163715254456,19.060527601010318,-6.743799985837081,2.8220205271123775,17.54216299502553,8.819404150651293,12.43833678389286,13.114839739481585
14.0,7.91395753816532,10.85973944950647,2.945781911340813,-9.347731310937704,2.456493848000796,6.857640758677647,-9.368744005012566,-0.03239884080152544,4.766255529713577,0.695371047895617,-0.13551364600136218,0.4613172328951034
15.0,9.509959383856707,2.3501872975076443,-7.159772086349414,-5.975743860467258,8.306249491420601,-2.3704609282331575,-5.347408069947836,9.717482431785067,7.941563378288647,5.8135003210320075,-1.1422582334125648,-3.5784798711041477
16.0,1.371418620023488,-14.011694546747764,-15.38311316677144,6.346434057718077,8.344720173345403,-14.738805725502953,3.1689540342441096,5.755578315585719,-5.983414476524009,-6.969790351785668,-7.099425940020566,-2.743830714769315
17.0,-17.313985154562676,-8.311906672620873,9.00207848194188,12.832708784476958,-13.11684676632343,0.3873187227611403,12.437403969698988,-5.601010910126243,-0.9782891776267337,1.350779247160627,3.0169351667594118,3.6732245905314205
18.0,-14.94792414405714,-16.12851229570839,-1.1805881516510395,15.55278996903957,-6.8465630704706,-8.606437214155745,5.631004406751746,-6.513548148775755,-4.026196711711729,1.3041313590758423,-0.5525293938688067,-0.2526367675044958
19.0,5.881048148054731,-0.9453043913315149,-6.826352539385999,-2.5348852898566356,6.3890275549249145,-3.9109871110601975,-1.5683499905724783,0.7290331482741328,2.527599009591956,3.2848520722577508,4.729562850654084,1.2078902010410437
20.0,9.178720829783654,14.463206120380395,5.284485290596929,-11.808903911645181,1.9045183133475794,9.852186828159626,-7.347827449396072,-1.8418101772378748,2.7012958686023953,6.549061758521859,7.0988867905112,1.5932259141480254
21.0,-0.22427800782328777,3.3407834825966853,3.565061490420142,-1.542327702971697,-1.9343505397576326,3.4317066470455293,-7.00514530794317,-0.679437698777533,-0.8240559558624521,3.56052388768928,0.07270368137187266,0.5560252015024488
22.0,3.989920696328326,5.018193143790472,1.0282724474620943,-4.481058696272623,1.445430841948987,2.999399328119778,2.556567238293328,3.556364027028457,-2.328481910879734,-7.432222166158215,-4.534819621786312,-2.4040299789639628
23.0,-10.5418349994505,-0.4192937653189901,10.122541234131322,5.512596449225169,-10.283760851189964,4.901986727183342,1.6796964744833391,-3.558158049863798,-6.085912250281328,-11.30720216225379,-5.345025386805447,-2.361407897210958
24.0,1.5760509778717826,-5.24679020911959,-6.822841186991648,1.7976750204694847,4.2531788983650545,-6.067980536773117,2.8708066237402106,0.060619680355687655,0.6279532044655671,-3.1929166469919936,-0.7588252240846232,0.048128469173827515
25.0,17.449242844567006,6.88084236543973,-10.5684004791275,-12.195813258273288,13.988528592994,-1.801722810524569,-5.283996831846873,6.67883522155457,3.6416058415370838,-0.43406429995198703,-2.376422304195501,-1.4203461863520328
26.0,-1.4784888561387097,-4.0588341773313426,-2.5803453211926373,2.741224480484749,0.5336355441140759,-3.279207201827833,0.7233713788047942,-3.3124065829230744,-4.349477223867276,-0.5719026803597913,-4.86431934602582,-1.1436266897762533
27.0,-19.568260918817693,-6.438356010316683,13.129904908501222,13.053880602245487,-16.36620676050982,3.3072518053663877,9.511344105938234,0.21866902475856337,7.545141083251229,13.466273341854764,6.13651095863821,3.611843465550641
28.0,-10.223545724871482,-1.6349789462397464,8.588566778631986,5.975488839851665,-9.426384245339666,3.4388414703499466,-2.62569754996552,-2.297716473554795,2.1148514598679813,4.94299101066205,3.4129463334373726,-0.08171177331770485
29.0,8.016989176011453,-1.5571368737733815,-9.574126049784637,-3.269279256525002,8.847752333668009,-5.6028666978480155,1.372000701590276,0.8206700727557747,-1.3865150143727776,0.09322733532918637,6.6239920141807636,1.6974904444539476
30.0,16.190551895397636,9.888791924226503,-6.301759971171085,-13.086824799507314,11.21153416514635,1.8358651729268798,-3.5425540753202442,3.4090981854382685,2.829590512306989,1.3878567510849154,1.8569517038002328,6.293231600148785
31.0,8.070127438062615,-6.693711734387146,-14.763839172449966,-0.6636432523699369,11.452879440972007,-10.685200610187287,-3.1996484057981975,-0.35589179445687846,-5.662585486784937,-13.551968928669993,-10.104281766161362,-9.969364993444804
32.0,-1.5741462019979116,4.962852766553679,6.536998968551388,-1.6743408943537088,-4.105100253934429,5.7163729995191055,-1.3490459453063695,0.5322618532898511,2.6801461160987747,-0.585176300555263,-2.9737103847770916,-1.8123302220604147
33.0,-7.508913488171461,6.3890635337520045,13.897977021923303,0.5791557129967906,-10.67797738259424,10.19008226882814,-2.0754579117091545,-2.029489849845913,-2.2854072156096494,-0.5548108963529255,1.2020915386250346,0.628750237899224
34.0,-10.504401287753538,-5.710334684969439,4.794066602784121,8.051308484921543,-7.623946833175445,-0.4904014091745017,5.776197336822388,-6.006999872436219,-8.596912832461351,1.0887936898285364,3.7485684882061117,4.4576472402323555
35.0,-6.876375054891115,-4.409444999834717,2.4669300550565905,5.6727551717003175,-4.721999761542154,-1.006180756425046,2.3474381858360034,-0.9201369488868842,2.28982915920955,8.205453613643702,5.448860915400196,0.17203685652017686
36.0,-3.4524715071666403,-4.545844494935819,-1.0933729877689427,4.03836553004074,-1.1459667381635124,-2.7814008367629777,3.2633425588620506,4.854310124553059,5.661548987317525,3.263257523911553,1.385581669345387,1.5508150914938705
37.0,19.751932070285534,16.016826370111726,-3.7351057001735346,-17.91444088340094,11.782405089131492,6.092489607421664,-11.64200765996888,6.790375808224121,10.72554379064533,2.8173861734287136,1.3373429452333685,5.751794663037039
38.0,-5.5119242146678555,-11.877625137141248,-6.3657009224732555,8.672161993095797,0.390335571717916,-9.099556778716352,4.966875991646847,-1.7489333840798977,-2.376236889219104,-6.651042730455737,-11.404756868586182,-6.204343387491994
39.0,10.83216279317383,1.0025673558759367,-9.829595437297872,-5.936189375304617,10.294069269688213,-4.39794459139633,1.9283647833120214,-2.8047646940696502,-10.810485842933694,-16.19788684288765,-9.03324133979406,-6.40845680260737
40.0,0.8668996116083543,-0.43990911552489576,-1.3068087271333315,-0.15416313018264294,1.12458178659729,-0.8607878250116796,2.377810192821154,-3.416908217186074,-10.006823553373442,-8.017924201290091,-6.911630449121273,-6.427173683239044
41.0,-0.9120934707567858,2.458751128056096,3.3708445988127456,-0.7974794525376994,-2.189614613139099,2.928697136908977,-3.3280130779869106,0.5096224562834548,5.2149561518567324,8.179700693566932,6.558464357168819,0.7499204666472465
42.0,-16.078121439617817,-1.9141915018584268,14.163929937759208,8.964135083825898,-15.098320853215833,6.065214961890765,2.273842036877028,1.898590436828631,13.60099879245333,25.05348680095983,21.413942743876085,14.474222046855594
43.0,-0.5062066353830588,7.447603037142252,7.953809672525137,-3.433539402362171,-4.2135772583403135,7.727345164473432,-8.51301855951477,3.160234236499144,7.633506334877553,11.136603049486316,13.86488285544781,6.7214584812313465
44.0,4.319776798674015,-6.169650587529153,-10.489427386203179,0.9523740923892405,7.418112204277084,-8.295157495581915,-1.459494543618757,-3.339136137799227,-11.740085858608419,-13.319634328958998,-10.857287862891674,-9.377205010142612
45.0,-4.450646452553906,-4.494908984675455,-0.044262532121191356,4.41297678528445,-2.188815668037975,-2.308235897614918,9.89352013125793,-0.6357605091939192,-3.2200209936540753,-15.714983660743677,-13.493768787167461,-8.668195770291439
46.0,3.686331967387395,1.4037948323564375,-2.282537135030474,-2.5323230580226657,3.0026213228525807,-0.397276417754044,3.81771731715771,-0.575213993436922,-5.000020685650433,-6.743485795778204,-11.828867370008226,-2.0339564687968332
47.0,9.407885961805658,6.34025462172823,-3.0676313400771567,-7.864672867657176,6.182476497605788,1.5973304097754113,-4.471399488838523,-0.2149813600085571,2.5629031530107635,3.817004178745951,3.7405574015865444,10.898471556755153
48.0,-3.799160695717095,-3.5363962726992124,0.26276442301767977,3.676718794174885,-2.0807020895643515,-1.6815903090684083,-0.2771769158540729,-0.6158654680614675,-0.8164157457211505,6.548870379650303,5.625147645904927,6.079216723068596
49.0,5.060440288601727,2.3238439459104807,-2.7365963426917026,-3.681353603868107,3.932974763981785,-0.17949273382350706,-2.0669815572909647,4.920290219971804,9.332221596604528,9.440399580708082,10.730954045206932,-1.498651438161787
50.0,4.662954937341591,5.702331581742073,1.0393766444001016,-5.168716129223554,1.8519985839662916,3.3921112133581843,-0.5255777935250496,4.844893754437949,1.8451645583679395,3.0570977438305142,5.354696926488529,-3.1961452294444106
51.0,-14.631784141738956,-4.789949849609444,9.841834292129416,9.64941724425175,-12.268775290360118,2.5453422987497016,-1.9021179165878719,-7.600952205224063,-1.697142179448055,-6.165228930973639,-4.9520192545927,-4.3803169036683345
52.0,-7.669010991656479,-9.406576775812274,-1.7375657841556356,8.558056437346638,-2.911633825988198,-5.5498073975551545,4.806937502939744,-4.99572763338422,-4.330453392640904,-7.564029419180274,-7.299419420634627,-0.7416303170812579
53.0,7.011817385987487,2.2874808082469134,-4.724336577740198,-4.626829160931526,5.850467581605149,-1.2680020003800816,-0.34737863864588636,5.067102832603524,-0.9121897029818373,-4.8125800893072554,-10.840530166930442,-4.839984590724841
54.0,5.69144360054084,3.482100643005222,-2.209342957535292,-4.640029451429866,3.938035129352691,0.6746662182937988,-2.3318336176007257,1.773224895595097,-3.1683901681420057,1.2968752323950485,-1.964413325088354,-1.6955611642892192
55.0,-1.09384492720464,5.876963611610883,6.970808538815808,-2.3627057145979804,-4.042584940673772,6.392601719316438,-3.82292370127724,-0.7268186643404049,0.1729142771581313,5.445285766659716,9.362042247869603,7.332744341875081
56.0,-4.337854532679153,0.2403815253741195,4.578236058053375,2.0817152292481027,-4.469735625766647,2.3857348740224125,3.1923011887548576,-7.56341750127303,-6.703629037584727,-1.2983238395831753,5.215202363633836,0.9719758585733169
57.0,-0.06397523376139785,-10.112740862838297,-10.048765629076998,5.125496762764312,4.97667368977404,-10.098550548753428,5.481897714008072,2.740824395594528,6.227279342674226,2.130437909181224,-2.395593712892632,-7.789336874513553
58.0,12.112234342657866,2.2725784360802996,-9.839655906577743,-7.23114929080376,10.955511732422174,-3.7182615690639826,-6.3321862922387115,7.911634916427975,4.998850585137289,0.29445752979566797,3.931851417713087,10.890807559556118
59.0,-0.6809612699394121,7.796227834855928,8.477189104795105,-3.5960119121656504,-4.524154815166864,8.126960876039359,2.660256023637414,1.6850476867415227,12.633896533115447,11.95100353279551,8.35661130774414,11.9860223399379
60.0,-8.45817353128899,-10.085241146731487,-1.6270676154426105,9.230884236334358,-3.3616857756362695,-5.862204610886067,5.229890999190821,-2.1073527282566373,-0.40006707328476176,-1.7330914143765352,-3.9550350152353575,-6.872873988402007
61.0,-11.836552219862654,-0.39012389675270187,11.44642832310976,6.146907636135559,-11.665603366147074,5.5256929934552375,0.6529267027806951,-5.98721310136952,-17.729293371933522,-16.77435325513868,-12.35395192204452,-13.322226443691585
62.0,5.444649427065642,-0.11680787744132815,-5.561457304507088,-2.6350036003736985,5.479759975926816,-2.838802519202933,-5.097674060195809,-0.6389373212800753,-4.426921757628395,-3.369553245644699,-4.571920345470812,-1.4543206310624868
63.0,12.412056381645122,11.252615476830233,-1.1594409048149439,-11.806973644285398,6.761339622724079,5.047913532160346,-8.287506427925738,7.5168974634060035,12.255863602943773,11.08218927386584,7.234015392593332,2.238030837299818
64.0,4.818379956486476,0.45819993321837904,-4.3601800232681125,-2.6149765251424464,4.560795011523611,-1.9513240472893774,0.8907929098728489,-7.534774274308513,-7.8823828635813475,-1.1601687246394645,0.5243824461074811,2.5260108070226486
65.0,-12.522642815073324,-2.6002456765302706,9.922397138543106,7.504828841855538,-11.178728286248534,3.656061372782963,8.210928372203767,-3.52634512229684,-0.43633888605759574,1.9452010141505152,8.412391761570532,6.479476306370195
66.0,1.4361764025719053,2.0167516407165706,0.580575238144818,-1.7056740432979205,0.3858890668773056,1.2862829279831502,-1.1329956747444214,4.794182737053754,11.06392802820896,4.163605554747278,-1.6257215554477051,-1.666781680257241
67.0,9.799390507103485,0.628224528082908,-9.171165979020381,-5.273829023269441,9.517026696102018,-4.292929534441903,-7.813360922361736,6.639433731563455,-2.1439750667083173,-4.75989214610777,-6.322923837984797,-7.241490827459005
68.0,-8.385127336889425,-11.233037976471786,-2.8479106395822096,9.825497126920213,-2.7384556735710275,-6.992671055324278,7.521503725383308,0.7237067486189619,-8.210517659897013,-7.049477509717307,-6.788421070013421,-5.423645711114096
69.0,-13.935881695726279,0.6801346276420102,14.616016323368363,6.643038815082362,-14.243762159804913,7.687205047734592,7.374037989827842,-7.798754702067955,-0.9614793542644837,-0.5711111569656246,1.3622395490351638,7.439013624150535
70.0,6.248121261472256,4.254761436006912,-1.9933598254654532,-5.235037817554455,4.078448740662043,1.0841089571057516,-5.160896562506965,-1.8149289301511637,3.1173224501511516,4.177064915951133,6.585850272385348,10.37550655291818
71.0,-1.0571979615541447,-7.628371125291285,-6.571173163737367,4.363577911680274,2.7190160134323507,-7.151066689787481,-1.578404716961269,1.4911662464805757,1.7509500914200482,2.4165970352451556,5.2692490998613914,2.1148344267789962
72.0,14.971465963833367,-6.338570103970343,-21.310036067803882,-4.2886482076246875,18.184007719010754,-13.798909832039671,-2.558307080238284,6.288876286452811,2.9830231936974685,-1.7040836022376893,-5.2779242235513895,-11.48627591126796
73.0,-1.539648953183967,1.8057655020888594,3.3454144552727962,-0.17585867665953536,-2.4781109097046183,2.6017076093733174,3.1038150257843884,-1.534854219947197,5.1568838678271,4.705742061246159,-2.8699975792279053,-6.430042760653782
74.0,4.223973167063645,18.523136973564956,14.299163806501523,-11.408673141450812,-5.075145203390439,16.44046861704439,3.30455216946485,2.2495216597163834,-1.5391169089465502,1.823666537109618,1.1016336701438614,2.585456002978125
75.0,8.774209898974439,20.197409041013024,11.423199142038785,-14.51464952929708,-1.285555376742992,15.765608083351367,-11.367546676089798,1.4287758289289936,-4.888271705243468,3.8866029652427274,8.537973308274827,7.481913390350622
76.0,-18.717986937160305,-10.200465491710498,8.517521445449978,14.514027366824902,-13.579810445395923,-0.8025711806606628,2.9832981092267516,-10.285876524294892,-5.622119987362294,-5.707538576447097,-0.7755793404704485,1.6247195910184686
77.0,-16.902624900648267,-16.687956059166062,0.21466884148214072,16.77540154097857,-8.519824477566864,-8.272973488864283,0.31854361960120436,-8.263173467077557,-7.747918406218794,-11.180773382798446,-5.116563931178217,-5.396791486367885
78.0,7.360305384478947,-0.7070828639050664,-8.06738824838426,-3.2641989625173338,7.676016367682401,-4.422290948599473,-0.23616918432947331,8.13149652419843,10.15711143431069,2.8675921655941474,-0.5353419998405791,3.5487823754475936
79.0,-7.244411072013939,-9.177221377484432,-1.9328103054708121,8.197068652905104,-2.69176770827099,-5.512376669374118,5.177468741019029,-0.018041124129373642,5.016285160127936,3.7246312120410487,-5.023731573641151,-5.462435726879121
80.0,15.358080985075484,-1.1125719563248446,-16.47065294140058,-7.136009038767231,15.87868830636986,-8.75165046107725,1.7559332287641252,9.892453042073546,1.1289316354987946,0.42681987176542036,-3.4611932611834266,-1.199846831522126
81.0,7.358278072913035,1.640147557431647,-5.718130515481532,-4.515199520223565,6.57949186794483,-2.0808597547979115,1.2499971063155422,-0.6854135123214316,-6.952922059800204,-1.5188951010644007,1.3890495659979047,2.4015939503651325
82.0,9.558325809764856,4.5415931249792525,-5.01673268478565,-7.072168108876909,7.325457881553435,-0.2815392166155011,-1.6677039013677568,2.819860178884028,-1.3669848513642213,0.5028663012304582,3.218605550639819,1.5725425647338012
83.0,9.741077854967687,6.804648011318316,-2.936429843649197,-8.303722030469949,6.294138190756707,1.9689553364094374,-8.500254853011853,1.9754775483687683,5.900737930617502,3.7152205965511125,7.061961050068508,2.447272819222513
84.0,-15.616987307383281,9.460300181300443,25.07728748868417,3.117274002852206,-20.31596647705159,17.306464211446393,4.49806132356221,-7.94455828245014,3.88938281433004,1.9312194144271646,5.9796823434528905,5.745100274164401
85.0,-20.881288804944873,-5.767668184462361,15.113620620482966,13.356416797308665,-18.04619775233413,4.637125047676255,3.930960375110212,-7.406076212433192,-3.546622176671746,-6.208748225357571,-5.839050475544084,-6.713921856600126
86.0,-1.8568038078121472,5.628074746571867,7.484878554384277,-1.8573072316948167,-4.639810149365783,6.605659795952887,-6.633418899468808,-3.120629943648069,2.117782181128029,6.7188825283016715,2.154653117723396,0.11774978163600602
87.0,-2.006854250633439,-9.504401268561384,-7.497547017927984,5.704967376668396,2.779245022081137,-8.5251225650028,3.436174420689719,3.8922216926651636,-7.917909387264114,-5.958324953446304,-11.368300050748376,-7.219793955973762
88.0,-2.959855641412718,-3.2987882546318756,-0.3389326132195247,3.159302618139058,-1.3516420046244306,-1.8401670194449382,5.821042138877415,-1.5371960633954957,-3.5944474966036952,3.8758762935332554,1.0371984832051009,2.337686888268218
89.0,28.79432189813992,1.659087573295337,-27.135234324845033,-15.273153634230557,28.005395853645634,-12.759830276425221,-11.033415273899191,12.19170548292698,8.175402405588391,3.913309997461189,0.20343293001240448,-3.6945614829748417
90.0,8.776141606803291,-7.019897701313518,-15.796039308117143,-0.8443318883546027,12.249109851885208,-11.432839404919344,1.0148505483627321,-0.8872897449628256,-0.786510457432049,-1.9425618339321027,5.637776301703584,9.86064952330857
91.0,-8.590811416043433,-2.515262097736484,6.07554931830683,5.508504681456752,-7.371488070231676,1.82988924770949,2.297746470011284,-2.830861865712543,-2.258717759020431,-8.03280833383549,2.8556688373185213,4.219356100247562
92.0,-8.030641493841795,2.1947980774369533,10.225439571278844,2.9523641392817708,-9.091039226110698,6.25652005219067,6.047345357145276,3.535590872758554,2.6830106469532438,-5.139368363538111,-3.819469428923714,-3.5606949207270002
93.0,-4.820122400632196,12.306758489409342,17.12688089004178,-3.7861377761061794,-10.940919156724991,14.683002711196206,-0.0992226457305514,-7.834261165793263,0.04715746736169013,-0.4540516347072745,-1.1535946487574222,-1.2391223537192348
94.0,-5.076903458588981,7.218532094063321,12.295435552652604,-1.0308699299203714,-8.736323440409322,9.723499698239156,-3.516699715895328,-3.0578855830126153,-0.9569661928237714,3.189890417667534,-4.786223207405054,-2.423272957794553
95.0,-1.4779512466313691,-13.707720816131234,-12.229769569499657,7.639587621350654,5.402088784490602,-12.922437463693196,0.9349246720674644,4.248470133017896,-3.562025988509375,4.016521007051827,-3.337127214574382,-7.100708224551674
96.0,2.877886407328039,-1.5569227678388824,-4.434809175166795,-0.6839764043713727,3.6821775510431656,-3.028122170094572,2.1333384521631604,5.358117235496516,6.816316906918496,11.278826973814269,5.3095115409238325,-1.1397134056282643
97.0,0.7746729548946569,-0.07697997938175138,-0.8516529342764549,-0.36429247203715576,0.7617160670623457,-0.4198503063859871,-0.32132774274113596,0.5905004288637778,4.0816546045892705,4.751830800965302,6.400914605681094,4.897382471517352
98.0,9.624376166591658,5.325358955585916,-4.299017211005911,-7.4850509933771665,6.991473372941657,0.47411543743743323,-9.341471761953052,-2.5209854411014927,-1.0405230793585059,0.4254292691942932,10.292911147794324,11.5545046760122
99.0,13.377447997936049,6.345124658357394,-7.032323339578866,-9.870500274299603,10.237084345643888,-0.38949478499852863,-3.3844395377721455,-6.337049658598556,-9.127026319582422,-13.715459732982186,-1.2520479365892427,5.406845572101279
100.0,-12.627510775281253,-5.7521256500477795,6.8753851252332705,9.177216449210555,-9.796477689366753,0.5873795466143743,5.783792299092658,-1.9880031805677143,-1.2823331465867427,-6.926930823537072,-7.382002824967787,-6.13527144948585
101.0,-17.153778292797,-1.2070624053890953,15.946715887407798,9.161395542164138,-16.5949455022441,7.390510517874757,10.95271322380221,-1.4197144921691256,0.023724518740364964,0.37292359738575165,-4.10665279128588,-3.139637095251895
102.0,8.452358553507558,-5.589836869131211,-14.042195422638775,-1.378962422030618,11.280825126910326,-9.796523734157027,-3.268301214247347,7.478776741852836,0.19831712800897283,-3.6014862348845114,-10.532821392712908,-8.803751683215811
103.0,11.82695303701442,1.9299946317804175,-9.89695840523396,-6.832788896393101,10.894883125010628,-3.9607626592032794,-3.189094149312066,6.807514776134671,1.747376475021967,0.3756695541802575,-4.505638212327193,-8.532518384244003
104.0,1.2729676800938208,5.114615271107689,3.8416475910139383,-3.2317145354784,-1.2515546013849725,4.42875817940308,-1.748347144002339,1.6150629145660362,2.3890895585828633,7.730548384468077,4.632329608618683,1.0518527149617414
105.0,-7.917596300177457,-2.5615321241560123,5.356064176021506,5.198536995764165,-6.682306184955602,1.434668168736517,-4.503961171281593,-3.8287554801610515,2.7947684456503463,5.0586829805585,6.388204771306863,3.5376387231731377
106.0,0.030757110490506,-3.404245280269182,-3.4350023907595912,1.7226034425975365,1.6882792930817319,-3.453830721511143,1.4172542926826606,-2.1837140309889858,2.790917827965833,-0.03881230110348444,7.630131059519187,11.24521903513794
107.0,-6.083113261296239,2.5051526540068183,8.588265915303136,1.7449812804804232,-7.30064386438904,5.517195440509985,5.149861116128327,-9.043688594733883,0.7228689436035021,7.169494215385321,7.552015350742899,9.328464392081544
108.0,-13.270082636181984,-9.978654547318836,3.2914280888631624,11.658609208608457,-8.245073997434258,-3.292512435652785,8.876653521619504,-0.3398571241838031,-10.329221151560649,-9.915281390665458,-5.486719397222803,-0.9613074243341702
109.0,-5.535291327533584,-0.7763571001545624,4.758934227378967,3.190320857788813,-5.189972140749225,1.963422553622339,5.348262332643639,2.6601384974766087,0.062421406237665344,-0.8599861912278994,-3.0344139239561123,-4.291965490754548
110.0,19.349073667259923,14.181655534269458,-5.167418132990582,-16.808264790220587,12.293837019273397,4.478300443028533,-15.172302144224751,6.137802596214401,6.205980492869232,2.712723326827481,1.9166805158992153,-3.1443208501074755
111.0,15.648813641590223,17.781794017101383,2.132980375511071,-16.755441240667523,6.713967818900522,10.006826784210883,-10.036343606158997,1.4264358904271823,-1.3938129264026187,-1.2848151452715397,-3.771172829064614,-3.2160305308287773
112.0,-0.32985475471183,-3.0847577219081694,-2.754902967196392,1.7502020393744377,1.2461988095519638,-2.870008937816494,-2.0760354577964177,-2.3083231138130165,1.2358626134271011,-4.788056350468762,-8.822263438641883,-6.9056254946392235
113.0,18.408161289255425,-8.032233161685731,-26.440394450941213,-5.139552818568154,22.37797896385112,-17.264526557006775,1.9657912057536635,2.0984940360289275,0.8584502827274437,0.33237768719987293,1.6162041763877641,-3.4138434675065428
114.0,-12.497038521939736,-18.823702598240722,-6.3266640763010145,15.636007738810482,-3.053902421151772,-12.6033978194875,8.29187247253506,-1.1720829691245134,-4.329839166623147,-0.44218513227080614,-0.49040043784185894,1.290052993350429
115.0,-23.80375319701958,-14.403867811931285,9.399885385088318,19.084842720660976,-16.571765292138597,-2.531672737899865,10.70478544188146,-4.735586063178292,-11.749054779032884,-4.480373433159787,-1.5886821045477446,3.8120159325893432
116.0,-16.50635804120182,-0.47084739161900924,16.035510649582847,8.473621472082806,-16.242578834857643,7.749894035858821,3.131990171485042,1.2675470683651526,2.175084942968408,3.893700888930744,4.697743857395062,3.7747996272449047
117.0,5.03027198899554,28.391880482088062,23.361608493092564,-16.723658695435482,-9.218577925407239,25.920053490721344,-8.078496347889143,0.546256753610435,12.997013096689916,9.115155419473082,12.128947892283113,12.340238845834303
118.0,-3.3731489166953565,6.143430908491078,9.516579825186462,-1.396406983421378,-6.500846308756342,7.871243827167369,1.951293747122806,0.116042220127678,6.818878224863551,3.9943461686964072,3.5282718215439304,1.913047550010265
119.0,24.08451571347646,11.742866143676753,-12.341649569799646,-17.845214742743398,18.233435309948135,-0.25883108861300563,-14.287668668058902,-0.4298202089663627,5.171851939301345,-3.5187970188182507,-4.7054887288835,-6.626278885106561
120.0,29.57260796997774,-4.286424874404355,-33.859032844382014,-12.652304462970132,31.736309492504454,-19.11079010550721,-4.93527841129361,4.313505569496211,-9.4955386431373,-3.6268226485611597,-6.451871323986959,-7.426447182477437
121.0,-12.43052221837969,-15.761368528760677,-3.3308463103809594,14.087518389645863,-4.524959273599958,-9.584398492598085,10.878752501156672,5.936761308562641,3.9541607236819347,7.416356358362429,3.6833693470665,2.088951627291662
122.0,-29.931002978367705,-18.43038657486956,11.500616403498121,24.171828345125043,-20.681757692279305,-3.5045978036857353,7.774149756594137,-8.039278901152837,-11.427165227934443,-6.369868743047109,-7.844114760280314,-4.7568688966776715
123.0,6.005387670793901,7.764514095877084,1.7591264250831689,-6.896504058359138,2.0912736104060583,4.798406121972356,-5.660377848721867,-6.097234837216703,-10.97137030922342,-9.896903553358086,-7.546511186521539,-2.8801147288642226
124.0,3.444735576328906,3.084579797290485,-0.36015577903839446,-3.2816340617662454,1.8846309190126602,1.3964500937806634,-1.2614947444181932,3.0252910394525334,0.8792288461172455,-7.293259313368781,-4.293718830875371,-4.236642340466652
125.0,-15.64376713430331,-5.384878706476388,10.258888427826937,10.56834161278855,-12.956852113724244,2.3917206418562005,8.778076226836088,-2.0255884552988808,7.512830935977906,0.05984707124013883,3.128801712375709,0.31810176802454326
126.0,11.611905293004153,8.647263794905765,-2.964641498098409,-10.163107086598535,7.290809410757702,2.876596548002979,-2.9666356269978733,5.84708560448682,4.814690580292188,6.944227039376381,6.834587144700449,4.77660520260293
127.0,17.442176497069614,6.736261367153703,-10.705915129915947,-12.130710749340844,14.079069232783663,-1.9450724532890864,-5.860319089442703,1.8963442874411203,4.481930155139284,9.34349847703675,12.031102867054994,14.557334329539753
128.0,-10.056968803392554,-0.915231526882045,9.141737276510488,5.5180655979569195,-9.597406743425001,4.080497468510908,2.448472101914171,-0.046215165323079344,4.263512079599476,7.679313462785176,6.861422656714396,1.4851462469301682
129.0,-13.931712147695375,-4.611508267425967,9.320203880269386,9.302131505260524,-11.631456593707753,2.3283008226222117,0.7051556302581059,-6.427893712805384,-0.9933554814953865,2.853196714371235,0.14155218493959087,-0.010731096422932573
130.0,10.870250748374161,21.288515513952923,10.418264765578757,-16.04650195509457,0.21066240789830992,15.833476045182378,-5.213922695161845,-2.6335741204284915,2.7831599229312864,6.514494669158483,4.68371936058063,6.896209476434338
131.0,7.58397970696403,-0.4006366906376617,-7.984616397601694,-3.6327022859446605,7.837747715269281,-4.2073592866597895,-2.259276767120695,4.5654756833818215,-4.772081778555217,-6.612850991914643,-9.208623751277637,-8.172535235224592
132.0,-5.071540126673865,-23.905754889403603,-18.834214762729726,14.452850306712865,6.847942508004918,-21.30157691745313,1.3418597142483797,7.70816994782567,-4.28128517353565,-16.825921074918117,-22.023440662908918,-20.329445863385928
133.0,-8.247137468003812,-12.987278123722865,-4.740140655719013,10.663809982559215,-1.7917365850912432,-8.870279827988904,4.8525431541651605,-6.159359485844132,-13.591974906807684,-16.36824636528236,-17.731699496426057,-10.186842648387533
134.0,11.903783808869708,3.0193639647252866,-8.884419844144372,-7.492788604225169,10.433494541627773,-2.936243593920783,2.6479497913078727,-0.0659374964516346,-0.2961229292081047,4.899367163038683,5.594987684724187,4.652130938218001
135.0,-1.596098686055388,3.7439920658799015,5.340090751935358,-1.1069323562034938,-3.426645796504287,4.539437721430736,3.3974672818457314,-3.779781970725139,8.014299936966003,12.293084275887331,22.443797231043828,10.772416878479168
136.0,-0.22630297658216936,7.300620469776413,7.526923446358625,-3.4949370163074267,-3.9101475696912606,7.409591825089647,-0.8625675454982928,3.137455526341813,4.992997686193816,3.3333890400554775,16.180682658982782,19.574375903197126
137.0,-0.4425393926688135,10.75465034278124,11.197189735450063,-5.11787839291703,-5.849877027390194,10.967025852141441,-6.297277822050185,2.2748808637036264,-2.192176586199282,-3.978035007764827,-1.1387662802008958,-6.651301560852261
138.0,-1.1001327910877845,3.7577632064205346,4.857895997508316,-1.3729487994292482,-2.9287676372400364,4.291595994410775,-2.6322024667057615,0.2531057989397527,5.478425365689706,7.74596621574256,-4.2806569752192445,-7.4165581505162805
139.0,-4.666936214073838,1.8757216950076587,6.542657909081503,1.4275074713462632,-5.63470321180627,4.184504905792532,-2.1673047202128206,3.948421853513679,9.600183900235196,6.768144019422269,-3.7851401015913746,4.887084759690245
140.0,-24.995661238898386,-14.517817730064566,10.477843508833804,19.707798029542328,-17.77059430092514,-1.9734275223728945,6.858392017122011,-9.310300595942085,-3.073006352089494,-0.4178382605012263,-5.787235607351184,-0.3549413528318417
141.0,14.044100642327702,0.8270670652913843,-13.217033577036403,-7.407747176637177,13.670629564835322,-6.1531400732664485,-7.248391039761356,-1.8688279081706498,0.39038219823255504,4.178207613375902,4.89789824991197,1.6403006912025266
142.0,16.63081616647269,-6.12405227763408,-22.754868444106904,-5.2278514935158995,19.650744827076423,-14.477336103596643,8.709959665901636,4.412817314819551,-14.672388152795115,-8.996252197293806,-7.657300754260511,-7.068749143905635
143.0,9.767050627005775,0.8934065905103017,-8.873644036495554,-5.386243998033095,9.357221353346805,-4.025400679566334,0.34914117396184485,-3.8967458927173224,-10.432616288733822,-17.552486290662213,-7.995002679101948,-5.903320690265913
144.0,9.905886222622744,9.287875719617352,-0.6180105030054035,-9.57716882734376,5.303820776259895,4.383410634087958,-5.382221838961708,2.338774816821962,3.0725091777516935,-2.2145912505336884,6.450803649780884,6.756498398914696
145.0,-25.065260882033844,-11.360662181895,13.704598700138915,18.23007628819625,-19.4124716458355,1.147418662785217,9.58413769878101,-0.38054327385501163,5.0380104312676925,0.8835755718449871,3.016545922957972,-0.14487166938628127
146.0,13.648809964253601,12.77062202603825,-0.8781879382152802,-13.193900890788855,7.247686443303067,5.926258736713442,-3.3705717545826674,10.221937805300012,13.933601563376904,13.321568085992054,7.996328434071151,2.2437730467633266
147.0,-17.233302118498756,-13.5619238721704,3.671378246328409,15.33552707218264,-10.456840472915303,-4.884641279669797,-3.864630532837308,-0.3881664769154991,1.7098368639763013,6.752084056407219,-2.063786479659484,-2.515904521164472
148.0,-7.844580167928121,5.035163441446014,12.879743609374168,1.4249377839793986,-10.358569817462753,8.937357002849946,-2.126695524483778,-3.113927972388909,2.671055673981283,8.209555124937939,0.807682307003631,1.6066008033205805
149.0,11.497743014385538,12.40387339951939,0.9061303851338316,-11.92427361686813,5.302248766709335,6.628900985460585,-7.942752892549606,0.3651545428452869,-3.2462384818248324,-0.04222388220805939,-3.8201404530238543,-3.4318797259629883
150.0,-21.202429671617995,-9.324954349644798,11.877475321973105,15.298566894826948,-16.5366493398184,1.2409551210808387,14.123606467463738,-16.612970385072998,-24.298074370949198,-26.96610272866476,-14.74679670629249,-7.948659604379381
151.0,14.051557017221185,9.825347606518118,-4.226209410703234,-11.973320017679987,9.133771602639676,2.8323334440209886,-2.144494380662122,2.0551657027319834,3.27607555160729,-1.5564474394598715,6.23531868429059,7.8827942390391135
152.0,28.44570581034677,5.288147040456648,-23.15755876989034,-16.893752330590974,25.784888134300992,-8.912001656021989,-3.498448916657715,10.784579997103297,11.661448677845549,11.680783922951877,16.429907054226284,19.334549597668765
153.0,-6.226604531656722,-16.52398306985727,-10.297378538200725,11.354198613672905,2.0067387094008406,-13.395654874755987,-1.3712720136517849,0.8569042526733313,7.042389792723366,5.356075557601027,-1.2239580290628203,-8.285274393816401
154.0,-4.799009340630702,-7.855061272743216,-3.056051932112564,6.387427360945777,-0.830502825056771,-5.44489810508485,1.0340129889006944,-1.580026907872735,2.1732023069156137,3.138161657157951,-2.208512423041381,-9.23111158329592
155.0,-7.2056294988280385,-2.210493310401528,4.99513618842662,4.689456264234437,-6.063541640351449,1.3232177958589542,2.1527257060263523,2.552740050643156,-5.112512878346715,1.7918172179658942,-1.4852768743233273,-1.1070941218258943
156.0,0.5675009346345279,0.9929293901731384,0.4254284555388095,-0.8015584276131764,0.030624614280894136,0.7206136870891511,6.23403989075184,6.48975013500973,2.5419330208057915,-0.15152304781059042,-3.530308228020345,2.1338153888057834
157.0,-9.262262234720115,0.5498541511422368,9.812116385862552,4.40914214711696,-9.492820253570844,5.196156901583559,-1.3734587866754553,-5.717388365053312,-9.254896416675278,-13.74529348486093,-10.02013647948976,-7.331931778120479
158.0,-1.5476292901021513,11.121292297685393,12.668921587787615,-4.817918413656834,-7.134416462322931,11.91493116005172,-3.392561403418109,-7.305044556783902,-5.292843219442748,-3.3945870830378198,-1.512833498814421,0.3953413499784113
159.0,8.082407887616846,17.038799878634045,8.956391991017192,-12.59670264575229,-0.45526268688295435,13.021797755894038,-5.567890995684609,1.2015609334341537,5.9558090381403055,9.23481451858286,16.7231126336616,13.329686353163886
160.0,9.807204931250636,11.039085848171807,1.2318809169211011,-10.38409038024883,4.275052232842475,6.083843437104962,-5.645239297684904,1.4277515680616721,12.771597972629186,11.843633239540345,11.874205629848541,6.104996793695458
161.0,-15.964366728909368,-27.008169064564456,-11.043802335655215,21.44539524392514,-2.469974128358685,-18.99828132826346,10.143548094800686,-3.804489092826053,-13.831828833765806,-18.986383653687472,-23.71107507107922,-19.393031034662148
162.0,-1.7985927097118706,-5.479221410406247,-3.680628700694575,3.678488965217621,0.9321679314824616,-4.632824484941597,0.3943147009783088,0.06160039300302261,0.9649759526547248,-1.3674094696726904,-2.4782957085953603,2.7010963958649388
163.0,7.128927721703365,-11.810936069243287,-18.939863790946816,2.384757982312347,13.104244866071312,-15.353191222081684,1.8158448145359727,5.1915448785538265,-0.9740182130091211,2.0515534158717488,0.7627123862414609,1.1307562894658647
164.0,1.5090506280988185,-5.429775909297812,-6.938826537396708,1.930707962910406,4.214944954117392,-6.166382128947684,2.6731455835329143,2.8286038619399565,3.2862936245687777,1.9631159881112337,0.23609168744060852,-5.0857020552743935
165.0,12.21906213216882,16.49905337916123,4.279991246992462,-14.383928306645528,3.960410855845864,10.403575097967325,-7.129073944198764,3.124602075519034,5.015925525141054,8.14569212326388,9.878099385963226,5.691986811152463
166.0,-1.3809293707504264,13.578252135332963,14.959181506083532,-6.120756647306544,-8.180109124652311,14.27989400700408,0.5611220747095329,-0.14886998881885483,0.8134094027682504,5.939417896090443,7.495984274068171,6.651388468262623
167.0,-1.4491195990246573,6.024636392135793,7.473755991160614,-2.3097443278432865,-4.47418822943529,6.758524613916196,-5.897821572190762,-5.029055936873764,4.396686824362482,8.79559401263404,8.490632231063922,12.423312603257921
168.0,-25.77695911959948,-23.242523368212588,2.5344357513869937,24.56409804654242,-14.173446692558716,-10.424396311153838,11.570737852397379,-7.245747786399503,-10.282581185706388,-9.612616415277916,-10.010122315631342,-6.055912330810129
169.0,9.637055296750383,12.544343743265909,2.9072884465155213,-11.04071992248873,3.418873491204554,7.734437064190916,-0.5155089974137272,7.117421526905756,6.610963292458444,-2.837916525615327,-4.551571763716454,-5.1362148367365545
170.0,14.710463512160095,1.8695295993258763,-12.84093391283419,-8.324576765716047,13.743034543652591,-5.474938187818465,-5.614503346087844,2.8714538913786942,-14.830327512747605,-18.01941671024188,-13.470373628166307,-12.432403639998247
171.0,-18.951630977444026,-12.666991169055821,6.284639808388264,15.767979109864445,-12.657978820262924,-3.175373830875037,2.0292065359098825,-14.797347095500164,-8.203025912032615,-11.450142860307658,-9.908809160012321,-8.055771410263777
172.0,3.346893168612354,5.0808455809002115,1.7339524122879109,-4.183406975123702,0.8404988039512036,3.4316814206921924,-2.786412536748066,5.4024919064906385,13.13742088770144,10.450236620674229,11.663556230980191,3.874763051874169
173.0,28.75163984126446,5.761845174284474,-22.98979466698,-17.310966904642754,25.903098851429803,-8.656953490159703,-5.237015061105463,14.851240093407824,14.164599214572995,16.471003261640853,14.185255545629557,9.156197953783897
174.0,-14.296034028575605,-10.406588807851694,3.8894452207238928,12.372439978041745,-9.058893232537976,-3.2098665772946147,5.1744632816216996,-0.8098704648665045,0.6302668976940176,10.021420772237375,1.7030911461054057,5.17095325893372
175.0,-14.947132017971283,1.7901616713628128,16.73729368933401,6.599926316856184,-15.883626328357396,9.24571808626957,10.407960950566267,-14.38053535070607,-15.217627121622705,-10.141108478603002,-8.276706696761714,1.0809154027328347
176.0,1.3598848929483545,5.385379820096066,4.0254949271476725,-3.3471354305323087,-1.370151327687541,4.696158197971093,-0.5790209057378792,4.620595512949725,6.579804075556734,-0.3529230014076661,-2.3385943175224764,-1.0290810528903651
177.0,-1.8059628549469002,-0.7560213446592976,1.0499415102876455,1.3127713768875542,-1.4617088965839518,0.1414760372905346,-3.5866470609340846,-0.8681476848266095,-2.2681188498992313,-1.1949582758862118,2.36903623324039,0.9446742332426701
178.0,19.329631142924466,14.341037112428712,-4.988594030495555,-16.87652930437252,12.206945129108961,4.669384801947177,-9.73065228034586,4.784560201952515,3.643183274517318,5.786266881905748,11.207538122017255,7.992689858545852
179.0,-2.3413884694574136,-19.690864627452733,-17.34947615799507,10.97729470087946,7.554282684777869,-18.532135710316396,-3.204875848952697,1.896634857109351,-2.420283336444826,-5.634843426887649,-6.425702465704158,-8.353863032496688
180.0,-2.8824500868506617,-7.933294963487551,-5.050844876636757,5.444946118611106,1.0580639704448096,-6.5104213600689365,10.467983441398548,-4.150966120947718,-11.477375492135101,-9.425291204558192,-7.121944378360772,-12.567544757545932
181.0,-7.561791331761239,4.525667461532271,12.087458793293447,1.46854023404706,-9.848283056930828,8.362043915820353,2.6839278057307645,-1.2733735598282805,10.510806183441016,4.3183151797209085,-2.8699873204792326,-3.453717336161593
182.0,-12.145165548798609,3.650093345428591,15.795258894226977,4.266219565150169,-13.991473359844216,9.697791841428986,-1.4809327924316031,-0.2321635524000749,7.175491893381135,3.64395040036208,0.19197409889728334,3.0449620021947665
183.0,9.393771888023007,23.44654077436148,14.052768886338212,-16.411065461710525,-2.269983126829681,18.805366832960416,-5.434788189230148,-1.3934387220502926,-1.3624165342630379,1.602752586413231,6.81930885929055,12.047438320790306
184.0,6.596426512297181,-8.453534279448334,-15.049960791745711,0.93272209328802,10.805408172896037,-11.771068217999789,-1.9366379867469474,0.32492672037488207,-8.781655174576763,-8.069545607973048,-3.519966272550945,0.538043556888252
185.0,2.361537731580769,-11.075903080459813,-13.43744081204055,4.363527567609803,7.882598726730137,-12.27301500220291,4.936928481561848,3.197385900185159,-4.160884511924342,0.7416420980445513,3.3747794317948445,0.9963752587913413
186.0,-0.3547060576122596,-4.894263685418338,-4.539557627805724,2.6403056939619227,2.0762028840620497,-4.733420761164228,-1.38648580763779,-4.454554628333084,0.5561682187558374,3.401016612076873,2.0016587116541342,0.4888157796582383
187.0,3.2909235862262145,4.9658377584842155,1.674914172258525,-4.097999398785703,0.7927706138698161,3.299500081481206,3.364572007257056,5.067268010828612,5.555729711579083,8.723183412147312,-0.36441507922279986,0.9815183978623168
188.0,-4.266131054088384,5.060420756105134,9.32655181019393,-0.4298290068455861,-6.73104544005677,7.164838027015724,5.572025375079084,3.6586201240099547,6.616713362976594,5.506881801370248,3.8847688621306946,0.7883963112118941
189.0,-5.591484532190882,-17.02838566235697,-11.436901130165936,11.289665591856453,2.911828135538453,-14.191494536464447,-3.473139725435189,0.7139403163784934,-1.1948330288708924,-13.543273005533385,-10.908954214156125,-15.394943863704537
190.0,-2.5063521023115496,1.4769775763398227,3.983329678651223,0.5001956825844607,-3.253014495092973,2.7637237669252066,-9.41843539194693,-5.682396432825068,5.063449852996665,2.3901518989265247,2.157340268458065,1.3697721161113012
191.0,-2.081405601857667,5.116545801220087,7.197951403077432,-1.5342318540082136,-4.646150195306188,6.186298128872239,4.726197938996617,-0.6361010575372212,-1.640859086389355,3.293976085170129,8.14849697357215,9.958130014141933
192.0,6.843124703868366,19.351916535985012,12.508791832116316,-13.044580166587885,-2.8397366317489334,15.879355091079008,-0.5015407551017992,-3.7171572093891654,-10.210616567209252,-0.7673817835296439,1.1857204988834789,2.818613995586097
193.0,12.629886278982639,1.4460443263795453,-11.183841952603274,-7.077199907685718,11.896773125689613,-4.840390968015367,-5.261145729776928,3.7786611417294953,-7.469569512360724,-5.21855985651532,-9.841743151631176,-7.7352344286886225
194.0,-11.824938445488401,-11.196850515866082,0.6280879296223034,11.536146928401777,-6.242426628810385,-5.333492493189329,2.506856276961689,-5.125751193451604,-1.3476478043302444,-12.512109559305745,-11.95236489373761,-6.952077332367897
195.0,5.103826343631116,1.0958009307622332,-4.008025412868831,-3.0864874543618654,4.611067599294016,-1.4262355011709227,1.328634040102345,7.500103129799211,5.407480214886663,1.4841356315120109,-0.22905726569364537,2.5049626538527656
196.0,-7.123949904437695,-10.859836286506821,-3.7358863820690718,8.997849812103023,-1.7261326011057823,-7.3476729633271205,7.769517975937155,-2.029079340409674,2.8375456404804273,2.701100701543497,5.385063793120271,5.554438472043342
197.0,-1.5825421768270485,-0.8664648120775453,0.7160773647496361,1.228684201924275,-1.1108773564257617,-0.047684353986029215,-1.6926054130069073,-0.46703880682223553,10.595204762233449,14.592290007764605,13.896376823333172,10.913340526423527
198.0,-12.207620205980893,-11.459545450288989,0.748074755691988,11.762841067983707,-6.525161095079893,-5.329005484720864,2.878794755359255,-0.6517356292176085,3.697369629637235,15.968758528891392,17.662176791763653,3.678062227392945
199.0,14.387029821028126,4.379041941648497,-10.007987879379556,-9.366338421178188,12.22402431832952,-2.7869579613185853,-3.1669695573998773,7.233361744058007,-1.4261442828740347,-3.0157973487270393,-3.993087081930195,-9.241512406743215
