Time(ms),I,II,III,aVR,aVL,aVF,V1,V2,V3,V4,V5,V6
-200.0,-3.4963822760479695,-3.4295256017082387,0.06685667433981646,3.435305209009379,-1.7487979382528147,-1.7028639572443716,2.039834582790552,-3.401721517504653,4.0019167734005165,8.331070705625036,-0.05853357687788238,-0.9357524691202146
-199.0,7.939346334039872,6.707348074392556,-1.231998259647294,-7.275464028284262,4.621583659811549,2.7897426879952825,3.498466510280493,1.9673289106765632,5.46030433596097,8.131511819491845,7.213938415771903,7.784554332122401
-198.0,-9.551713977673097,-9.935525416358978,-0.38381143868590506,9.7889353535337,-4.620911559709466,-5.192535650045234,-1.6170881322438662,0.3402119582612577,-7.827142015225679,4.621009567600737,1.311779341788611,3.8835683508205503
-197.0,-2.5466182866050686,-5.935755999078756,-3.389137712473707,4.2053516241931845,0.39105755686830057,-4.621471079492596,0.8842791476422314,0.5814378806499414,-8.7647316920991,-18.932242888152206,-11.53549531906244,-3.1809157279014832
-196.0,-1.56952361999506,-7.159072863369705,-5.589549243374636,4.325580780044658,1.9852555381051544,-6.335597062981684,-3.346816508551439,-7.686326756488724,-15.450424055570613,-30.791245600156675,-11.791035521538959,-15.87074975850044
-195.0,10.609857410203501,9.032425999247378,-1.5774314109561456,-9.863285075932815,6.150223444330473,3.6879934375203014,-1.2698619389713952,4.834529281248405,7.642179421084062,0.6059697053141715,-2.4125762342005377,-10.81059116791034
-194.0,-7.35530322210055,-4.3197577800375395,3.035545442062972,5.871045351066702,-5.218297800188896,-0.6790159305442742,1.0740508067573382,7.093929732943961,9.820102608083115,12.937307326220383,0.3558913360881444,-5.110779455871973
-193.0,16.119666413773643,3.5697322208743074,-12.549934192899368,-9.812460483079743,14.30857555256139,-4.523363195150494,-0.723987492529988,3.9282889002372823,0.49027180811845916,14.394026659205121,-4.51955826391953,6.731764389087266
-192.0,-11.12022078311198,-5.761058519319129,5.359162263792788,8.474689290676258,-8.191840367581328,-0.15164665476231476,0.8011259840006643,-7.993409347741085,-2.821777943041655,4.526442698674307,0.33282567334606483,7.840635670548774
-191.0,-7.012450486556678,6.635291645168823,13.647742131725416,0.14910076182250798,-10.365506517642261,10.19402482056401,3.8273227844917264,-7.804314948952358,-1.085813862468948,-0.5980701477560793,9.03438411283674,16.03156604847462
-190.0,3.6989457508720376,17.50509416535244,13.80614841448034,-10.633726725496246,-5.013463825190028,15.63114406802193,-2.688148536152757,-2.3785569574396823,3.5214331002331956,-1.7821839938370143,24.294070355337254,26.04934941777029
-189.0,-4.369307452017396,9.264758452139024,13.634065904156415,-2.3921228802003336,-9.04171260391271,11.424398588551709,-6.200365323489641,4.60919505380051,1.756196017164357,-2.847351499364549,19.476949535936253,5.68224270783564
-188.0,-1.4707837093359086,-14.462193271649117,-12.991409562313164,7.950590084429704,5.799147774231977,-13.755198303222802,3.152199677307213,5.847793612323757,3.600435258167053,0.6186549895228932,-1.7482734237801083,-20.64372248218421
-187.0,0.4481601032432765,-29.993462196733688,-30.44162229997693,14.760882860911327,15.405760070411644,-30.17327867226454,5.787556363494234,2.4057011091841525,-0.9412252962720382,2.060366285059554,-21.804160329772717,-32.49045218144434
-186.0,7.290745340642622,-1.9257696604839332,-9.216515001126536,-2.6942291436000145,8.29358655871178,-5.61351356526033,2.4695575012099082,2.125437365262515,-5.457138946771795,-2.0442676281489955,-32.93030970011816,-26.896925354923873
-185.0,13.476212402633406,21.98775495585067,8.511542553217229,-17.74766558871576,2.442423094704477,15.277744348089154,-5.162498226211121,0.2325999283741642,0.016796283083244212,3.7266126734417195,-14.895403286971579,4.697599848235914
-184.0,-0.5235615826540778,20.695934696073905,21.219496278727917,-10.029830004530695,-10.835821124156746,20.978536999717786,-4.242783906279412,-6.653755865495873,0.17843916948918515,2.002506054185805,4.173254057797654,23.33764141795652
-183.0,-2.7641725101861394,-3.2632755078365587,-0.49910299765048016,2.983710218030428,-1.1806113045301503,-1.865612202290631,-8.025148887086079,-8.314838356687085,-10.100981477585309,-18.897468416801622,24.428948509854603,27.504298931085096
-182.0,-6.243353080403002,-25.957878358895897,-19.714525278492914,16.06402632292984,6.760104166886389,-22.902094498357044,6.141302672280207,6.361251627171943,-1.1027659719300313,-9.617901163516557,5.328181558123497,1.4272654340743642
-181.0,-13.796800558340024,-13.253215125768712,0.5435854325713425,13.563097587989622,-7.151691989619304,-6.34208862747616,14.887367257239802,3.493071702263419,5.810582169876788,1.4712701695551507,-3.781199172540008,-7.077972565124174
-180.0,-14.30766216586155,9.22673109837764,23.534393264239302,2.577495298876685,-18.90699269809469,16.395515963191507,8.276457157747377,1.2254797346573323,16.13077158449411,21.014308905761645,18.20751371860362,0.40670929156852065
-179.0,10.195705662770454,9.77933476008945,-0.41637090268087107,-10.027910792445178,5.239644092039925,4.700544552107341,-9.755733990402607,-0.08846085202844334,0.6660152505506423,14.918170636327186,7.658486333550687,-5.08165815325621
-178.0,6.8473923035234066,5.640364707636718,-1.2070275958865686,-6.203283457014078,4.041429652686317,2.241024987266659,-7.674923337150512,-1.0703055339262704,-4.653727979834985,-0.7156891057352563,-4.188783959483748,-8.201521589128776
-177.0,9.736111464558318,2.72602378910826,-7.010087675450016,-6.26775131967087,8.392686498860526,-2.1906976015749997,-6.26774085660515,-6.796208104357581,-11.50136914750071,-13.89256623939964,-17.227585452385952,-6.40845109690304
-176.0,-1.4908000756011477,-2.2891927955626388,-0.7983927199614662,1.8529653924558396,-0.31885869386681787,-1.5868187914678298,-2.016845839327897,-0.20085579433890333,-2.7359839757053157,-2.9832917315298317,-1.7575820212752742,-3.7794359041834182
-175.0,18.668806779236775,12.184613156500065,-6.484193622736716,-15.387070644683302,12.611825008187076,2.8913625899362674,-3.758430385459403,6.213157080317116,2.705286930960497,4.691538543692809,-2.803138449324372,12.979914163605407
-174.0,3.995332090748485,-5.24019566518914,-9.235527755937547,0.5806924432815422,6.577548667508755,-7.191343155475198,3.815255845697096,10.95337414302692,15.180847864843603,2.187643602302119,1.8832792549475825,12.450398015709368
-173.0,-20.8820953556263,-18.25204389852464,2.6300514571017337,19.60257362290789,-11.79293956023438,-7.837843609681893,9.269638265536575,-6.711768152552857,-8.008267596769018,-16.908607601902702,-13.583735465853215,-3.3382631921101726
-172.0,-12.249244249415575,3.6851305805135777,15.934374829929151,4.318464141419728,-14.132677018794329,9.788063213099296,5.523565747273076,-9.03253026978679,-7.717755648444645,-2.872606050214594,2.5932806757802203,-1.963742676754898
-171.0,-10.113788804476677,-4.377494104281247,5.736294700195331,7.206828794853883,-7.894672018562776,0.662049742192234,3.9254254813891847,1.272190549024982,-0.305750807484509,8.22440770420371,11.538082338180015,-15.586687627550404
-170.0,19.140616932061484,15.171166219160956,-3.9694507129006755,-17.11080612278397,11.577302763632346,5.664987468302119,-15.165572925386696,-3.4790428514778595,-5.6030387720723915,6.950832231042241,11.845626111691333,-5.092846322431087
-169.0,2.7096750582647076,-2.675572613712413,-5.385247671977267,-0.045727014060178206,4.064126389543786,-4.044668977889974,0.183536813327156,4.193758262933176,12.561601024634564,2.6178603341045896,-4.078434443119727,2.922867391185104
-168.0,-7.708768282306735,-9.976016963370078,-2.2672486810633203,8.816835883040806,-2.7052194322425107,-6.138335010050528,10.882650024731884,5.670041159190375,5.9238638868158136,0.6125246258056678,-2.881731515943829,6.82443753745111
-167.0,-3.078972261518842,-10.679226478229062,-7.600254216710063,6.853944300726068,2.279772203018465,-9.161479992564315,6.435710218670453,2.679117675934247,-1.0545506304206098,-8.752101163308058,-13.552025213579977,2.9814369437258494
-166.0,3.9367354054583075,-4.814496901981213,-8.751232307439352,0.4905388335079792,6.291361480468646,-6.811226534704483,-15.392460272205906,-7.853702993642306,-15.445355359466113,-9.508875392757883,7.840575846635826,13.578442527251767
-165.0,15.874786766944409,22.023881990894722,6.149095223950667,-18.979307683455076,4.818558725095757,14.130237893494897,-8.581971704358589,-1.374568894453768,-0.6691807731943502,9.857070268426764,7.538990240515498,3.256121656811286
-164.0,-0.0828618021249703,15.267907640461804,15.350769442587021,-7.545775190259553,-7.674641172142142,15.347951067945964,1.3432105107110681,3.806611208479988,13.64207196020456,20.521511007879333,2.0948015501583295,-9.278345774685175
-163.0,-20.251679299455848,-3.101365664952815,17.15031363450307,11.644864132971906,-18.65306674844659,6.981519747346852,14.228866300547981,7.420936472738371,13.937130255710393,7.328088576366332,5.549658763971336,-11.388064509176395
-162.0,-11.326558508611491,-7.3123159745688335,4.014242534042511,9.291244525322952,-7.69796779171547,-1.6139236662720278,7.785126798899795,-3.5001439853794483,-3.2743858036252877,-12.774362695420596,-12.822013259815304,-5.727669647933126
-161.0,19.84021654938836,19.031099479077525,-0.8091170703110413,-19.378771649510156,10.298077261627633,9.067811175792496,-5.2318730457224785,-8.03261807151667,2.3048523841721353,-5.110012521474638,-0.9090586807468091,18.461015695946777
-160.0,3.4513581462681384,11.850886715575463,8.399528569307225,-7.665045302031545,-2.5010582625297015,10.161114197276458,-3.134415428501838,-3.7271215364587857,-9.880129320150868,-9.486256458583288,2.926468230316493,5.2010894397383955
-159.0,12.651356582462315,-44.966662924786526,-57.61801950724885,16.15130843573114,35.18605829899459,-51.33589538519648,-1.4482060502676333,10.67304136271037,-13.946299824324608,-10.912773726999328,-1.005261378781002,0.583898603413723
-158.0,-2.4846957440777975,-28.47640246277281,-25.991706718694726,15.479245004801127,11.726953996136197,-27.200814809559297,-16.242635333772782,-8.608599355696484,-29.03989898634585,-16.93712911797939,-15.68053660869381,-21.543503412297078
-157.0,-11.899336619227851,-3.3056084211799757,8.5937281980483,7.601951938107622,-10.191652153760373,2.5959260113369824,-12.702325881849488,-8.368146938502088,-20.03482699154561,-14.755818774395728,-12.086907627485067,-23.649984885964166
-156.0,12.645266733196966,20.75303997949537,8.107773246298724,-16.703840675592843,2.249105936987675,14.458771463996865,-2.969168336563535,6.308574754043695,25.702294725790182,29.371323342589218,15.600212554527864,2.683518511146394
-155.0,-13.09918497234513,3.5319973309881654,16.63118230333354,4.770394439020327,-14.880089853843483,10.109047484027965,22.503874808753785,11.324596209726957,33.945289710850425,28.099856864282934,5.851952311197501,2.6536771221926534
-154.0,-12.582208673873321,29.887919960454145,42.47012863432733,-8.677165673260262,-27.537046706663936,36.207350690672676,27.267809724127062,12.499277025534619,41.45033270266288,32.003047446969816,18.739040697820585,27.664760637009437
-153.0,-9.235182045876194,31.753087281108684,40.98826932698459,-11.215905798024519,-25.120065304113826,36.32264827218213,18.0099041634186,0.36190635941804317,14.776485859512666,8.75740451609838,29.832351872005955,44.216098017554955
-152.0,-8.913383408640396,5.427036342627085,14.340419751267177,1.7766394501692009,-11.634269182003374,9.838912809380059,-6.911785176249854,-9.097175879374051,-17.638588392355256,-20.398694894301645,1.5401418228433723,16.320890932385964
-151.0,8.582902240477376,-33.160569243107496,-41.74347148358497,12.236987143738034,25.15566334309108,-37.414843749691954,-18.419374683161543,-7.3808211868296745,-29.973388792404823,-29.52174912035522,-29.307492087394383,-28.50430492527257
-150.0,12.044452070338306,-43.138601738265315,-55.18305380860356,15.570504246210252,33.68413848865141,-49.12105897689315,-18.116214669907514,-12.222112093924888,-29.073971055183435,-24.045500852789512,-33.48246329507818,-40.9757411124196
-149.0,26.706765739524513,-19.57857049652184,-46.285336236046284,-3.5418903746275117,36.486149278956304,-32.96953272997155,-13.705848234329054,-0.4376942997568012,-19.37284834761088,-16.565026310396195,-30.084787243026454,-38.107929681709464
-148.0,25.27741622349304,10.162726143278764,-15.114690080214377,-17.77678003275946,20.183413246523834,-2.434980708205927,-9.095292478299932,9.915739097328403,0.007107943660575877,0.9002894172609686,-4.945341929185439,-7.856083969288303
-147.0,-9.681283930657578,4.406450830002937,14.087734760660172,2.6593920117091967,-11.901620454572345,9.207547985525805,15.97490249362989,4.80092728504512,10.158680636023032,11.940602116964016,15.209385259304797,12.475825771692975
-146.0,-20.034475053279476,37.563797735696376,57.59827278897532,-8.742951017398576,-38.83958438690023,47.538540781189845,10.972030107310815,-1.189111211283013,20.201135217330403,26.871632477191472,43.82887920685386,36.50622768247712
-145.0,-19.53518069121239,37.10318944872295,56.638370139935176,-8.841072726837911,-38.116609879863155,46.9039319577349,1.2153136808226002,-6.361168714965047,10.707143632453935,18.71207761535142,39.61158086150665,32.87089591923353
-144.0,-36.38779649957898,1.698167346866006,38.08596384644534,17.367599529267945,-37.19328682502049,19.923159563332227,2.662257139610169,-11.653875547716702,3.3404053228922947,5.013788572487252,12.40537179196086,19.107204111717312
-143.0,-5.147924662318793,-15.794979417116252,-10.647054754796976,10.497305360040887,2.790858369060162,-13.190022902832348,0.20091244184519752,4.175155561628541,4.54852405593458,-6.017577450401027,-17.83243010342812,-3.550664683919064
-142.0,46.51806573564073,-33.13533794209058,-79.65340367773102,-6.660245194349454,63.04970146325128,-56.43994143495982,-5.322070281796897,22.41614678473868,5.38341208824281,-12.094266946293205,-40.60016985972765,-31.13558434846474
-141.0,51.018326014761904,-18.077888465111887,-69.09621447987396,-16.511035126320838,60.104365956446685,-43.628354620699234,-0.2058681616229876,21.35322055280078,1.702799875939581,-9.65658802180729,-25.53351026751703,-28.674676026790745
-140.0,0.8419223229055603,1.2957065176859146,0.4537841947799137,-1.1026684472828698,0.16779365912901056,0.9180607076991016,10.263384157613462,0.8128869311777782,-2.8041761903908604,4.6111341087799005,5.284502288639867,-5.382627773978847
-139.0,-58.47007854467482,-14.254364793138201,44.215713751535866,36.41248421377637,-51.36507125139312,14.952095327782265,7.3497739685867725,-29.436760270342564,-17.929065555577147,-10.447432882330837,-9.036732030599739,-8.28044417973024
-138.0,-43.027363625465554,3.7869041270568795,46.81426775252163,19.59389748924482,-44.94177595320299,25.357798112575132,-4.559839732277831,-29.030829102549692,-23.292736899896756,-10.023967217590272,-5.9967215499672015,-1.8704800497634073
-137.0,4.475969403828852,16.69293538973622,12.216965985906896,-10.534176728743516,-3.8934517612242914,14.439578289008725,-11.873983693333624,-3.4138500610935782,-5.858897290806569,3.0255822895258024,24.534326254438206,19.289819974090193
-136.0,42.1846147022143,25.597442939665488,-16.587171762548515,-33.926145639161,29.43739251476845,4.493870180957041,-4.7367269226842295,22.620169240606163,23.834143025192347,24.404759342364873,41.64476931831831,25.055618604571244
-135.0,33.43459678136187,22.7872715012326,-10.647325280128504,-28.156238352348957,22.087384274708945,6.059838154701256,-5.297070261985411,9.759844615293957,9.238759266128465,-6.617772168035437,-5.265316053198347,4.1700327175302565
-134.0,-4.446423246232683,-1.6299158732052614,2.8165073730281875,3.060016625898472,-3.6682060588437437,0.581079275903432,6.474923475566218,7.848946125986993,11.040121507209214,1.3138241770715315,-7.919023863161036,5.309652527948206
-133.0,-8.330341172120868,-16.671319043050598,-8.3409778709295,12.512550877248643,-0.03421210760222326,-12.523047493638844,7.9334423498194395,3.6636427925559225,0.05639725933609441,1.1162740287251665,-7.869797164920044,-0.39829144820171614
-132.0,-5.754000769601262,-16.340904129215797,-10.586903359614675,11.053315546532973,2.4549675675770737,-13.408105714528716,-3.860139146093811,-5.12727465044356,-11.192829248180796,-1.9676735732685473,-9.403107426574197,-11.345475318471847
-131.0,-10.7392647748368,-7.735134026844598,3.0041307479918347,9.24325592673589,-6.91047274105376,-2.3945205542853714,-8.374350668359497,-9.829803618808226,-9.184918560186814,-1.9302604213555612,-3.679755531109942,-9.907421425816306
-130.0,-20.306847431709265,-16.240556145862886,4.066291285846163,18.2861695829726,-12.143256711551633,-6.042468077103264,2.0907959216391188,-11.204702551841192,-7.487676307845575,-8.955874128134333,-12.600739068257397,-17.56201736830316
-129.0,0.9340531472568117,10.158717285321648,9.22466413806478,-5.5227474708408035,-4.176229430057681,9.654016104638021,8.026763266960764,1.255917935169908,13.301864557064325,12.69293233377954,14.11275480555215,0.06825547268112508
-128.0,10.541373009661282,20.286200071093226,9.744827061432044,-15.455468722721038,0.4506701324367004,14.975769698786257,1.072584516903357,5.7335138514331625,6.570535459819515,-1.956639104558008,2.517379264444121,9.587205491092833
-127.0,10.388506804503946,-1.1137039542523048,-11.50221075875616,-4.666017744631901,10.922322383799695,-6.269684201182791,4.189955419476153,5.556744436339365,-5.323475875374026,-6.510954264101319,-3.2858857390611416,-0.20865065380964154
-126.0,5.211296161585242,-3.4400164375159576,-8.651312599101244,-0.9035074403771475,6.909271207313477,-6.007068362644834,7.448334424653854,2.8380130859127934,-0.45223919543812285,-1.8026167219405689,-3.7678731754954846,-0.40094089786753706
-125.0,-3.0273780657750278,-9.245556955296008,-6.218178889521207,6.20481533206722,1.5717483295517494,-7.770990116330289,-1.1705937307968117,2.8180716276569804,2.8475801439709745,2.952552374820958,3.729179726589289,8.050425353163345
-124.0,-1.887253888121621,-15.281917161788833,-13.394663273667419,8.578195776134855,5.805263527432216,-14.376054619464911,-11.635818257858567,1.0206771559766619,-6.65496547462809,-1.6123788604476113,0.8909976358741782,4.743578590037082
-123.0,2.326511389198551,8.797929823174064,6.471418433975469,-5.567805826224455,-2.1035538706208157,7.676994129427814,-15.08115313899847,-0.9213720354041963,-0.6149363809571304,7.152340410831386,9.98056715854004,2.041597280906361
-122.0,10.139903044825692,24.153601386980984,14.013698342155534,-17.154313502529995,-1.9704399152925824,19.12702746936767,-0.12179043980831139,0.9595135183060233,4.835396097158047,8.90385161671929,2.0560384449632196,2.475496279319359
-121.0,-11.16682936298186,15.276161229738193,26.442990592720424,-2.0663753187494427,-18.759317188417473,20.824903297906232,5.260189095686431,-8.983649856002666,4.286375023762871,-4.7695004374173475,-6.935241431439853,1.8499731398232466
-120.0,-19.55750874092028,-13.975743539605558,5.581765201315055,16.74945378963901,-12.520634380360821,-4.231094338683826,16.836931873614446,-6.306028119389525,2.699369877192704,-9.444407491939469,-3.275947831762183,-1.4277257054269565
-119.0,8.80825924281933,-9.505636970591189,-18.313896213410338,0.40454700938058963,13.536529753971958,-13.942823427040569,4.134178447096417,5.882253760199744,1.4133820213155783,-4.696077397182614,-10.943005504161414,-17.30137427783854
-118.0,6.828762228990354,6.90943032597318,0.08066809698285482,-6.896899761432782,3.3541894263918763,3.543070740486673,-5.333912981792433,0.4296379946523867,-7.7975885533212725,2.0725157118269215,11.076914846665582,-1.2130650123973439
-117.0,10.553545924524105,0.853399821680652,-9.700146102843558,-5.734556808115508,10.108706807955372,-4.371280289470003,-15.55478380074606,-5.165158667440358,-13.960570646835512,2.7975992021266736,15.634710264288476,6.2288912783281525
-116.0,-3.163950306671831,-15.6058419653479,-12.44189165867621,9.431288014209635,4.617929457687211,-14.045099257898675,-2.395726926219517,-2.2276006194352136,-6.433908272539414,-1.2774578112478405,-2.130074974354746,-5.523019248551685
-115.0,-13.688838541612483,-8.10788379891722,5.580954742695158,10.866529229656138,-9.58497193494595,-1.2792405874582364,4.897335719140955,2.570201906475786,7.884840079916965,9.625837296360743,-14.867137923406869,-2.1318072525749256
-114.0,-16.99364798620078,-16.523461696360545,0.4701862898402034,16.806994398326466,-8.772313990593446,-8.038702869840998,9.25513022568686,7.940899082679477,12.408878832758818,-1.6875509834125726,-18.878906874310232,6.712083128488001
-113.0,19.55504195494409,9.243344668393412,-10.31169728655062,-14.428223079701537,14.958319235102355,-0.5457741240355531,12.765890667276254,16.841980110483465,15.256134789004497,-1.9632521928587776,1.098057164176998,11.551734290696878
-112.0,14.7629429192026,18.982368237013837,4.219425317811349,-16.901945163512437,5.283631949360366,11.585855556721349,-2.951356771467256,-4.173648323804167,-1.0312947418340546,-7.902633281901573,19.794489571404185,5.334277875482607
-111.0,8.626527311368903,20.27636632361173,11.649839012242929,-14.404699431321767,-1.5107062744933308,16.019741076702495,-12.038131946512147,-10.070725495170501,-13.600046824127688,-1.3226205338467452,7.840359502144652,-8.017384676483408
-110.0,-16.910909184697864,-0.27619190045269093,16.634717284245244,8.556207972277676,-16.779392328435723,8.147440051313934,-6.962815507019929,-8.16571041581267,-5.160013500555256,6.6489497273702245,-2.083443657054902,-12.787252562061639
-109.0,-10.352121841461484,-3.318761003561779,7.033360837899719,6.86957748336348,-8.70275952058682,1.8931990335954407,-7.915102309313379,-6.206564460663501,-3.8579386407090954,4.405274322478218,-2.283381696860692,-5.052275856977088
-108.0,10.092281581099458,-5.719459883850283,-15.811741464949776,-2.2387865046966997,12.942959764626497,-10.819407025377808,3.303758854975399,-0.491519699119797,0.4239265625387949,-4.703737641757895,-4.777196899491967,12.25068814985556
-107.0,4.886491544480993,-10.101288805791704,-14.987780350272775,2.6273424858935295,9.933485334824013,-12.529167459193518,11.119597627435176,5.147947352543809,4.128068043789103,-6.567907381721898,-3.753140053167214,9.781148142285293
-106.0,-10.960734847024629,-16.44144435055742,-5.480709503532887,13.717589521175125,-2.7341844222729703,-10.952819895592746,8.82212944898384,9.093715271001514,6.421639398108217,6.033816238409769,0.2555390409784284,-3.0345911854394583
-105.0,2.6348940404035517,0.45509273870407796,-2.179801301699557,-1.5280210903557023,2.4257654669429183,-0.8580557219737699,3.5963509895964627,11.066431107726885,2.8536989814808407,7.699422790228244,5.910944186311186,-8.846505362788587
-104.0,2.46582976173697,32.45177109181774,29.985941330080717,-17.437548586801555,-13.727643995255642,31.22246805354967,-6.120535122495855,-0.9129688685821868,1.8979922629630799,10.081512585649584,20.64703711848251,8.270580934036937
-103.0,-12.452351889706124,-5.813751631361869,6.638600258344253,9.082598324821102,-9.578673644483022,0.4181680886752215,-9.2786007728678,-15.952593607862037,-7.402156437804455,-9.106856813110324,-0.3468033260350163,-5.286235672852063
-102.0,5.252952699646551,-13.729090308783501,-18.982043008430054,4.195883372068755,12.094316867914744,-16.345691537871435,-9.123217311722394,-11.589261725310363,-13.42676597154557,-19.51685640075966,-29.680137404888598,-16.91252448509775
-101.0,13.865131185725197,-1.6392360818256153,-15.504367267550808,-6.068486197705234,14.666838507692479,-8.635394162340914,-1.8507380617976734,3.9762530178636695,-0.865151383023,-4.930713135742818,-19.18684528211019,4.070459857746009
-100.0,2.491886065824138,-7.480307764855397,-9.972193830679522,2.5447736968300263,6.29288140545495,-8.7052682301049,13.19158693491529,6.9213880164123776,9.739872742257061,5.603050115560476,3.382428065352869,11.128860042159307
-99.0,-8.450484920373174,2.3776840542002056,10.828168974573408,3.011330419349018,-9.66185225346034,6.629940009130708,8.511230443419882,7.137790281927593,10.341611892882971,13.237496175010138,18.083861500409,8.122365611495391
-98.0,-3.1363038459526136,17.055677518200195,20.191981364152817,-6.98543808424793,-11.694327144032606,18.656833774893556,0.6802555435329785,2.078780798863515,3.1869883369207335,5.357900063783704,15.425280292969456,2.3092514405710975
-97.0,-1.091232570561668,11.78765171079732,12.878884281358927,-5.3786061878899645,-6.945102861077329,12.293142416397183,-1.8412059685824038,2.4066427526285707,-4.043489560431629,-1.4185788678216324,4.29088840720989,-0.5107505503642997
-96.0,2.5961250978973145,-5.29385401314804,-7.8899791110454265,1.3892894155129425,5.19680243289003,-6.6271999428610915,-6.850017020688673,-5.76203938745472,-8.361514531135485,-5.4352560073457035,-8.173039997654467,-9.379203012428748
-95.0,-4.779763204931276,-16.58601738409897,-11.806254179167686,10.713548513828139,3.541026550299094,-14.148948936051145,-0.2414069357237132,-1.399744066292676,2.676205917577298,0.4977023913372354,-2.7837304989779064,-3.4050814125399675
-94.0,-5.619762495574608,-1.4949494282871196,4.124813067287544,3.4995265142343843,-4.8458715559864185,1.2857768721652274,-7.079699536385756,-8.117952445224834,-2.4243123491747998,4.745246802287626,7.458011499309706,4.19729875239566
-93.0,9.047102713965433,2.783382054533452,-6.263720659431948,-5.902172427568006,7.683345367774441,-1.6895350216489424,5.319715451583884,1.821169600229652,-0.7571521069004131,-9.163318107511403,-11.340500812854815,-4.507857352293824
-92.0,5.216066190357186,-7.375740816394546,-12.591807006751777,1.0883780835441041,8.85629015570466,-10.012171491367997,2.66587874146408,3.3076132103686677,-1.1145170938035105,-2.4273154199302804,-7.231802310753261,-2.5245711734703784
-91.0,12.818765124959025,7.051069304870843,-5.767695820088292,-9.926927319792282,9.249107515937363,0.611905243279653,-0.5434753171623274,3.4995071414280643,0.3279791908199783,2.7879894100664466,-3.0111649591737457,0.33493575584177604
-90.0,0.8802296069301927,21.043760098229683,20.16353049129939,-10.950896145346277,-9.603861433390495,20.650634677073313,-6.6411900287459655,-1.196429649657774,5.000059018430227,8.268442374509945,8.128121956032492,9.615570566567177
-89.0,-12.409769141303563,-13.4625269560488,-1.0527578147452825,12.952819193494395,-5.716603559782593,-7.291162628588586,1.46233747896425,-0.10417748130461801,-5.468863884790489,-12.780299163143429,-3.768212032970265,-2.908040221540583
-88.0,-26.422438478147473,-15.822354098260899,10.600084379886573,21.066711370651646,-18.467577221942584,-2.64526159753325,5.843033725820689,-1.6326260624893294,6.16112392285631,3.829955456191133,9.021058797569554,5.299979539461954
-87.0,-4.368380481204081,-1.9668623253634525,2.401518155840627,3.1964113912668726,-3.337829596053303,0.26316185237334455,9.477810662704231,-1.5084220802143407,4.620692546406529,8.543353283865743,7.723710813038402,1.6632339149066058
-86.0,20.93487733672846,5.242453236614423,-15.69242410011407,-13.1344442510995,18.285438724803367,-5.176157242529236,0.35783309102648975,9.371820163808458,1.44248312977317,-0.8988270923574602,-6.656409055422597,-9.20892880828799
-85.0,15.244517989061483,25.412321292300657,10.167803303239083,-20.292971541768775,2.5125787794849863,17.764002524331055,-2.9133307550498126,-1.1148081607758544,-1.979998411553882,5.749088948247936,4.9566615542483365,4.206002372622089
-84.0,-2.3061299487505966,-1.009849287313413,1.2962806614370515,1.6945074958504769,-1.826497098804004,0.12036930349461716,-11.36844172053231,-4.73542071090481,-12.198374992254955,-10.55497148260542,-7.807016104512566,-2.524341578573306
-83.0,1.420223289134746,-12.595692165403754,-14.015915454538577,5.545542982937748,7.769715760185539,-13.327543393743525,-7.658061253801544,-4.076311602019147,-3.462469083167141,-7.89769543316592,-5.732926082253571,-3.5815059121892565
-82.0,-2.4785522226443404,-15.501274634404853,-13.022722411760524,9.025727133721466,5.241409446007477,-14.285501174985697,0.25427383860514796,0.34018640744923845,-0.5217350649310639,-0.20845952891251818,-3.0266799041027883,0.4397403865829006
-81.0,-10.593981481735003,-2.703279369222644,7.890702112512393,6.604318863913633,-9.277090234612285,2.644487041365201,6.678238640441262,-3.021817388180263,6.0584978430429715,3.914843478285942,-3.5813015013272826,-3.7540471558857633
-80.0,-13.081748245404285,2.620486641554434,15.70223488695876,5.263323294651929,-14.351105750071861,9.2058279603353,7.496890313717847,0.7693879833643318,10.212608369455992,10.094655632151147,8.5031951824327,3.528092268294284
-79.0,8.884452978292652,8.669473839797357,-0.2149791384952735,-8.824637818088043,4.589446376145878,4.186038490108275,0.6501917191797917,3.697354309194765,0.370936160583752,-0.23052165482680298,7.085104714731704,1.8023634015832966
-78.0,8.159477535154688,-0.847914597467164,-9.007392132621856,-3.625517979942177,8.545298213203747,-4.975063077697393,2.3287458470228435,6.634854089065352,-9.445972838848164,-8.891980392693503,-3.9210865233285848,-4.43752383990924
-77.0,15.190633258003754,27.03970928518906,11.84907602718529,-21.084321115711937,1.713466335099545,19.471628948035683,-3.535735224102491,-3.3719916401340377,2.7092679030700806,4.336841926665736,9.971618212247508,16.43007934350043
-76.0,-4.051475523554119,3.0100831332168276,7.061558656770948,0.47498584339608296,-5.59056794356783,5.0622622566882285,-0.2517915825722552,5.007486855261052,6.0944495347965395,6.768841436986177,8.524879029085898,8.708382767777307
-75.0,-15.591316469058516,-21.706204714931772,-6.114888245873177,18.68522581240253,-4.771219931129645,-13.95967948605697,-3.9159737396597656,-1.0839884975820069,-2.241082809809984,-2.012963693762864,-9.903829023075966,-10.851751955888705
-74.0,-3.586726458125667,-3.536277510500158,0.050448947625681306,3.5229724942343186,-1.8515417795317273,-1.7064843112793424,1.1851341777401334,-3.516682824907154,2.6103983157733874,2.9785085118306154,-9.994171186283962,-5.024697121675796
-73.0,8.096678542622922,-15.886901470702476,-23.98358001332523,3.9381832322343966,16.085755107577874,-19.889903982212225,0.18893376060374112,-4.277398462278059,-11.415213459640666,-13.471100643002057,-9.998884603678636,-9.451344279369652
-72.0,-3.166447731328647,-7.172382305880795,-4.005934574552088,5.134447936471593,0.46587283919907385,-5.614076884735236,4.094213495674557,-3.5799698738627557,0.48332820059474413,-3.4863026956226633,-6.150152779825396,-9.638971274216775
-71.0,-4.164937774529662,4.87938369475343,9.044321469283073,-0.3157204943899008,-6.635878702209949,6.942312591849677,-3.9999953379537563,-2.7461292962103028,-1.7000555334572174,-2.6883116514450864,-0.7457309086135011,-4.091135506748286
-70.0,11.86905270220908,20.25563056825865,8.386577866049485,-16.10493835052071,1.7900833432928338,14.301959928963232,-6.0608257693602585,4.7974027272714315,-0.4064345730267904,6.90494599056797,12.912685935920807,14.928067041962137
-69.0,1.642780721002313,15.965351081869558,14.322570360867172,-8.775353712457242,-6.370104911229445,15.120024036009719,-1.3864131254036915,2.9499420005698855,3.0429355267807154,8.21661550902626,19.83265209300914,17.474507086498047
-68.0,-17.6401896930365,-19.92943571587795,-2.2892460228414944,18.727274880150564,-7.709066490041976,-11.062887975198148,2.1180747429584046,2.143113480927476,2.1563965138906833,-2.580585451517119,-1.0831987258830669,-6.417364025900053
-67.0,-2.7621742530549698,-9.057621812040276,-6.295447558985287,5.926216153914353,1.726299421097858,-7.717923688272977,11.241389930290964,1.985785944699049,10.381775108452555,1.6627914895097302,-10.473823770881134,-6.122593173914239
-66.0,15.539045379450343,14.521051053058226,-1.0179943263920652,-15.013574063202274,8.308085343389005,6.782003988610486,-0.07061711065085152,2.272877154556198,2.151948678961837,7.274745133906771,6.414302169658393,8.532678520740541
-65.0,12.390033407424777,13.600669106099648,1.2106356986749374,-12.97247435187387,5.610648660436453,7.4333503060233195,2.393126912222975,-1.5510283452940112,-4.840269296462584,-0.8881371929352275,-0.21197354161482274,6.152654558550797
-64.0,-6.175958143463186,-18.391847855240997,-12.21588971177773,12.318645855832848,3.0349110918716375,-15.27465314865999,-4.309315847228343,-4.174637150376769,-10.939696559722812,-13.596297691678098,-15.948067280326729,-17.820499010684056
-63.0,1.4735170307161352,-1.699901449818153,-3.173418480534256,0.0837507889866087,2.3364075859561346,-2.481826337322804,-8.05748479600985,-3.056121033365352,-3.607636561410729,-4.102468561809795,-5.999763142270929,-7.294080742334311
-62.0,-2.0281755564258086,5.654003000182743,7.682178556608494,-1.828989621164653,-4.840331629203065,6.627839564700357,-2.6656102637508905,2.9317753354254976,3.952554354728562,6.476307662518471,6.396726034337845,4.668797494297031
-61.0,-16.046311408891544,-0.5212739133840523,15.525037495507425,8.276203205331464,-15.845079420745071,7.543726306167361,4.415408399252005,-0.8428897110210862,6.590153805209071,4.385028838057982,7.840049183003017,9.281254604000436
-60.0,-16.78542101265944,-16.697368381888108,0.08805263077125502,16.735239313533306,-8.412107323623404,-8.340929116927542,4.088810126650199,-6.806286263329113,-3.740024895791168,-10.561174659787529,-5.530061238249428,-6.714132145784799
-59.0,14.123578243603795,3.5635525660345526,-10.56002567756935,-8.85532074294589,12.292207996837814,-3.4577630623850704,1.4200782037838273,4.78456976115103,0.9255094307302508,1.74704800372692,1.9572070822005527,-4.767345099571216
-58.0,24.274352830637042,8.113213809349352,-16.161139021287813,-16.21611266293241,20.24978226757481,-4.065867772763742,-3.562196957486076,8.012768124862236,2.2011255712713336,15.4896696815678,11.750150566740562,9.387694400082463
-57.0,-4.808919100670929,7.546202443693782,12.35512154436466,-1.3245478794618393,-8.549041513928726,9.983664759149958,-3.8619442204232763,-2.7258325918526003,-0.6229480614453027,0.6664426701454005,-1.3982756272726808,6.853008650683022
-56.0,-8.186751041757876,4.635620832882317,12.822371874640282,1.80875508739432,-10.47252270932324,8.759179113686269,3.215520053554026,-0.8465209735147146,4.2247386592247755,-3.5049319235875203,-4.538940734021709,-0.6783416694845323
-55.0,1.6356228555224508,-7.6247159302666105,-9.260338785788816,3.0204150282132614,5.398748252555843,-8.492202515189994,0.7370550271345292,-1.8885619829035454,-5.5498896597398435,-11.435937377591433,-9.537219904761699,-7.735862213130732
-54.0,4.027250445458426,-12.71108640463295,-16.73833685009106,4.286130738486794,10.33014696643923,-14.694962401528489,4.753039272408207,2.292911973857014,-2.564417309233498,-0.3777997026671658,-3.587118668813262,-7.736924170300426
-53.0,-11.048014724252507,-7.105729998817525,3.9422847254352202,9.022444132038707,-7.472157268912135,-1.6286613482677241,6.12024032400084,2.1314021465407027,-0.8584306492535878,2.6384376211845213,7.260459045024858,2.0970054591846345
-52.0,1.359204294773205,20.344463993749265,18.985259698976108,-10.82248461932057,-8.791375858097357,19.69948297372432,-6.137649179576396,-2.059265660856945,6.8252236748115775,4.907908647739592,10.66694981919986,11.679801340113999
-51.0,-0.6688853413515163,-0.37654447949714953,0.2923408618541403,0.559963195108393,-0.4573967989419563,-0.004627844013268323,-5.335240039694439,-2.4655393271823813,-2.5002516567590627,-7.062575812148567,-13.04480124048612,-6.017533482095357
-50.0,-4.524758387278479,3.525297885959576,8.050056273237558,0.4678436546905126,-6.259507670957664,5.748692797437913,-5.166017125879506,-9.410194663919665,-6.397824638973929,-2.414252221193479,-0.7306205078235672,1.44001364982347
-49.0,17.2995071304633,13.92492415631045,-3.3745829741533924,-15.555764208854857,10.293144099987035,5.237600745463009,-7.03463145345853,1.1358634206625662,2.242802158820275,10.378317380840144,9.452185823871803,2.6989168687675993
-48.0,7.629981308775208,-0.37392549969161437,-8.003906808467118,-3.6429995209758785,7.780734581686037,-4.147107424181597,4.79231758546694,5.850875597318983,5.486737626238257,9.854154722883097,10.762526804302729,0.09829970149385692
-47.0,-7.548368532424883,-14.211317397317199,-6.662948864892248,10.867803280249486,-0.39328121974872676,-10.473830881948784,5.9231369317946605,6.784563385238847,3.4368232433311476,-0.8888914711472369,-6.714475423440092,-3.071165688645476
-46.0,-14.91038641441258,-20.011079940609246,-5.100693526196279,17.44609190248915,-4.929144504354208,-12.513585250044336,12.650681831727852,5.38958498152855,1.1769045754613194,-7.956044923506593,-11.67022525400206,-4.7845524979945075
-45.0,-5.626762410199815,-17.71691945215174,-12.090157041951429,11.649676347764277,3.210133668938477,-14.860915934672203,6.366137727959813,-1.037413235827672,-1.4946542235398006,-10.390474137989054,-8.645254900755424,-3.9267535792432113
-44.0,1.1516009067681146,-1.3453070644579852,-2.4969079712256512,0.06474312252687175,1.8819438961086976,-1.9571244287317209,-5.4762614284998605,-4.074923129352164,-9.23361308593881,-7.132478912308949,-2.535265533957669,0.8527707451157416
-43.0,7.795535778115738,26.479920974476695,18.684385196361188,-17.099779211518925,-5.466960694433877,22.545755830378635,-15.496642420483251,-7.92849453393058,-5.935317869049681,-1.406725205960253,7.146686888560303,5.052096659418078
-42.0,14.745072637441975,31.56139700266577,16.816324365223817,-23.119224204635245,-1.0613996039446505,24.15176259630654,-7.108796617895678,-3.3827482330093783,1.6719011610428414,12.846708319884334,12.708388083687264,10.913559113067953
-41.0,-7.675526650277058,1.240214571195878,8.915741221472707,3.254400383804999,-8.247546053364893,5.119351976846744,3.469631200034855,2.0527234034280557,7.981127238166203,11.27476115059632,7.363152198533978,0.24615697350434917
-40.0,-2.0632002073326814,-8.614625389131303,-6.5514251817990665,5.305897109801656,2.2070144310976656,-7.540594807384203,5.110874937918684,4.515529676273483,7.468899219872888,4.202099870443533,-0.4434597932065447,-5.955821682234349
-39.0,4.62510945872576,-18.92560812580319,-23.550717584529515,7.129952829529497,14.12186884792325,-21.27168299449781,2.641382830821133,2.736456334656294,0.3073422602581495,-7.003477816309363,-11.758471750161311,-9.473167828711956
-38.0,-3.405242850028172,-10.903619539065831,-7.49837668903813,7.146951362741425,1.9934792772124519,-9.151748486728481,10.4283747443373,3.5359304713972937,0.022230280694250537,-2.3636257223663275,-2.6754833789697177,0.8934639049899005
-37.0,-10.361673215317479,-1.4457012861509,8.915971929166396,5.905624855878871,-9.620932939613285,3.7095710621935183,-2.1717611195566233,-3.521404695155591,-7.500319665739583,-5.44118703403208,-4.151970687155254,3.2760252633255553
-36.0,-2.397859350114709,3.913922405920551,6.311781756035472,-0.7524680576634024,-4.34275639380283,5.089724063322758,-10.397584703371448,-8.569050819258006,-15.31041948609086,-15.86281108045552,-10.098417437200794,-7.824529941188892
-35.0,7.659664544571918,16.78005310336716,9.120388558795726,-12.217274446919447,-0.7207771821385129,12.927295838252368,-3.964354314884756,-0.07732236617311505,6.945823796965023,10.265544202119004,14.652175427282522,10.496586885848927
-34.0,6.134584137726312,12.912415575098287,6.777831437372532,-9.529732992617017,-0.3101839645677794,9.820550117536817,-0.38766886527018674,7.046201491610638,12.226479708644481,10.40660723773207,20.103016080952358,14.19525871368478
-33.0,3.145586571736912,-5.893836164776721,-9.039422736513327,1.3552256812318353,6.031691690433428,-7.414667247671417,8.246362818416774,7.762639964960672,9.881589258088784,6.9681465306224,-5.90821877154608,-1.6272081873911644
-32.0,-7.916446981112491,-14.515742106104296,-6.599295124991823,11.262051674686138,-0.6299911201531598,-10.50686143793328,2.9186494120441124,-3.5279277016968558,-4.949781933582247,0.09594753780715859,-2.7331927611615967,-4.785930976938241
-31.0,-2.1446903587548656,-13.009237642668863,-10.864547283914295,7.531604595425348,4.401998629290515,-11.964441896625459,1.7161317875180166,-3.9498617192732577,-9.825246147046347,-8.813225574426896,-14.71874115507477,-22.607193279441304
-30.0,-6.628376586720131,-3.9808053146399596,2.6475712720797326,5.3285933302896265,-4.6603674132981165,-0.6916559856770954,-6.6118489477761795,-7.224257616397139,-8.681680404655118,-1.3462337065386691,-7.898118077906431,-7.076601735492998
-29.0,15.926268057455736,15.14020510664317,-0.7860629508129104,-15.514709957025667,8.346410545864675,7.156017305034478,-3.000412738418657,1.8250630623994706,1.0517848501981968,-7.438286989309446,-6.681049353804532,16.234528948398633
-28.0,4.0279372501737605,-0.4351250590347622,-4.463062309208676,-1.7798848333591817,4.244416457128259,-2.4654263953267304,2.7177233352479093,4.643092888916861,5.722920900888285,-8.694616797021029,3.5767159682938168,15.327695223680692
-27.0,-7.247373965813397,-8.03143045085509,-0.7840564850416882,7.577349747857778,-3.2296135565797788,-4.340684034951331,1.2578314030930073,1.3629553038965376,-0.831115553272999,-2.9390640791659015,10.375257563386182,-2.8057339038226417
-26.0,-10.406000435445605,14.345030273650433,24.751030709096177,-1.9520019921298366,-17.579262199743958,19.53996209369184,6.83405689661123,1.611821951796844,12.360003709484996,24.911726298801465,33.55565180860756,-1.513244469402887
-25.0,-8.397102568258523,2.2132668272008487,10.610369395459546,3.1096875468312293,-9.512225829673845,6.405271915109432,-3.235302712091466,-0.08321133591023688,5.182108075184279,17.489834013290203,7.652787091175474,-10.087486935760218
-24.0,16.94782550289404,10.201857581106804,-6.74596792178712,-13.557845906643319,11.827821772153893,1.7198512410394555,-5.941925393674919,1.572787956332173,-5.161081654226432,-0.6930759389668317,-16.051532312923403,0.4917390138366846
-23.0,8.348463267872937,6.332625357521874,-2.0158379103509843,-7.403761072390536,5.231135838195197,2.145280056799315,-7.732271785867723,-7.2098048102853145,-12.585196102042886,-13.856828451476796,-29.20770977568587,-4.79890555165534
-22.0,5.8465477552146705,-8.737341021581706,-14.583888776796284,1.4597380799268391,10.177338114233889,-11.68167612069593,0.6950994784970681,-5.082873548013776,-7.513014923100922,-17.973651117308755,-22.80655648277078,3.3036070565473508
-21.0,-10.110860294657584,-17.643522265469965,-7.532661970812349,13.891713004912349,-1.251803043493629,-12.539743269976206,4.218784123284506,3.59009719484808,-1.4678864675734937,-17.494371223753053,7.315303587755631,16.059322074758732
-20.0,-18.752818865300117,-17.764755571932216,0.9880632933678415,18.2754671422406,-9.910104755377066,-8.42731832210521,9.17928518749244,0.5302769735557022,7.609812083025346,1.6549585079889084,11.092432670222543,1.353958840888783
-19.0,-3.0542798380457192,12.223726466656005,15.278006304701607,-4.564296916886811,-9.120344576001537,13.78500098923255,4.269415829241169,1.0225652794300488,9.989458894264345,22.494897479261752,21.208535165826138,-2.6242780658584026
-18.0,13.555866575263584,4.315007841744942,-9.240858733518863,-8.911066674293053,11.37552625577837,-2.508771511464376,-3.548797599452261,12.604079025350371,7.111079794321676,19.855058021161256,19.046572148333098,-13.133612969002343
-17.0,6.955196484679749,-3.363086030121119,-10.31828251480107,-1.8480695002778678,8.625240716819729,-6.804307572005088,-1.6631540414228194,-2.4681567146650556,-5.584555648323461,0.7935781285409647,-6.0452382624350545,-19.16474944303049
-16.0,4.745087573613553,9.441283179569266,4.696195605955625,-7.145618443945712,0.02317507326086954,7.112187683864993,2.269650170102558,-1.516272700429699,-0.40934554853994953,-1.1724529954223166,-9.761373568398254,7.8862624090280775
-15.0,-2.1991347867567317,-4.010932127529328,-1.811797340772551,3.128246460915191,-0.18785781561888315,-2.9382327929116334,-5.790626852213917,-1.7273285204772333,-5.729579934213223,-11.481676418108126,-19.97078251518804,4.348164372819316
-14.0,-6.378352876595194,2.781297924076606,9.159650800671905,1.8173840150046938,-7.7607020673849005,5.95078477485268,-4.388612374801526,-11.376671160703312,-2.5124093657987205,-12.050626693192878,-2.5273680859666143,17.038292490043748
-13.0,-4.483457285194403,10.589186880060645,15.072644165255188,-3.037544094812661,-9.772551833046295,12.815144189020923,-0.7075112016079539,-0.06513397553373501,-2.255969226076658,-5.022798310086647,4.657107716649797,21.86487139463744
-12.0,2.47906234212713,13.779001262248755,11.29993892012177,-8.11468276392679,-4.412871804605295,12.523722815712505,-3.9182789418018977,0.23072516755548425,-0.08691919956883536,-3.836227713381617,2.6824728971165763,6.051001894671151
-11.0,0.02542008443981153,-19.26757744859798,-19.2929975330377,9.63774923605736,9.64479327940102,-19.299061590231005,5.949086597868314,2.831436661821309,-3.239556549692919,-2.785531479782706,1.718758172756302,-22.506888510436077
-10.0,-10.955521885488338,-9.59943644355105,1.3560854419372799,10.220631130435958,-6.18429887764575,-4.066069130300743,8.646707746552417,-0.05197789744974468,4.525787585065171,5.868968377641073,7.429924606676774,-24.17630617784534
-9.0,16.623997059503928,2.161292888257229,-14.462704171246827,-9.363697480701076,15.579955446775307,-6.099202530619592,-0.9301228422909711,8.213635177217524,7.231961162870153,21.868739188547053,12.637065472048622,-14.241590508354689
-8.0,12.693602812454712,11.235559778033128,-1.458043034421804,-12.006779952828412,7.101764769840878,4.8584618136674855,-4.9947544973995015,3.1429419826616196,3.753780056722516,16.744282435622548,0.3441668502237709,-5.088718352821971
-7.0,-0.4195526996795431,-10.60958188881996,-10.190029189140697,5.558236909187549,4.826700801345619,-10.43220140353888,-0.7828911604056485,1.5702366457243087,4.369777528089941,4.552940880546709,-20.76870590309124,-10.801565777740283
-6.0,-14.397337645509477,-18.55360432678529,-4.156266681275924,16.446265875361384,-5.100300213497911,-11.388973978267517,3.110295587163095,-4.000416074192452,-10.397580786627886,-27.850183140424225,-34.37683636117565,23.53481351910618
-5.0,-22.55186944474602,-0.5683995463274165,21.983469898418722,11.613734855793576,-22.242216410816557,10.75076135776496,1.206107479801121,-4.368658907737094,-7.2805233856232405,-14.172898353051608,22.274003442537264,50.128270647445945
-4.0,-10.000505145545269,8.193433670220838,18.193938815766458,0.8801485419569248,-14.063172837662025,13.156951674012323,-0.30686158541171116,-2.957519354017121,5.39612080727591,4.995873499823334,21.54005747757295,15.158493884741237
-3.0,34.53648078923183,29.296556809152797,-5.239923980078618,-31.940734625665396,19.852934831012472,12.069721635367289,-0.1952505339465942,-0.3577442340143193,1.5435370671921882,-6.124369020944135,15.416090097912418,2.1055574895481843
-2.0,0.9526353051440193,-5.147152783046634,-6.0997880881904685,2.0696515734464196,3.498825538609286,-5.581898238169127,-2.5987044404910997,-10.763104227874146,-14.958726509779293,-22.623256024752465,-14.299939105482121,-33.916127095220155
-1.0,4.267091550175321,7.471344815360453,3.204253265185013,-5.823620504146099,0.5089755197430819,5.301437959282039,-6.9753603476791115,6.37745402004221,5.155167725101206,14.620012284216603,-5.785112075034963,-29.048359436742352
0.0,10.890569956653918,4.011257551126326,-6.8793124055280055,-7.4123371215861855,8.864462163983077,-1.4691713683272134,-1.1801757033984621,14.48229207216752,19.861479765288728,40.15971706574372,8.448825078845598,-11.33653053882465
1.0,-5.114779520040657,-9.899364252104617,-4.784584732064372,7.459214468101295,-0.10692374678335304,-7.375559665984463,1.8262005371671692,2.1088824845465677,1.428226826399742,12.33154700711264,-0.9698269769368268,6.556094055929133
2.0,-16.894527110511405,-19.6050037811862,-2.710476670674982,18.273278662112233,-7.035003854278022,-11.11046519833766,11.895589485611502,-6.960150199545496,-8.72146897161647,-9.606175319152577,-5.591124294556173,9.77820868021622
3.0,-21.137613585709442,-4.819848880140967,16.317764705568564,12.917671196752483,-18.75123744805418,5.799074305925936,5.831431898623409,-8.01035720501375,-8.743185216629323,-13.064792216037532,3.994202453810607,14.214937811549898
4.0,3.8180883706494697,-9.005122373525413,-12.823210744174599,2.6084485151352466,8.29433425198576,-10.939495864944078,-5.320775266610132,1.1959426061793055,-0.5559089480966595,-12.015123695633202,-23.82858036320414,-17.296985385917537
5.0,18.363003309979636,-7.829198897767174,-26.19220220774648,-5.250293258336917,22.2472101485208,-17.033117059046045,-4.704421285782776,7.798507875253328,2.0086370051262707,-19.85132276668998,-19.19399995444124,-6.637875745866129
6.0,16.009853720319366,12.9115011222834,-3.098352598035648,-14.437392075040421,9.518550571358437,4.885518754674517,-4.413390316135734,4.954335809275939,4.162137747638019,-1.2388999492635069,12.937486528978223,10.381328568649117
7.0,-0.7225673080556394,23.36230777941933,24.084875087475194,-11.285706687738259,-12.365780616763278,23.78012651907016,-10.817289894062275,-5.5961007202128386,1.7977613068973237,15.04576600495753,24.654092722492653,18.5732193679899
8.0,2.2254986512987625,28.231953207012744,26.0064545557141,-15.260400821921248,-11.856648398676656,27.092966825003977,6.814885060530012,-3.8340861479712354,3.3480791270991146,18.79127009030246,24.90133638401083,15.765502702710616
9.0,-27.57079784126674,-14.961832373323569,12.608965467943156,21.24669835839925,-20.058307867981327,-1.2090460757301997,7.9764921733392145,-2.8843591897942096,-4.701902355609923,-0.013509466185654517,-2.200272188924881,-1.5945014962004573
10.0,-10.399704369561137,-23.725358098470966,-13.325653728909916,17.051535046103808,1.4150971444769347,-18.486769639824438,6.406887890153097,-0.6732189477914465,-7.363358027863915,-5.629995495034892,-14.599454770488817,-19.87122398430703
11.0,0.6554168674532308,-5.357026344418333,-6.012443211871689,2.3435791714686847,3.3645329039883984,-5.731354344822902,3.054776104359945,-0.4086826586570603,3.3143668949052354,0.7884665809572795,-9.248127606671838,-6.538136436311763
12.0,20.050330957421316,-0.06887680300092747,-20.119207760422363,-9.99895340141714,20.035567591484554,-10.065992666337499,0.3798761906759591,5.020990397785741,4.6255985101524875,-6.164075668254082,-7.517723265694476,-4.042481570700987
13.0,18.412956612227553,17.054622422955887,-1.3583341892717193,-17.667749353897143,9.912854041586641,7.875623319340738,-8.797126374930903,4.952420366660105,1.595566546013028,-6.812301486257126,0.38033792015749235,-2.4610609981521465
14.0,15.60418550532401,5.2940519476334345,-10.310133557690532,-10.467905843493991,12.902631507564259,-2.477791034521645,-9.052696133199213,0.9999192919768682,-1.5881571193453716,3.456142317642562,6.2820994444671845,3.2326921561800015
15.0,-14.653786919776241,-16.642020565935628,-1.9882336461593035,15.62335155012808,-6.31063652999708,-9.358742186223358,-4.587264107302627,-1.0652008723914046,-1.7744207603900324,4.342508554925822,1.832345207852529,0.09624738593513538
16.0,-61.62266530948255,-34.33394893411014,27.288716375372474,47.949840474322826,-44.43306410546751,-3.5609105042308045,-3.944256272241864,-15.717572798270684,-5.218437814647573,1.1704395947705135,-3.4582031594088365,-1.4661483686381906
17.0,36.56566169353932,40.723294401412915,4.157632707873599,-38.59534113901889,16.230477387952924,22.485321501493917,18.571570204801958,12.611038566498053,7.822858339456827,5.9330203248882984,0.7965302513720771,10.531514484154822
18.0,4.303239145744029,-1.5570582084377556,-5.860297354181811,-1.4010102120231895,5.114682703474422,-3.7396154112182725,4.255797908133308,-2.1514920770194284,-5.174071439333899,-9.654949654811004,-8.93960949532056,0.595300421856443
19.0,6.458285795168733,8.644555637983967,2.186269842815197,-7.496957372419083,2.09713397379654,5.386250078870056,0.7265712919678524,0.9034271374265672,6.363953108514613,4.012927935557709,11.355105891781351,4.844563437306223
20.0,-11.108372103369918,-12.001766489332098,-0.8933943859621807,11.534647953613835,-5.14147125288706,-6.396822761762905,-5.764696434558638,-7.023374693208518,-5.342388606363843,-5.366346469894696,2.522787108466857,-7.543668620655225
21.0,5.580238596745115,1.3909233645207193,-4.189315232224354,-3.503878571562033,4.851718414614855,-1.3476245821776462,-0.24308165803231496,2.227070732177894,-0.3224035193798076,-0.3018888518623142,-2.9269862419278994,-9.549883114033344
22.0,30.767811578568686,6.023406894410285,-24.74440468415832,-18.415021026036435,27.798315663795176,-9.38764685442667,-6.232610680094666,11.162222591491595,-0.6689570715617181,-0.6587152186019922,-7.160636412455151,-5.66117435423768
23.0,-4.650055710232406,2.69904284928269,7.349098559515225,0.9513043832081882,-5.964193833839946,4.9952911632226265,1.90221540035997,6.591099247826152,5.541160156640011,5.230383881256152,4.4508208696440565,10.747464280340711
24.0,-47.230828329142355,-9.965771583028827,37.26505674611366,28.64511814853346,-42.29944111061366,13.61690751320668,1.3580838760247642,-6.969980714734952,4.92586992763576,6.921474822082538,5.6684439101019,14.502035071301382
25.0,-11.831896353017557,-4.462478819520225,7.369417533497419,8.184899300667455,-9.580595343522827,1.4934025880733754,-0.21145511086791371,-15.808792942291664,-9.73255706328735,-4.842315689845192,4.370518905695546,5.2072161697457595
26.0,12.736044477885393,-7.1281336832075795,-19.864178161092937,-2.8536107784794886,16.31575311407618,-13.541974529038963,10.687634811924326,2.2095251418141633,1.8123559276696843,0.09758551924087877,7.034710714071837,-3.9889481900759733
27.0,31.86730069598531,3.3690316082319676,-28.49826908775333,-17.595424550445568,30.197791306826293,-12.537859571772238,-4.922535034072113,6.339743365958259,1.9552414972364802,1.913221222310846,-0.03852655509438724,-16.624552759637666
28.0,11.966108265809915,28.856298433011574,16.890190167201666,-20.46983671330032,-2.522551268206861,22.896129930265104,-6.839075969567563,-2.7798198571229307,-4.107299392337886,-12.275626754726854,-27.52368308396331,-16.175808307830387
29.0,-0.36682345433421126,-4.534702699629214,-4.167879245294971,2.472913311084076,1.925129455283792,-4.329521129195349,-2.8249385572555354,2.3752580368084573,0.9840942529901744,-1.3153261842041002,-5.0427384839827525,12.513592540456612
30.0,-11.883479775645167,-26.84882797712962,-14.96534820148438,19.395041540098916,1.573678408231788,-20.884430355575738,-1.5130589906709613,8.113781700621237,0.2504945090812729,7.131110814852098,4.9468883429760115,5.827600772233547
31.0,-11.16655868957147,-0.8000482651025393,10.366510424469007,6.022456231969118,-10.804312453276005,4.728550011983678,1.4475855276113578,0.780758203730799,-4.692881998989138,6.68503216154494,5.266841365557849,-2.3162406000883076
32.0,-9.740699102178386,9.305186134761936,19.045885236940386,0.18956950685634766,-14.345712435689487,14.121492421830112,5.444014676263621,-6.385187950563909,2.5160693663206555,2.274723643126632,10.85901906318113,3.381575268959943
33.0,-4.551609387862565,9.211177621080184,13.762787008942809,-2.3484282481813668,-9.184651599955568,11.511188921843313,3.7601601733948056,-11.059293367161011,4.537861122111221,-9.10367190269962,-1.4777269309882763,4.655848060434862
34.0,-2.567867815745843,6.58305462602865,9.15092244177456,-2.021229695334994,-5.886409300968844,7.890219613912301,0.9497429916202074,0.03776318700127934,1.624953553657344,-5.894339195639627,4.894345085728992,10.581453862667168
35.0,5.565483287112596,-4.935859730706449,-10.501343017818979,-0.3293725699331582,8.004273543838709,-7.695700511905849,-0.17000399185011691,9.604603881554652,7.9116547095751475,4.240945274596504,4.152677101818778,0.040057148838515744
36.0,18.462794749730477,-12.577977769468806,-31.04077251919921,-2.8847348102726036,24.798291231504994,-21.785351132966905,-1.72745246888427,6.2694806467734985,-6.4701300325972335,5.14471520689869,-0.9378670738072099,-13.32234289410717
37.0,10.818714787933555,-2.465893068315535,-13.284607856249007,-4.207626415832814,12.095914905897489,-7.92734360896878,-8.209247630212353,-1.8647044172683294,-9.342053312353151,3.7694633721766686,-10.363904825110165,-14.15767708307532
38.0,2.0262444713750156,5.871190349432374,3.844945878057427,-3.990679817446545,-0.9439060507665227,4.888272655456718,1.9807574932433267,0.4811220989671887,-0.8980951241377904,4.846517210597074,-4.5382606135793395,1.2268639178854857
39.0,-20.820080489566585,-10.82489731098563,9.995183178580975,15.85111655730873,-15.439604487137135,-0.4597327270699507,4.727807209354179,-5.963895277360675,-0.643481624729418,-10.229625186857387,-3.1936976462920486,0.46609959381139127
40.0,1.3632066901567388,4.108967686878813,2.74576099672203,-2.7106508088066095,-0.639716617855532,3.4644899970403946,-4.503640014861501,3.3962385497165917,2.0504586185176854,-8.198633317135023,3.969088031528323,6.762529295661121
41.0,2.5445992598636265,7.64381745741708,5.099218197553343,-5.066265205479073,-1.298540466473919,6.332622721008964,3.828948061379725,1.903844295436578,12.853612792721092,7.60974706484634,-4.10177963767384,6.031131682831129
42.0,-4.272319447422708,10.511351038740385,14.78367048616294,-3.1633684745701176,-9.543317653871998,12.689770905907007,4.495566698546716,-4.304695696995784,2.258717111417118,1.6289903783168707,6.917869114917092,8.288041452651484
43.0,-7.5799417519792645,2.1217204369504996,9.701662188929681,2.7725832958640955,-8.65138566114112,5.877445926276453,-1.7229610388865284,-6.892413536654344,-5.633786995601183,-0.910883919855777,-3.529798501995769,0.48892280131843613
44.0,5.592958117478751,3.3436328051601123,-2.249325312318576,-4.496753332950411,3.9132433025676328,0.5935363727396421,-7.8835234435768475,-2.008232718027113,-15.433665755607567,-9.281966769307605,3.0478182573648915,1.1883510111297046
45.0,-1.8135305531318533,3.321889427559621,5.135419980691731,-0.7802564147856242,-3.4036835124219333,4.197092159630685,-1.2211961999471117,-0.17198156142015564,-1.6523853100312236,3.2232152351509513,17.831304736164988,-3.531656834503416
46.0,-0.6692568102690672,-20.14854884653254,-19.479292036263136,10.37974562391026,9.393721686540061,-19.76802279808249,-2.4607700010101863,4.484310209436535,2.892224400019654,3.444484411232572,2.285787281835028,-14.996147435981094
47.0,16.732445201526442,-16.861475933146572,-33.593921134672655,0.10650612145298233,25.1450956714396,-25.264796198900815,5.199224087736608,14.887472043969343,11.481464956553848,17.09853659453827,-2.716484834864436,-10.06145287170425
48.0,13.296188244319882,7.760921843888092,-5.53526640043151,-10.496231678245952,9.388008987805883,1.0683881369379087,9.428418098138708,8.420577863389067,19.36988723030528,9.88305224913398,-23.984255210759883,4.900914757373189
49.0,-25.768233788271033,-19.64241935373053,6.125814434540642,22.650213177931036,-15.985465973193243,-6.733529647233133,9.145905340995837,-5.016618738254369,-8.034323912259692,-26.902028205164576,-22.987904882958492,2.916581496156685
50.0,-8.455930534860258,8.5954117951792,17.051342330039414,-0.051177838432602485,-12.722443741332228,12.838198490108317,-7.589242317896356,-14.859426392696722,-16.316941957806968,-18.774629947315596,4.7657440032639915,14.16283899506092
51.0,11.844971767003681,43.251242199814364,31.40627043281053,-27.52956037426451,-9.754141219104946,37.33526314643205,-16.357037525284117,-10.709596347033546,-9.217628449944387,7.834850512094043,26.064775937469687,11.377007242654324
52.0,-5.679500971639296,8.812938937470637,14.492439909109844,-1.5432586389786191,-10.057927268312229,11.65408622721242,-0.2948584116363193,-1.250886658907568,0.7003518489754645,13.225481958901135,18.11658702614914,-5.901967232198831
53.0,-2.2430951867124422,-10.70627335387392,-8.463178167161452,6.427631925698072,3.066955448598657,-9.584673994652428,-0.2901733455551341,4.454282881276376,3.472637803107591,8.801301999560268,4.936528668391494,-10.531818351519942
54.0,-0.8410384656139516,-13.768812519768339,-12.92777405415422,7.345663312984328,6.090518684015265,-13.346366097189577,6.893525104007223,11.375162399706939,12.635810248907976,3.0763862008119744,-0.7878576776290465,-1.339927403905758
55.0,10.91822875223287,-19.268750152876795,-30.18697890510949,4.144510789507278,20.532699832878563,-24.722170965812452,7.117340913898641,7.847726824560082,5.984453571244279,-7.002718652220332,-21.28860910481722,-1.1827576140173965
56.0,9.683391998526297,-4.234338436239154,-13.917730434765364,-2.751596264578737,11.788668296207803,-9.066212034791214,1.194723653082744,-4.252128383599483,-3.0420793983564938,-11.326657920949863,-22.701442908948387,-4.894447514177409
57.0,-1.1649195787510962,6.172939022979199,7.337858601730222,-2.452732165740003,-4.261758509054694,6.689850213562469,-4.746014847224422,-5.915191279850773,-11.298603879775204,-4.813468972159175,-6.1196691053145695,-9.374160793327126
58.0,-6.903096897141888,15.785465728873936,22.688562626015724,-4.472289987369064,-14.81192022180721,19.25251517228395,-2.615105131754267,-1.3051024885457698,-6.220978538493205,4.727616825358692,16.336218745277733,18.475363054166678
59.0,-13.212482227481829,8.5505973880433,21.7630796155251,2.294766080754292,-17.515336471571757,15.173929874084747,-3.0991659333826402,-4.732108419437857,4.126403715241703,14.432013148572256,29.871360000347984,13.37793614582814
60.0,0.8143921290383247,-10.638091870766814,-11.452483999805093,4.94990323801082,6.1705314370283855,-11.026728009437493,0.7895288983698703,3.5410786983985494,3.9203159014015414,-5.774463471946316,-6.914655193396561,-12.469040897803218
61.0,8.037993154585925,-2.55163887248292,-10.589632027068797,-2.7077275939908683,9.337628603915189,-6.550464713939299,5.866728963605754,6.292391843569404,10.265254883650195,2.3160831191478577,-4.609116492675138,-3.5848042541780822
62.0,-14.698237702927766,-6.409582506926302,8.288655196001493,10.588891961749269,-11.47957527898596,0.9612190264873197,0.03384803107359469,-4.375961779584258,-2.784913604627027,-2.661708932532722,-3.1468690603141196,4.834303674857662
63.0,13.11607478827671,11.043439134408471,-2.072635653868227,-12.122680802676836,7.602428415136584,4.429341713348355,-2.5979476668757635,-1.0647924441855383,-2.2529491981570082,3.1306098763783945,3.410400372985623,5.100172489371182
64.0,13.481177567212482,0.7177302154841048,-12.763447351728388,-7.141365785050793,13.127989775231663,-6.0783830917083534,-0.8920972765016715,8.234476830880396,-1.2384792539503642,-2.515892050395447,-7.233074550909389,-3.840323180878512
65.0,-10.88641666123546,-11.858504523849934,-0.972087862614516,11.33113273733915,-5.030673774856593,-6.391203847886842,1.7200911489463646,-7.0239961417829235,-7.78799284855972,-8.408247099761924,-7.644698541580393,-15.652972049956023
66.0,0.006132161225262056,-3.05663214541727,-3.0627643066426478,1.563157699179833,1.5401141859044787,-3.0331652363564405,1.393157066262,-1.7136125874949566,-4.083520649474396,-4.814984926398448,-4.694884391072254,-11.83850654087964
67.0,-0.4328680702006622,3.9344044641686344,4.367272534369129,-1.711607758468325,-2.393257624187976,4.18220104543073,-7.517108548700029,-1.8919598506699717,0.8070779348152777,1.9656173399552646,2.7269394050225464,7.772433851258193
68.0,4.349153613716494,17.01963820456203,12.670484590845371,-10.642626663406103,-4.151305347668508,14.883234648104047,2.1883070555003523,3.283046551170375,13.304166177536684,13.784602035961393,13.754006246589247,24.34413695476256
69.0,2.0763093709960696,6.865483998148887,4.789174627152827,-4.50417294194424,-1.3423425553547053,5.793815683007944,2.930992314111539,1.835054946445612,5.018087755125978,7.927447135493409,5.401364297404941,9.236141878170416
70.0,-14.358475793079357,-23.289801233306388,-8.931325440227008,18.794646163662275,-2.692484655848319,-16.139051259150797,0.9559167188985751,-1.8788714073493504,-4.697715407741074,-7.753239280988453,-7.772751374379853,-12.37461848995041
71.0,-7.030461963096725,-2.4530210311850453,4.577440931911635,4.714969512178134,-5.774556088216878,1.035041328026634,4.6267142021259575,4.2623501499668635,-2.108657975230719,-2.3386281906509105,5.92123980947543,-0.6202335305054776
72.0,6.197406051192681,12.007933434455506,5.810527383262713,-9.04963676246317,0.15199125202479066,8.879498097187588,-1.0678888733193395,-3.20406343615864,-1.2979902325662547,-0.37079879065705645,4.755516379384295,2.0134411653235933
73.0,10.050739384186999,-6.345699321103737,-16.396438705290784,-1.8786203078155204,13.188037095490634,-11.327149165909937,-3.0722963613742453,2.505599512625817,-6.816570667769317,-10.265825873696066,-13.310607502279817,-11.876332950059934
74.0,4.146491485582573,-5.064955044571578,-9.211446530154063,0.43218604618923795,6.646606568934452,-7.099814833022542,-6.443845107637624,-9.156226651060123,-6.3785802089254275,-4.998711943283358,-6.676295583552939,-7.41075249505039
75.0,5.624734475615572,3.981107632637003,-1.6436268429783594,-4.751686470065223,3.6815603364182636,1.2029686860849629,-0.7323256543022656,0.6785175018523533,2.698157348724598,5.326797357929365,-6.1804847475220654,-6.2599522631464435
76.0,-8.002211265427881,4.204592031670378,12.206803297098327,1.8719516561200185,-10.057024703748347,8.159285124331314,1.8600146533865065,4.746068074341331,9.245017375229574,9.559667362907852,0.9923601618441549,2.0091760609550917
77.0,0.7774691970523682,15.33743450147306,14.559965304420643,-8.003861106983987,-6.921967591089847,14.902671428922122,3.0091114044011826,3.546007125302899,10.413038908275125,11.864925623558902,12.305302059421548,15.816333617042368
78.0,-6.11135808123956,-0.0941840612271223,6.017174020012349,3.0795846785361616,-6.093261943134392,2.9964502891240024,-0.3789232795078368,-0.43184876776319747,-2.2454442743101533,-2.155333780568869,15.491149718186412,19.141513863894662
79.0,-8.375639457459018,-16.307850711636213,-7.932211254177247,12.319839199817672,-0.1691361181900941,-12.16023730432499,4.770003977989957,0.44701945521706243,-4.29955705712796,-8.039848455740401,-0.32484481957209166,0.16307318624962264
80.0,-2.974830742181444,-27.787056392707015,-24.812225650525633,15.359109233226327,10.89575019584819,-26.256713080368588,9.250056045997272,3.9844008906058077,-1.762749036447258,-12.877046371176796,-20.57437439707821,-18.279398920187457
81.0,-6.350475122125864,-3.5693634087382513,2.781111713387544,4.9372744126849435,-4.586058820698179,-0.3468527919765272,-2.3423207602823397,-3.328978301509884,-7.185343212867472,-5.184985042633079,-0.8578188075315385,-3.3605225684728364
82.0,16.502128315668617,20.29978226785666,3.797653952187956,-18.345539303421557,6.333304496230919,12.020367287670013,-13.009207869276793,-6.648980832402403,0.27985092634795716,14.279886395350582,21.73157725046697,2.483158264658245
83.0,15.523807146566188,32.063984733968034,16.54017758740181,-23.816785849175073,-0.44882286927494475,24.274429212969036,-8.286512043124231,-5.55392855768822,4.554155763130499,9.568109506828073,-2.9570706048009416,-6.256918649258715
84.0,10.117297726750998,18.882118912018633,8.764821185267689,-14.442006932361068,0.6545707744324228,13.793432098296492,-2.5206404648277143,2.5546505895692233,-0.5592211532981626,4.148509889677704,-15.728113650793054,-1.050056994906692
85.0,4.797356484481312,-5.964136859478468,-10.761493343959641,0.5647444157723038,7.753944856981713,-8.31924248941576,6.237039088435184,5.786345373816507,-2.541173779767618,-11.557338330118155,-10.543364053299035,5.334796983852684
86.0,-22.018976275725862,-38.63375966723973,-16.61478339151367,30.309053256457865,-2.653618439779012,-27.66606394152643,12.1028083863409,4.278895268281033,-1.910037540924031,-16.66520837068621,-0.26362351280039054,3.082747055487215
87.0,-19.505103558004514,-20.558278977154103,-1.0531754191493876,20.013008590462043,-9.261250142534267,-10.775169556177039,5.354201595186105,2.5277262656912134,3.5440213864456003,-0.00841551948937358,11.590801767719663,2.491849329917426
88.0,-16.705747411466213,-7.473189033162326,9.232558378304018,12.065952825555303,-13.008840185501809,0.9054351677318238,5.070579939344954,-2.127242910552754,10.128980499332126,12.112667702052462,9.815830816538533,-6.887483952175817
89.0,6.653960535139587,15.512561648579808,8.858601113440228,-11.035780446024003,-1.066400510938177,12.208667642836156,-17.438691443466222,-10.73211573829143,-6.124371596411156,9.92505829349022,0.44991185198909367,-7.179035736714006
90.0,22.935871608129467,27.33051458102433,4.394642972894765,-25.17343898721662,9.304742613834891,15.806093658658476,-12.466351471379499,1.241378916494687,-4.329335575161875,5.8292967543700165,-1.9791616724225713,8.398609286849751
91.0,11.337880646244043,7.607040346511333,-3.7308402997328107,-9.441924064535012,7.567362822187116,1.9606872889884528,4.018337051173889,1.5399086429381987,-3.598643259829577,-10.162427624118681,-11.039782189988875,4.975873245741601
92.0,2.7036913322401617,-9.563355142626037,-12.267046474866282,3.455399034932789,7.43789069208557,-10.97039945196611,13.455517457875022,7.584228692181547,4.159613729267746,-6.205639527686495,1.5696254678566266,0.6412462081360308
93.0,-8.205851521734983,-13.389866388347526,-5.184014866612579,10.743831774957915,-1.5619410590789782,-9.261760267292079,10.899143404135389,6.774074817460322,11.845531950983661,8.519955140186216,16.43259904875066,3.9050283888051576
94.0,-1.8369008142948937,6.167061111275213,8.003961925570088,-2.137102946974343,-4.898483372496595,7.113404121840621,-1.909612513618609,-3.895331047677494,-5.360820902756292,-5.303033749255691,-1.339740538154107,2.749120943931703
95.0,6.224265083060426,10.534804805041427,4.310539721980975,-8.345312837700764,0.9714860216191363,7.454746305403397,-17.672603685824722,-11.979111278049276,-11.701781260300924,-12.633516917458463,-17.046779011673674,-11.635286073610374
96.0,-7.020430392292603,-6.2182073769442265,0.8022230153483911,6.582208766778834,-3.9040503232053254,-2.749033532440741,-2.362485381898633,-2.446265881465333,-0.13187850079708863,6.684521696968328,-0.09937848068559774,-3.248955163806432
97.0,-16.98342956628988,-14.726707144388081,2.2567224219018414,15.824582548459176,-9.618468647434984,-6.269441234275465,3.839424588830805,-0.09199038165391338,6.197201834756756,9.457294011560991,4.536749973575754,-1.7799826728792412
98.0,7.27177832214406,-0.541949886327389,-7.8137282084713515,-3.312364829342945,7.541591819817757,-4.126806280824332,1.6813182133869098,8.684678738527648,0.05077532863549816,1.38670532662805,-1.409059672738577,-4.023308987534174
99.0,16.805841897168794,9.243546125808866,-7.562295771359826,-13.049693831828616,12.183397041019404,0.8188152701874769,3.3723897465140875,3.4021069115535276,2.7418616122089174,-2.1784737247252433,1.0352930038954973,5.037533471008627
100.0,-0.4952523595104381,8.933030472924926,9.428282832435396,-4.245630397520416,-4.959238694400798,9.16291722342833,-0.43579558086262926,0.7978412332645899,0.038749385977562945,2.573925145628443,5.454004734277453,11.106487657109529
101.0,-19.9371724476388,-11.490657041756664,8.446515405882202,15.76208555769803,-14.184601172078715,-1.4598078146552664,2.7502270898407004,-6.554638141403432,-5.6578993953424686,-8.108158323366563,1.8259669461963286,1.0710374234547357
102.0,-6.445332651543364,1.4439675517932362,7.8893002033366315,2.465357381668467,-7.155247854928671,4.647821335073476,-1.2080450116804298,-2.0484160968309117,-2.784768182063152,-8.279913975857623,-10.443751603013315,-7.653444782856205
103.0,9.607063725994356,5.897400169937548,-3.70966355605686,-7.713339170556506,6.595502468110813,1.0689577399026045,-0.1550490247730525,6.216140535214864,11.23782570699463,10.661575320019768,3.202502253258751,4.283350187550926
104.0,16.996485921188363,-12.427181210012844,-29.42366713120121,-2.328082113767452,23.228272778649448,-20.95946208808633,0.6841715563600539,2.2418273394986747,-0.7069384902843843,4.066944853080191,1.1059179011820892,-6.498900686455359
105.0,4.372224965229533,8.428782003273229,4.056557038043698,-6.3675396515569584,0.17693080158748664,6.277038295646406,0.131469201696907,-3.5700737483796745,-1.034659139363792,5.6941627829709445,8.624097320061104,-2.649404283265762
106.0,2.513664804078311,20.460152356430115,17.946487552351833,-11.45520505322024,-7.697396027759427,19.22870011082906,-9.022834282241133,-7.551252101304255,-3.505259396433043,-2.4899415655867805,4.581260071553211,11.670202593142761
107.0,-17.014671561290893,-26.38486712125176,-9.370195559960921,21.652357793637464,-3.8038876560214847,-17.935920943071373,1.6563379498499216,1.4596560888716672,-7.729263403456355,-13.309990955706999,-12.936550686715465,-8.323630837446714
108.0,-5.768016641090044,0.4924880964159364,6.260504737505877,2.5909376856705926,-6.075664971452615,3.397596807898605,6.317647851691971,3.4973565419163366,5.164946925361228,2.151043702770661,-0.8896121738626253,3.4016449494964283
109.0,4.727139644155685,9.6384113838585,4.911271739702721,-7.148876024790271,-0.07584440323492014,7.302674868027601,1.6035736964352338,5.636187316233013,6.206305237383136,3.4165233778099697,0.15345188405569,2.4785303822303812
110.0,-11.709181747259546,-15.477686233074937,-3.768504485815476,13.63127212452847,-3.9549632430935877,-9.584191445551943,-0.858614851426005,-1.294332752824011,-4.188453244823586,-8.145890322274067,-9.79468006990421,-5.941902311156313
111.0,2.1596947939474926,4.245615008884723,2.085920214937158,-3.2374967213282817,0.05233453468912311,3.138100434280889,-3.516784787329133,-4.209310255919923,-1.8597330667892096,3.159979768285244,1.6461662286931198,1.0096479982317095
112.0,14.534936854665565,9.017830716947037,-5.517106137718553,-11.724948474182902,9.9644633900055,1.7321843745302035,-3.245979237661799,-3.386884728564695,0.1866963665538922,7.011683820212681,3.8452444401402355,-8.272707419969283
113.0,14.133456921413291,13.584659036927533,-0.5487978844858037,-13.878914787665616,7.3623216209094755,6.503559440649245,4.694867209797682,6.922197504523324,6.835504829949636,10.910284203424183,12.760438459103474,5.669653608133043
114.0,-12.751644755173833,-15.30522431762738,-2.5535795624535633,14.014076128282202,-5.0715352636035815,-8.946696408676434,3.968380490528038,1.5121432096536227,0.5302748858014585,-1.626474350270135,4.56226921598334,2.2741314993353647
115.0,-4.93358213896922,-0.872603892904424,4.060978246064856,2.8907712320225634,-4.461985846134639,1.568497987147909,-1.7322760938502166,-3.6091189207761616,-6.067013493094125,-6.768162502325391,1.0663256733303261,11.830373456649928
116.0,-0.17317658521814305,7.512575222162978,7.6857518073812665,-3.6839407077937296,-3.965286637471805,7.641325467764909,-1.0883502723524552,-2.685679170399281,-1.1562958812561552,-5.182185101732776,-4.027971268155394,2.838312235407032
117.0,-0.729133597307269,-1.90045259622683,-1.1713189989194297,1.295335211233184,0.1906797312243893,-1.503718582432453,-7.374265780403819,-2.7109811816924783,-6.294375851775332,-8.531078682730087,-12.175516737737762,-6.6199905946881
118.0,-5.944793412850949,-4.92422662546273,1.0205667873882656,5.486693928868375,-3.4328662309352787,-1.926218828686178,2.0880340869761054,2.5428139606831888,9.506499416877533,3.967976278668952,-3.689411234400257,-13.757553221606466
119.0,0.8384346314745936,-9.765364907935334,-10.603799539410012,4.508097038315478,5.68907747376838,-10.23992606910497,7.212441984625423,5.3785912110835,10.726952018136636,9.83141049404133,-0.08979295040779345,-7.459028938300357
120.0,5.846763851700912,-6.565052896542829,-12.411816748243856,0.3179691155498208,9.090331483457271,-9.463531607836277,3.277929776639857,2.3899451741846116,-8.096647520292898,-1.7326493165029415,-4.27008179039783,2.0671609711340495
121.0,2.012658975679781,3.680564446660065,1.6679054709802346,-2.894019134823242,0.20344663941207886,2.6240175372630263,0.32965134068080504,-1.4411292761636953,-10.516143652195371,-5.847218391186953,8.437637568469194,17.46851887593713
122.0,5.3827305960288525,16.821066636809775,11.438336040780948,-11.07596066690564,-3.0046372118982703,14.162279395091096,-10.614550996222738,-4.94858712816818,-1.293552694893692,1.8270465505916778,6.549310806740344,7.300093816029328
123.0,9.946850650601714,13.072450493861748,3.1255998432601,-11.488279356238436,3.429044403749882,8.134777572630039,-7.101507657095379,-5.463221663614002,0.4888489691199174,-4.934794060665462,-1.874347631782853,-7.499018235441553
124.0,-12.773328792432082,-3.8767530953389366,8.896575697093095,8.342879359250919,-10.895576033949364,2.468652010073823,5.511801063728955,4.431012307456879,11.360042238487475,8.06999095533004,6.352177643237051,-6.66449068439829
125.0,-8.984097428097744,-8.785804594516312,0.19829283358131145,8.821951611038678,-4.569052790278983,-4.334506098245882,6.030803292173298,5.8896439293448575,2.465621058621112,10.012098931539208,4.966633432167007,-3.179617551280862
126.0,-13.115741895439788,-8.41179245856291,4.703949436876702,10.779441503538319,-8.880932079516286,-1.8158580755940772,5.229847517047311,-0.8753644319136193,1.6668738213167273,2.610115156400795,0.1686706286931139,6.588702701522348
127.0,3.9702665650797195,-9.568829607073603,-13.53909617215347,2.8174345600446884,8.790597983225922,-11.515353948322884,-0.16811663798050835,-5.0049466276261985,-5.012119654639049,-9.504991534762969,-20.03689624690688,-3.986840393450499
128.0,9.554067508558834,7.659498307849319,-1.8945692007095687,-8.583382689234465,5.686061658532209,2.843915589499658,-5.803571553462372,-1.1091163136284523,-6.738446247714937,-11.919828001426872,-5.296798004084785,-0.4514603249845929
129.0,11.642079973376248,1.0326254082108677,-10.609454565165308,-6.385107490996087,11.087940396800287,-4.745659960059231,0.897720816712928,3.1281918358275878,-1.3638154968233729,-7.01402546959823,3.372906888361426,1.4926581392528944
130.0,9.939703952698505,7.831726218287173,-2.107977734411171,-8.84595225992683,5.982376545525865,2.8287651000748664,1.8569628398926241,4.69607465649014,2.3344290775379166,4.58853176988463,1.1416270303047882,2.26441248228586
131.0,-7.5057655802881875,13.899080039948478,21.404845620236834,-3.227489602737889,-14.423737081524957,17.62130818897802,-6.4242267640986395,-5.660870238947104,0.8479426782632113,11.091050820234212,12.757363493237472,9.93706868876366
132.0,-10.248725943512913,-12.428265848026225,-2.1795399045132537,11.391943096413542,-4.007777714012161,-7.254243957929059,-2.5112770807916625,-4.101692884626621,-2.0095664288894453,5.082023569374788,0.7928443252273425,-10.17424956440329
133.0,-0.5672121840377677,-0.036879680360947464,0.5303325036767648,0.27796749679349286,-0.523074420211791,0.2183782827969143,2.959090549640554,5.344003115175758,7.8529559610068524,12.513078312556814,5.059541799451343,0.9731504795449912
134.0,-4.261572263980829,-8.08751431930858,-3.82594205532787,6.146649601528559,-0.18854495912753677,-5.984641551265864,4.686687606693207,1.0173104726276274,-2.9861837203812294,-19.24610287562721,-7.38374605906381,-1.8548528581915313
135.0,-9.303944429215774,-11.22484246658528,-1.9208980373696218,10.228277048607382,-3.733732248534731,-6.52129099303021,6.386440339867278,2.728832983815558,3.268144162748526,-10.58027201458605,-3.619250075898626,-0.8340617747405379
136.0,22.681593089191505,7.517434207500075,-15.16415888169149,-15.067576144951062,18.88913029043898,-3.849186454602714,0.7404881079643011,5.86106195407177,7.54439983734133,8.789981849159604,1.679545779981812,-3.3617260089005505
137.0,6.792964434565573,3.355333891493892,-3.4376305430716356,-5.052792535919187,5.1670563467803206,0.013430675312621376,-9.605675453022316,-10.129125689244628,-7.58146751489098,5.926191036004699,-4.724190257582141,-6.735331078076323
138.0,-14.318370828332677,-1.7407193939777326,12.577651434355019,8.042719325743443,-13.472100524941968,5.3954557885652745,-7.535463980631246,-7.996310791385835,-15.725790180499438,-6.975847429926718,-15.550209000311812,1.8665207882713393
139.0,-9.897109607645971,17.619503756526466,27.516613364172507,-3.8525993046725793,-18.732534386257107,22.5449054567818,-1.5809999698094992,-1.4662068856730466,-3.3980915974769195,1.5035025775590487,12.555174386467279,21.9959398076713
140.0,2.439892949222707,15.615119031634208,13.175226082411553,-9.019941719494005,-5.398395530030689,14.370376524317,6.429414710305048,6.570972427125814,10.406171586051382,6.634731527178155,17.55568677645278,4.464822543661699
141.0,7.681691068675719,-12.312694227194527,-19.994385295870238,2.2458866222504024,13.879660830508008,-16.1807272621522,9.510017864804833,7.912947093206249,12.8286918210547,3.2516437808165106,3.21163562891363,-12.11264184341345
142.0,-6.610049576998447,-44.799280956872906,-38.189231379874485,25.71680632322504,15.825735859918108,-41.444397477323214,6.34509426316219,1.5241626668649673,0.25490658703007885,-9.66903681116441,-13.349621398453078,-22.398195585414797
143.0,4.416834192936978,-13.84363732115261,-18.260471514089595,4.729048544797948,11.371677412581665,-16.001850557816717,-4.747600363715394,-3.182910982745253,-8.87195369634419,-8.953537618550133,-2.1383305775409633,3.2854098840351806
144.0,5.074024734755998,41.90761062822093,36.83358589346492,-23.47178782289929,-15.926070035546575,39.344951549255825,-7.879645985510413,-2.277016592888474,-1.0496646782558687,11.065157814821703,4.405568540209338,20.106543374531046
145.0,3.419524956393381,28.976586242270464,25.55706128587715,-16.176240764949057,-11.113800000119655,27.24596409398741,-8.722597498226172,-6.490102618420003,1.0329911688399775,3.7140975109844723,-11.714695538723085,1.7715190073499913
146.0,4.613705643178283,2.425657552506628,-2.188048090671579,-3.574868869545541,3.4366937448989976,0.10304769134558178,0.6472758503370786,3.5155762160853223,-1.33614951249145,-5.347706224326795,5.227649265951488,1.1428211538236615
147.0,0.6188722771672295,-14.961917607485852,-15.580789884652992,7.195483548380284,8.059151973507976,-15.28359694872321,3.180871896868462,5.945285240605857,0.7322294553131115,-2.7573536452046037,1.101923802662686,-8.708447518541378
148.0,-12.514565504722157,-17.530622646862604,-5.016057142140385,15.045628001214117,-3.709070217897301,-11.206607051513561,8.686393405560437,0.6769865103051755,5.137639654093836,9.103716752310417,7.637642371966608,1.8657461786518512
149.0,-12.17231932229793,-10.214460511805862,1.9578588104920849,11.135935893739266,-7.02308407110347,-4.144485736643497,6.234095358674498,-1.6434653129291015,0.9928311435757728,3.8645553942518136,1.5243534324528065,-4.520710013027292
150.0,-0.7990447040458433,-11.405736862310345,-10.606692158264403,6.12210936952609,4.868356137983161,-11.031163703341793,-1.904917259523562,-4.0430447274282475,-2.857592219282699,-5.022640898960468,-6.038267915035421,-1.3102239207890392
151.0,5.414093215876933,5.778407144156677,0.36431392827983133,-5.576765117128195,2.489811940826007,3.0339855726739757,-2.6771886919830363,-0.9124156808305823,-1.9363735701936282,-3.275262180738868,-3.0783848616293716,1.4236855734316682
152.0,9.213838833453384,8.271513526891042,-0.9423253065622914,-8.721064316185291,5.121057572592319,3.691933016099818,-7.604959689586771,-1.777269198950341,-7.8690916081392,-9.780520878225051,-11.560105611848668,-9.93323464380245
153.0,3.2033935566703704,15.626070652195672,12.422677095525204,-9.4668761902069,-4.647015547178862,14.038785489119935,-3.7306902868371767,1.9685586105715052,1.3066425129705734,0.2782251410726406,5.703216846714869,8.265728819778008
154.0,-0.11917836550764083,19.744046860402282,19.863225225909723,-9.778139548295334,-9.951708006862393,19.8088348466399,-3.158567966962922,-2.564333218461286,-0.8749786210912376,3.062654427810471,13.60080018967513,12.129702501789822
155.0,0.17358006229627648,-0.5533189833898353,-0.7268990456863174,0.15495409119296877,0.409716541871155,-0.6386952840560909,-1.0110453511599196,-2.681390386852592,1.1421440099354903,-0.3178971565219544,2.126717728249301,5.3891541460417995
156.0,7.151153317350567,-3.9759430436472947,-11.12709636099794,-1.5337683207419133,9.177600110536753,-7.548085125451628,8.932489086210076,9.02528105834365,7.6202031982074745,7.993624411395933,-0.4830509520993451,-5.736506328038027
157.0,-11.848614292833037,-39.729967892297836,-27.88135359946472,25.77314468365519,7.978451653598297,-33.79533408268411,11.62624838550802,5.18678122651123,5.412776066903129,5.080741392259882,-8.072692967115511,-17.755044811682023
158.0,-10.060530375308863,-13.594048043160935,-3.53351766785196,11.817048875294239,-3.218175032391348,-8.622299554147183,7.685356867049137,7.635735614622993,9.04795168006456,8.32228796950044,9.66313466175424,7.840822878288657
159.0,0.8707513696227736,9.503932856866372,8.633181487243728,-5.195615014454729,-3.9086429039807036,9.099469551238801,-9.0774611589585,-2.215913710670134,-2.8697726274879183,-2.385385387448443,-2.4122741866982205,-2.4775569288468064
160.0,14.970904866658936,36.130922146878696,21.160017280219872,-25.56130815727393,-3.1157856734503904,28.6856859737457,-13.657602807093664,-10.552898490184335,-4.945040427577764,-2.8456610149683965,-7.547327220309145,2.6685591875584342
161.0,-0.05598772638779348,20.428812829821695,20.484800556209557,-10.20217284858489,-10.208140782317146,20.424507308346094,-5.7722263565852066,-14.376544912685294,-15.42781935588245,-9.448528271140077,-5.0504246524183065,7.655948814976641
162.0,-1.01148077106656,-21.614493953426084,-20.60301318235947,11.368895679138989,9.780898607201872,-21.13885184509374,3.5687473704305503,-3.9902587730348102,-12.340742152330366,-18.8646107270649,-13.202754007256893,-7.429966467665349
163.0,-3.779944678374067,-25.636788578295082,-21.85684389992096,14.678400243612398,9.021066895248467,-23.700039024586445,5.229500586891956,2.924283834296322,-3.9493417126024473,-13.730988907585052,-7.217817130489491,-6.90003302854032
164.0,-9.20394228733067,3.427855729398118,12.631798016728856,2.9309995683677084,-10.941804417326079,7.992797711914617,1.878106500547652,10.459130148424876,15.348019024862383,17.345725762158537,20.717620656561905,11.49833490896901
165.0,-1.3035894192995023,1.345828171512116,2.649417590811637,-0.06063138284328495,-2.0095309458568975,2.032714254784417,5.998863565928337,10.585398104816893,16.2899060580757,19.441803845045087,23.06617764757982,9.206610947025574
166.0,7.310506220253417,-10.401924416733923,-17.712430636987442,1.504940431912809,12.548091369720284,-14.107133898002647,3.1472289597322414,9.686370477526088,3.6416587533884943,7.877929097244174,13.077109376320749,-5.914341495287855
167.0,3.512108838883828,16.663949843742117,13.151841004858031,-10.048811516208179,-4.789676647464971,14.932398202853467,-6.541864479318031,-3.6154289515815172,-0.41715661371511237,6.985614708641846,-5.842468677196551,-5.962110137031315
168.0,3.526158861971054,17.721694234073933,14.195535372102617,-10.581232255846311,-5.306495807423299,15.981768863489986,-8.154379066210538,-8.307962458561837,-2.1425859630016424,-4.329736432230753,-20.891137109544527,-5.873209198732531
169.0,4.251574412599404,15.017443776877922,10.765869364278519,-9.665416897727122,-3.3050141470005703,12.91628635125059,-0.6030118435492944,-12.861176173245862,-2.212804138695784,-0.03670864529999207,-2.180720328505558,3.2247229055746476
170.0,8.743492429865054,-3.3276320841006597,-12.071124513965561,-2.732850514798568,10.444416248703787,-7.7502955404980725,-0.11956950115744203,-4.801968344987172,-8.86495551779263,-17.82115165706116,-18.139235089824847,-0.35367188354478496
171.0,-7.575920391103935,-25.25393603283968,-17.6780156417354,16.39590281816868,5.017316068757473,-21.43479712103434,4.957492313003961,0.07444321143482346,-5.544493494388393,-15.883097940514965,-8.133786498089252,-3.924264575537669
172.0,-20.1919923401237,-27.570673415596225,-7.37868107547209,23.94597462718472,-6.432456092227685,-17.520135004535607,7.517261902028158,8.313275475007195,-5.453506673072511,-4.0193541315186145,-0.21525941737822185,-9.10536048391293
173.0,-10.585224485736049,-6.578037239233197,4.0071872465030705,8.570684308479072,-7.3149696692593835,-1.2518624721040847,2.328373460324423,9.698024026886614,0.7567166689833549,7.859334315451899,10.28551631929173,3.056388594916411
174.0,7.120361367189697,18.48469937092967,11.364338003739928,-12.812666835331056,-2.0560144385213905,14.878070147795855,-2.123081512265972,6.316521335521495,9.664117019933428,16.567112676640757,22.87946836491996,28.453848074786983
175.0,14.795383715914738,31.834917267837856,17.039533551922823,-23.327058385227357,-1.1297617061739609,24.467685327933633,-10.209911234406162,-6.858956868535934,8.139967696652224,16.02622928196998,26.186413283478007,21.32753688454443
176.0,3.968835352589828,-3.84637100700062,-7.815206359590695,-0.07715537908485182,5.888439546555489,-5.801708346413172,-0.7635256237672019,-5.21096743888587,2.915299993514692,-5.419028957719792,-2.727829295007137,-11.366750660287163
177.0,3.3107502113840264,-18.90375288102946,-22.214503092413548,7.775218110109662,12.761596960872597,-20.530316012318238,2.1401243617401473,-2.0921861755268623,-3.7844468748198823,-16.239849528472018,-27.4352674024749,-36.69003023136442
178.0,-4.393914849324407,-7.544737364555297,-3.1508225152307343,6.021226265454548,-0.622466513205703,-5.396746535191459,5.220089297570381,1.426123829483283,-0.47731425602659794,5.414541628593845,-15.389363511567161,-19.759100058944526
179.0,-10.449225613750698,18.43866935389716,28.887894967648037,-3.947688897721971,-19.672585345997838,23.61639382048989,0.15719220763551256,3.2581948509627288,3.817332903669757,8.87988324616246,0.5733935832860997,15.842785391740673
180.0,9.28572086637232,14.993183489086151,5.707462622713948,-12.174929525400268,1.7785812726553534,10.385331675999955,-6.8757702911812135,-5.88640474536291,-11.636434998589632,-8.324384846863392,4.35587225489504,15.544614767320944
181.0,7.392631616358025,-10.6410646844678,-18.033696300825838,1.586149459717174,12.693284002016481,-14.297987981283764,-1.002562502361922,-0.8034498191736426,-7.726511387892096,-12.21601843528858,-4.39273587468104,-2.458246342402017
182.0,-8.45951546476421,-14.269205744769812,-5.809690280005753,11.324991772756874,-1.276840008674351,-10.073016500343435,6.722823543150808,-0.7140297101203172,2.8512200216287877,-3.8468114701366702,4.5602187938990255,3.5111650421902976
183.0,-10.757520733431758,1.7159361312293058,12.473456864660834,4.5605263013337725,-11.656717381014738,7.068164544129649,0.7474197004526104,3.548983917426196,7.9441478159477015,7.481594297460878,9.667434850390404,9.252599533697673
184.0,8.154444647037531,-1.7812045480670928,-9.935649195104798,-3.1445322001432245,9.073851044781064,-5.798633044401486,-1.4504623353109998,0.2615681594034571,0.6774454426697405,2.3641365427753467,0.05634335291155157,-1.0448198018425363
185.0,3.972264659793144,-0.11893139119253282,-4.091196050985638,-1.9591822653141406,4.054702999784457,-2.1171780232318884,2.2494591410785665,6.9743164238390865,4.282426849045629,8.524415650648507,0.3171784964629647,-6.348647993843145
186.0,-3.450396095767707,-11.82615136764698,-8.375755271879143,7.6893648781226105,2.404278061121338,-10.108552658367062,-0.5537051874259376,3.17731337163854,-2.848986890283303,4.72941455380116,0.5764899190849442,-5.614349520749642
187.0,-4.835550436561415,10.243922882052583,15.07947331861417,-2.727995426963333,-9.936951313480968,12.654859427558144,-3.7579366977179705,-6.430502990588504,-3.8186744339905,-1.9328578203272855,-3.0609466630247333,-10.294296386980212
188.0,2.2992260068930435,10.216174611623853,7.916948604730948,-6.280267041721499,-2.7861190810018726,9.056031299705523,-4.854463735956835,-3.6377888979394473,2.316098495765568,-3.9668995186181566,-4.239286607006988,0.37477640672365986
189.0,-0.2660536500226074,0.2459436439812297,0.5119972940038275,-0.014490315734884796,-0.3632053817452343,0.36070716183673124,5.5333290589519795,-0.015969232438473924,5.896714422409433,0.30044736548051443,7.8038101487226585,10.038018489868398
190.0,12.439474406434572,11.304182385424475,-1.135292021010211,-11.90073936578979,6.737502938142638,5.1346791893697485,0.9682583758139174,-3.8936632733673826,-2.3895117345301236,-5.704225092490002,-1.669757541121034,11.71294276958155
191.0,-5.133356098808199,-12.223235533546879,-7.0898794347387355,8.723378371146612,0.9309551780774266,-9.69559288750303,4.208081375316937,0.3871523999144584,-5.085819871588589,-10.07312880002834,-9.104894440893368,5.537857040705124
192.0,-8.297616874023259,-13.941473215417378,-5.643856341393975,11.161698143281907,-1.2932306436222372,-9.761358839709676,-1.6623793410739118,6.421582400846186,3.553114179484297,10.960459838171246,11.531306215702347,-0.08977163192158155
193.0,-0.21534108083775383,7.782319261865533,7.997660342703558,-3.819838895278509,-4.0706656292532,7.8380962304606925,-6.145181721697098,0.8352340981863731,-6.834894713052593,4.352144671842288,-7.485020204439735,-17.994180175045425
194.0,1.5760615151344641,13.100744437217616,11.524682922083436,-7.292743154071541,-4.936251077341959,12.339824587241687,-2.354554225133983,-7.497805550306726,-3.795469370047793,-4.785848522000544,-10.256076287423587,-12.396409353607641
195.0,9.821380732537747,5.72732458734097,-4.09405614519668,-7.802743720768415,6.91876719930862,0.8479722083014831,3.033816056373901,1.1395561978270048,-0.5917049080604327,-1.312095498488352,8.124500330399474,2.8378847145167185
196.0,-0.55207672448728,-7.797665114306766,-7.245588389819658,4.150368759886698,3.308163531752191,-7.484269962318063,1.3665153596578725,4.054597977992097,10.724590908550349,6.63762624682519,16.01928708478316,13.167265429875808
197.0,-1.8868999883297692,-29.390552877937417,-27.503652889608077,15.615320962379807,12.846823836787207,-28.483700717719074,7.448432179491177,5.504794629646867,6.50139700920108,-1.8257873945565728,-1.5776557845084334,-0.45986016036835764
198.0,-9.536820215059013,-18.655689068354388,-9.118868853295906,14.148897415223274,-0.25302348278649545,-13.923019749420686,-0.7980971435226489,0.8078838175014478,-2.781594789246123,-5.346409930591552,-19.726348816809946,-6.880587264565817
199.0,-3.9292594040340285,23.393172060374745,27.322431464408446,-9.76435906937166,-15.596029973812486,25.317750721774797,-0.6597430294565434,-2.2332490180637277,-2.808123426124055,-1.345658790739324,-1.023052933673041,12.687223118732675
