Time(ms),I,II,III,aVR,aVL,aVF,V1,V2,V3,V4,V5,V6
-200.0,3.348355413315356,2.0484761896493318,-1.2998792236660617,-2.7346487260627477,2.358841278846512,0.3446565468264879,-2.2131925894307907,-1.9005990869798428,-4.77011975786854,-1.4534325786957953,-0.7193153175000521,4.959591934303917
-199.0,4.058296512269926,-5.591368777463904,-9.649665289733864,0.7305762642840956,6.817782029777587,-7.563129270833734,0.8987258539070914,-3.808693706468138,-0.6628066841245315,1.6508111041438223,1.894887150272993,0.6964740024502913
-198.0,1.888369938011814,-1.9180367647855734,-3.8064067027974575,-0.024513800285802745,2.897736386879286,-2.874913844037218,-0.5618850157117752,0.06238725507176812,3.6462577494107324,0.6021350681784918,1.600173107437544,-3.494120933201525
-197.0,-0.4755164645885894,0.7652848116093409,1.2408012761978693,-0.11197298330994565,-0.8814302618972318,0.996948071834356,2.581747648171538,7.944181468085299,7.003116347278035,5.819427968492922,7.746087332555987,12.56438353018307
-196.0,-4.020631095494329,0.22819681094744282,4.2488279064417,1.9215344932717584,-4.157329962948732,2.2347575295968074,-0.3524806908473914,4.053167648046918,3.5424633289265257,2.404098191228157,-1.3437435884483109,6.123233777471858
-195.0,-0.46302401155019535,-2.773736228230798,-2.310712216680621,1.6376845357857404,0.8971742139735883,-2.5490286650228136,0.857999863758302,-0.2692407781748072,-2.7394401220146642,-1.9663717715418625,-3.207397179142737,-4.720718062131297
-194.0,1.3410823445556257,1.3288079672261774,-0.012274377329418718,-1.3964592292502842,0.7213233333819788,0.6434394326879096,2.271075415363513,-4.477904779049377,-4.640584261939269,-3.9638397024338525,-5.9501722809975295,-11.257356589143559
-193.0,-4.614504237592572,-2.177661692232358,2.436842545360217,3.4164058057822375,-3.5680468926897264,0.1037099203140861,0.43847175823257817,-0.8441460374339593,-1.2593453574009805,1.6423210755209587,-0.768321988881898,-5.908037562910791
-192.0,-2.3935785544859125,-2.2475869853901127,0.14599156909584998,2.3487288577342555,-1.2397888578522434,-1.0091463684528592,0.4125372073798881,-2.403304497636035,2.932613453731206,1.4762013479534366,-0.4627178738390027,1.948491885403858
-191.0,5.477253940716691,-0.5476617038857909,-6.024915644602454,-2.4261641162747036,5.778457752747069,-3.253221302827885,-0.5645437094285588,-1.0095362579837097,-2.1454822301021554,-4.894760725259148,-4.140651744164115,-3.8267683004059694
-190.0,1.456638835654879,1.1568974478008112,-0.299741387854045,-1.336929348385051,0.9070483647769094,0.37871072443797904,-3.187949639404884,0.4812652416170022,-2.770210594950079,-5.835786842680177,1.5077316251588728,5.676171001603558
-189.0,1.45558291368426,7.458787397541194,6.003204483856939,-4.48116535876817,-2.3192630115147637,6.7602775074208,-4.602411674652799,2.5333920787673723,-2.0685155375035746,-1.2167224450315344,6.029354784809103,14.477456704462034
-188.0,-4.382970177729771,-2.0941271218922486,2.2888430558375346,3.2148963420590566,-3.3759706596524097,0.13028803827202307,1.7160613677891912,0.6484172286269503,1.4109852034226449,4.2511884139847105,9.795236074360181,-3.4595251643644094
-187.0,2.2639944172550255,5.424280209138227,3.1602857918832297,-3.873426755405264,-0.405064166299722,4.251115084922987,1.5188177931339284,0.3628588507632702,4.325683486943779,10.904877956538886,6.3416077031565035,-6.05427713371545
-186.0,3.181798413693686,1.9131872753310437,-1.2686111383626457,-2.5078458698321704,2.191764575017001,0.2845141193222629,1.9922414398708979,1.0765289270039178,5.534031003346796,8.564339183196218,-8.85280594250571,-10.551746423512299
-185.0,0.7229236513274888,0.3399248662368475,-0.38299878509065755,-0.5029599093512103,0.5981700942087118,0.020118683813441507,-0.7597514306610678,-4.176515178273425,-1.9543239427190944,-6.079448489047024,-12.011649164583321,11.377398206313524
-184.0,-5.5185758268045575,-13.263453038716708,-7.744877211912153,9.409569828363962,1.0778865570462393,-10.543541106630173,0.4217784914832866,-0.5781783589207565,-4.406421003396957,-15.002088964205553,-4.00031599509165,9.177035979665346
-183.0,-2.171444128173184,-7.7809419636945,-5.609497835521275,4.987753888630113,1.7604119018469775,-6.660253333907006,2.318131167318098,4.658746457266087,-1.1543955696157346,-6.316369808867729,-1.4874490071215587,-0.059414991361355085
-182.0,0.8601997225404645,8.613774273923472,7.753574551383039,-4.807756968988826,-3.485123962813563,8.213537583370691,-2.137103908067404,-3.5574654152524046,-0.997440699331309,5.453458478903081,9.459239776438212,-3.5723631347166678
-181.0,0.6770383518389438,5.751375713872768,5.074337362033823,-3.2066208655981745,-2.2359507934525547,5.359654182342089,1.5044872479808684,4.245401440241077,3.7571444160771543,14.233504355685493,14.058470896483957,-8.822663413672808
-180.0,5.444396620266973,3.84586613244087,-1.59853048782609,-4.635186576362859,3.5667655433944945,1.1468634734457703,0.3065382996363989,0.07445646704022502,2.5839216480222986,4.8697516145231265,-5.023914856233102,-16.35355199500521
-179.0,-1.746060907806864,-1.4767366966800193,0.269324211126895,1.6260726195837845,-0.9563820854008002,-0.5801648004745719,-0.7142877227718547,-1.6025651038950322,-0.9017339347885425,-6.1065940669022485,-10.720546169498913,3.102290589432525
-178.0,-0.09677526531242292,-9.731083878929152,-9.634308613616689,4.935345576229803,4.747732462141792,-9.734552754843815,-1.2726864793699777,-3.4583133887252293,-6.8478197501687115,-13.886775925608415,-3.665022746181167,15.213580290149896
-177.0,-4.855906461831669,-0.9317175905813226,3.9241888712503634,2.8447858698244266,-4.4068064722055444,1.5294261567397576,-3.6354454984761833,-0.5038230685956953,-2.7749358313238357,-3.236529189718003,4.46845132861878,7.440381842100072
-176.0,-1.523843336159663,2.9266507399375867,4.450494076097205,-0.6623869849282098,-3.0041407117927363,3.651834636715948,2.4169842303368307,1.1899193372967733,4.07643503654736,11.046585578908406,5.4152561561980415,2.404614918247356
-175.0,3.2047103090093496,1.8470760266579387,-1.357634282351491,-2.556040287806601,2.2583395877932864,0.29724026493006317,-0.09412501436300158,-0.27347045196111996,3.7832921510023665,2.1363407758975983,-2.8251999014351106,-9.039391068233718
-174.0,2.7637174913807963,3.352077632740124,0.5883601413592752,-3.0789726865567517,1.1327449252110295,1.9548689146986913,3.3521645853960154,2.501102264682639,0.4468536316536005,-0.3292410032879953,-3.264278123053413,-6.41792219935153
-173.0,-0.7052257096510288,1.935689960729816,2.640915670380864,-0.5499833414594184,-1.7202009811407017,2.282514065207834,-0.3522633653374192,3.1363221210681607,3.452870940479139,-0.30797395121957793,-0.2790377759003615,3.206102806180083
-172.0,3.4772660981251753,0.5668221327827946,-2.910443965342293,-2.030645679010095,3.2128403493284803,-1.171118293494079,0.14201999350605,1.3164129048994746,2.6388450678942417,7.9639599326624655,3.6859952776630793,8.354056005936858
-171.0,-0.49781070299958563,-3.688599869899619,-3.190789166899865,2.08565828584976,1.3569692512300817,-3.4369597062595014,-1.5806472329970165,-4.709513653358506,-2.860604709837387,-1.4613821826764335,0.2773180763257965,-2.2796355323530415
-170.0,-0.07575929625398792,-1.288389940229036,-1.2126306439749168,0.6710391834868097,0.5766470515293098,-1.2506684280575544,-4.18152775574147,-3.3700013429479414,-10.51879309494444,-10.257189386992842,1.1772126042751587,-2.9026759504505817
-169.0,0.5547022270217152,6.038109714493712,5.483407487472043,-3.315152812325707,-2.4520289165850464,5.753427604416916,2.526964449607622,-1.0191184836240628,-3.8459913287945513,-5.549679535431148,3.214143884720756,-1.388062826504211
-168.0,-7.346203903117683,-4.9089272219775255,2.4372766811400735,6.098484571902032,-4.870836766002714,-1.2528264999943102,1.9481432252972641,2.4967599683644197,0.36400769181916237,-6.336697514734147,-1.8249559633520238,-1.2057070432980304
-167.0,-7.365053577801608,-5.5876985796085075,1.7773549981929135,6.515677217503576,-4.619331620608461,-1.9318563964686577,2.4615490697900033,2.429809334425193,8.689914179545163,5.936009355527519,1.9319488599743986,-1.8434872370470292
-166.0,0.5322139427329713,1.4536374431062733,0.9214235003730984,-0.9612596658229775,-0.15669146294468572,1.2322864684146662,-2.1539789745272166,0.6607719100392875,6.02899547110672,12.346698199726813,-6.178514755076311,3.0412410474708778
-165.0,4.089423185589737,3.857046679632228,-0.23237650595758239,-4.0232679613650975,2.122393972276598,1.8535191638696165,-0.4406082283999745,-3.4044111648951825,-0.11961916074524703,7.308156184055665,-8.124399064876282,2.8165805690989263
-164.0,11.873694707515783,1.6877825073646546,-10.185912200151048,-6.749881282417532,10.988057935727191,-4.286743821575756,-2.768415756775153,0.9392846575725218,-0.8756642958707,3.127739684176168,0.6266569375121818,1.8375544826311723
-163.0,7.706267918818715,-3.829220773675256,-11.5354886924938,-1.9017765804970255,9.650510824201255,-7.639780139849969,0.43770689369688687,1.4878496695349042,0.2641250533360844,-4.313919030963609,6.900774943163348,2.578491832532885
-162.0,-2.841936028317131,-4.145491031846061,-1.30355500352873,3.458686025009869,-0.7482677437094032,-2.7601501901516547,3.7598755397947086,5.0522727220577845,-3.1804195645426496,-7.07276455670714,7.11072346595273,-9.816782995917858
-161.0,-9.909324965089676,2.5968227838602638,12.50614774895007,3.626207412346722,-11.19390608795341,7.513392525633335,1.7707732462537333,-1.6684449757909776,-5.575499993913291,-12.96567234795288,0.6499402115699775,-5.06680890192455
-160.0,-8.08722365320102,3.0799890605850653,11.167212713786228,2.552922627002679,-9.616879905118683,7.158315458564073,-3.058600607356891,-5.486056558573698,-4.725841054664034,-9.49266525048895,-5.919995062624841,0.25329609014007626
-159.0,2.410482503667101,9.067651313088714,6.6571688094217025,-5.7731120398879945,-2.1124567263067338,7.810495778442254,-3.6145475174018427,-3.436431645961141,0.6624797408174252,2.392910265510696,-4.004176757563484,7.129435168378201
-158.0,1.8152862543561763,-4.250532036274773,-6.065818290630926,1.17490220828565,3.876314062366131,-5.138092143246467,2.7789533303709404,2.9691567368728986,8.925103491594339,18.381541881055597,2.844300871831452,1.5745666692854088
-157.0,2.7957681800225447,-3.799153440764745,-6.594921620787363,0.5276997192250145,4.714829303446845,-5.179211510687981,2.264251574606718,1.257177412445849,6.671050694793971,13.635526092177674,0.8307344032615269,0.8827603721591979
-156.0,-2.1488176229956455,-0.39861808936031196,1.7501995336352305,1.2917150298517712,-1.925447652116703,0.698067777395531,-1.532913209933397,-1.4255752297820246,-3.090448674232312,-0.06164122948089901,-3.9924350111490163,0.3592696414932961
-155.0,-1.0734274847730445,0.4090235880897253,1.4824510728626024,0.3469111173823187,-1.2508464308945313,0.9791394557332525,-0.29251418218803227,1.3499123671502948,-2.9185981860949233,-7.6527569763148655,6.566435295168729,7.405113533776463
-154.0,2.5536240717114915,-1.3218256929939423,-3.87544976470559,-0.5987397157379338,3.1642031794223056,-2.6286780665770175,-1.5302690836320725,0.4864581969483259,-3.0730145740898736,-10.045078805525147,0.6756722928098977,2.474191063586124
-153.0,9.585356373580415,-4.291699976370404,-13.877056349950875,-2.6224741095853124,11.681428786135083,-9.099091708426414,-0.01629181426225096,4.347566578445716,0.07327502510287953,-3.4317282757564884,2.9169382121907956,-8.099309784922013
-152.0,0.6707655258535032,0.2709022794194984,-0.39986324643390914,-0.5157371862731575,0.5658215496774415,-0.06823360327079353,-1.0456661589251752,0.6646453961053064,1.0422777418080367,3.5652999851602347,-2.6870437242898384,-12.44033013976465
-151.0,-5.568096107408605,5.261432285005768,10.829528392414586,0.11745086615066891,-8.164034681545637,8.045234918464809,-1.5242943936229902,-3.3153754795471975,-2.676477000716062,3.1160199413596645,-6.590184525364407,-2.0876380428200347
-150.0,-0.8702589907922529,3.492815814883298,4.363074805675744,-1.340607612867886,-2.5741180036853457,3.9230184434286066,2.492160437839587,-0.12648485263219378,2.326467822917264,-1.0288069973080827,-3.4404577556773113,8.543017763207619
-149.0,-4.661798342618115,-0.9278229997763914,3.733975342841881,2.847576644922932,-4.223682094195295,1.3871586913253613,7.690610634152787,2.108597530845313,4.5860053374995555,-1.8217947705916047,2.174350348406863,5.848202612173641
-148.0,-8.489336452381048,-2.5959163818293343,5.893420070551824,5.595840146472623,-7.20647089054053,1.6194418157189259,3.2349310621395424,-4.532484542264911,0.20210683758984604,0.49243790555594025,4.938711977796525,2.0641947657577315
-147.0,-7.867112503593666,-3.9683075548452376,3.898804948748492,5.890520535335176,-5.889949140866867,0.0035316589153279385,-4.451435892530148,-6.765121120430598,-4.3104884377892905,2.2361846449296126,2.543405848868268,-10.05794128281665
-146.0,6.012009336373568,4.152597713214701,-1.8594116231589064,-5.112375561244008,3.9319574974224722,1.179711605024942,-8.504986995396173,-2.5149209159832013,-5.069241778312405,-1.0994304181108736,-2.191735573173477,-7.78568948228003
-145.0,7.092389913280691,-6.099588628373675,-13.191978541654544,-0.5297467527940078,10.13609042619428,-9.610277704907213,3.7964848386931656,4.274926123888731,0.9065663709982303,1.0247262338021323,-2.462619941931278,2.5429849739585313
-144.0,16.423576130461665,-2.1082941641870168,-18.531870294649003,-7.11511343325454,17.464831054401884,-10.354472933114977,-1.770713055347545,6.361386210492971,0.8299681288253884,-1.0251962026485324,-3.3608970369492175,11.074833186858587
-143.0,12.49149884807164,15.229650039185843,2.738151191113799,-13.819919217749856,4.855040119135694,8.961715025317588,-5.982289417029273,7.3036549348719815,7.624076010734183,5.013948727272243,5.152378143126233,10.91936186330558
-142.0,2.316585589652719,5.590619032624156,3.274033442971075,-3.9923453997119576,-0.42938108013578535,4.421885042866956,-2.012701149975052,6.179027315795721,5.194474612041037,4.939479916727187,8.246098638745641,3.669024567783693
-141.0,-18.357373640596485,-10.589339268478907,7.7680343721174285,14.434941906996787,-13.018011359635642,-1.4129369564555274,6.565172367398421,-2.245398749951385,-1.4609454593236557,1.5037683805763913,2.8526985210088793,0.13394366575588257
-140.0,-22.797842080466708,-9.169438364762437,13.628403715704295,16.024671834844007,-18.24810296104524,2.230194913430361,9.26861942871809,-9.548554408809387,-7.377262977492279,-9.043772694661165,-10.962950207177222,-12.743406078964863
-139.0,-6.7346799308784675,-5.019253564295557,1.7154263665831566,5.918302391913127,-4.258252790397913,-1.6532425915447189,2.0199996028228915,-8.46856330298489,-7.925351317054311,-14.17924263302851,-9.30450448959088,-8.464748521380718
-138.0,5.547679610180757,5.94787358309358,0.4001939729131902,-5.785919437550538,2.6217322694173855,3.166976472673778,-3.2834390909731583,-3.0935018686142453,-1.8971240648179397,-5.8763389347334964,-1.1681084048325223,-10.542320586196077
-137.0,13.825170852618257,4.877788595133824,-8.947382257484097,-9.391586953654436,11.356484888059091,-1.9706863314526024,-2.827610305183249,5.844991146846276,4.093804454682569,6.61780426147516,2.9880014826890875,-6.160134707630067
-136.0,14.664730993693533,11.941475935008405,-2.723255058684874,-13.267192433540426,8.66233285514114,4.586690918637585,-10.126953848548524,0.1854551624051135,0.28924315775562714,12.520894431703628,11.439588434296928,12.94458729331298
-135.0,-2.2246130773142685,-2.5249276663126254,-0.3003145889981562,2.3294915105217324,-0.9199046976259222,-1.4418636053733187,-1.288296203561715,-3.979774933427442,3.721949935928581,6.03336351868964,0.7417391642453248,13.876551908745267
-134.0,-11.203169151501037,-13.15390207043631,-1.9507329189353015,12.211016959944503,-4.669496160377669,-7.58677550019256,5.002151411946722,3.1042045400751146,0.5050270017620138,2.52703180587329,-5.342039478336231,1.2965185528070613
-133.0,-8.162559675450742,-6.213290126079331,1.9492695493710523,7.221433487431122,-5.027390416173899,-2.0910952771022187,8.553289233822037,6.195190885600877,8.866770722689818,1.7988589423837553,-0.9890901839468262,-0.8211808399641836
-132.0,3.2098869252132003,4.483884876612798,1.273997951398892,-3.8108176899860915,0.9911032329656688,2.918124124664537,15.7043570046332,16.526413864146836,12.313967928749092,2.0895182547759985,5.260779781532917,2.4606035400954394
-131.0,7.274275298152705,12.192714701791278,4.918439403637855,-9.773479317309326,1.1984732788891646,8.515284912246186,-2.410225678375981,-0.35046006312228606,0.7791949656869867,-2.0291151071634985,5.445450364003994,1.1546276719850277
-130.0,-1.2127468771965824,6.006087813935011,7.218834691131276,-2.4353703730175615,-4.273444360978118,6.650300978313231,-17.873129573969617,-18.24944970282696,-14.545928193056493,-12.313051571525229,-2.6762991777862646,-3.9814980167522487
-129.0,2.0667110094412595,-7.540259674813813,-9.60697068425501,2.697154854426638,5.861364416361907,-8.61577686238444,-8.036602639543782,-4.956629363320907,-11.391437526062319,-6.736717053305215,-8.855059184435639,-8.5825382883
-128.0,1.8612486706931142,-1.1754001266560725,-3.036648797348761,-0.3064897188439435,2.4004324227530045,-2.150212959374548,-7.16139152722908,-1.154057202261483,-6.170578097441476,2.059066022760955,2.8088548707288377,2.9711058787806657
-127.0,2.0644422765458783,-7.982268408212746,-10.046710684758125,2.992221728804518,6.093013947130347,-8.982159345811924,-3.468830195303675,-6.249013041146717,-15.641966738334112,-8.045228862075998,-6.734473977872114,-1.1530215289446284
-126.0,0.7367338171506539,-7.618717124501853,-8.355450941652109,3.4722154713426283,4.591204557764302,-7.956257589791855,2.3870804072493543,-1.4968011369302063,-10.977642091474392,-9.93809230501506,-7.977642205423394,-8.06093041539419
-125.0,-0.3550664902215952,4.037027212433877,4.392093702655631,-1.8886622156262418,-2.4003932892852693,4.245299592869173,5.040597818064647,-0.2500096743988589,6.7243255730756495,4.290681232476039,-2.4122010398277673,2.0838778082250036
-124.0,7.245383235358485,8.432687713524425,1.1873044781659203,-7.806095372651026,3.0067272879010094,4.763342650121086,7.906794959702863,12.863998682418337,25.214869852421117,13.454590786370419,9.625594262922693,2.3991304460964673
-123.0,-3.649095116297706,-4.4938106214509475,-0.8447155051534398,4.029117735466019,-1.4235794479135913,-2.6349273782794667,22.42559077877872,23.421467825789478,35.1452937277871,17.60368950556467,8.595843014062275,-0.6626919337462374
-122.0,-20.251576955567756,2.405856393965493,22.657433349533243,8.88504510991209,-21.400450563090754,12.4896708159934,16.766150411723086,11.730559145987993,25.499935899596593,23.22215667178322,11.228093177867311,7.862266544192344
-121.0,-21.70206189565693,5.753697962854393,27.455759858511726,8.02015722726086,-24.61097472493323,16.56510046725426,1.0030000557555114,-7.611932640243467,-1.4378608448712398,3.1811259225668707,7.915902686848723,7.781664620224339
-120.0,-7.6410106275324425,28.56821914166254,36.20922976919564,-10.412694921805418,-21.888866259817153,32.430340634557304,-30.429125022512885,-32.522677589894045,-28.061795993696975,-3.7602538484924626,14.33347141402541,18.41610283305789
-119.0,14.829442170422514,-11.718056482961165,-26.547498653383474,-1.5796209957895284,20.634215113416825,-19.08803687390735,-22.418764854905593,-16.75818978734062,-33.96783319561469,-27.548724628033067,-17.184859014395094,-7.755741559170622
-118.0,29.759595865668032,-31.807019653127167,-61.566615518795615,1.0015647787374222,45.67678370871563,-46.716878266578696,-7.196686959807828,-2.479665887744794,-31.507233247590552,-34.76556997724671,-36.26980686972912,-26.7270343122146
-117.0,27.905775981129715,-26.64061081081608,-54.54638679194682,-0.6559421957637119,41.23230208012485,-40.61924196372213,9.868802514359993,15.577471662457848,-5.553696333074914,-19.91012759309795,-30.06838963655126,-27.35018681321253
-116.0,14.099498212305416,3.5873789895117003,-10.512119222794876,-8.792340678084795,12.309925332132321,-3.4057570287468035,6.563204804072482,12.53883280599735,11.05389075432958,7.451278991728392,7.923564833737954,4.013168086683608
-115.0,-3.3966198003782297,24.070569572648157,27.467189373025562,-10.371035353307903,-15.423568482033513,25.748312007508773,-3.75477660149042,11.001245713254924,19.467586507625942,20.390982352976984,27.06052880172223,15.18175397404095
-114.0,-43.415708463615985,25.106070797699928,68.52177926131625,9.11409711820631,-55.95030554214624,46.791877116661816,8.25312426657843,-8.626471376404314,17.694678191128514,27.49007937404855,33.63976456272739,24.410192547249192
-113.0,-21.367214817376265,23.701140669737455,45.06835548711504,-1.133654445243244,-33.2639578150593,34.35797227536331,5.847795041286991,-3.774596241379242,23.77543242387346,28.838382272297533,20.197093011666208,16.911302093974214
-112.0,-13.448635116577424,3.203319810633909,16.651954927213268,5.154893367514827,-15.002371824287582,9.972452164516648,6.308422091543414,-4.580677190372691,7.797404108031909,7.372525465165692,-0.12024785582893927,5.529184414374723
-111.0,-6.2648966561274015,-28.68831003340357,-22.423413377274517,17.511900232535485,8.061884787507022,-25.597810012356213,0.5052218564923061,-4.546797827289357,-13.41381381562495,-20.860164324605257,-28.515616633844616,-19.33187346851281
-110.0,31.154091713597065,-43.2555493046693,-74.40964101826584,6.013506074551969,52.77350318606935,-58.802930508716216,-5.106217112388506,11.909492301376332,-20.76993580815396,-30.748847837431093,-37.74531790122309,-31.91269330234477
-109.0,35.231875842424834,-3.1933371365009506,-38.425212978926155,-16.049079674549674,36.82345708080756,-20.784660395069363,-7.472017313199482,8.293492599042827,-11.967267686847833,-12.436208542492405,-4.87402217087142,2.7311821833263785
-108.0,1.5422743783814568,23.09041347432316,21.548139095941067,-12.339739754581222,-10.010138301214475,22.341234314324918,-2.818362173097892,-4.827508180656052,1.7699917023168403,5.095611138432101,20.71909622864417,19.04712432502557
-107.0,-16.8458149234671,9.221883693116265,26.06769861658263,3.8711089686211633,-21.469649374224357,17.587246039597048,4.641427640762837,-8.674268434319144,3.3074939823621703,4.87256757777564,9.450379947208166,1.1999652301462387
-106.0,-19.683705046780027,-5.446390126331556,14.237314920447659,12.54587565990256,-16.98004537495049,4.417058317542601,5.62471161251918,-5.42759357107039,3.620927313537041,4.7727980409667525,3.939465257795625,-13.606215630745996
-105.0,-7.963256049890461,-2.4869198465954483,5.476336203294178,5.203134808259876,-6.665847165052968,1.4386465359978953,4.704891737958254,3.2520277084976748,4.816534837336246,4.593744991378812,-3.464820228793579,-12.694914603217585
-104.0,10.436093061497047,11.509636788533305,1.073543727035812,-10.921270894785042,4.732390361397981,6.316181050337262,-4.753504335610691,5.717204903112432,4.651353224213961,10.808906812251259,0.5597370294094279,4.837405949375404
-103.0,10.890381965047158,15.331686985392103,4.441305020345043,-13.144615595025547,3.1958654925790895,9.914187197910856,-8.564802175692277,-0.9138289243919333,-1.368477145813518,5.2963062257144236,0.137171529595719,14.511281434887485
-102.0,7.297534845227359,5.439018497451306,-1.8585163477754958,-6.408165825042829,4.5482364770973,1.8223543729391438,-7.752061867617972,-4.901503674819269,-8.25645748514716,-7.135107392888602,4.185924439756708,16.700942236757598
-101.0,-4.860391825029193,-13.767187792006904,-8.906795966977189,9.34762416297477,1.9902321616098018,-11.378466858797522,0.5638343777551085,3.0587487911232265,-3.0320236167599957,-9.61885081857981,1.539135707376042,13.578315631268039
-100.0,3.126336282146659,-22.79149098555593,-25.917827267702286,9.863304229824696,14.561673093849743,-24.312569366208038,3.96685537056775,6.130727863297322,1.4561366099253745,-4.554249926171823,-1.2521221205808724,-1.437435369610201
-99.0,-6.953619327987247,4.693333919041322,11.646953247028588,1.1595632044612394,-9.347947360873682,8.136837039184663,3.788789736125608,-7.7284456968492945,-0.9143059587734823,-3.2294427185336145,0.6336352644256023,-6.275115655519258
-98.0,-12.443575272341551,11.9858369019186,24.429412174260026,0.17927634657856206,-18.414099273707755,18.175829731524114,6.594391851071077,-6.642659680877088,0.9203922435107521,1.2195070368341643,-2.7391561685801813,-17.313990959919998
-97.0,-2.3774081106128158,-8.326419397637764,-5.9490112870250895,5.302172450011018,1.8020063442569008,-7.169114136018649,4.643137235544591,7.139202603447172,12.033022574049705,10.253408710791014,-3.1306817987236757,-18.525242603390165
-96.0,7.145919978756202,4.961799932192281,-2.1841200465641237,-6.025470327511655,4.679728501465347,1.4370498626831638,0.4707016636153355,7.902330655886903,11.373536753278042,13.312288720664307,0.5024758418989563,-6.970975860601596
-95.0,9.727167477702373,8.566260280888772,-1.1609071968137883,-9.119470208546073,5.462775511647432,3.7538140959596373,-2.470142678010544,0.6781641238557328,-3.635692808300137,-0.281276317600347,-4.154100121142276,0.23884385087166615
-94.0,-3.259222443571483,-12.577338475303218,-9.318116031731787,7.944123348478106,2.9781816102351764,-10.969631796137467,-5.534911265033647,-4.722234514738541,-16.630713914550782,-15.53416852961063,-12.484291060943157,7.551739226594211
-93.0,-6.242783298492608,-11.220925486746674,-4.978142188253997,8.677572151041034,-0.5935063113794148,-8.113599834218075,-2.4920820479202996,-4.23559984333953,-13.933331278911597,-13.759084543173877,0.14967233986963002,10.30504983044223
-92.0,3.694022767563213,1.1218181678574966,-2.572204599705591,-2.3846738656740625,3.10432506122039,-0.7310825126562974,-0.06473982320397198,-3.0387264841319537,-3.970438592708626,-1.0770016517132346,8.391603052508168,6.787052615017753
-91.0,8.897711588889983,6.032306220995176,-2.8654053678946805,-7.442808600891549,5.861101857392885,1.58384263150137,-0.3620564989452617,9.644138354968948,14.307818653901261,12.783749915276712,12.58214609656438,9.301246403058787
-90.0,6.02940561678105,13.63316601217054,7.603760395389547,-9.888673188534343,-0.7252565867548202,10.621372822977118,-1.8095842828463613,-0.13595703025345562,11.972521733373647,5.23531288631142,6.092251667265296,8.805018618875957
-89.0,-9.728063713611856,12.561913392687803,22.289977106299613,-1.396087431357758,-16.027685030613906,17.42672130419858,-2.193336387621175,-6.707364297437531,3.494294128857068,3.2101413586584693,1.0671792167808816,3.396426949072528
-88.0,-5.526755436872617,3.0786394019055323,8.605394838777988,1.2447888280356278,-7.091485253301408,5.8363978798292155,4.269880158621272,2.9777791910784788,2.0182495980955277,8.39933103097188,3.5871306612894838,-13.215581422455678
-87.0,-6.237760598109545,-11.97323665112928,-5.735476053019948,9.126503876674464,-0.2864011660720527,-8.869045713710406,2.3771682595265866,1.464979917960422,-2.0426783513523845,-0.7902551822531434,-1.7992093932879136,-12.367061599889166
-86.0,-7.648246942460972,-20.696922438716076,-13.04867549625526,14.11522005173497,2.7334121457923537,-16.89690815712519,5.122120966396652,-1.7953339525284155,-9.228849027825916,-6.972264668494015,-9.264702361376221,-11.8655755609613
-85.0,8.456230772714664,-0.810570555499055,-9.266801328213775,-3.801422344843715,8.886721880456907,-4.991512541187356,0.9432327177232493,-1.9041713746393532,-8.811724955454908,-10.946147990070688,-14.917748652452318,-3.303322234896597
-84.0,13.439675306859108,0.9191472090699166,-12.520528097789132,-7.158825714634088,13.00156390817337,-5.757569187351393,-1.5192152196580728,-4.185460595746832,-5.909562330823516,-12.00111180373009,-14.262655381654522,5.3300979994117625
-83.0,-0.750674831729949,7.555970185065225,8.3066450167953,-3.384032717179016,-4.584900023747186,7.895167337479519,-7.272554655373333,-3.21165730654434,-1.5708520083209376,-2.004139328184498,0.17106452175182785,8.470216508721016
-82.0,-0.4811793758806151,5.2509068367237175,5.732086212604507,-2.448025883158712,-3.079213939876071,5.4572584969009315,-1.3645806751899818,7.041885948315624,13.053894485945118,11.676517105942128,17.070286247751373,5.833968194675991
-81.0,4.459222859431213,3.579659428661798,-0.879563430769231,-4.00729806448448,2.7036204673861395,1.3970990288767213,-3.072988599765016,7.903287282189353,9.559324216099451,11.396095605910766,15.989490477143802,4.29726668824996
-80.0,-7.612544324327845,-1.2648213460042808,6.347722978323658,4.448098423008597,-7.018190528586942,2.511276694137069,4.504238728762853,2.6369657492194722,2.6009645059879007,4.473506905164459,10.42645226016444,7.898814606215968
-79.0,-11.534429991712143,-4.849432084423328,6.684997907288722,8.20063405248076,-9.143353385324403,0.8871853035998805,4.078470668145566,-1.7524503991335147,-1.9574929877758422,1.50462473610586,-0.003428040958776357,-7.355803060537234
-78.0,2.4385547128499585,-2.7958239051668192,-5.234378618017013,0.18961142210551873,3.8833862772428924,-3.9693330169736303,1.4762155367635277,-4.279619677241465,-4.0200549891049455,-1.4313918160899195,-11.082642498110888,-10.127932027623968
-77.0,4.798750406915832,8.433864211192507,3.6351138042763718,-6.599805387456293,0.5499240323232963,5.9978709628705555,-3.958917646927742,-9.492331493607523,-4.825340347089928,-7.704363182560041,-12.947690091231749,-2.017106336903706
-76.0,3.257433643906622,-3.5393414661651654,-6.796775110072028,0.08695655447192596,4.99490041451003,-5.12984188058251,2.0014967057353124,1.5444837122142339,-3.326867606117526,-5.4430263221883415,-5.079136756866321,4.093154365762474
-75.0,2.572745032179895,-5.3688388907793305,-7.941583922959327,1.4326526705870926,5.304850430702093,-6.620396764648589,2.5260967425595915,9.131685223527624,4.391371403847035,1.9874909444174866,3.6726502496891857,1.440856122401961
-74.0,-1.8927578616753744,-4.249171070020159,-2.356413208344698,3.0368552136852656,0.28295935360733493,-3.3491961134712143,-1.6541435580810573,0.0984797065916494,1.453641011762632,2.5396748182725886,3.5276337630013757,-6.630843091844216
-73.0,-0.43037805169757815,7.868065314863974,8.298443366561767,-3.6654438792759514,-4.386805247869323,8.035450941270538,-4.712621865008807,-2.5701863183501024,-2.452725376615522,-0.5400211173511298,-0.26491904558115653,0.6231384871922643
-72.0,3.048610532827704,12.413641821498214,9.365031288670766,-7.750283643919116,-3.1753581163991043,10.919974268337185,-3.0270750898714867,-6.395306900760931,-4.8316132295757885,-5.899140206397482,2.635469568973156,6.9838043573982365
-71.0,-1.2914021714330368,-1.5246327667658433,-0.23323059533263635,1.391578426215097,-0.5431304398546457,-0.8475928262430896,3.271671206473081,2.1657005482710425,0.7874023929332707,-0.09696951976118161,2.227347940764688,2.714558431817038
-70.0,-10.33128859876133,-11.485975918038958,-1.1546873192775975,10.891138398533927,-4.602939670097115,-6.287591097051904,4.252283282300191,-1.0292081077345918,2.692250055942935,1.767474836929641,-2.5423647648896246,1.1706114751111831
-69.0,1.36453218434607,-3.745295092609786,-5.109827276955963,1.2472682706503373,3.217986281277132,-4.472023461486694,-1.9776575978366728,1.9882327109061944,4.559543618136283,8.47681519958868,4.241411696989227,2.6466251799330665
-68.0,6.062071250961782,-3.212266148466683,-9.27433739942866,-1.4532469323654136,7.720296029154303,-6.286621142727609,0.3865915415089478,6.510146471875351,4.281741617045349,6.2858668991198865,5.544329700367413,-3.3512065438654446
-67.0,3.192410069961976,-3.3681760893675072,-6.560586159329636,0.052709431593660705,4.841263255582619,-4.9283943752649835,2.9028695891845,4.876679673298888,1.927496353542109,-0.9932011276026569,-5.914308374097014,-10.725571159804497
-66.0,-3.2015655739744684,8.111703004251243,11.313268578225655,-2.416685489977141,-7.221833038088368,9.748808476265074,-0.47763389761975283,-3.5669190556174883,-6.132687101678102,-9.49080325732527,-3.432474838491294,0.5953013545554677
-65.0,-3.358063879492514,5.794683067984826,9.1527469474774,-1.2605353085735813,-6.225994422808429,7.4321992092068605,-3.2537481636494103,-7.874224262375761,-7.93128249896455,-7.124372609806356,-3.043751596656542,2.153119973397526
-64.0,4.583185449949694,8.962902537468832,4.379717087519231,-6.734230158776499,0.04829417113510015,6.632169634073579,-3.9238414237031676,-3.5154576741966608,-1.4873742774250553,-0.2586111178383197,-3.001418186678849,-4.040455528337583
-63.0,5.13958624783802,2.380950669485276,-2.7586355783527092,-3.7155444155727757,3.9721912334463627,-0.1448473829367547,-0.41611221147058597,-0.8451606758831627,3.7611813281890702,6.2785900601512035,3.000796170822781,1.0037490827124282
-62.0,-4.5026307489888255,-12.254532656757032,-7.751901907768193,8.352204313050681,1.5683435817678033,-9.953043250764448,6.758136658212304,4.0892721013147275,5.073477627561068,5.084724544300752,1.0816902538838495,5.351290283674053
-61.0,-4.575263025525011,-13.342430599790362,-8.767167574265326,8.939204869172391,2.1193310730231385,-11.07656039348313,1.0693058162730669,6.474319048189755,3.804927748406126,0.2624084017993167,1.4537592376655706,7.473845051615865
-60.0,2.079786108366476,1.0754234282478592,-1.004362680118538,-1.593846624334497,1.567944865069455,0.019412487770072318,-0.6176608176731178,2.370464645430106,-0.33200946271961884,-0.3720994343577113,2.06007811302639,7.892043107665254
-59.0,0.6920073078512272,8.255495304840693,7.56348799698958,-4.491170146995781,-3.4060297173949774,7.896130877369268,-0.8001268511973523,-2.3870071861353455,-3.5972098036212996,-3.407928760768395,6.3335273243247405,-0.2622857730814565
-58.0,-5.465559411530125,7.3155277617019205,12.781087173232127,-0.8690004591337024,-9.167882232469413,10.034009688094967,-2.385157594280682,-7.77343596929895,-7.3061293832218555,-4.135381445584441,-5.184331472660299,-14.854641552379181
-57.0,1.890979703785331,-0.7577119312892817,-2.6486916350747025,-0.5970280350134034,2.308078839085703,-1.7216080951196382,-2.0166704338322403,-0.46853931259663684,-1.4224151333726156,-0.7198756910407431,-0.20584798862835685,-5.370373443575042
-56.0,6.346075474219705,-0.757289145489785,-7.1033646197096765,-2.83198728653628,6.6868560256175,-3.8756137927007313,-0.9302456145522812,0.32485499348921687,2.4588832236162865,-3.1037512677710715,-2.799836277976084,-5.454622227785864
-55.0,4.720403815800617,0.24605031180921677,-4.474353503991566,-2.4462471512924906,4.560339513332042,-2.1432681096289397,1.9191621798975202,2.8232744115558916,6.231164893666069,8.415652496471372,-1.1262866871468127,4.202237738313411
-54.0,-6.682439903914493,-4.579617043067673,2.1028228608466617,5.668393938824379,-4.351542397346862,-1.1916220209074815,3.2878732288525803,3.4828445255852447,6.514998875006204,7.109860734001781,1.7614129575418922,8.03969083722272
-53.0,-5.123774392447588,-5.116027411775535,0.007746980672079601,5.083283700853841,-2.525781105686369,-2.586055321221657,1.355008126801358,2.9612736442169707,-0.3856224069677392,2.9203936425143113,1.5814420711985,6.157992732520556
-52.0,1.7672561779423464,5.021260033492528,3.254003855550313,-3.3449343495997885,-0.7826417608421867,4.108276638856288,-1.192294961526399,-1.461921964850661,-6.443115807307046,-6.253097281835698,-1.1920609550195533,-7.039013469088106
-51.0,1.8535392600343816,-1.1369866304898588,-2.990525890524058,-0.3811650945917542,2.3836702101079164,-2.010616909189612,-0.6092129661693427,-3.992692225227368,-5.733845784661198,-7.677450409743271,-8.84655681795713,-7.112684390331152
-50.0,0.8300146565687418,1.3373525658528482,0.5073379092841948,-1.103701007399763,0.2042143941273432,0.899863461258731,-0.831837804025616,-4.203616956449211,1.0369436438251856,-3.277009326736439,2.4877431542756847,9.33109160986553
-49.0,-1.9349902913010513,1.2222425670863672,3.157232858387397,0.33385480438487924,-2.4997211023267125,2.1679650310697145,0.016821523095961854,0.6427421629770027,-0.7689632365242018,-2.719323532085944,3.0059265530227615,5.6663007151952955
-48.0,1.8229953816654403,1.0846626185500068,-0.7383327631155236,-1.4838731024569622,1.2516743385669478,0.2271153932851051,-2.5730522577727104,2.246133468883638,-0.3961269073314878,4.856931937693234,7.68207707604182,-2.559650325355896
-47.0,5.627779916891713,3.653844869707818,-1.9739350471839887,-4.602351198929872,3.773752230930183,0.807995325309356,-1.197044953121531,2.964567067667235,6.490595868566329,4.430654712082516,4.102268852820663,-4.296004773106665
-46.0,0.12383166263315859,-0.30792499442278753,-0.4317566570560143,0.12089450226814602,0.2502110156736641,-0.4123153784050634,0.1216506915488827,2.5149384077314387,2.670525670831961,5.021833714171704,3.2031661422995934,2.5640410627629695
-45.0,-8.711889898047826,-10.372444032313336,-1.6605541342655414,9.565183335744704,-3.4772805855262114,-5.992202883171696,5.703719353149078,-1.4377957277762266,1.4047819585178654,3.0900167550113,-8.821446579343675,-6.024578899224115
-44.0,-3.7205167059309776,-4.421734123556224,-0.7012174176252484,4.015287196405307,-1.544065117628708,-2.5480927982320107,3.577427116743893,-3.0293060983892866,-2.827025007029816,-0.3169778508137926,-9.483539280621,-7.9594424929984156
-43.0,0.7899061599643717,10.469797933505273,9.679891773540936,-5.601010653780997,-4.404396280644207,10.080769699697088,-2.3963483996766057,-2.954445452956962,-4.731504474546508,-7.416903496945049,-4.685485817524818,6.403679399634242
-42.0,7.161157539553449,4.4063605234989645,-2.7547970160543973,-5.822941616399899,4.917933225305592,0.8291702384049486,-3.629138767329172,1.1702386872897836,-3.9391794983397674,-9.5598892020215,4.830643337612917,5.864993655784793
-41.0,1.3030383673561166,-3.617071597114119,-4.920109964470138,1.2097109675713416,3.151145904172547,-4.262719635433508,-1.6427997085349753,1.0808765713352047,1.712698671164404,0.8645784222756561,6.217623205697403,0.9355848994458196
-40.0,-3.0606774941933312,-1.5199291942586148,1.5407482999347795,2.2767503959338633,-2.3363414461476886,0.022559051327474045,-3.4040152637007077,1.1030202766033532,0.8865051071972608,6.235279904378805,2.754361591373077,0.25980432766203854
-39.0,1.964693462403756,2.0493143436727665,0.08462088126900913,-2.011691246831205,0.9882739562397047,1.0083717161034964,1.2062474125139448,2.001898308347976,6.273803116925571,8.492935859433443,2.837228153914933,-0.238749439114799
-38.0,0.6567643002535442,-2.63478564544746,-3.291549945701041,0.9872737038534434,1.948423822672356,-2.935532802871205,4.806545431539033,0.9333885446222072,0.5961196138728804,-2.9847680047728495,-3.3610698077881733,-0.9733024923286171
-37.0,0.08195731558684272,0.39888830137119524,0.31693098578429724,-0.24601891550542487,-0.14092905604869163,0.39066966064398523,1.4233768278522207,-0.8241186692397813,-1.889304259707299,-4.703651216672773,-3.7611356881488494,-0.9401199721300026
-36.0,-2.981824260776376,2.88761520175849,5.869439462534839,0.03166338699186144,-4.37223266273563,4.334283563678281,1.0094926870733871,-3.153126535574461,-1.9944862493057176,2.992678684404914,2.0061425707791822,-2.4362116298314973
-35.0,-1.092094999261346,-2.333378282574368,-1.2412832833129963,1.6838208599229463,0.0424991152853087,-1.7544920087508986,0.41325787141362474,0.397954464926924,1.0200040354446835,0.7306595196086579,1.7910613180551949,0.11796008217086262
-34.0,-1.2169981099480056,-1.5491428102085834,-0.332144700260543,1.4189449991303096,-0.4852788956676092,-0.9907036699693212,-3.3544578891518926,-2.203673717102377,-3.37580186010272,-2.2274717798617876,-2.4908729495412003,-0.8251803132281761
-33.0,5.403274660575133,2.233542414920002,-3.1697322456551484,-3.794136108501803,4.3098631090723885,-0.4443883474554081,-4.375382815459652,1.2160668251666507,-0.7052709097023144,-4.144012081398465,-1.870515300073878,2.6115514099837998
-32.0,-1.3309146849013405,-1.4502099335712744,-0.11929524867000507,1.4071439962378123,-0.5936963066051164,-0.7649857001236285,-0.3609526812306889,2.2585339036665966,1.8757626405686598,-0.8939595019182969,-2.8397414556772502,3.0293832941715007
-31.0,-6.343453965257137,-4.960161193041461,1.3832927722155928,5.664469114727948,-3.8582610858463946,-1.7700261250752396,2.934114892264642,0.8527207140627049,1.3270561829715857,1.173988442031628,0.9313961474736918,1.710783520085272
-30.0,3.347699488791139,2.7726247268244886,-0.5750747619666886,-3.127864404119056,1.9655768430451772,1.0404006181741536,0.46431484140032975,-1.90248794965763,-1.5429029905156362,3.4903696268308853,7.5255128026286915,-2.5166383505806964
-29.0,4.178782227423783,3.7185891643980877,-0.460193063025648,-3.938826963752327,2.328909539597893,1.6546329126953654,4.194539215365441,1.8998746352692488,4.448373401965613,6.265576648739167,1.3019457933679592,-3.2971879914610485
-28.0,0.5051130004259259,1.5360187955726172,1.0309057951468066,-1.0128405235679367,-0.24379703383257523,1.315899036183696,3.863106638364884,-1.6759176250040053,1.1354763370666319,-0.5887970544624803,-3.687422434677967,-7.518155070343226
-27.0,-2.717369611133152,-4.285721330946228,-1.5683517198129753,3.5058629603817923,-0.6229427988427618,-2.966199329139787,-2.37857422676651,0.46759529372995623,-5.247393740079505,-6.561969107586987,-1.2946532915502837,1.1441277447517515
-26.0,-1.204943844624284,1.186112038632262,2.3910558832565156,0.009773324016950635,-1.7580360925824583,1.8334898789047278,-6.530288314215753,1.125539962582315,-1.9261008304653036,-2.7666108369657025,-0.08094224446011977,5.156520235985429
-25.0,0.18336304433431705,5.382847729436902,5.19948468510241,-2.7858435874501057,-2.5410369217616724,5.259245176344524,-3.465014546458098,0.27347135206100687,4.694829189768685,5.020707743404601,-0.01552021247063573,6.8771245660217275
-24.0,2.935636394598234,2.115171944493234,-0.8204644501052348,-2.5287935257248653,1.8463354842924276,0.6133886704457918,0.6779493551645048,-1.4798136303126612,-0.7979227646680573,1.5675234916183425,1.032157899915457,2.5086186655767793
-23.0,-0.49165121348234153,-4.054942887770486,-3.563291674288244,2.2728902905557167,1.5805426392266497,-3.769633365307743,1.847801202260198,-1.9094449298759777,-2.1389901966503353,-3.6803797091504853,0.11922483188931088,1.427487990573089
-22.0,-5.517189839389397,-5.99297160051004,-0.4757817611205293,5.7616300088982015,-2.558461631482226,-3.280409907600215,3.1142439394486674,-3.489951221139584,1.0670946849766016,-1.5849426825127837,-1.9380524158685386,-5.150634519025659
-21.0,2.717207912325382,0.6250760237403665,-2.092131888584779,-1.654404332234079,2.442919276523914,-0.7068591557944515,1.3735102213930221,1.327478964450075,-1.3161806813094312,1.875796558014406,-3.9232337021755757,-9.69217633884869
-20.0,3.6991280319157216,-1.120803130594784,-4.819931162510314,-1.260695659080984,4.297709688167915,-2.9473623464667185,2.285193762868264,6.98748990607916,1.3355398962113205,0.029048456440024406,3.6950930971267475,-0.1786925349388646
-19.0,1.2557962411264774,-1.867411975697577,-3.1232082168240276,0.26668787066528443,2.1519140512400226,-2.4731614596713487,-1.3863081353393059,2.4190349592573535,0.4848434988873339,-2.4925633270647447,0.47761369034029144,1.775844617390132
-18.0,-5.8768563410019174,1.2167374893763112,7.093593830378089,2.2997845807993524,-6.51772811108347,4.178324455528948,-2.335810522318097,-0.5164463776670982,-0.4679575678665351,2.212921889250989,0.7201688365705758,3.8931253322763872
-17.0,4.323526105690572,9.788613200548957,5.465087094858154,-7.080594681740001,-0.5191518321091895,7.572438588460615,-1.4507371533855529,-6.515820908218717,-1.3842486727338894,2.635700078130499,1.6536642420722056,7.785571987969774
-16.0,-4.406872543977612,-8.895702523807788,-4.48882997983032,6.708459319502437,0.017539144418985853,-6.746733379151998,-1.080653833879331,-1.6018270681814983,1.6389802823077253,-2.810163079922336,2.299356064609752,-3.992953582155878
-15.0,-3.6448064356121175,4.91495277840553,8.559759214017646,-0.6556329241910965,-6.125296664304813,6.760098865512267,-0.23674072201562957,-1.0577928082718437,-0.6180280858873262,4.252082773564522,-0.07897899202331102,-10.281621082135034
-14.0,2.9187402042852737,9.226752676351628,6.308012472066489,-6.014731173013599,-1.6423830642542299,7.78815129273563,3.693876985189625,3.8415602278475722,2.8944200599231724,0.9462368784703237,-2.3919040120465485,5.150894745442273
-13.0,5.642016328391485,-1.9112840392496837,-7.553300367640997,-1.8873352087772282,6.564249365781333,-4.71220693143059,0.7523420913126841,1.2173754755180721,0.38997318968920197,-2.5378422394084317,-0.0562004016496207,5.5467662606426416
-12.0,-0.16840105828251373,-14.365696587344324,-14.197295529061712,7.2423952012565,6.972245981239442,-14.259354145250777,-1.06138530407266,1.1990514429905286,-2.493563020463153,-4.655376802394961,-5.523078357072901,2.4405885712363746
-11.0,2.7083947056050803,-2.9186430909035295,-5.627037796508605,0.07591098453615475,4.195805419473931,-4.3241944481009895,-2.566173859715825,-1.9198622446528584,-0.36468568561123593,-0.36432348874591725,-2.3282558326215326,-6.024212994249049
-10.0,-0.8526891587164256,5.764547234565666,6.6172363932820195,-2.412771076770169,-3.7128283060259086,6.226011898148892,1.1107930116471767,3.563502552490803,-0.5594234362093718,3.5444373063043555,2.7537490955014063,-3.168828473044691
-9.0,-3.4924557414539836,6.69098731788468,10.18344305933855,-1.6423324557803245,-6.817902348466992,8.402145200405354,0.404040719727222,-4.361855965191926,-1.9668581300006982,1.6914361148235555,7.756499883325641,4.619202033468096
-8.0,-7.137347425527344,-6.626062194711507,0.5112852308157363,6.90998866513195,-3.802385574726706,-3.00631444489907,3.3128781500052185,-1.168047636210946,1.3431202376867124,-1.7607552192313296,2.092765395979633,-0.6635612686063284
-7.0,0.44273592358212754,-2.4297722082972286,-2.8725081318794308,1.0156545055667692,1.6056362074822146,-2.6743377986241916,-0.7903219951368079,-0.6132203120868912,-2.3245660509657906,-5.336540936625223,-8.098005645690062,-3.851461266755189
-6.0,4.524867457291998,1.1091895750843417,-3.415677882207695,-2.798976958539579,3.9245278653573954,-1.1758133344194759,-3.796881463043643,1.8234761304652083,4.2030485105928035,2.3877648496574206,-3.50719114963539,0.7058960467249518
-5.0,3.1499811095607604,4.787636788719071,1.6376556791583878,-4.031177145710139,0.7954072845495519,3.187074267546069,-1.3640657037981323,3.2460674826752856,2.5784871299544614,6.588782348280646,2.79542134200301,2.3277604337610565
-4.0,0.00413078629804442,5.856181042315109,5.852050256017231,-2.912958261974269,-2.879426583179522,5.90195686169014,-0.3434738115496705,-0.40363734910353877,1.6952014779638052,0.4282565054168659,8.364860521715613,3.239634625143645
-3.0,-1.726728253384613,-1.9616789633762934,-0.23495070999152617,1.8647186088851093,-0.7762862799332507,-1.135046935181651,1.446736338255398,-1.3153055781084624,-4.21318458571341,-2.2277219117058444,1.4260088889649314,0.26842722457475343
-2.0,-2.113258475648437,-3.3571309644477103,-1.2438724887992527,2.6827877805704228,-0.46297791063238125,-2.2631663231422774,2.800943420056002,-5.5178234797183885,-5.434738508108558,-4.094518702800934,-7.8235301092748575,0.4508200947430685
-1.0,1.512125302323522,0.8594504243971883,-0.6526748779263842,-1.1512907295139554,1.1332317512905004,0.1379542779724261,3.0885054573408275,-0.4842898480229889,1.0797931732374377,0.03569469448365847,0.3730739394803688,-3.3198671473441426
0.0,9.286155787284752,4.1884116535323255,-5.097744133752537,-6.692967744308859,7.162793691722578,-0.4999519810324595,-2.2324652380482033,7.300230596949616,4.027840611637952,1.334217680737917,0.24752513158339506,-1.685869203218615
1.0,-2.456206287804912,2.9661716317986717,5.422377919603512,-0.27920735848774125,-3.970999798187601,4.227435132266919,-2.5537770912659132,0.2716841594509942,3.0953288455856467,2.1904211529612785,1.2760904213809339,2.0103688845046337
2.0,-11.064687081650352,-13.824652088023685,-2.759965006373395,12.429353427367836,-4.1088240815341335,-8.338154468915203,-1.6619408948913104,0.11950068206830744,-0.20540763969258258,-0.6198499159469129,-2.53200357732319,-8.918223726073675
3.0,-2.221407880682545,-12.943829087337743,-10.722421206655213,7.573292775932838,4.28992223498329,-11.879182243559548,0.29994959916554764,-1.50466531496959,-5.3688281092080095,-0.6491200545486342,-9.785169072618572,-11.770963509692677
4.0,-1.7053951626134427,-1.8857520365374478,-0.18035687392396832,1.7882921140194687,-0.806275537188127,-0.9996841858246055,0.7571897793225592,-2.105262569568615,-2.7815146806340456,-2.4035069445779444,-0.49952889458021255,4.027568350195723
5.0,7.185913934973627,14.88661907493688,7.700705139963333,-11.045641637147732,-0.3054508850296631,11.32974348589337,4.362495610228114,-0.6508180787508469,4.268934163861814,1.971647260867911,11.075312488306437,24.788126544904674
6.0,7.970993109410925,12.04543527090245,4.074442161491597,-9.944526648480007,1.9754489437727596,8.10136649371135,0.06380257700590808,2.0893853787877954,4.6630543397175455,2.132345374004195,15.325851815788157,26.180203273498826
7.0,1.63885783464392,-0.14288218523171814,-1.7817400198756577,-0.7713338896998128,1.7355184748622947,-0.992149972842161,-0.6802092032466199,3.4993848479980088,0.9012864102369065,-1.9666914739918164,0.35332634740353175,-1.7606325774253557
8.0,-4.320261956938471,-4.8762922164140665,-0.5560302594756795,4.565274307074651,-1.8566814162229397,-2.7378550371196417,-2.352581777971722,-3.4777824818293803,-3.1198102707441944,0.551239116519439,-12.104166178873896,-26.030247337745077
9.0,-9.107296866575973,0.47166593320829975,9.578962799784213,4.353896017301416,-9.393958164819432,5.010662167968793,-1.1521299088689418,-1.1496645599681292,-5.17118384771649,-1.9055681645942961,-5.275742401189442,-24.078248236547047
10.0,-0.8708539215505642,8.192687583185943,9.063541504736552,-3.7118218926129183,-4.9349776743795895,8.618103954924027,-2.4144356573010763,-2.8242073963757353,-2.109268063387976,1.6469684296431377,-2.5535137457847865,-12.840512843507518
11.0,1.305742850967301,-2.357820679814854,-3.663563530782012,0.5483946212390083,2.4433825484538927,-3.018919714754306,0.9120195422344941,0.828216661989929,5.6915620382761745,3.4943336823153643,3.0251337450837203,2.969277077707014
12.0,4.87149742684884,-8.292920750654492,-13.164418177503165,1.731143474790097,9.060675665095937,-10.658976383066436,-1.0524328061601222,0.9849922204829739,-1.8544416638324779,-3.2684386938838643,-3.9844177663645537,17.444767249562958
13.0,4.5268296833153565,-5.348685668442641,-9.87551535175794,0.43294857041842083,7.169459915848867,-7.624028490153154,-0.4307411186190113,0.06638476089322753,0.7746875056788758,-6.507324352612406,-1.4052101088284354,22.530747401906822
14.0,4.577404798706528,1.5586420465052582,-3.018762752201356,-3.1207132349250872,3.8478766957654464,-0.7462632055158989,3.2185242850454747,0.9648765996836192,-1.8112620853274397,-0.7949723458353919,0.42921628499011444,0.037140761472915784
15.0,-2.058053727507593,-5.202751265260457,-3.144697537753033,3.661124555460607,0.5153350280499999,-4.194868725931252,4.854949529384848,4.528846972357956,5.904873798868254,8.541705619231076,8.773101020392907,-4.846160018846847
16.0,-7.005050863292475,-6.55909467378199,0.4459561895103601,6.816055386513589,-3.7539548700473087,-3.0823331126639717,3.4542353747935417,2.5991579501488866,0.9868802506176549,4.206933267546854,5.851399624326869,-1.560318935342334
17.0,-11.084434179667959,5.608758623176433,16.693192802844262,2.6934279666929344,-13.918259744002231,11.200872726255025,0.046116594310282755,-1.09006536555055,0.6994419811686552,0.9941519462071391,0.9398555251620273,-1.2072080802397593
18.0,1.7739859484628022,13.82637836502991,12.052392416567056,-7.847503348613978,-5.090303309510883,12.910065594854196,-7.216350946914174,-6.906527081731392,-4.725402588047985,-6.1029272789206575,-2.3276287096920196,-0.8915912574105791
19.0,3.7644909451463135,8.136086592030551,4.371595646884262,-5.924046433030046,-0.2537162794707126,6.305936461683838,-7.265521393146837,-5.669920142729467,-5.701689847546497,-5.462793625504301,-7.693166522470889,-6.752159651788379
20.0,2.41296844713025,0.2560221910398077,-2.156946256090345,-1.3137186032723287,2.2582000433557234,-0.9716741285503057,0.4097081087311798,2.170471519132256,2.2056640234382403,3.054375278766999,-0.9641458919871662,-6.611115035952361
21.0,8.5349441082991,-10.536967304558722,-19.071911412857734,1.0182175395471025,13.779027924317148,-14.818553651815106,5.138443420852505,5.0255172406135875,5.19627255325331,2.9437438197933776,2.1603870786288937,-0.13284830229822076
22.0,9.683448436030853,-3.61604073323847,-13.299489169269256,-3.016692397639388,11.46818329199176,-8.464599616508028,4.437250852982247,6.578180675656071,3.8974872388213826,3.9999906594919814,-1.9912726607038937,3.533789167333902
23.0,-3.5289255078503214,-6.067680085151743,-2.5387545773014004,4.740041355821816,-0.44094335522694283,-4.30392819230914,2.020058503021547,-3.1232247598972442,-3.478064539453991,-6.326671690926297,-6.069257699736032,-4.835065449053753
24.0,-12.408880262883756,-0.6922860316253852,11.716594231258362,6.57735357532275,-12.091532688890611,5.515517467332048,-5.069417719876874,-3.145342346629412,-5.713516662022223,-3.441941510876915,-0.9714280472738246,-0.12689495492429081
25.0,-7.556096932304446,6.113568390729704,13.66966532303412,0.755495076602485,-10.648210712377317,9.896592922483698,-2.9132324486188503,-2.4820596450205477,-3.062826054711965,0.0800388755122925,0.702751970190798,9.161144502112256
26.0,-4.275833818540074,2.7810954862728314,7.056929304812893,0.7096684985435457,-5.63053564786348,4.923056855990767,-0.7968276568936149,-4.494723385251532,-0.4745956064335666,-1.4766733775873209,11.239794492034484,25.52865105435607
27.0,4.430043344407479,6.375630630070106,1.9455872856626022,-5.435822831663371,1.2711239915701826,4.1612331309778,0.34255464118445533,1.168572171292208,5.066920754127273,4.532926990640416,11.994943093168956,2.3295017379951295
28.0,9.850884594374302,3.3888063018012526,-6.462078292573072,-6.572195390202357,8.101780305961368,-1.5418359233500973,3.0421838158975114,4.523087899038372,5.974773733006506,5.334211666038282,1.5107937658474997,-14.548043440021594
29.0,5.788665043391993,-4.924098930581279,-10.712763973973278,-0.4642394101501517,8.272849620894354,-7.831732004573932,1.8225223151450094,5.287115484904308,1.4758932910775857,-0.14279295369541956,-9.536787456744097,-21.348718436580384
30.0,0.05458316534619989,-17.61668177479876,-17.671264940144944,8.824928870185737,8.88603242825376,-17.58861501344653,3.1030317970800283,4.898762019473864,0.401672662827225,-0.010945037712202677,-13.662012818953293,-16.450925877570835
31.0,-5.345327136777996,-5.246749863281058,0.09857727349698031,5.257141765989944,-2.6958340246651495,-2.6089367871974094,1.1366149538836818,-0.03158695777713416,-0.8505344155267305,3.2257308194370378,-3.894847290448606,5.508112765832491
32.0,-5.628749046518407,13.212204310652869,18.84095335717131,-3.7560889596853606,-12.283712896815842,15.980021086726026,-3.090053747870647,-10.073562754280136,-4.132704296621741,0.14697731348450804,0.011909511269418083,13.205090723898492
33.0,0.49418078573461877,11.544849002729658,11.050668216995048,-6.066281010031268,-5.323729986226452,11.319597842315314,-4.616999865307558,-5.956751773019095,-5.724610641766313,-7.177162020524972,8.816973969878717,14.881140586754302
34.0,2.6604951040729388,2.137417086993999,-0.523078017078948,-2.3695461400662086,1.6274068027651571,0.8217636181847103,-3.5915238329096355,0.021800100586563786,-3.17000118389811,-10.801088872619651,4.650988065015831,9.239055217443477
35.0,0.8687343740480568,-2.62281567441119,-3.49155004845928,0.9052613403473702,2.2170170511115197,-3.0454176988993362,-0.6028550907702801,-0.03096140872567702,2.0994350004181093,-2.1134583324694014,0.19630670599178845,-5.633524446015012
36.0,0.8121657759509004,-6.357454615775713,-7.169620391726662,2.7224609311651435,3.9492868120017386,-6.749874378397268,3.888346264159546,8.365644855242003,4.771147226644374,4.3790218069684785,2.640246713933624,-10.827299534455806
37.0,1.4627084550869724,-5.326489524197074,-6.789197979284095,1.962443718754988,4.162327609577638,-6.03840027335735,3.539530561292202,3.8535335202648984,5.3039420769733425,9.69700190919376,1.411600798625994,-10.242293674938143
38.0,-5.071490324566274,-0.9592353971098695,4.112254927456388,2.970931259945792,-4.557598819699907,1.525223559072955,4.025466580849446,0.04355936347640421,0.5329553095342101,8.317749993547256,-9.284332204582903,-8.168215816365585
39.0,1.1007588888988973,-1.1719131604198878,-2.2726720493187558,0.07554046371550038,1.6385902322582244,-1.765102928626485,-1.9911575775070656,-4.196883033506184,-2.1414916319703723,0.2683410784223099,-9.2866043386226,7.481484292524218
40.0,-0.9028420476520383,4.606889645048068,5.509731692700113,-1.8834615200064595,-3.2592397590560527,5.101807173481392,-3.699354946814521,-3.6044573384493677,-3.650053276138473,-2.632164358977483,7.704213609103487,20.974456013529117
41.0,-1.3321163703124137,6.830569172248399,8.1626855425608,-2.6935965672324187,-4.726346181271376,7.545975396799627,-3.4048626784587106,-0.11725993453516548,-1.1771814396231148,-7.412562111306814,7.598375977767437,10.232405817713708
42.0,3.1986939196649127,3.071165795069367,-0.1275281245955715,-3.1501603751900773,1.681418813589873,1.4462521503151926,3.119359587470378,2.2627629497223323,1.736480052646507,-4.13378307440771,0.5232875097301348,-5.983639025224942
43.0,3.2653650338075,-1.570795278820192,-4.836160312627687,-0.8568639187083305,4.07008609871341,-3.22718406020646,3.116884105888172,0.19677693243059768,1.4432582626088128,-1.6196377352017368,-0.3794347216693168,-14.17401656022178
44.0,-1.2575231062515775,-7.003170365854859,-5.7456472596032295,4.122522495120795,2.2688851418702374,-6.397837472921293,-0.3091547559349035,0.6255124214749919,-0.5524939693704237,0.890798167959612,-5.249885075277342,-18.85626149697681
45.0,-1.0537702492615135,-11.411435353915214,-10.35766510465365,6.22176780740419,4.607189425364939,-10.829798471559508,-1.830409999679167,1.395771046285742,-1.8215528746640972,2.1845796725152224,-0.4728611557391966,-6.681302670887195
46.0,0.02780495570368169,3.4412756612884703,3.413470705584812,-1.752838972156579,-1.648163446611353,3.4028702447780343,-1.8693556850681652,-0.06453374713717441,0.6746651018716123,4.061354237399646,3.5800950584742255,15.327652519129607
47.0,0.8558096008284424,8.97788046411123,8.122070863282744,-4.866862428812386,-3.657762888084021,8.525813721067113,0.513465184622289,-1.8361762727385873,-0.3065058596927827,3.689089517446757,-1.6608330544560572,14.846077914340945
48.0,-2.9783725299483366,5.2409806555725424,8.219353185520813,-1.1714082741296838,-5.61758835357432,6.786286996194024,-0.603252476067895,-2.998035252903927,0.506984378183311,-1.043999457142701,-3.681788489267566,7.152096610978644
49.0,-1.3974978406336909,5.493542448479257,6.891040289112928,-2.019382851191209,-4.1617041922560265,6.172127521959157,-2.3522862658527792,-0.8028968616455741,2.8997066085607255,0.26099887473030414,1.6779650102339527,1.9292574631627089
50.0,1.7255792659455493,-5.474212340405998,-7.199791606351507,1.8959833509669628,4.442359041065955,-6.354584942073625,2.0455029685261232,1.5430933135251392,-1.0716417902677196,-4.508234213070182,5.0035863517577255,-4.936927895022878
51.0,3.3864532940084997,-4.337293820638761,-7.723747114647178,0.41527641753883626,5.608012569193982,-6.046557537745173,4.535385510485139,4.390051658795153,-1.2620813620268296,-2.890369505980153,-0.989008639733461,-13.503102593302794
52.0,0.15965174866829535,-2.6407244985756995,-2.8003762472438787,1.2599608206075144,1.526685913486809,-2.6584748486840013,1.9600593521502807,2.2664505475911745,-2.198558557460591,-1.6831121341141093,0.40302601103316704,-4.271853259132751
53.0,-7.127069541345543,-12.719614242226235,-5.5925447008806035,9.94660386703163,-0.8048193028007466,-9.17637546347125,-0.6501356075845021,-0.23202848781952334,-0.5659501935432799,2.835279831481567,-4.173923856744001,-2.5033904302462755
54.0,1.3492782826773966,2.6984388324035598,1.3491605497261876,-1.9952141871552524,-0.04140632179192831,1.9967630143200665,-1.955832771730833,-3.650906992631943,0.8986844347034777,0.8792465832656513,-6.812986806232923,1.9281754900355332
55.0,2.9037697866091956,7.398468241658325,4.494698455049084,-5.196023228928566,-0.7602412738723294,5.910415244620323,-6.5124023133660565,-4.57528401475812,0.7553065814902619,3.5217564313553105,2.370387295683006,7.601424497701848
56.0,6.284435232925862,17.461270124085924,11.176834891160002,-11.914236712786902,-2.4899412710169573,14.351601860521246,-1.9404401971412177,0.8584386017359336,6.540687711801576,4.3364966728967556,10.24714567884126,10.539338770248873
57.0,-2.409071383614773,2.0492432098848417,4.458314593499565,0.21823798628570668,-3.3972388459014793,3.277162631875827,6.814781839725687,1.566402936204526,1.5581551414593324,0.36154234706525035,8.783280569699839,6.322899072737541
58.0,-4.923067273007289,-13.026290385722767,-8.103223112715494,9.011241889857192,1.6291777161272758,-10.548277439555664,2.987530930645758,2.658515681605356,-4.619659437680944,-7.307497538890242,-5.24865873806327,-15.1710695107875
59.0,-5.630432662110993,-13.474692397204358,-7.84425973509337,9.506298255644946,1.0703190957294355,-10.647042071721426,1.4162541281172834,2.670143457319801,-8.130850652315832,-6.427291923322537,-11.986362519273964,-10.599238091971836
60.0,2.508255067885839,2.6709364519943346,0.16268138410850952,-2.562765977304167,1.1386717110724587,1.349165192142812,-2.826564611624346,-3.997905886252977,-3.3085317322644086,-3.4351519970455375,-3.674816332994098,-0.9785131308705024
61.0,5.635313478952206,9.230793738525517,3.595480259573328,-7.412495344652197,1.0655516227684037,6.425172083581753,-4.972908536395782,0.2828300734274838,4.239808966899632,7.6948202608092835,2.7448317838356657,5.980903678287644
62.0,7.706584530889455,9.483735520620721,1.7771509897313038,-8.659061673380306,2.9305489706874965,5.645304219911274,-3.471739671302922,-3.8096173009649985,6.468357737045359,7.331506340303293,2.0136159298856096,8.645818026753922
63.0,-1.6166138423921574,-5.047905007514449,-3.431291165122224,3.343291337347485,0.9486633510568613,-4.220131604746975,1.5274919085929346,2.4143045498915114,4.507009912620603,4.818643375407656,3.6976025477231698,4.327061297364413
64.0,-7.472807896040383,-7.762510220631045,-0.289702324590587,7.627994106903117,-3.6341953325843837,-4.079033452361259,5.523120738751239,3.664204525423033,-0.923849909276464,-5.696539757587417,2.043606910233256,-3.586536394669626
65.0,-6.79294799415041,-2.1205797742756496,4.672368219874807,4.470176695883467,-5.703139201226392,1.309604365143643,5.653412058225604,1.3814302965679448,-3.20559192257715,-5.175657095255003,5.596554114842704,-5.716943543706414
66.0,0.02001642323430053,2.1264569099167527,2.1064404866824615,-1.0533292083485453,-1.0207532436812747,2.1589458379319493,-0.16792499066583888,-2.448064883145482,-2.281129835265917,-3.53386906714423,-2.3395977664535206,2.5010573900339725
67.0,6.406180529321496,-4.610515416330697,-11.016695945652222,-0.8694595676584269,8.648802004264768,-7.8412271714595825,-1.5352929481825295,0.45861206554738043,-2.8922102642024266,1.1546900854441269,-5.76916354429584,2.8274008750365462
68.0,0.5992153528197979,1.6308289968436123,1.0316136440237735,-1.1570171249448746,-0.20433345155631466,1.3108576253104465,-6.23399528527923,-4.354822713711073,-3.577726887870707,0.9802260749235254,-7.953899220397554,-9.331308925719252
69.0,-1.673734781329562,4.731555498950283,6.405290280279818,-1.5644020615504228,-4.028482096708506,5.5529776811389295,-4.735459966332843,-3.6132542730931565,3.346655384387757,6.6572028708870645,2.4106952369258883,-1.6655237975104202
70.0,8.296296924410482,12.398986465863107,4.102689541452607,-10.379275872628433,2.1112214229591264,8.237545286871413,1.2906458416154623,4.946682629944604,7.448161046256364,1.5963216943486076,6.12168864529191,4.894202051690117
71.0,0.9546854548024917,-4.0271235892586725,-4.981809044061174,1.5849917734601933,2.990134884036541,-4.439554881054065,4.50762498134185,5.2684020181649345,1.472134537056903,-5.254283725226102,-2.4469499569090214,0.8703643715329354
72.0,-8.1274978458409,-11.563353085696107,-3.4358552398551945,9.894807498918329,-2.3924047655612295,-7.516418934593766,2.369347118764911,0.2223150338389983,-4.2535312099813485,-6.225762308248786,-1.092972937364598,-0.8539150637192563
73.0,-5.346894777128953,-1.4887895086040173,3.8581052685249633,3.3890893906319244,-4.559436187433981,1.1626555010355766,6.128873927839403,-1.3497786564194791,-1.6751268842516216,3.933001929115321,6.61885455209369,6.201127222577604
74.0,2.0263707814106473,7.373123393250684,5.346752611840057,-4.72749400900452,-1.6869243532190068,6.409484549863993,-5.0698567904176866,-5.091396101908365,-6.716771635965472,-0.5235740401709821,1.1913622799478074,1.1693392467401396
75.0,0.4073908853132163,-0.1366247050777719,-0.5440155903909839,-0.08332063405142248,0.4537131775426099,-0.37826885672369204,-4.970220483114682,-1.1652455802303603,4.8349275418134,2.304153814687072,1.2857160002848147,-3.845202339309389
76.0,6.567157216810627,5.742791982207271,-0.824365234603373,-6.181237870170017,3.7516815497178575,2.4120427425870057,-3.0195578910218517,-0.3162039742988555,2.7914226307976766,2.957976951150664,-5.674909259303282,-1.9145580492324532
77.0,1.8896515950619457,-3.664056159879258,-5.553707754941213,0.8602028413739728,3.6923249895213184,-4.5852750098748025,-0.44591678619789654,1.5016674704893092,3.294641781215777,3.2876052237335434,-3.3464537423671565,-3.532598125695624
78.0,-1.6642174831652083,-3.568062363903554,-1.9038448807383421,2.587247395367851,0.0795135298521199,-2.717071683284275,1.2849205935073105,3.16849330247796,-1.3060476760597541,-3.1336799294481064,2.3352735826581887,3.422905899850091
79.0,-2.9367147471030663,-8.05512328142707,-5.118408534323979,5.543265689061184,1.1163248024324155,-6.567811585801366,7.389046400374626,3.187066872368456,-2.2494026643630862,-3.8641111908220975,1.3144152479922468,2.0060871468080723
80.0,-3.3004906186745875,-8.92542845995796,-5.6249378412833195,6.15791210698829,1.1756436584628218,-7.250920865266341,5.692758950163998,3.29850756524375,1.9712953751266027,2.1111612577148464,-3.355253170850184,1.2397987025152795
81.0,0.6391267645251055,3.2946270388476293,2.655500274322593,-2.002434915481505,-1.003219077552391,2.9302189751024112,1.287695023359424,-1.4856451710091345,-1.4926731196402727,-1.2265839116994353,-0.6317974984728436,-1.8197657072913607
82.0,-4.09909641130197,14.195338246528692,18.294434657830738,-5.084680437830716,-11.194922989032033,16.212071440581443,-8.01764622342146,-9.299259608866192,-5.713827011440096,-3.8228784164644205,-0.036827280063738144,-4.304628767055153
83.0,3.228554148633716,13.713066762531938,10.484512613898264,-8.429006598229641,-3.623545378956335,12.156719746030962,-8.101026121984209,-5.094644366531423,0.9211263578289441,-2.3508135056751374,1.765802670101009,-3.4409255015858817
84.0,3.969028813056093,7.449910377179819,3.4808815641237,-5.746380467991924,0.2559712394948861,5.454212385901965,-4.3423109040184045,-1.3749825562060223,1.8778313170173433,1.3320655155599928,1.9184906619674227,6.127597430086119
85.0,8.730381919898317,-5.120278214284048,-13.850660134182437,-1.7628686637159268,11.234379139982376,-9.491154738356903,3.1875377258094475,7.205070542188751,1.7741480448874796,5.404485664618629,5.596156130208857,3.762830474677053
86.0,-3.1498809340186447,-25.59587324757876,-22.44599231356019,14.336940299747628,9.682768722137551,-24.026152440530794,10.474349077422294,9.734883359676981,3.2102447897938857,4.47051562591372,-3.6034343548810095,-6.692775177938374
87.0,-7.1146774808935875,-13.35681295961647,-6.242135478722906,10.27951208757003,-0.4684803072376562,-9.809058097573834,4.766314749849701,2.7611672169789916,1.6084488775955024,2.109614859295826,-6.987086857158678,-1.1938827477276277
88.0,-5.47161436505718,3.7810877277205712,9.252702092777742,0.8116432983789208,-7.305402952042154,6.499386882513688,-1.1226361967297986,-6.166802856775442,-3.3064327902850468,-6.015172414275243,1.904367547919585,7.265349791255982
89.0,1.950778297132242,14.894123528571704,12.943345231439485,-8.454181509583293,-5.510674056417525,13.970504047372305,-6.193123033968241,-4.372582703740392,-0.8084846500209271,0.25466134767954385,3.731779835482952,9.997951837470612
90.0,6.418207272267596,15.655668487410246,9.23746121514271,-10.987450445649646,-1.419648576823512,12.41078114180354,-4.652350716545877,-2.5004621648919536,0.09570258533706966,-0.9954861522534326,1.8852620910015514,-0.10857283209622182
91.0,-1.990249939960286,1.1494123409437638,3.139662280904198,0.39399522612384885,-2.5739579897226257,2.181251056681046,-2.9867214569470466,-2.0367168790463013,-5.112496645256262,-6.935452429933747,2.5486672625636215,-13.210690450493798
92.0,-1.8412871954530154,-5.79061186363743,-3.949324668184265,3.870845483383035,1.043206878752432,-4.9145212746477345,4.627859010003421,1.134516091278217,1.7067055839039011,-1.0713273500129739,2.2319506643303377,-4.403440994731197
93.0,5.406787967994955,-3.3847038913836616,-8.791491859378484,-1.0336132707136438,7.084759625165021,-6.052322032350519,2.06553691744712,4.215540509343903,1.9515313931400569,6.580273030251183,-4.18229370620195,-5.052064617333533
94.0,-2.1146612710530692,-5.623611380244085,-3.5089501091909927,3.845544688613405,0.7574575962821304,-4.603994755061864,3.2536131401362343,2.6972389681252005,4.304276203214434,10.602083488719142,-11.030882479037441,-7.160246765529072
95.0,-2.751222959199215,-9.591792432769719,-6.84056947357057,6.144115972910625,2.0226860679094036,-8.16723099652882,3.1077816402667473,1.2424145472692814,-0.3920880377432985,0.6836325884324017,-4.59966628861482,11.908048255839152
96.0,-4.410699707604348,-1.6005654667946096,2.8101342408095737,3.0508465539108616,-3.635065943047162,0.5841565754444766,-1.01504508246967,-2.5978035209928425,-3.4146276807697635,-7.758682576796634,0.322137436170566,13.152499703525905
97.0,5.023886173168968,7.860021012067449,2.8361348388983076,-6.482674904456868,1.1459579258667654,5.336434655931683,-8.221659990067943,-3.702110450249961,-1.9202644743323,-11.068056996283206,7.0844422201040995,8.37911351667838
98.0,2.3570015373547593,4.205227557370223,1.848226020015335,-3.249588582019195,0.22576823495948628,3.0227080779990487,1.2416435162684913,1.7376114837092267,1.2655042984792362,-2.405638057951407,11.38406928712647,-3.4909428241786165
99.0,0.3677073119958838,9.093600658235658,8.725893346239785,-4.703420805238261,-4.210042331284386,8.911298232915334,0.6375583953646561,2.3008941203226247,5.105340807684328,10.45175345773047,5.008680666521546,-14.07953445446789
100.0,-1.5137790421336323,4.6747801497668995,6.188559191900636,-1.633271574699826,-3.8059791507392413,5.436509587937779,-0.978688465121769,-2.125153572130407,-1.4190284418158465,4.9508703685019775,-0.44461254488758417,-1.711142653616288
101.0,2.983952507391294,-8.174326546308993,-11.158279053700134,2.622870280916686,7.035452789187252,-9.66040647365582,1.5092358281692912,1.2700793149138359,-3.5204409225291178,0.7014434088437049,-7.294080369268256,0.6136486659324536
102.0,-5.400663373793872,-9.164673989859159,-3.7640106160650486,7.314131886889487,-0.8543426924660489,-6.459531764167929,2.5459189318832864,-0.9920508274785711,-3.433231497835958,-4.968171577106904,-8.535699287355438,-5.9373516837144
103.0,-2.407242587164413,-6.315765013837388,-3.908522426672711,4.318721453231858,0.795866282655743,-5.110555809039729,-1.484767643888429,-4.616688836370023,-0.289755066906636,-2.592666634681377,-4.239195089355575,-4.746798951101227
104.0,3.856765102841074,7.599278227067213,3.742513124226279,-5.766979533773505,0.10790593292963202,5.667094807108341,-2.7889348855344807,0.2515766460909923,4.105681889808759,1.7269959483469788,1.757745779323697,6.083995858714951
105.0,-1.294607282818666,0.31283784707472684,1.6074451298932755,0.5326803412036238,-1.4715278327648522,0.9488961254713735,0.5624956641020991,5.59535292692354,1.507492572973323,1.3431498540776892,4.133914718208057,8.017797568635508
106.0,-2.3628962074660977,2.677297178210751,5.040193385676595,-0.11598740742419555,-3.715030305440913,3.838412311157238,2.98971366357815,2.7284659207488087,2.3035959191311983,0.4697669442225403,9.365213165476787,11.745530804481271
107.0,5.442330185792593,6.02505981351262,0.5827296277197322,-5.774791656911345,2.42008534771999,3.3523167989722467,3.5143843660169023,2.0829388210487565,0.8295563888703628,0.561788697171838,1.3868689122130986,3.2187565458811145
108.0,4.966974728216755,3.406115155913045,-1.5608595723039262,-4.155363880751764,3.2525935243814654,0.8823113565396759,-0.6427294317412483,-3.7556373618195167,-0.6075016485451759,-0.5248234712654624,-11.247487804277362,-2.9365122171991955
109.0,-0.798778545723666,-8.895180919867162,-8.096402374143507,4.790764719301604,3.6298866431516377,-8.46646180824634,-1.8017756630566168,-4.941804692049471,-4.464349543704137,-1.951872744462583,1.6598435891841583,-6.960540275470864
110.0,-5.278989499434861,-4.87373236907626,0.4052571303587782,5.089652730275138,-2.794704099712898,-2.2124300302301085,-3.540372170398747,0.596621829002439,0.5160053434716141,3.8445375458485387,6.826066312396247,-8.766320693460639
111.0,-4.4213627014497945,0.3233172364084633,4.744679937858439,2.054741244131864,-4.62892093953409,2.4716144975222116,-3.6912810046976894,-0.4478462201426314,-2.7503631365790335,-0.7292079624685242,-2.975496779146901,-12.771027050561477
112.0,-0.32223692154657435,-1.8580530748168003,-1.5358161532700554,1.0923751954060703,0.6261953482661471,-1.6835743039722615,-0.27418172034490684,0.41742822690581405,-0.42424415502167745,-5.476467006026243,-5.904025010898978,-2.788731461326543
113.0,0.8589116071536556,2.8394305128545994,1.9805189057009986,-1.8445478817061662,-0.5507584997077919,2.422969994867748,3.865106931646968,2.5332911387666988,2.7193311165946583,-3.029284103133674,-3.4131630890699713,7.8486397626141855
114.0,1.0839871011716407,0.6196946448979026,-0.46429245627382243,-0.8384378986433108,0.7806901319929493,0.09289886993741403,4.673510186187467,0.6886551228879403,-1.6097191307809346,-0.523191448076251,-0.9065125148283071,7.445166320186173
115.0,3.158469658624566,-1.1067907666875598,-4.265260425312293,-0.9983341830654018,3.7209276204266493,-2.6665446699054836,1.2900937920370015,0.2860925123421101,3.0783052413066327,4.538418819203503,5.837401582233736,8.410086380803241
116.0,2.6638276100119094,9.458550656590862,6.794723046578802,-6.095386223635932,-2.049273001282254,8.072856327828175,-2.0010471252222324,0.9019981627103153,3.223692709976468,6.025597817599666,6.895524030102701,9.101099789088696
117.0,3.121621239145351,1.930735828002883,-1.1908854111425313,-2.543371054240176,2.1030535161240396,0.4005451656275827,-5.053431467980551,-3.7119187712610584,-1.239212928217661,3.143937899361812,2.113857703758845,-4.996140846559333
118.0,-4.319761667702294,-2.7437472889290304,1.57601437877325,3.5287593777288992,-2.9130725872997436,-0.627130813261159,2.2448706657838087,1.034685499995902,0.6310527518590319,1.9941006984400609,4.786563558468981,-4.918259844465481
119.0,-3.774049391723813,-0.78773407625425,2.986315315469652,2.2873551301021795,-3.416589929606317,1.1381467423350258,1.1739236085285552,2.1228329996063335,-2.0025830792969748,-2.956312510885999,-1.0084087485965316,-3.2110323107167105
120.0,-5.372012466964929,-8.306393049976874,-2.934380583011717,6.849481432679335,-1.2499781148183522,-5.580126858080563,-0.29476959840595995,-2.2750166993370566,-4.568447289246902,-9.28431003820423,-15.94280419322278,-5.792547902923124
121.0,0.15047608983014094,-2.6131421843390146,-2.763618274168982,1.2397692826474978,1.5079225025633693,-2.7276573261031545,-1.784281942557448,-0.07880116827319306,-0.9555931122354346,-5.912514635398201,-3.9600891429408733,2.7609924057666175
122.0,5.019070545689434,3.5009220309006364,-1.5181485147887375,-4.258429258919032,3.321422861414084,0.9492739389501594,1.4751463096174102,-0.8784429595655142,4.2720768792760175,2.4031613491572457,4.421902880986991,4.603758590274503
123.0,5.415254441052248,0.19430567380544428,-5.2209487672469415,-2.8140036846680343,5.2931248203379635,-2.480922299758025,1.1524109733101913,2.1761751191452285,1.3760783840202138,6.745729827713862,2.053703319216652,-2.121728664355106
124.0,7.708513503822546,3.681342346953725,-4.027171156869047,-5.71735663197996,5.842889500947014,-0.14505052697256282,-4.062786917740315,-0.7217631753622895,-0.20271621195224898,3.1619552120011436,-2.7051783553297697,-3.240961340697228
125.0,-6.4384393389085925,-5.0377330747269005,1.4007062641815122,5.78062361840561,-3.9453971263967187,-1.872976122153557,-0.01728590840663946,-1.7265551240331265,-2.6120851597643195,-0.9567710966141321,-0.1766204445112134,-8.249427225656298
126.0,-3.1431194983010378,2.3328544410603205,5.475973939361321,0.3565408217596966,-4.336745754993056,3.9270412868031475,2.034841373244401,3.0693905888409763,4.171484010943424,0.8140636368555922,6.732826560338511,0.6673690674031979
127.0,-5.476286816298427,5.032207982121413,10.50849479841998,0.24304232137146797,-7.9419953126826695,7.793491746724076,4.103269865238472,3.095382817979934,0.6182799758624853,-2.8445603045409436,11.11878181304483,13.31282753018994
128.0,-3.480448173955865,3.0094235897219894,6.489871763678078,0.2518633746786987,-4.935067264481235,4.774855121757386,-0.6253610135916439,-1.1387678386983173,-3.731149129024743,-0.8287633158134486,-1.059289172148571,4.325300993307906
129.0,-2.0516257981521955,-2.7796507598456865,-0.7280249616932974,2.4322774893288583,-0.6898092523048474,-1.8050706844863451,0.11890338585154564,-5.538464957149799,-3.786341590938089,-0.8376506596331824,-7.993511749109236,-2.8186996772812716
130.0,1.4966884954816024,-6.152466211353795,-7.6491547068353185,2.2704983567750694,4.546002450724766,-6.872205310006739,-2.696207842675089,-3.006415181799473,0.45016374539235926,1.9979175835763885,-7.1024392491082295,-2.4392712658392295
131.0,6.473576610578904,-3.8393612618767436,-10.31293787245563,-1.2878987265073598,8.367095089841872,-7.127382206882303,-1.4917292037734358,0.1603745445503204,4.123992805880678,0.5431470077962882,-2.48551180520404,-0.8969611998718161
132.0,12.341753279633208,6.461094262060287,-5.8806590175729445,-9.362998421884392,9.163635242725515,0.31448528513937735,-3.975735104268119,5.272826066050733,1.032631701915215,-2.9508777074164545,2.774034045107904,-3.1038682354309715
133.0,3.533550226803075,7.037679947880483,3.5041297210774225,-5.317142498145678,-0.012841543953729051,5.290789050750865,0.0783149834760728,3.77250830580431,-0.5804179253722632,-0.6730023127546794,1.493122672828892,2.2861852484886946
134.0,-5.900809925406813,-0.9508512691439761,4.949958656262803,3.4013272250566122,-5.455042013216641,2.015638179281572,5.02879843198695,2.1503106252867,1.91673510863673,3.5322266342233135,1.9700612824532078,1.2786624915359333
135.0,-11.959011771550728,-4.120718152565696,7.838293618984991,8.02002616373583,-9.852252244993082,1.794806850992921,5.297510100627269,-4.700287334911824,-0.5714671741386977,1.2191685988673804,0.8553660924308382,-2.707917006060472
136.0,-9.553953346152916,-12.835885026025764,-3.28193167987296,11.25635186106658,-3.0927512000877515,-8.041422530903418,0.9527609203352814,-2.226347401554457,-2.312796595869732,-0.6489564758516958,3.1295024173961976,0.27741809154901476
137.0,-1.0555571095989817,-0.741459083056021,0.31409802654286345,0.882282187828781,-0.7239417626774127,-0.18876154873336204,-2.110610674793996,-3.34835328958426,-1.0495180206566863,0.9945224385766119,1.5292832197546544,-1.1085327271994876
138.0,12.213057706198434,10.633639606636601,-1.5794180995618783,-11.439170901398889,6.853094597409164,4.563611178840064,-5.272461373376277,-0.02048346648785415,0.37836861639288677,0.716883884880984,-4.864395267244544,-1.1208475131817368
139.0,7.686908833769894,4.476359519470016,-3.2105493142997252,-6.09736094177163,5.480474626252598,0.6045084438458366,-3.166285166290453,4.498207368070456,0.23442542227888585,-4.087951305870127,-1.578146461228467,-1.4772127645689535
140.0,2.2160587182997338,1.59499330132138,-0.621065416978184,-1.8428869593999249,1.3690396331215746,0.4719392279368857,-2.3281160366456817,2.694415509494344,-1.1716191629143073,-4.582063405331865,-5.136037603569983,1.3593781853923819
141.0,-2.907211516148574,2.590084832844683,5.497296348993433,0.14092534903768805,-4.172827534830095,4.038733138031655,3.337750254690791,1.6682005209894344,1.7721762797139333,1.7493555847819833,4.204315425278516,7.633227132652584
142.0,-3.6296214872118293,-2.0345533789616663,1.5950681082501952,2.8109468154071022,-2.5792040230018882,-0.22000984774194882,4.846889206669779,-2.358650967441359,0.059651440574527426,3.6227769614408385,1.1134106484307846,3.142698445485701
143.0,-2.85865851306984,-7.2552670777882495,-4.396608564718513,5.029836599136108,0.8088816908764311,-5.827705720110937,3.9441365518804803,-3.483542857964141,0.2358115803757861,1.7964111042159177,4.541649750731819,-2.641725950409776
144.0,-7.095964355999218,-7.765917752184,-0.6699533961849464,7.474337772467485,-3.243867324726975,-4.226880383736981,1.5025392511921067,-2.4039885363192353,1.6747135453062028,0.7247345193497121,1.4139666934075847,-2.7436268638393373
145.0,1.5497590943670563,-0.806113782532182,-2.3558728768993764,-0.41655241213166416,1.9285963669579163,-1.522469300038264,-4.651990641446318,1.0355743016136216,-1.058581760235339,-1.9352650871079369,-3.112751229790225,-11.859503508666434
146.0,9.406707712161902,11.637937542832258,2.2312298306703786,-10.497170082488719,3.566656415699364,6.901186220494344,-6.054934223718268,1.3516422049852217,-0.6869226963771846,0.09677362059549144,-0.6592258828791724,1.1822646501560685
147.0,4.163349581908234,5.076434925401417,0.9130853434933364,-4.601399980056199,1.6028486074766841,2.948745393320663,-2.338332425317186,1.0165602942679604,-1.2579020130710816,0.04770577616668925,-2.619701205989927,5.9867288120737605
148.0,-8.128529189451267,-1.7655684487812957,6.362960740670155,4.96230445047293,-7.194046771978427,2.321634026045018,5.795779061637305,3.55586683040314,2.2320300417029157,1.9716631171751051,-0.9732048399949764,4.14180803163158
149.0,-2.3701009678419545,0.2858854765170839,2.655986444359228,0.9792153404479992,-2.54654120216719,1.488500905983812,1.761632814372515,-2.140792033452072,-1.0121648069807527,-1.3520054998745656,0.7302230746433043,1.4506923813430714
150.0,3.9689783844858884,-2.4018065216122193,-6.37078490609796,-0.763737681153775,5.209116917561564,-4.369228370993599,0.7306888409523888,-0.11317681277106273,-1.5158484948455697,-2.5068104927717205,-1.199935304043654,2.299769873201115
151.0,-0.0004092636223514412,-9.221770374085875,-9.22136111046347,4.637114727581153,4.6456230249057135,-9.201065992979059,-1.6480267003433473,-1.4799149107121732,0.344827322581547,-3.037834238616804,-1.7712796921692733,-1.0098618410074052
152.0,1.2913833533326193,-0.7871384998110136,-2.0785218531437772,-0.21945293060645032,1.63972137989904,-1.485807428338183,-3.164919749323824,-1.0644581975583112,-2.8980945679735766,-1.5378449347957843,3.998617738761805,-3.343058990178787
153.0,-2.8255439482296754,0.0971449830529959,2.9226889312823414,1.3234112084448924,-2.918800119618924,1.5402937555040501,2.716668088778242,-0.804625677989192,1.025300290662199,3.2220757908375455,5.8142745953075385,-1.4326690688526411
154.0,4.5514565161096225,7.010368275822939,2.458911759713012,-5.8191028822180675,1.0823905971105545,4.688161997513498,1.3376972224702621,3.6713524980177583,3.8618884946532077,4.087337598332947,3.7441477945208437,-4.37211344224635
155.0,2.9886802502271297,10.456515925490475,7.467835675263141,-6.682475495971119,-2.20059167074034,8.992743344562701,0.7949459544193752,0.543303554019736,8.135983877957829,8.868444082557456,-1.0945178729467955,-6.13146313516946
156.0,-5.445364009422664,-1.832714068465691,3.612649940957002,3.597752593296508,-4.565617080705484,0.9157384018432007,-1.4173503631601905,1.5143372198949687,-0.6615966624025584,2.4053388540646523,-7.6749399654147785,6.941589403921375
157.0,-8.676593225213997,-7.74250444315706,0.9340887820570827,8.24374728444266,-4.838841032520653,-3.4633629597869495,-0.8722648296670308,-3.5084995952674913,-7.268097179993196,-15.446906427278975,-5.611273576089493,12.259541598524002
158.0,0.5619328302931432,-2.9400310489555426,-3.5019638792484735,1.221118546246084,2.0801015517971093,-3.206563900526808,-2.2203100081837635,-2.9033054770990647,-9.093470417845763,-7.183558240872342,-3.6246057594496954,-0.9153752019815187
159.0,2.9833676593722234,-9.384837950825956,-12.368205610197997,3.154262268777685,7.647773158970286,-10.863916386344117,1.3162238444652863,-0.8138801261133888,-1.723271920826932,1.2797849495532079,-2.642430429343194,-11.490900534668473
160.0,1.574779849702518,5.9997614705689895,4.424981620866536,-3.7521688411257825,-1.3723140710574304,5.227911943858722,1.160555500160783,0.27050645273820967,5.945264460491776,7.247231603549588,9.443585894829019,-2.195749955110055
161.0,4.704800291843015,11.39593815955375,6.691137867710685,-8.089224525176343,-1.0179684220588776,9.066711284554186,-0.19609185060726475,4.590115515530786,4.569851412017142,5.55463841126897,12.81421570218176,5.954761570540878
162.0,2.241506902847511,-3.2615267285332763,-5.503033631380941,0.5553556898658507,3.8474028353907306,-4.427201865514829,2.257867372604735,2.1917734797277726,2.8106446731272516,-3.646318090978719,-0.342957487384707,2.066727379408529
163.0,5.985916331802144,2.775507779489759,-3.2104085523125017,-4.409578901558002,4.571884321205067,-0.17275468442660247,-0.6649530455168771,1.297918295425548,0.7873095277549633,1.6182554857297438,-4.51441503058986,4.347016466785338
164.0,-2.249346494642902,2.061483156781068,4.310829651423924,0.06726197573949189,-3.230180627540906,3.1601417252583213,-2.267021639838277,-2.5386845069087633,-0.7136804070502705,3.9810416194285785,-6.074643908222763,1.1753186876261308
165.0,-7.541596328015148,-4.14696509230016,3.3946312357150545,5.89525313283009,-5.5003830933008135,-0.3992471735860792,0.5188023931504844,-3.0084082133305072,-3.3046839677938156,-3.5747771783250846,-2.995095751336076,-8.381589004830547
166.0,-5.954064730272621,-10.079596962349294,-4.1255322320765435,7.984306774447129,-0.8719920403895323,-7.128619861477644,-2.7886551220421403,-2.580416413597913,-1.0372945921134593,-6.062025736616841,-1.760320283988619,-7.919052978751521
167.0,-3.2282657088272555,-4.0658519415228165,-0.8375862326954626,3.685241556052402,-1.1582911467228985,-2.407075845824213,0.14081866872761295,2.1057581960408633,-1.134682695613637,-1.3020810271706247,-2.4756821553371453,1.9039024518792123
168.0,2.1816521183161584,0.5243849448471916,-1.6572671734689912,-1.403931653778426,1.871247362209864,-0.5328524992848493,3.29597197221843,0.44004957181801485,-1.9394185552331609,0.7812640815498686,0.5547932994736494,4.54190998533516
169.0,0.5174799040329083,9.26622870233617,8.748748798303163,-4.87510855435619,-4.171336774717687,8.950878458293067,4.494931543786168,1.524508246166425,3.532437433999083,3.9649634310941324,9.311303572366219,1.3462979698754713
170.0,12.734471062442168,10.730538608185228,-2.0039324542570327,-11.725688901859453,7.38513197027881,4.376050161152339,1.6202830301902902,4.040103597721917,2.6918449064953016,4.372188460130264,10.98671551176758,4.508210432928628
171.0,1.4512366663957632,4.271980972465537,2.8207443060696837,-2.8616686906301876,-0.6732905934104645,3.553545293308115,-5.716826723304822,-1.9031602970899875,0.6429007683340546,5.1954428921678755,0.3114937127113402,4.570838488201332
172.0,-6.778584865170314,-9.885722971235271,-3.1071381060650243,8.329718367416561,-1.8236931161919863,-6.490219720023632,-4.387134152914092,-6.119355391050426,-4.461712122538884,-9.622693530419257,-13.485842593874617,-8.495752039398178
173.0,-7.3985569572843515,-7.698273992799971,-0.2997170355156302,7.548737930215548,-3.5304409671150436,-3.9895152303628363,-0.5560751818443621,-1.362946281869161,-5.122449633693932,-8.415501066136862,-6.651068093867167,2.8885973680097368
174.0,4.7035284881788595,0.983986312777815,-3.719542175400985,-2.8359101761413092,4.243304075154974,-1.3520701632075007,-2.3600397607847774,2.433244800177158,2.642521063652824,1.1277342485839927,1.2938873409309366,1.1635041603342848
175.0,2.668537691440649,-2.5055638140722145,-5.174101505512758,-0.06266775347829223,3.8904359173166827,-3.895435868681003,5.793960632180927,3.7143555909813224,3.093036727998668,4.651849462830648,-4.772655749491678,-7.187933837811177
176.0,-0.28023361211867914,4.299169661632418,4.579403273751205,-2.056965360787096,-2.445107441255447,4.469455894157754,2.541148159710675,-1.0666965452254349,5.362972883789429,5.243327507579897,0.8118009561138397,-5.303798084857745
177.0,-0.04942614340887419,4.979701207190182,5.029127350599131,-2.4221861247423826,-2.5433525544771207,4.9613564183660595,2.7667588864005777,1.9961289755489453,1.8246638455855348,5.504624108179474,12.488371786546642,8.769499617929569
178.0,-0.14254311511511852,-1.723501689614737,-1.5809585744995864,0.9062678797064452,0.7192054968251527,-1.6129663851589875,0.5143225099624621,1.9090324832635481,-1.747291808254974,2.5223272385220854,11.394027412307967,7.214340613877956
179.0,4.708184357262492,-0.3814938019594434,-5.08967815922194,-2.1849799905729435,4.8949656541985505,-2.694722450106705,-4.326719666866922,-2.4460109584601906,-5.178722581893432,-6.426260451784795,0.30747997544293604,-2.3306850390102563
180.0,-5.960278366546383,-13.93470613560233,-7.974427769055972,10.005364157179718,0.9921888697908618,-10.99267269421254,-2.214777729460819,0.10130684965215764,-1.9763767274448192,-7.805556057316581,-10.436034932792113,-6.377282717864292
181.0,-6.8910895658621225,-2.0986399807804976,4.792449585081574,4.4707680313491664,-5.79316985185055,1.3069783807686166,2.0069717395612194,-0.14996615203414443,-2.1185482026159512,-5.392953044255773,-14.792053493129993,-7.960216995266282
182.0,0.44796316513385737,11.169217996708168,10.721254831574255,-5.838788464379464,-5.18305861704519,10.980953661838003,-1.4257905953739145,-5.398669478279052,-2.5449012481748055,-3.1593264256342053,-5.549377125863976,3.538899203140335
183.0,6.013740215653059,16.560484141616083,10.546743925962991,-11.245944528790355,-2.248245328350092,13.585384408505515,-1.4519721395029384,-2.7154086618268316,6.90835712275277,10.49907986758745,7.5896477618036755,2.6284736397667374
184.0,4.201816523108583,6.689493337686581,2.487676814578008,-5.490091852093092,0.8656610998276008,4.537355822113207,-1.9735007993134017,2.7984131415916242,3.44241439572026,12.984393115627945,8.308572047953842,-2.237103112419091
185.0,0.3957425723486514,-9.346715068134085,-9.742457640482693,4.505109073580927,5.073234636282132,-9.521032596579602,1.4822335478490714,3.226790339383465,-1.0545641874306395,-4.808000546496306,5.4015768961939115,10.139166737129532
186.0,-4.764233296669756,-16.26632372322138,-11.502090426551593,10.543420050019522,3.373085213585639,-13.863713140142886,3.4673443074840593,0.15667672234031293,-3.6375968433632275,-11.459188262283005,0.1602172533598316,14.309091073627426
187.0,1.4566300071779166,-0.24869786142967598,-1.705327868607597,-0.6526734547881308,1.5877702039953037,-1.0367764112620463,2.7753207855843938,2.858745397260422,0.9856387887067772,-0.7534767383528811,4.900931375583479,0.7348094366626907
188.0,3.6561193160351513,-7.931576726863915,-11.587696042899074,2.172314542641938,7.631717287817958,-9.740047832276748,2.194408107568987,4.38777013506605,3.1807687161623717,6.970013196496913,-0.7105922905571386,-12.661527365291334
189.0,-6.1244109082981435,4.482455225320855,10.606866133619008,0.7825369439758578,-8.43285993362293,7.567204946278832,-1.5391117577913995,-0.41148941517660653,3.8675996520877387,6.361463070885822,-7.884891842125284,-18.564564987335423
190.0,1.3597585449717298,8.933778007070156,7.574019462098467,-5.101401239879355,-3.0956546557610825,8.281436576601633,-4.371188949172073,-6.361140480104909,-4.842832681007074,1.2456530342982186,-8.383220583721812,-11.403623810349117
191.0,-1.8254888331606272,2.0609644655146866,3.8864532986753844,-0.14854303830121163,-2.845497012355452,2.9285857642219844,-3.418687420124003,-6.672048118990524,-7.979939352464141,-7.4332380212192035,-4.185715375242167,8.294923143649694
192.0,1.6421397175069412,5.032372714066648,3.3902329965597815,-3.2905301417841932,-0.8639747749519686,4.250803554461228,-2.683377194354583,-0.14606870714094677,-0.8421417013787273,-7.976557348264712,3.632435227596358,16.09383190876748
193.0,2.678346432994256,3.847641656989302,1.1692952239950885,-3.3003681099714965,0.7661324570424705,2.4737104893909723,2.5288521557881003,3.52828995912193,1.8486261586142183,-4.388594260636905,1.737186111110291,7.830277374329357
194.0,-1.1755120825812833,-12.48049828910618,-11.304986206524887,6.78214546548068,5.08013092591798,-11.924914345004069,5.156504411919002,6.213897202239041,7.699188636835163,6.434106406635051,3.104260106216109,-6.17255704128493
195.0,-3.9241270862342867,-5.221775018011615,-1.2976479317773597,4.596521289073571,-1.2927857235782834,-3.212124048736385,3.521437169940564,2.7475447520615304,5.979265655605227,7.862522058239868,9.779396124955252,1.2106562400397674
196.0,1.8828658310490747,3.7972600865860135,1.9143942555368962,-2.823606051315466,-0.06959744429349546,2.825072525811195,-4.3264215487088045,-4.843275932163742,-5.256919846592101,0.2298691065780316,1.2962681815849795,0.011645369352515145
197.0,3.6570954193493717,0.7771410454023984,-2.8799543739470326,-2.2027701625226954,3.2954180359526353,-1.0024906900829922,-0.6414295468360651,-1.5425132432244528,-4.525158164351474,-1.1676059665287521,-4.192261167177786,-5.858825046062032
198.0,-4.367251338845926,1.820477569311472,6.187728908157354,1.2921886304160044,-5.330867632918581,3.9764224822441534,3.9020578086284416,-2.3058589752226117,-2.8847907892411224,1.05496502762586,-5.535587782685161,-1.0332946411735406
199.0,2.2827472282995647,3.898009989431005,1.6152627611314276,-3.1395725823930274,0.35444367582389913,2.7323485582333142,-0.8118089075189345,0.7493756708699142,2.795505594876209,-1.607210658630072,-2.214973890709767,5.712986197575999
