Time(ms),I,II,III,aVR,aVL,aVF,V1,V2,V3,V4,V5,V6
-200.0,4.7155596247121085,2.7876900044934723,-1.9278696202186234,-3.772187340897389,3.2697398511507774,0.46740186067664935,-2.55311233400535,-3.6721205945563917,0.5480027117066695,0.88589171699034,2.0372409989409537,2.505689581288866
-199.0,-4.923059589317996,-5.793087590329115,-0.8700280010111127,5.343760257774642,-1.9914756567713536,-3.3636518052182733,-1.8440990056869884,1.9427268164624927,-0.5555427596642808,3.5213350111023636,-0.4358388881732046,-2.320309302182797
-198.0,-2.8200142917714617,-6.815623839809132,-3.9956095480376748,4.806202359317172,0.5502641557157262,-5.3506322639015265,-0.07288818962778387,1.770620403178521,2.1064754551491105,-1.296700103302593,-3.4182574776287886,-0.00474690468020883
-197.0,2.9412268097280077,3.2864388919808323,0.3452120822528101,-3.0482408689668024,1.2638602050954537,1.7972858704760983,0.1835839272391978,-1.331693151241766,5.473494518713242,4.083562173571649,3.5940556244660677,3.1620093441299884
-196.0,-2.7090997650012976,7.281114713816761,9.990214478818041,-2.3046155633288823,-6.304019342173141,8.61740334934997,8.216998214673392,4.8605799114237,3.431932385306226,3.498606309022609,4.994295483847166,2.226227365319538
-195.0,-5.3087824433511335,-0.657641262893117,4.651141180457998,2.956447634022219,-4.934620624797145,1.973027960223635,1.143813594514858,0.10478169999282372,-1.3661500296084594,-1.3827320367262816,-1.73783362191892,-2.970036406375372
-194.0,1.6886980530961857,-5.231834021607933,-6.920532074704127,1.7357834039036322,4.270456298286836,-6.031665928355213,-8.575545544595087,-2.3690930702162962,-8.279190380360042,-6.756872659048379,-3.9699322715262415,-3.531652811716256
-193.0,1.090944370507083,3.2351480446853857,2.1442036741783075,-2.1278764457822783,-0.5617352230528785,2.6420448304722077,0.25750323024335,0.042294726721016085,-5.337542473751416,-3.6310048008084927,-1.5952601088631482,-3.2554232629629207
-192.0,4.264896907984112,0.24221918768722722,-4.022677720296867,-2.22320247746391,4.185868226594097,-1.8722487658198645,-1.7676148299343521,-3.4908398837081585,-0.2442692123087462,-0.3503230228822356,-0.8702419421795238,6.043296533625771
-191.0,3.734051630051961,3.8215795343853673,0.08752790433341273,-3.74842415765749,1.8623723962269079,1.9629482491032952,2.1918319741857726,0.7448345273986947,4.71334981234503,2.330726513560853,-1.8551577109060429,0.6474590994462202
-190.0,-2.8045633863330526,-0.8645309476616492,1.9400324386713905,1.7878573480074456,-2.4169467451361655,0.5426114837149902,4.7898537290918535,2.3244726468839167,9.776197849658448,9.798653987118163,9.203868645449914,1.6975389346564225
-189.0,-0.3256287146468084,-9.04292228820972,-8.717293573562934,4.64286530866252,4.144239277857694,-8.871767179895594,-0.508825600559528,-0.12103492342160649,1.459267495768386,0.9669292138516807,-1.503362902434978,-0.4558586832743806
-188.0,-3.142911885032338,-3.131869801938187,0.011042083094129573,3.1813117177783474,-1.5575252620429625,-1.5424514365743067,-3.0491874610623295,2.008493978405405,-2.923042410702734,-4.048385434760851,-1.3794107048229198,-1.1697054217788012
-187.0,-3.281482408465995,9.464180241502797,12.745662649968779,-3.119501428318058,-8.000559992378138,11.057451374647481,0.03218554927461881,0.044919593696135685,-4.735911271475532,-2.415057300117118,1.3554692121190672,0.9630648018499244
-186.0,0.14126108536982507,-0.4718708750788334,-0.613131960448662,0.2216950577144563,0.38712493989215746,-0.49750546148728336,4.06828280631453,1.1928484857215575,-3.143999087482515,-2.2380666766870676,-0.9590753172240926,-0.6236198197015372
-185.0,5.15425311195115,-2.2996806543195283,-7.453933766270681,-1.4454903616295636,6.3154539876018525,-4.8996541345848055,-3.9717922947644535,-3.177429620709269,-0.857551865365934,0.012547941943201302,-1.5753609384785392,-3.6453862961969707
-184.0,2.4441347724033653,-0.43398243552803295,-2.8781172079313744,-1.021210319783088,2.6780129296809765,-1.673041615223641,-2.557285630732311,-4.030267820390409,0.40629627199873786,-1.1587799229816598,-4.103044705427821,-3.200493354701907
-183.0,-2.8422716642938033,1.6539358798904875,4.496207544184333,0.5780448541751255,-3.644680108039984,3.058164181271292,-0.9267955009876657,0.19700796755928462,1.4859363664125547,1.6428445487033072,-0.5716232394072094,0.8076943871040958
-182.0,-3.7538600114633893,-2.671111284023212,1.0827487274402015,3.1948985202781803,-2.4653477418309286,-0.7371272175012347,4.185492071671096,4.3630687215430335,6.290407375850144,3.284377575510434,3.3207746391689064,11.135935722627451
-181.0,6.878052465138094,8.830103024411821,1.9520505592737198,-7.794902360577689,2.420388650886487,5.361864401123627,0.7306247769747567,1.5716706159229399,-2.756656351292537,-0.446898561816905,3.052197401670764,0.48338180192884384
-180.0,-0.7155970459584444,-1.7066820634481163,-0.9910850174897059,1.1899461718139035,0.174904384838397,-1.3856321820276682,0.12476216598092926,-1.9864739568001621,-0.09416530538037232,-0.9590051115147171,4.287836382703578,-5.104430811436583
-179.0,-9.276752540327735,-6.286415775443874,2.99033676488384,7.759540452969007,-6.176410698308128,-1.6111234547486897,-1.7583359806252452,-0.05403164297692575,-4.1768261526710475,-0.8468289167586276,-3.9605073727620277,-7.512401111709444
-178.0,0.9061345627387971,-0.30795635425853085,-1.214090916997319,-0.2427514359043017,1.094766245977109,-0.7252466395353205,-1.817312814460117,-2.4430280068218684,0.14890210817126004,0.7323474736434036,-2.8549101369031114,-1.8940651119822913
-177.0,3.7713092353425783,2.085515578646989,-1.6857936566955543,-2.951543667102109,2.7644583667197904,0.1597541029139924,2.3692373758230145,1.4635385453675407,2.244055619843285,-0.4607677771640938,-1.3091554154577403,5.970188792987436
-176.0,7.292249231041466,4.138549444050755,-3.153699786990675,-5.740568535481755,5.185226847570388,0.5365881342551094,1.67162616958219,1.4281701651397642,1.5547291614135565,-4.005953600097873,-2.70116896865304,6.357767922199902
-175.0,0.874065709444162,-1.0532192693094782,-1.9272849787536201,0.06042301490210367,1.4502117002559372,-1.518870452929465,0.7962610737412679,0.39204987348461484,0.18828636392821751,3.0141374822987848,2.685208959623096,1.118203860097612
-174.0,-2.0166433822637506,-3.6280746022823736,-1.6114312200186212,2.8660390633552955,-0.22193287672736384,-2.6441495590655277,-0.386088200139861,5.71872493219272,1.6721810423731123,5.1815344050198915,6.263455202225159,0.6962563093491951
-173.0,-1.286478040609205,-2.0810428445780818,-0.7945648039688809,1.7202584371203604,-0.25702629717971437,-1.461121912369085,-3.271371150140086,-3.7581903850802902,-2.3640699304899475,-0.9529867381243318,0.30050896166873686,-5.6553160215388445
-172.0,-6.835378940807857,1.2774026998963786,8.112781640704249,2.7294306876274197,-7.481234162384812,4.748221819534687,-1.4393406939313855,-5.2843058855394585,-1.3758134238317783,-2.1115853887039777,-1.7758738785865753,-5.415962985129605
-171.0,-5.35588169652771,-3.150509361087849,2.205372335439882,4.276406366689682,-3.7895621886958284,-0.5031242339517532,0.8273276843032011,-2.76886928902264,-1.4078928052268656,-0.6544602009557918,-3.5968441220294185,-0.12485184735681987
-170.0,-5.3041990190942565,-4.358457804432005,0.9457412146622626,4.772724105601242,-3.140819587798293,-1.6645170451284519,2.0899067914381635,-0.7611352935837057,-0.6440895347233078,-4.412598031618638,-3.5690367076375775,-0.6357625874224233
-169.0,6.729228529510589,4.305987000725896,-2.423241528784699,-5.496176806372622,4.550619305722664,0.8978373074661458,-1.971285693446598,2.8562035476567855,-1.8841884032782268,-1.4450665809360068,-0.5094818695282366,-0.007327039220623943
-168.0,17.382561992162472,11.061831737581043,-6.320730254581451,-14.194391795206771,11.895242863604619,2.3996144708296234,2.782877132102411,5.33396247052403,5.9488997248888165,5.282402619276917,3.161452747104937,8.625061126031813
-167.0,3.000462442390873,4.359701619124512,1.359239176733614,-3.6413469911389535,0.8575314706645294,2.8831782044494876,-0.4172078912654238,3.4265368713646187,3.9225103174859424,3.0165641781307535,4.628303212185333,4.592247071249194
-166.0,-4.012323368124418,-1.2646397262164073,2.747683641907991,2.611921781139594,-3.345689109290899,0.6820056162115604,-0.6952767238753769,-2.6163658174691595,-3.5650723057790996,-0.45312578279185445,0.28071865456020495,-2.2651552636434986
-165.0,-5.371311355537934,-6.931561749582864,-1.5602503940449315,6.137727289012247,-1.9488873599635912,-4.230114672811514,2.521007763724061,-0.03341491762459059,0.853584954765255,4.62549512048561,5.878320113460157,-1.0946667986008594
-164.0,-8.260081783136249,-3.8734732165068158,4.386608566629448,6.062015775765875,-6.363251179013799,0.27037117647984044,-0.6136644720756292,-0.8826363651871525,-2.3093318607718083,-5.217164575213617,-7.112979290373084,-5.607468454090776
-163.0,-2.165964771126336,-2.853213178634254,-0.6872484075078855,2.507464662446032,-0.7746611990962577,-1.7562780277500418,-3.213409267831855,-6.259818834498684,-5.337303207470567,-6.2035964096450895,-2.802836956593883,-3.241456186917481
-162.0,6.783393603033547,-0.2872582111907971,-7.070651814224297,-3.254631194536338,6.975739636337066,-3.740765071571576,-5.243847582326514,-5.0717105772398625,-0.02447102917254096,-2.9576781279985083,-7.013350641891339,-1.763337760675548
-161.0,-1.6083854163290843,-1.8213150967574727,-0.21292968042832872,1.6978346102071353,-0.7216975886012813,-0.9940358136246469,5.216406799450912,5.331837463714465,4.183429748759396,3.7815551843169333,-0.6012306061520465,0.9663656949946505
-160.0,-5.725859506566989,-1.6124153176745755,4.113444188892473,3.7169151205651088,-4.857979159315359,1.2824140570276397,3.568476130235938,7.857979887009002,5.135167913016541,4.590636486007992,6.550598076000967,7.839418820022536
-159.0,-1.0785960766668155,3.2319887862269274,4.310584862893787,-1.1219671242840805,-2.7047147547796007,3.813097905376716,0.9145301700767083,2.2109508120991808,-0.9466976335928892,1.9610116787207428,6.626436641401025,-0.917510065018472
-158.0,10.639761151534818,9.821638204392254,-0.8181229471425664,-10.20897071194361,5.724065404035306,4.47338806598375,-0.7073063179369359,-3.235323558748045,-2.02548248559237,0.6942989784739195,1.187284307468948,-1.049985662576844
-157.0,7.203160906422844,3.3037786103032913,-3.899382296119587,-5.239110106360737,5.5476795433278765,-0.32147535659368787,-3.5687031448539663,-3.5416284546942354,-2.819154402420015,-1.7495909909864695,-2.422065100330993,-0.33588247930827175
-156.0,3.3595023319611133,4.4876759177701855,1.1281735858090065,-3.9118545867308754,1.1076223719584743,2.7835256812037583,0.1570312638835749,-0.8688852258228574,0.474907351480343,0.7319379671261315,0.9406397308449967,1.8712083239111832
-155.0,-7.949952415557592,-5.7136362351734675,2.236316180384032,6.844645330729506,-5.111668638525135,-1.7689922943388536,2.0106909589809057,2.1077066049861832,2.2890874752721753,-1.2195050524148763,-3.5623313093785574,2.9158393941243745
-154.0,-6.739647630593165,-12.795609932112043,-6.055962301518971,9.704813889282997,-0.3752597382428289,-9.386529440922313,-4.920085255648507,-4.5025099427511055,-4.735482630937672,-7.8590996223216125,-9.591827106561356,-7.253732329357515
-153.0,-6.064100914434102,-5.881535554684231,0.18256535974980048,5.992090169858115,-3.093935093091531,-2.81966985019896,2.485917861209853,0.2931076834392887,1.8777195574386603,2.1869123321006745,3.570506430369073,-0.5417301436678095
-152.0,-2.618831706076685,-0.7960742883029548,1.8227574177737014,1.729338446429173,-2.2043630882141123,0.5361966339627378,0.7713295008347615,2.5993260215154232,2.871422767365202,3.388735389947543,6.609581148189542,4.403360717113646
-151.0,2.9538630715128957,9.34336223378503,6.3894991622721315,-6.203585477024811,-1.7080287129274612,7.807716333368124,3.6050439146942996,3.744788737805812,1.445662308218921,5.266275269072172,4.656843432707051,0.39943506169433274
-150.0,13.103977147015758,15.119640517005658,2.0156633699898983,-14.086135413327243,5.555197955714353,8.589230425090824,-0.4966200753432928,2.0584361644500513,-1.0399216024388822,-0.6566191968877293,-2.676984653479831,-4.475286487768275
-149.0,4.432303706017589,-4.283195876732398,-8.715499582750038,-0.04610208567254048,6.593427760173732,-6.472871991095864,-2.674332218190548,-5.1274421455789465,-2.7042784810744536,-5.027912275924381,-6.412543432234666,-3.0106160715060817
-148.0,-1.1365262581368483,-8.322527475258282,-7.1860012171214995,4.762085709254761,2.978699854705005,-7.800004090856899,-3.0018434542475614,-1.1294977956981782,0.7744313358872768,-0.857093198754709,0.43821037986632794,3.9122025004923993
-147.0,-10.991657813285826,-7.857492103777091,3.134165709508676,9.383569217831553,-7.094543682875447,-2.3222977310185597,1.357485355096708,-2.290463613993726,-3.1845336733423713,-2.103644671125644,-2.4938205604436225,-3.422914594951685
-146.0,-1.5062546222687674,8.19548240421775,9.70173702648648,-3.380118977070101,-5.544635112538004,8.91400979003867,1.6771475279309362,3.668044897424786,2.2457865002411945,2.3017843572324117,5.864747778453451,6.324434266791458
-145.0,2.4458654303585297,7.919164433174363,5.473299002815837,-5.1342790549784,-1.5254980561238547,6.664161451228847,1.9252266864321976,2.087796841592234,1.7012723862645833,4.0263780997473315,5.156496801824569,8.013462442535406
-144.0,-2.826079389507054,-4.007085195981666,-1.1810058064745803,3.390045594171468,-0.8324541229550984,-2.5471210481453515,1.769530266353181,3.06451878770264,4.002219636306767,6.700555581585721,0.40009916199211837,-0.5727433669121984
-143.0,-2.9067782125152384,-12.431712441422285,-9.524934228907005,7.64558931590501,3.295655030563678,-10.933123214251355,-0.8503448057981742,-6.229442041733359,-0.3389626309799125,-1.533739285721743,-2.14286773215723,-9.242925052466816
-142.0,5.231671908344486,-1.996197882187885,-7.227869790532334,-1.5606978144945467,6.209130693756736,-4.648924669449035,-5.070919202268818,-1.9525232704379512,-4.851990245046532,-10.021242262617266,-7.531613622892187,-3.4455017339739467
-141.0,10.172613910002969,12.521656839446198,2.349042929443253,-11.367728095126093,3.961365384276556,7.393818298001193,-1.513555413971042,1.314600122362366,-2.112871849739178,-2.3807058316364924,-2.5148930924291677,-1.3205136091687728
-140.0,-0.2247613203524974,1.635023074543028,1.8597843948955037,-0.7255966011584656,-1.0789323569691531,1.77911904758973,0.49206307230115587,-0.7855579440921129,1.2213035914251076,0.31176170725676355,1.6916777851862626,0.45258178832016527
-139.0,-8.882395123923276,-1.0328402508836412,7.849554873039626,5.0146103428519755,-8.328781123945413,3.434428989650211,2.3070776902930366,1.307792948938914,-0.30645176009371244,-0.9925136643564918,0.6455292376475619,3.442813533901797
-138.0,-1.14637838648357,3.580265473072492,4.726643859556079,-1.2418369906842086,-2.9012685682541144,4.095987824481708,4.537801316436564,1.822936868392624,-0.4898108614727861,3.541020337218971,1.7989546107244683,1.2818885795379256
-137.0,3.1688121814179655,-1.2979519668663106,-4.466764148284233,-0.9653206734552859,3.7745793040455076,-2.86394394676924,-1.8834847397058883,2.877727673537148,1.6941403321098225,3.328251183132759,6.121637407655419,2.5732154349371443
-136.0,-0.08145315766351743,-3.757050412549474,-3.675597254885878,1.8832058009487542,1.7552905335552182,-3.698057630980606,1.274360616738703,-0.027253938082582585,0.664123418817222,3.303411324728324,4.293886435566101,2.0345782879763736
-135.0,-5.876222451978148,-7.658659490841228,-1.782437038863018,6.80419829660696,-2.008178976674377,-4.699516111477148,-2.00714067352624,-0.614093931479185,4.438411841726149,3.9314838212313123,-3.320468291994801,-1.6378276379920718
-134.0,-2.874474400250697,-2.3778322944015833,0.4966421058491446,2.658714431824226,-1.7236109979660756,-0.9932511363219487,-0.49376000128954756,-3.5907695027490565,-0.03948162876809591,-1.5722174154279882,-6.551056842525926,-5.451392562237545
-133.0,8.509953638232435,6.960609324763204,-1.5493443134692462,-7.704099444593297,5.073116566975947,2.7377281389243286,-4.930052111835143,-2.63190108500979,-1.9367427929419707,-9.067617266080285,-7.277633377824019,-6.168340991744584
-132.0,4.2692493995058385,6.096231704844708,1.8269823053388132,-5.228654107353524,1.1900814348914175,3.9989109479606326,-1.0996817809197081,-2.0594199818791235,-4.973788087361714,-5.5758484358964555,4.814258472921046,8.222481000370596
-131.0,-9.663711878557852,-3.3963427019204047,6.267369176637369,6.488268883511897,-7.911932575241677,1.3969360447179482,5.2117639598256735,1.3690167147206669,-2.3946911316445045,2.2572285872737012,1.8585139978211518,3.3622196095845647
-130.0,9.898515371451474,1.6896595160275125,-8.208855855424027,-5.75134201778096,9.035573543748017,-3.2983940619716505,3.6829455124964463,5.389479399594966,1.5291935406900536,4.113607133234211,2.7774975790649052,0.08843004511161978
-129.0,2.306405007444157,-1.1389847036399083,-3.4453897110840677,-0.613334842386332,2.8646949733515035,-2.2550873822772566,-1.4383154031559549,2.2058089453756864,2.8139751275932525,4.021735519679476,4.984827146035787,-0.8087680484409164
-128.0,-6.694793285797334,2.9558761101107986,9.650669395908205,1.9246069373354664,-8.178597334319715,6.257707634516375,-0.8117389096319078,-1.00104607328119,2.0810578067960304,1.9495228405551979,-0.6762774303290824,-0.49444615567148054
-127.0,-7.16732089456831,-4.794988147492819,2.372332747075588,5.962180570502043,-4.773014194387699,-1.1810512618288933,1.1794920334594676,-0.6615599867588884,2.421630668814126,-1.389961255056092,-3.5377366820467406,0.16912418462642465
-126.0,2.0803123677994977,-0.2821680135964735,-2.362480381395919,-0.9158474071088598,2.217910458993049,-1.2923315875284984,1.7229388463957531,1.0953036214054468,1.9745136744755465,1.476763576126979,-2.0674321927266934,0.3720470553208085
-125.0,1.06424530686002,-5.934238111213125,-6.998483418073158,2.417188331483441,4.025080365562942,-6.433649017626041,-2.7287764331793625,-1.9498211850116904,-5.219251719877628,-4.086714265223707,-3.065161310387515,-5.205753617551059
-124.0,-0.4669788865824058,-1.3100884695172326,-0.8431095829348028,0.9449176557341832,0.17743008918441472,-1.117991110386722,-2.563021736416287,-3.8505560453068655,-4.374655804966299,-7.466424218822933,-1.1086987425502952,-4.30444433129587
-123.0,5.423181964854595,8.56165355717018,3.1384715923156428,-7.022462147424574,1.2054642315455453,5.81319206663455,-2.149642609484214,-1.1775119325286623,-0.9860630192415494,-0.3369622434858126,-0.6710708900693934,0.34976005164664287
-122.0,-0.05342458728813959,5.147869752830043,5.201294340118257,-2.5869301429873306,-2.6482348485210885,5.218722413563775,-2.5529978926076917,0.21695566238935982,-3.0442473080870593,-0.3966386174433215,1.6351362249343246,3.844859539758442
-121.0,3.502319223108456,4.218766462400239,0.7164472392918255,-3.831439052897063,1.366470258328615,2.4316191835406973,1.7355998354696947,1.6266509832997424,7.188579119180649,13.626174580338338,7.194037094911953,6.138649638705187
-120.0,-0.4847142691383541,-0.9048326004953127,-0.42011833135702215,0.7155854406928717,0.013686811670423987,-0.6248805912828347,2.4751903650819,5.798402197564987,9.060438057898224,5.539347875856615,6.046211915286245,5.305893043240939
-119.0,1.2601926953550877,-7.260311358764606,-8.52050405411983,3.015886116099856,4.850537345183611,-7.939421036859385,5.042662123168842,-0.41089083086347244,-0.045273792481719255,-2.7697044276197826,-4.430238669966029,-3.689938450851934
-118.0,-9.93426292793448,-9.945384646288014,-0.011121718353689136,9.876212269588496,-5.00847338550854,-4.957074049553189,0.9136411685718695,-1.8801442144819567,-7.213999855031659,-9.006427744601583,-4.9230178884879505,-3.2352308729119232
-117.0,-7.780579191088897,-4.901397277744174,2.8791819133446612,6.359837385935508,-5.303738660713496,-0.9969079831331191,-2.9847894154029135,-3.270154947027236,-6.541716252523017,-5.80079726548656,-5.95263987528779,-1.639559601178342
-116.0,1.9891956849393972,3.6386108749225037,1.6494151899831608,-2.78777650240022,0.19334491212265847,2.6547090956381942,3.3884229752159465,2.3794241506269374,1.0303739661973004,-1.9030389309075106,1.141288859121571,-1.6515133556213994
-115.0,9.658160251063638,9.933442690320721,0.2752824392572184,-9.760477104899474,4.716235952726455,5.116056926489988,1.494740564994091,-2.0186847179679295,1.0274158970865794,2.9197635938864575,1.7474215371372601,-1.4872441457564272
-114.0,10.383192202502254,7.888647039582526,-2.4945451629195965,-9.170320279926399,6.468824971361586,2.6354815714732442,-5.636811457149033,2.010292957769459,1.9409453150489093,6.5749208596085555,5.486832512738228,1.1702746091061407
-113.0,-2.8190712724698876,3.016907609707398,5.8359788821774465,-0.12636719494301474,-4.368745221826799,4.452657765057118,-3.7433130502335277,0.9943763753656858,4.708671547717386,4.261045152170765,-0.5427219584304281,0.4598038862409495
-112.0,-7.33989198989387,-4.644048479697824,2.6958435101961546,5.9683625333980705,-5.05101656183217,-0.9369376002080645,-2.6504137111527823,-1.4523654468004719,-0.7151555066478616,-2.433409684594943,-3.544653616637559,-1.5922247974491632
-111.0,-4.916279454402118,-10.257327153172689,-5.3410476987705415,7.642834352625185,0.18624661017280486,-7.829966819833052,1.3054150153761033,-0.017000807040392807,-2.1805224464430584,-2.9244572936086346,-1.322794425328963,1.8915784232953183
-110.0,2.621190580036551,-2.4339219501592906,-5.055112530195999,-0.11727817925048623,3.896027924455736,-3.766815646019921,4.859390475656464,0.8557943969451323,0.8312813177510541,-0.09646020420979529,4.9556504344807415,3.878096006477348
-109.0,-0.08594733959752521,2.7355531385222074,2.8215004781194555,-1.349703934914999,-1.4710023002646442,2.839232346867272,3.727417861497245,-0.0995515805919519,-0.4897756245524738,1.0144272222587274,4.512501586348784,7.749937225215063
-108.0,-0.17124605512346813,6.56637315848234,6.737619213605538,-3.1442365583219516,-3.4694716115791704,6.6328014582177675,-1.0494677304346283,-1.769256975953176,-0.38848752258460073,-3.0167053256793164,-5.2928171255817915,-6.6709358420618905
-107.0,1.6618393255154036,-1.362630702188031,-3.024470027703573,-0.17472387951585988,2.4077570006278064,-2.2193448103437174,-5.5407768128792085,-3.5544057354151213,-3.1925177579543527,0.42775890602930233,-3.37980759456745,-6.734417310611668
-106.0,2.725429258369786,-4.5770822701447775,-7.302511528514558,0.9795749966404963,4.998884463654044,-5.976343836800908,-1.519701793158086,0.18670453302846013,-1.0900204957287303,1.456687932720927,0.06884731509928743,-2.2137161662665648
-105.0,0.8457551961470083,-3.5064787043316636,-4.352233900478576,1.3036226338223935,2.580477192193553,-3.899612943040858,2.1515998852591904,3.4497741195691036,0.9242542772612468,-1.012352377269328,-3.2489293332631064,-1.3996981632368823
-104.0,2.7740591486753545,0.05623952928923792,-2.7178196193860438,-1.446921757618197,2.7212898566555213,-1.3122985813353067,3.688949338042747,5.766691049325845,3.5161991723380437,-1.212314309751702,1.1509981850871231,3.688661194560246
-103.0,-4.647372005347512,5.724840417419855,10.37221242276742,-0.5791179968681577,-7.542469913551109,8.059412776801649,0.7990382476812703,2.219527217609497,3.5967970863903203,1.730642558032436,5.987370142983847,8.198990981042112
-102.0,-4.534022513193227,10.885727530297844,15.419750043491085,-3.148363428258656,-9.938873586969027,13.160861945755459,4.778906400608875,-3.2594392975332758,-1.805943904709678,-0.21740091988956434,0.15952471609358643,1.8663300747619562
-101.0,-0.06333205673424214,1.5420889091601406,1.6054209658944227,-0.7224781441355956,-0.8021168563789947,1.583682691951683,1.043535744732774,-5.408544664131195,-1.6561643080157635,3.686796742085255,0.2885101720851859,-3.0080507737594817
-100.0,2.4019825299022,-10.488841581730856,-12.890824111633009,4.052843577048355,7.598334928101553,-11.753662698269752,-9.760036861328732,-0.6974543379644684,2.276098613812428,3.9388968694597652,4.084202198658886,-5.519854842609088
-99.0,-0.9750477280756182,-5.343781877637569,-4.36873414956186,3.166425251622676,1.73069201612455,-4.834962658661288,-5.1231207679474675,-1.6256026824754808,-1.7505707069324177,-1.3787043929361775,-4.839677705086952,-5.17998104421055
-98.0,-0.7102166183088323,0.35786496549586655,1.0680815838048083,0.18633390671548922,-0.8484518311653435,0.7404165670897385,1.7333503600320705,1.2972112790920796,-6.3395393975201255,-10.059123996645228,-5.640271767622219,3.04471575074903
-97.0,-0.582902330968365,-3.277999712916992,-2.6950973819485853,1.9482696184280683,1.0261861653152524,-3.03302369551477,-0.33969562380449325,1.6734758102245713,-2.394951728813705,-5.250114448570278,-6.610488874539003,1.6199559571307682
-96.0,0.9987035507973279,-1.961647768860157,-2.9603513196575792,0.4307733469552492,1.9561993193879486,-2.4257354189850866,3.6251554144394715,1.9337682454929754,4.58557080508772,1.233559267292244,7.260217132755465,3.418425350760119
-95.0,6.568847507094146,5.221095776108626,-1.3477517309856806,-5.934870797488502,3.9377432064549898,1.9730348857454898,1.77171077684892,-1.6576883741194757,6.16483888130426,8.283356974702013,7.226895742764529,6.251634607004471
-94.0,9.979439491747412,12.416191952040963,2.4367524602934045,-11.149067045274922,3.7488505360537747,7.3836596297600705,2.968011731924715,2.1126425656477816,4.029939947262882,8.394865831243512,3.7909582362855123,-2.2817139566447335
-93.0,-10.503141217571207,1.7028375300303997,12.20597874760152,4.378291539950784,-11.304376856672732,6.910414177263891,3.198317140628765,2.799555973545329,-0.6414643715994677,1.7995133407360573,-2.6852883395451967,-8.190446026708745
-92.0,-4.900403180459725,-5.006431549342999,-0.1060283688832353,5.016112671555863,-2.3556529349778534,-2.5223322982525067,-3.773805123426244,-3.3334595227757253,-8.872240847756535,-4.834609779379486,-5.5628929252312425,-0.2689473878377333
-91.0,-1.048110133611786,-5.22165787231452,-4.1735477387026085,3.1216575290984157,1.5161788695947478,-4.663166046683474,-1.8801316244662485,-1.4189726854855322,-3.9262981809128275,-9.145917392887808,-4.565845295159248,0.21470763251925895
-90.0,-3.172740467601338,-9.524388434643738,-6.351647967042272,6.334512918708506,1.6134668228049898,-7.97981122466625,-1.841681272237214,-0.24705387229286924,1.2128396218249726,-7.076267931503123,-2.373401901096409,-4.7529897248888435
-89.0,-3.622140847434148,-4.265595993288324,-0.6434551458541051,3.9250635110179823,-1.5495744128516153,-2.41337352307957,-0.9617970381788763,-1.7872309710462302,1.7825423404844323,1.542393870921197,3.7318617325222405,3.949741332016007
-88.0,2.4739584087205517,5.3854969787933165,2.911538570072764,-3.956566319771479,-0.20178326042683392,4.115528806841245,-0.32483747407427876,1.6685940246045372,5.5368426670362885,10.078153861399418,8.860779009252315,15.471559001388782
-87.0,8.193096131498333,13.97761348171845,5.784517350220069,-11.042998763931976,1.2245096616102376,9.929980473489506,0.895272367933486,-0.7254168527872246,1.9015897647676816,7.292936338527788,2.9370443503342663,-5.13658302051095
-86.0,5.147366035375253,13.210793345234126,8.063427309858806,-9.224050245135201,-1.4300757838488276,10.607171592638117,-1.2468598083293017,-0.014007886506601175,-1.5424814565296991,0.8554394569038215,-6.325133182391634,-7.11282820321783
-85.0,-0.24010475928344732,-5.560647198284933,-5.320542439001511,2.9289793573400758,2.50023383553111,-5.47483683825041,4.899009851034406,3.666662806135551,-1.6725092311241518,-1.802760314737942,-2.769121262328077,-1.8689668254494016
-84.0,-4.101205589135258,-16.436992207026734,-12.335786617891465,10.29735282203745,4.167369188705919,-14.349853494408128,1.9159838153134028,2.956540803418723,1.7679814126043139,-4.5618079674004095,-0.8412499402336069,-0.4102678613734332
-83.0,-1.4839276843516327,-9.464372540011539,-7.980444855659881,5.506732095029556,3.2283257108152874,-8.774142674166752,-1.736691089269435,-0.7673803631762026,-0.8596897267057682,-6.045366539372866,-1.8125816480944876,-1.530643093747827
-82.0,2.9171879988584055,0.5133578876169649,-2.4038301112414193,-1.7540813693963058,2.644111618349908,-0.9261023139960685,-1.1177816155535338,-4.511583444252184,-5.599342253756242,-8.029570580352278,3.9201840470866562,5.0775605478759385
-81.0,-4.635944410088152,6.137860200600561,10.7738046106887,-0.7817836337654621,-7.72417398996829,8.471920685420754,-2.7216140342678994,-2.4167297623646133,-3.6449519584145635,1.5905989653296242,1.6735692781778113,3.8102364654068057
-80.0,-8.481366529875471,7.706008083426596,16.187374613302026,0.36329229451773903,-12.362335565182125,11.966580219649773,2.2561877710034963,-1.729255997379799,3.7831408613305437,11.394976185161836,-2.742949934610407,-2.6727175544343744
-79.0,-1.530183968947115,-1.1339266463867874,0.3962573225602828,1.3901288332531037,-0.9244680254668216,-0.33833562134594075,-2.808822039705292,-0.14209859420338908,2.079575754939911,3.6792281196664565,-1.4357495259826303,-7.067095768916579
-78.0,9.167299563404562,4.043983890781812,-5.12331567262277,-6.625358595822449,7.171952388642943,-0.5726930742930505,-0.6084402099052737,2.408034202328783,2.1943467578629794,-1.3617073344408581,-0.48194316967393525,1.091250437445685
-77.0,4.924981779865407,2.0598013108409523,-2.8651804690244442,-3.5130580150931947,3.91265580007883,-0.41954423755097103,0.30904494979629593,3.845751779970568,2.749700331904743,-1.6179013866240919,-1.8024508249029791,2.2724869088885002
-76.0,3.94016830477698,-2.100944199851453,-6.041112504628408,-0.8631688131758273,4.925522635104932,-4.074724231976628,2.872676055400935,3.7071087164929617,3.473356293724125,1.0958941721425148,8.222561146276881,6.399878242621247
-75.0,-1.5240527356505496,-5.6358643272471465,-4.111811591596577,3.5564897046290307,1.3093790183189387,-4.870500830088681,2.1137500210986624,-0.7225251998808386,-4.825881908511891,-2.5787236206656017,5.012082026293499,1.6083260128712302
-74.0,-2.6648534451149004,-1.8480062806944835,0.816847164420424,2.2331424062101837,-1.7183867347881039,-0.5128616784515292,-1.8792025181749406,-3.6420994489993066,-1.7926416232206668,-1.8847182879748279,-2.3014726061946753,-4.462247435065129
-73.0,-1.2447900765182056,2.8971072857894558,4.141897362307658,-0.8474721714637501,-2.660652848373835,3.51420038512008,-0.5349177314223755,-3.961113148687491,-4.216921783097991,1.7146264626471397,-5.610207210562406,-2.5087381522059244
-72.0,-4.810302035242115,-2.4082731363799925,2.402028898862121,3.67044663631963,-3.6411811402520993,-0.022087279804291704,-0.38050673192070117,0.5575200157236417,-0.001264915646933762,2.948499835590491,-5.417626954683037,-4.577497692827042
-71.0,0.234531241084869,-0.12928304620645736,-0.36381428729134324,-0.0653548136923543,0.27365489757466177,-0.20337142258862073,1.9527840062998933,0.9921127845883967,1.0493425722548424,-2.2308691664147173,-3.2112207331373974,-0.19311974124237885
-70.0,-0.04620670350057393,0.13916133836449118,0.18536804186505718,-0.05435253001235818,-0.13495065418115004,0.18889427724740582,1.925393158468427,3.777334731269835,3.8867323304369066,-6.19755345919865,3.161552682462846,5.514612624299904
-69.0,0.8776319775965116,0.22204063339461122,-0.6555913442019098,-0.5542768397053597,0.828933287328377,-0.2825807105782696,-0.9278854810509362,-0.650054197619697,0.8618902480237094,0.05582242918306424,5.185660341053248,4.638187444879419
-68.0,-0.9141490825152498,-1.7812165343525779,-0.8670674518373325,1.343990617803853,-0.040300076588483336,-1.3197312788396336,-2.366071869977077,-2.9331496882083643,-0.03994551626899301,1.5431691652301134,3.2749805470686133,-0.055255358862388526
-67.0,0.8499459833281171,-1.1564967149098981,-2.006442698238005,0.1469270306780721,1.4092215694276873,-1.5789123405289298,-6.256602113176384,-3.211032128645826,-2.2060269130802492,1.3839314853028375,-1.6652021059219435,-3.5061319246311475
-66.0,-0.377811876647526,4.904840166546712,5.28265204319427,-2.2758991564777373,-2.8519853358512766,5.101578728323834,-0.6492146699202219,1.3923617537297024,-2.7842796815339477,4.1376153475235435,-3.3536140865011905,-4.946835664922064
-65.0,5.837716446405666,5.43977483866199,-0.3979416077436245,-5.581081052036621,3.1724556696718142,2.540177450254319,0.9601040694339283,2.956250328471617,3.2176311913515363,5.052415883200224,2.2709792006843625,-0.1366463238419624
-64.0,-0.9698051792069882,3.4198240536373845,4.389629232844419,-1.256255296799644,-2.7055156248576564,3.9390849534516756,5.354441908580231,5.9746760338355696,1.1968880200030805,1.2194271656702882,0.8871333901565233,1.1634807362047597
-63.0,0.7582104432900907,-2.449056845306022,-3.2072672885960762,0.8039994237165609,2.0342154864058086,-2.8573361369228554,6.879315692599899,-1.6578831939143552,-0.6746656459818499,-6.689350960810438,-1.6613561396338365,5.384199292089854
-62.0,1.7035762274076278,-4.216966291689468,-5.920542519097074,1.2852475139906785,3.782558889998106,-5.08622796119769,3.0408889683481974,-3.537825762561237,-1.673719443184217,-5.150855362147958,0.3042320071024158,-0.03655245343328284
-61.0,-1.1600326553518128,-1.6440812299499687,-0.4840485745981713,1.4243401656494288,-0.37122980494840707,-1.0759065038831896,-5.914685190428578,-2.0172857757132956,4.111733536265965,1.7978098641263083,1.4173118613953064,-0.3656340761774567
-60.0,-2.9384543752078915,-4.425733090776324,-1.4872787155684504,3.7011063187655227,-0.7640095121590049,-2.9694032743405643,-2.4262580902585915,-0.8820181567626935,-3.3530812103302647,-2.210554992399726,0.030137076995893797,2.2295983027623345
-59.0,-3.255648033555935,-4.879640977420999,-1.6239929438650642,4.007412463321021,-0.7810752641050109,-3.271032166736968,-5.158993540986948,-0.06019026509190195,-1.6507685193130635,0.4503667674565076,-6.768191271686846,-4.420609372618405
-58.0,-7.506764146413859,-3.0810485009047257,4.42571564550914,5.313917641852732,-5.935869413311037,0.7230862870724636,-2.282768994554862,0.5930314154145776,1.3405193001463018,3.4606527454227156,-0.34458525232871695,-3.4524231488562838
-57.0,2.0618984474053557,4.711803116764944,2.6499046693596373,-3.3643804425137085,-0.2655134948508908,3.7234114891886367,-0.532881174745243,-0.5298526736513047,-3.2836102319801466,-0.20386484136640215,1.225768074169478,-0.5560253436939184
-56.0,3.8594194359249654,8.30997970999448,4.450560274069584,-6.059683137487044,-0.3448210259585844,6.338748226631106,5.0671267983452415,3.311176874673561,2.5129040694897853,0.7133326765979726,3.263729997332069,-0.3871376697230145
-55.0,7.417930040063759,4.446718079991485,-2.971211960072213,-5.983812194373991,5.2273451049093245,0.6947448854068909,4.966217088669088,1.4037799812276222,4.242717053573778,0.3055554184835808,1.80888949775165,3.054233925705761
-54.0,3.2471383617389367,5.095185278051649,1.8480469163127313,-4.220396679677167,0.6578836748376236,3.509398632422766,1.7539955413325452,-0.15220173719872077,0.8226181365837617,2.695032944586393,3.786250796024822,5.754380750060778
-53.0,0.44166144007188346,0.46660807515801345,0.02494663508611339,-0.42149762265981616,0.24960376166092857,0.28786002142455236,-2.2948326775948957,-0.9599622865361938,-1.4131614409782802,2.5674980574792188,4.334357767399441,-1.2765852791979981
-52.0,-2.2391334271532224,-5.978053712369802,-3.738920285216614,4.146040287040919,0.7157537589044791,-4.890306685616103,-4.468059689242299,-1.6874582389602226,-2.666764503807482,-2.8500329297566074,-4.031262867135915,1.3280495879021035
-51.0,-5.076004964844666,-8.456490518323108,-3.380485553478464,6.810191870204228,-0.8792105795930114,-5.9464679810596435,-1.5472522390548815,-3.187405930032318,-4.07226816317339,-7.434371086974618,-9.37821636538023,-5.4287313990942945
-50.0,-2.7834329970965053,-5.873847037127638,-3.090414040031103,4.300787364473233,0.20347743741815538,-4.508141878344892,3.21169385691808,1.9186609304101765,1.6605257467283558,0.23089785942348806,-1.791912877509974,-3.0184190369851027
-49.0,-4.2207333959990105,-2.1315211820747124,2.0892122139243368,3.153541220094992,-3.1803508314978957,0.03171805684718487,4.428858041863194,3.7457354894985597,3.155477079365298,-0.41012934177806065,0.6403493348197435,3.4776814034923196
-48.0,5.851219580816332,5.828184945406537,-0.023034635409773685,-5.8608485304561935,2.9947155027736563,2.8756851800260166,-3.902078786067136,-1.5644075300356932,0.5540566422438675,-0.07258409561385515,-1.2884353190540665,3.2455619875605426
-47.0,0.40928603322827195,5.822848917058302,5.4135628838300205,-3.1407840076446867,-2.5189678870411507,5.668721000184094,-4.245606129351094,-2.5842666501303246,-1.4826156107502064,4.269312596521792,3.823213797863443,-5.754673424036284
-46.0,0.552486719500294,2.595482842318652,2.0429961228183124,-1.5282811834545962,-0.7589625892939194,2.2898029216682856,3.2672420173299614,-0.662331880145477,0.6793607097160677,6.662626822793959,6.959647991077372,0.037638147865518334
-45.0,2.68106293522905,2.7926654984644785,0.11160256323535722,-2.7027067620100516,1.2716663212133588,1.4216048688680152,2.1243610128969195,5.184529410140206,4.314486033560876,0.8912709606959521,2.2277996039728047,4.850006109894205
-44.0,-1.5165894667405808,0.13945569640047428,1.6560451631409951,0.6315250872402474,-1.6016982690464225,0.9445583545497303,-2.779704658834386,1.5846967383940693,-1.0004153429351923,-4.193625991766038,1.445958407535319,0.9463988879431886
-43.0,-1.5335284969866505,-4.508933296777405,-2.9754047997907707,3.0320815255304927,0.7009271918978324,-3.776412104255255,-0.30205634108400325,-3.552635200812653,-6.024923675530705,-2.5933670745154376,-3.497876777850492,-1.9301244802208375
-42.0,3.276944112118044,-4.689068444385226,-7.966012556503238,0.7098104681454749,5.674809662272966,-6.286646802783666,2.1733050786341033,-0.6542593245358084,-0.6498899266014604,-4.624151880888108,-3.954669928301889,0.1706310058356318
-41.0,-1.7628521344853154,0.1160271100296204,1.8788792445150069,0.8251990557937652,-1.8507619543033842,0.9546537692056067,1.0548131178292866,-0.6197824217596923,0.0014071731107067054,-2.4133909501825377,-4.592418618032562,0.12321792307637763
-40.0,-3.1002319832785883,1.3715370526392046,4.471769035917863,0.8695648423385627,-3.739614884012532,2.9519154097025315,-3.1770751126157757,-4.557735608124277,4.192038075592633,6.0202297171274575,-4.633689621694914,0.9025215711576602
-39.0,2.7132437035212664,5.687302817456378,2.9740591139351533,-4.1872484541210255,-0.16325148174377535,4.276969337313911,0.7817607503012802,2.773477065854712,-0.02693567119927387,1.981340359298366,-1.8566474637154415,-6.912080086246911
-38.0,1.2319760404246238,1.7481232644002898,0.5161472239756733,-1.466906558936031,0.40429999434807473,1.1539874734433293,2.605056425064387,4.008469731292918,-1.0367871627623846,-1.3717834487842122,8.360881391149245,-2.350448773746631
-37.0,-1.546828964959643,-7.303380516618292,-5.756551551658671,4.379389618559049,2.0725077124754243,-6.5078604673555205,-0.6876735134513976,-0.7489687546774284,-0.9752437491416842,0.8786409915162915,8.979432531903125,4.848021807014343
-36.0,-0.08994301517395639,-8.566901384285874,-8.47695836911195,4.2901127319767305,4.159707011703375,-8.495514338131532,-5.2086556690090156,-0.6823807300145359,0.8328423294271352,-3.1447801275921536,-2.0873975305871646,4.419780976330314
-35.0,1.2340010654730191,-2.145306779520214,-3.3793078449932725,0.49963278666328903,2.2700029908378987,-2.8068121295089625,0.5719309670353292,0.4659402990322623,-1.9844999867583688,-3.0467311119927096,0.10689195892110892,4.4359041859646124
-34.0,-2.1093004950824144,7.948733242351146,10.058033737433522,-2.87633864705027,-6.044741115856549,9.047388103554376,1.4648370230000782,-0.94399812192982,-1.8026652420021407,0.9947923462675106,-5.018140672595543,-5.1755988934122
-33.0,-3.091827483607556,7.566214442567411,10.658041926174954,-2.276599072742324,-6.838072589761097,9.086977483355009,5.467277233069683,0.6185979784958002,2.986575543092009,10.674066339389135,-0.31218805453451104,-0.9149292543644054
-32.0,-4.375889951810274,7.428460276369469,11.80435022817975,-1.5717448011649475,-8.053356496062227,9.598830771427647,1.105165744139364,1.267969698209513,11.201006473989858,10.961890379609892,7.57086909626305,2.1789814233512406
-31.0,5.9028717873405325,5.2016429982902315,-0.7012287890502695,-5.5253115168627005,3.2616636593966692,2.237181960416504,0.38771407172557154,4.761919484937256,3.95223443805685,-3.097553631209319,-2.7916724422370547,-0.5637434698491199
-30.0,8.746175828812511,-6.683839660039957,-15.430015488852437,-1.0093127724524313,12.04977383151348,-11.068407170764049,-2.4076498685531162,-2.92783800652631,-9.18209761204944,-16.60525878113609,-9.482757347990672,-4.165042106440407
-29.0,1.145134146059803,-9.290815775633554,-10.435949921693325,4.09168470637187,5.831992928774866,-9.796816360063616,-0.7255969721046378,-5.811219481429541,-18.90097080597187,-20.166991868695515,-4.880578382925648,-2.1988899600663396
-28.0,-3.0227734073042916,-10.100434209652963,-7.077660802348728,6.579354522288444,1.989105542125603,-8.6032720066023,-6.2719844400931555,-1.6542282516191154,-3.139263734916959,3.7047111566071855,-0.1002616045544249,-2.193762861338806
-27.0,2.441487900711969,1.349604741232263,-1.0918831594798188,-1.9566319198392357,1.8039173994631055,0.11184560434778312,-4.288318168557673,2.450081547190673,13.727516289896126,15.030351924993255,10.999023800102895,7.671653169563097
-26.0,-1.7605406089624256,1.5165161970801488,3.2770568060424523,0.13959007815670613,-2.5647497492101796,2.3763402390451915,-0.8956764774252213,-3.3218824683984796,7.232710662861788,10.18006630160235,5.017011876389264,0.29312558286651047
-25.0,-8.649283257087353,10.110107494378987,18.75939075146626,-0.7133235415964922,-13.675702299215633,14.488768164181817,0.514624780701076,-4.003991151901559,3.916262374189218,8.069764285909883,5.44323381819778,3.0479441274677708
-24.0,-10.241633104422474,-1.3117513409053139,8.929881763517168,5.7146846860584235,-9.559407428964562,3.7789580896223214,7.485291010230601,4.885371089118966,-2.004082693957476,-0.718280397440882,-2.623157432043288,0.3956101853952907
-23.0,-2.0409397544084653,-5.72513944044285,-3.6841996860343045,3.900854317390787,0.7699614852216436,-4.741215472084807,8.015693151907035,8.220227873021987,-4.180034075195027,-9.141960953970385,-7.75461332005109,-2.766420284529938
-22.0,6.9281392020221535,-4.11430381420453,-11.042443016226573,-1.3853320248526813,9.016385671184716,-7.543197720751721,3.51879648704206,5.44649092272315,-0.7564543431497608,-9.25182794181546,-11.010881105509123,-6.357631665531384
-21.0,13.157199158361117,3.447923024963858,-9.709276133397125,-8.274124886138623,11.470910649764697,-3.102209606483151,4.407270572838024,4.083672962300847,-2.884035121274004,-5.961096361661521,0.21377583855731608,-0.22773034055876895
-20.0,13.62497052870117,12.859342096054817,-0.765628432646281,-13.204883350781133,7.161883524490008,5.991351558696831,-3.3238052776571583,-7.8810035081485195,-4.0616366520346805,-1.3960499973913598,3.3204600208715034,0.3924596130178267
-19.0,-1.9268060627159898,4.680915676083321,6.607721738799312,-1.4100863110685573,-4.293711632061789,5.664988262512421,-12.29484626807316,-8.58017618362412,3.302718918677924,9.427528048500976,9.235557612056759,2.012096956897538
-18.0,-14.505153005712748,-1.3169956928998254,13.188157312812868,7.883419830108948,-13.868369953751207,5.95718619885313,-7.418736267999804,-8.218261333101388,-0.9329283053008695,8.669410804116847,6.478390524672692,5.435662223278296
-17.0,-8.967227261683085,-9.083987098093598,-0.11675983641056487,8.998577590421494,-4.36669631312059,-4.652803847144402,2.0844822402958174,-2.9185407097270613,-3.6186335563798355,-6.604187097553109,-9.78500166237461,-5.282139061971141
-16.0,-1.8285501487019342,-7.430029775646604,-5.601479626944739,4.598311968570296,1.8640873322364335,-6.4815337071546555,-0.29203592870339445,3.874358384132737,6.49878852397055,1.308576249242433,1.1252188971786374,5.285590979845532
-15.0,7.484704646044122,1.2456997428614933,-6.239004903182756,-4.323985249131711,6.9124086867322685,-2.452899846364919,-0.9912906442836338,12.352100855154015,14.43663149053564,8.65670900343114,8.399795630340195,7.301100428886031
-14.0,7.013305931694699,0.666701476354613,-6.346604455340237,-3.80516801114607,6.64276989353838,-2.866109123055676,4.372492471763848,13.797577910564755,2.2958954089708596,-1.199273091237644,-2.3681340394975745,-3.8795642091130604
-13.0,-1.8057650629826876,-0.8711709048369025,0.9345941581456287,1.3693946310627787,-1.418381641040369,0.011195029355680841,13.028080263540655,10.53409796282319,-5.702319062456426,-10.627500827826127,-13.69373500307935,-15.921793172672102
-12.0,-6.661460406299261,-0.5515692747030005,6.1098911315962035,3.5581808065713547,-6.3662568463510345,2.759222787072546,-0.09152618029287929,-14.82454868698198,-13.260028181110552,-5.548784586831933,-4.082341136168268,-3.8239758195920555
-11.0,-6.46192167464412,5.393571768658931,11.855493443303224,0.5669521497262271,-9.148109517726724,8.678379480773577,-9.305276955031033,-19.491983408772303,-2.36191062891261,10.294439027992063,13.225620612218366,11.75663779872023
-10.0,-5.584173604412233,3.4432208989557127,9.027394503368463,1.0283652079965981,-7.299471313119497,6.201138675893261,2.5552205457763004,-17.284585423633537,-11.345136675808885,-3.03726746232247,-2.368961947520802,0.9671967824637662
-9.0,12.341062778889953,0.4579952433056125,-11.883067535583695,-6.437672574394003,12.11981850558866,-5.757508996954335,-1.6711743165486732,-3.7117571805560994,-4.288778671025374,-4.6396050503023005,-0.5330085270991285,3.964754555173491
-8.0,18.924399229223553,-10.251895538758294,-29.17629476798143,-4.292428716102249,24.064859317370182,-19.689119995963388,-15.106970210073653,10.091958298467038,10.113632030657019,1.2583437718442396,2.1767434775627605,1.167503274977419
-7.0,14.088890534375318,-7.351162327975059,-21.44005286235047,-3.3227903408855672,17.78909002150195,-14.374269114611831,-17.64936825879785,-2.0699062767064387,0.06966053650839577,-5.007022370555855,-0.2899766999529749,1.3260758497392482
-6.0,-7.526172674864555,7.058078259143473,14.584250934007333,0.20287595997613755,-11.098752072063242,10.845605226961638,6.106187980381101,16.458505270513804,14.377286127634106,7.061661084840994,3.6264594384707762,0.6131271367290384
-5.0,-17.50483462137977,13.842445689142007,31.34728031052065,1.8011936753093067,-24.46121590713585,22.628389938813786,26.58570835009298,52.69418239522164,39.53715289000514,18.912269419788796,2.5878252496102303,-6.6919261909674805
-4.0,-21.04401706763347,4.359647797144527,25.40366486477697,8.313434488538876,-23.17562694358483,14.848595113308814,37.72936464316843,41.40868866457862,25.45932227550334,11.056688712287801,0.995353079714314,-7.004770996382373
-3.0,-17.406559293494738,5.444426861729419,22.850986155223904,6.032590906734979,-20.15838045809145,14.125917023587983,26.69171310157143,-6.93396577491532,-18.818882092323392,-9.651366670965002,-9.778186850163774,-4.850722301703503
-2.0,5.360362800906531,-8.038349599343622,-13.398712400249483,1.392025973455472,9.348632872249224,-10.733425243011895,-26.29693555896999,-76.22244939354178,-58.9649310521072,-20.717678482931397,-4.201936475778429,8.908992529060257
-1.0,19.32899658261322,-18.05270635729301,-37.381702939904926,-0.6632055037040008,28.401781924968187,-27.731327658479756,-47.74965874836225,-83.1866009855611,-65.05009594944195,-25.320401610112274,-2.7609357441489446,6.85364686020112
0.0,4.374295515429381,0.9507908665724241,-3.423504648855861,-2.6887766535449944,3.945576191977892,-1.2554097316712713,-17.25370827432286,-36.35970329415967,-24.69399044996686,-10.006249034445194,-0.4944614458602743,-2.0383505313518686
1.0,5.6088768696003,-4.543856304160115,-10.152733173759852,-0.5621414973067118,7.8513163698136195,-7.2971415520504745,-11.689868637004992,-7.6504261110165555,4.749389903185472,-7.078889747871231,-8.171660066334479,-7.78598472802872
2.0,16.10555895442635,-8.205785196970371,-24.311344151396675,-3.9843966102814132,20.18328485327888,-16.216905103721277,-0.9738144068949603,55.023209548968474,61.313277293700644,18.821346008290213,-3.4198659529868918,-5.7171404316123695
3.0,11.026831022472582,19.426479287005087,8.399648264532141,-15.187006092362145,1.2929492107398324,13.867713758585886,9.68957387563487,92.47141284308955,100.39199718170242,59.39754506018012,36.93311803065883,16.58807737705807
4.0,-2.9437560128288283,7.194783026814706,10.138539039643039,-2.088197980809108,-6.4801441553915975,8.694198208494154,21.05540339244897,75.24014648338681,44.025549007819265,23.28995592918161,14.029511357743441,6.876829443783847
5.0,-5.719648421173609,-4.277445517012653,1.4422029041604745,5.036918967656034,-3.598922970260972,-1.472088122034478,20.855580491532464,37.32358602749008,-11.42450932652157,-8.90626566793691,-8.643997890065993,-2.6316825359188494
6.0,-16.525559696915007,5.209949793053886,21.735509489968585,5.621574675381914,-19.152662055416037,13.496036458054892,4.865897447557863,-43.331830467505455,-49.674618840450464,-25.160591732514554,-10.695904807438092,-2.50700744062961
7.0,-21.956873446895063,3.22241943842989,25.179292885324895,9.336699946279317,-23.59789501111188,14.224980581203909,7.657505151627912,-69.50794979620075,-56.24205263674925,-25.54780606332325,-8.958091997949436,-0.6644879435888278
8.0,-10.096004258015885,-3.9236618297444052,6.172342428271558,6.984558124694349,-8.09511239337721,1.0718732788510297,1.8561823329902047,-68.68187164159883,-46.001130819947626,-24.176256197393364,-15.442731528687789,-9.775156769572316
9.0,3.4285578453497587,-4.061915469479844,-7.490473314829348,0.3732838886921934,5.488530832592538,-5.746855306326008,-4.133116076268291,-33.78884200891152,-21.176023466132055,-13.022052749883455,-11.599657856856245,-16.737046309241045
10.0,14.588207288035075,0.9342474429591165,-13.653959845075683,-7.783255524994516,14.063222699038345,-6.327117115604402,-15.977724633618562,-0.4802870621445461,16.41032962894749,14.238765021817514,11.525706485651789,5.606001552627107
11.0,14.217262467106405,-5.644616051091158,-19.861878518197326,-4.311332394446119,17.055805234011096,-12.796259965388435,-27.38290461751092,22.25161113026949,36.38013927290345,27.69161027952115,20.62389026502532,20.521013571229318
12.0,8.719422550799381,-16.129689541392164,-24.849112092191355,3.753287176771334,16.79989731562248,-20.45193332988171,-13.328791663090433,41.50591112183135,29.721804411261957,8.406217165076843,0.5630888658791413,7.79421680591812
13.0,2.6779711735088565,-1.418487930981187,-4.09645910448994,-0.667771182937607,3.4057106313437,-2.799041974808664,16.02082577583401,33.64191699884851,14.253399400787877,-5.057766524319478,-4.946435690786307,-7.373844910116
14.0,-5.132915250957057,14.32468690838965,19.457602159346706,-4.563662036357383,-12.27198888069486,16.925687809739003,13.114698779720362,5.569924572521614,-3.1096154704971504,-2.145931798210113,-6.080605523581309,-10.667334878570305
15.0,-9.793829639907937,10.562248538626168,20.356078178534048,-0.36081844492576676,-15.125722111883444,15.410226143211126,11.332984585087134,0.5438478663761543,-4.360047695740304,-1.0044617549667278,0.16633356035448044,-5.470935468160892
16.0,0.5279292908872399,6.242680913062485,5.714751622175147,-3.4490509538143614,-2.641137518426545,6.002525930647613,0.3489651889966847,-4.064515357977816,-3.968446281151376,3.31877415318484,4.169410868147514,6.855706118626701
17.0,0.33672934675642274,2.638471278495407,2.301741931738915,-1.4795261541274405,-0.9507909505444223,2.4877676204040187,-4.28162436301731,-12.45887634367329,-8.898429176417968,2.393321418543172,9.042696430199591,9.688303143880587
18.0,-5.014812317224831,-1.6228636968295576,3.391948620395268,3.322686989922783,-4.173040815886375,0.8970185558385882,-3.901646148183207,-18.91010999477102,-11.811641979887401,-8.111735685879614,-3.6996254116710525,1.5841748674332106
19.0,1.7454148028822964,-8.449918645643727,-10.195333448525949,3.355749140317843,5.9980876095536715,-9.313479356421327,-1.3318276916724638,-4.505317813897239,0.9749618106068567,-2.9458241767297535,-4.7179910843749155,-1.065136270915549
20.0,2.4845778308728503,-5.3562882190953545,-7.840866049968251,1.4434011706409224,5.108652825715207,-6.6689714303437375,6.1885673170764575,7.061198364506344,6.473341334561397,3.387844337010463,-2.0266328879291375,-5.218717699642801
21.0,-1.3093169053832217,-10.627630221422683,-9.318313316039603,5.983841500042175,4.0263623389802445,-9.962323580488516,0.5648972143118955,3.8502823614146706,-0.38722505915323446,-0.036602341588271664,-6.852371815480103,-8.952361547108065
22.0,4.154278401912389,-0.7174982487173485,-4.871776650629867,-1.6933416185457042,4.532736992143613,-2.778319485903339,-2.008604292606528,1.0331596335231437,-0.9980153927110715,-1.1715549713650932,-1.0985368222707323,-4.9402974253872385
23.0,-0.2283257034627102,9.579286084880163,9.807611788342776,-4.720416692639462,-5.078075346216384,9.718499819422535,-1.0072468180539795,3.2107279494902525,1.2982826203341706,2.9017692100302224,5.962410587186291,6.850392114362879
24.0,-4.755944720380828,8.592898315397232,13.34884303577812,-1.8795353381567805,-9.033255348477162,11.006460949002324,-1.330784521711022,0.6405193971494527,-0.42317986100973215,-4.844894275968203,3.960348358243559,5.7518882182653694
25.0,-5.5003716048403275,-7.0690461186795925,-1.5686745138391291,6.244786124616681,-1.9442550761340156,-4.351801446754573,-1.3760620404518273,-1.6354296858005817,1.9859055227206346,-3.970327770339546,-0.5659492723241129,-1.8713657631631833
26.0,-2.3994179983499113,-7.4175113974916655,-5.018093399141578,4.863449142863437,1.3354294482759759,-6.2432247955120355,-1.5591511049212414,-3.957014406919499,0.026678165204851334,1.0511851783133115,2.5557290844210585,8.297984099120331
27.0,9.857458662138331,3.4931167547643693,-6.364341907373899,-6.649452025187683,8.064386152955967,-1.457945480554994,-3.570404567304978,-3.5738641368591257,0.5268137758216483,4.383069065792837,-0.011935104547550146,2.2269970533576515
28.0,6.731510799196004,7.551435861153513,0.8199250619575489,-7.123054190048238,2.995014135779176,4.240388790197023,1.9916776667117013,1.1632712039296553,-0.8886837146503207,7.92182127577989,-1.844002341304957,-4.887018650312377
29.0,7.435642176347376,12.810008869097475,5.374366692750085,-10.10827857411952,0.9980138650502037,9.06281473520198,3.4193905685528487,4.81313187467518,2.274233304152677,2.1920967235478113,-3.4363725788998662,-9.52808857259804
30.0,-0.4818979108897439,-0.31714529088767973,0.16475262000202506,0.41528882253221067,-0.3498458202462053,-0.1121823634521375,3.034838598211674,6.167641881039507,-0.08393278825649853,-2.4332525189684517,-0.7062598880824194,-1.3253567216682782
31.0,-10.10799735168464,-7.770846489523699,2.3371508621609043,8.96090005425728,-6.16540804588842,-2.679252511678116,2.5903287586044486,2.4817574307370927,-0.7988065554115138,-3.0175503591025783,2.5747433549821883,3.444231326130073
32.0,-11.097603853779372,-8.612053031278958,2.485550822500379,9.80530135269926,-6.809467672521743,-3.027204263329107,-0.6684119682230218,-4.981685257740647,-2.522775052776485,-4.425173762835033,2.9580350706410066,2.091646753437225
33.0,-7.45459077923901,-13.5122380160585,-6.057647236819549,10.519174544095549,-0.7138973189376814,-9.824720481443297,-5.837931491060113,-9.704539561932991,-4.83346786172237,-5.68046631433266,-0.19284941744740736,6.435149557565694
34.0,1.3721376710004192,-2.4748368795838127,-3.8469745505842967,0.5110233510769548,2.595277743569182,-3.1152965603361418,-1.3639833679659716,-0.6980760752918123,4.173717873713491,1.3940036995035898,-1.7466025384854031,0.7074104665777017
35.0,12.707665454271273,12.473843380584157,-0.2338220736871648,-12.633320688884572,6.534752929837569,6.095162386797957,1.4895429827205127,2.124791698787183,2.500687913980369,3.0829317697492407,-3.6137243873689195,-6.302883876849836
36.0,12.31126844535443,16.25793516398438,3.946666718629901,-14.25464291927397,4.165047066773013,10.08484023795385,0.02139333554204667,4.103934888066826,0.7906176015725215,2.0667236438075745,-4.9264328280553995,-7.3407230722279095
37.0,0.219593370501439,2.6337302366618296,2.414136866160353,-1.4045920276615096,-1.119421239221003,2.510793280988736,1.6571664341831178,5.4336375020908285,1.1431146197548316,4.754367590138085,5.178225569881535,2.09750531487785
38.0,-9.027086049562099,-9.67250665935163,-0.645420609789543,9.364935818656283,-4.220095063327896,-5.171982746321174,1.0828525880166262,-0.5497387741920745,-4.180975066675885,-1.2749136864105401,8.551529084109848,7.831402914399804
39.0,-7.47377662003411,-5.299665023153478,2.174111596880656,6.3977415150087005,-4.7828451804694865,-1.50108162274513,1.028634856646968,-3.30193273618153,-0.46079636531147306,-1.528310142084237,-3.3463731758451694,0.8505743760095124
40.0,-1.6095224012171796,-1.048215674670705,0.5613067265465298,1.3391252772491171,-1.1310970929282664,-0.26776397015033915,-0.7622467539920421,-3.3321530120899316,0.5373822895735377,-2.9287783367915,-3.535520068119202,-0.40477688574714366
41.0,6.716670149862791,-4.91167506786655,-11.628345217729278,-0.9690305631711551,9.199738714756213,-8.303410740734364,-0.4227279178271224,2.762500633819365,3.7542663129320557,2.345671013196709,0.8673288415297,-3.932515485984339
42.0,6.081927272471184,1.9129618141975606,-4.168965458273556,-3.981772582212351,5.150395460565781,-1.0921600750183647,-3.6108747785533915,0.8860894590182462,-0.3047100112041836,-1.6181995410367724,-1.852678193617007,-1.2837716039204774
43.0,1.2341589615904875,3.310457132304391,2.0762981707139643,-2.2529235634124145,-0.39450990632249994,2.720476746909296,-0.2347437017104952,-0.10761400937007715,1.3433157406640683,2.155877387007395,2.5929804179172686,3.8492607040987115
44.0,-9.51548332735879,2.8317339304164633,12.347217257775311,3.3643449274139114,-10.978848592413646,7.530660188479081,2.332671634526969,-1.8900628152105865,-4.596415694434946,-2.2603994920873838,-2.5014333778245144,-2.0906988551103693
45.0,-7.919023458812361,4.125520119571005,12.044543578383418,1.8425143034468525,-10.023148892630662,8.099829234518443,-1.2603836478461377,-4.367198798964,-4.56746356555215,-2.594191661032976,-1.2210264806360664,-0.8961455831882291
46.0,8.154771252721382,6.947611049670453,-1.2071602030509023,-7.525644774740295,4.723985399018175,2.882070584058773,2.9018301207963173,2.123034873081459,1.8212233666083693,1.4174414873202124,3.274868928496682,3.8881046037575047
47.0,5.417480538667629,-4.6705545291445585,-10.088035067812202,-0.34749710435517667,7.799150131231607,-7.368283949645568,1.6246706105629378,1.2259700885493228,1.8567484721612622,1.0963854661765713,1.3203035768732319,0.2181659759931447
48.0,-1.0579087076896414,-11.738371826326023,-10.680463118636435,6.345755389073382,4.778800450687016,-11.197350171624677,-1.961380470172499,2.6750334847776847,4.221138521167366,4.0986580433488164,0.9953981415550387,-3.9276691282657996
49.0,-1.244143095286216,-6.947404231088018,-5.70326113580186,4.123109349549843,2.1931186870933828,-6.389358829706116,-0.6739288301265187,3.7034869389377687,5.3099174652220675,4.451205895560103,0.29655644712636253,-3.2373337469114785
50.0,-8.708610520134256,-0.509580977187432,8.199029542946782,4.638373449696548,-8.41850878179595,3.8634229215565634,-1.6676970581942512,0.3149040913640013,-2.4667862894853223,-4.023589996397513,-0.8023192683325819,0.473143247894801
51.0,3.5853242198781947,12.052775523029771,8.467451303151567,-7.8655165706709305,-2.4925604009629434,10.283766612753896,-1.0459162898375685,-4.485396218793351,-7.31576930801688,-7.4520641973216915,-8.445596727589875,6.031119703344409
52.0,11.922496601978558,9.035576053139787,-2.8869205488387477,-10.442896102672327,7.425514090802456,3.1033268625603423,1.6473223599513955,-4.194718611206858,-4.411476896980405,-3.797867566470282,-0.2077119252572266,0.17911749275023858
53.0,5.223901006340606,0.2867351031769392,-4.937165903163615,-2.793620920093897,5.098986566596536,-2.3701938070282798,1.8146624676874166,0.9133998950565507,1.3386065629910164,2.951884862005706,7.751958809192308,0.6302732063588904
54.0,-10.356951460309517,-4.201092277136995,6.15585918317258,7.323792790254918,-8.234864214543958,1.0141517307305443,-0.16477057205111612,-0.24896942869526062,4.558026966889991,1.8527108121739335,0.23058419154360532,-2.8656403185827766
55.0,-11.627420188831035,-5.03389075744993,6.593529431381162,8.300676918412313,-9.080769719937047,0.7380175280088259,-2.4337811929783144,0.47014669847812185,5.910165921102492,5.960065129368404,-1.5995597415851244,0.3450426316767501
56.0,3.636818387981151,-4.389981857441583,-8.026800245422702,0.3500811811048692,5.794068816067133,-6.174502279852414,2.9131862250137583,4.7124039970303775,-2.8090994904684727,-0.6295813521902773,-0.3323982230295126,-1.414501699846212
57.0,2.952435044463959,-5.577351221749331,-8.529786266213288,1.367554570005634,5.715110471367237,-7.104261308629213,1.3655854650571808,3.1385318155931077,-1.0488210881636217,3.9453123520915243,0.9296622922017879,-1.6029149661737758
58.0,1.2643085580845352,-0.49833253510809583,-1.7626410931926761,-0.4045696537098842,1.4972098479094833,-1.109745407120513,0.4888072331159625,-0.1439840487643793,-1.4730712984002041,-0.09112370942311324,1.7583067337002336,1.2685755819939921
59.0,4.1740183526388845,8.355546183857284,4.181527831218316,-6.285359689496565,-0.013754140619116395,6.282167215558338,-6.048788469413049,-5.9023761732491336,0.27836915510467053,-4.712147775584462,-2.7406704695439905,0.49636525237238216
60.0,-4.781472059602273,10.083122623877468,14.864594683479652,-2.593143067399645,-9.751866806919557,12.482079098013509,-0.2803437379896967,-3.4029904950881456,2.9192557508132233,-2.8613247045117576,3.1179821442432543,5.763318904914013
61.0,-3.109943544672692,4.504146044216295,7.614089588888929,-0.720525547314486,-5.370671609412052,6.064449327675868,2.1284410570949523,0.8858642483836161,-4.603056320548081,-5.001207437848249,2.082577480346745,3.807515780648116
62.0,3.5220421461799027,-7.287953681038631,-10.809995827218525,1.8552978586714661,7.153523693730241,-9.043991868225325,1.450899741393742,1.11154802921183,-0.6723385171110936,0.5514140339994955,-5.292952929100938,-9.03895665054922
63.0,8.610581159744092,-3.1253195326449514,-11.735900692388974,-2.775810254362039,10.155066848250199,-7.423922919782511,0.7327443993864666,1.7125807230672878,0.3087510021412304,5.1717739458199175,-2.883773314305721,-5.478384831282774
64.0,0.2837743536990116,-6.281271458584932,-6.565045812283856,3.038643911058086,3.3998982794922763,-6.491940217184834,-2.1929476463963287,0.5700183332126776,-1.7919007863574266,-1.2849905800552377,-5.444934821437846,-2.8031798875709253
65.0,-7.495723231605307,-2.238184789183147,5.257538442422227,4.902273735628995,-6.327990472928682,1.5244348118350222,0.004150128289067523,2.244458219622944,2.5688973324298394,-0.6028244101238096,0.6230065673513678,1.5868444574241471
66.0,-0.16473920811872134,2.4506696670261183,2.6154088751448645,-1.189084313552779,-1.423674101434865,2.5544109271777913,-0.17080178248319447,-1.0181912175717733,1.0543838856006837,2.7393098919117547,8.802781465556816,6.335921051204842
67.0,-1.6398564263500668,1.70112191170834,3.3409783380583873,0.001134928604385882,-2.4457021447908107,2.5511013230953195,3.4349261221798884,0.14858927634859398,2.5844571148939917,3.2243875883193214,7.5857600511637635,11.707975788565648
68.0,-4.502098087321723,1.4843872083130272,5.986485295634685,1.54073223171342,-5.275497804922896,3.6970668284807124,1.4907783528999603,-2.370594327414846,3.5514787359238054,2.886716760942473,1.0592581866981639,1.0265283984465468
69.0,2.636937101717029,1.720149203422178,-0.916787898294944,-2.2255020080875543,1.7511006761506303,0.4526669685745439,-3.041166796559033,0.3974671422770506,-1.7367539226237139,0.39639681557506323,-4.634418807813397,-7.89766758059281
70.0,3.985499393198266,-0.544067663454499,-4.529567056652856,-1.768780714642323,4.317185198515014,-2.5558161170220988,-2.6856930430379595,-1.6395542270964174,-7.197632326057192,-7.73580535032212,-9.444004967985748,-8.48869266775581
71.0,-2.7021697010103933,1.2789013395546143,3.981071040564953,0.7401700190241407,-3.354685001417287,2.615723432139975,0.4721667858964176,1.3027633518794666,0.027760078263536325,-4.315407254974405,0.08984130771865662,-5.730645997016699
72.0,2.298917799021675,0.7345280655125421,-1.5643897335091341,-1.4906209780076736,1.922154714448168,-0.4298966049368651,2.1001468646326416,2.5100410023879767,1.773493572339024,1.8641680763680628,3.6510149380130326,4.319129180307252
73.0,7.751873271296441,2.9639455066388853,-4.7879277646575105,-5.3334520890183805,6.2602501390082255,-0.9330933593795518,-1.3746172254223834,0.49401712556373023,-0.37898683788027576,2.4417384004781946,1.2508449826407284,5.657162262689219
74.0,-0.5605847982290619,-5.846255592760904,-5.285670794531754,3.1490857238423615,2.3488509442904086,-5.518347632427403,-0.671328377616788,-3.0644480633044133,-1.5254163830581497,-0.0037518317047813277,-2.265821175147955,4.006183592049987
75.0,-11.896198560606038,-2.0348944455625575,9.861304115043588,6.991728156235117,-10.899342960923732,3.8707465412482174,-0.49048788503519325,-2.376469971953626,1.8870896189905249,-0.616322430626091,-0.04048102370990714,-3.06191076521411
76.0,-3.819744975012904,-0.6818016556202036,3.1379433193927913,2.280112439231114,-3.428575816014221,1.2545781568089756,2.3153081401246025,-0.1607106405178702,4.859490673399088,-0.022134583736297397,1.3555630528131488,-0.17520225819492022
77.0,4.024212727252376,0.7061091525535733,-3.3181035746987617,-2.4108061046604132,3.6357428028821963,-1.2855438381024964,4.0529391342971515,3.3483244654286115,1.4919938637963825,2.8954166242462436,1.1517834492739742,-2.269898258553958
78.0,8.041412483350474,1.8646173628449825,-6.176795120505519,-4.9162847098798474,7.147687442761291,-2.136975533943582,-2.496998494024086,5.957424455695491,-3.820432178877936,2.6953292002007747,2.569171967515588,4.201796075625927
79.0,1.752635355065955,2.5289232416265355,0.776287886560503,-2.1796440242445274,0.5242401854736873,1.5960395866141384,-0.611550241443619,-1.2032844603906478,-2.919160081878712,-0.350500683473559,3.7064487013748457,3.600853785007542
80.0,0.04963743888791439,1.0867686789309425,1.0371312400429327,-0.6041334623996715,-0.5377109696822654,1.0903883914451364,-1.8175907374431226,-4.313419222500079,-2.6793603812125215,-3.166677761904772,-2.0186684818917504,-4.449698186839916
81.0,-5.285071088441926,-2.4790253287944495,2.8060457596474015,3.928204706548787,-4.090967248299714,0.12102691059592896,-3.127180784773948,-5.494606986877518,-0.8558294353408966,-3.5090209780306045,-8.665928155707427,-0.598886823458413
82.0,1.0430725608287337,1.5968056283130503,0.5537330674842851,-1.2695423577610327,0.27539730438262033,1.11936673306676,0.06377673647564419,0.743443519669023,8.069522718195946,0.6539677194675155,-0.7443422721357438,-4.028636623376229
83.0,-3.761262276631874,-1.139800069977013,2.6214622066549103,2.4272402491396634,-3.1645085863960216,0.7126593799056321,3.1953653491060345,3.719195151361944,1.1578966504670651,4.461293390814836,-2.43963770840253,-8.929042869169312
84.0,-8.42445117985921,-9.67971290543849,-1.2552617255791998,9.033942864231554,-3.6407927614498217,-5.412872172569441,-0.9758410917180154,1.0526495421550788,-2.337254248239341,-1.457160220494834,5.933397663865325,4.5170292776955545
85.0,2.962123111434795,1.9826011942326107,-0.9795219172021221,-2.4862675806341783,1.989970408695296,0.4782425572249176,2.9945743035988457,0.09708671420944182,-5.570760556845365,-4.242422801788507,2.5182001413727115,9.233314989208568
86.0,9.245350735441539,7.369947515390024,-1.875403220051497,-8.319001663450205,5.57817689221661,2.7214070311973635,3.6924169716367894,0.6479421845279553,2.2867557230231945,1.8260357239960743,1.0213531389430242,5.291430205371142
87.0,7.507718441272738,5.4763483080676405,-2.031370133205108,-6.502755083076616,4.78842227366184,1.6912075946601521,-0.6157274366389376,0.3952681234000737,1.9600284738924776,2.1663346107549644,0.3251447167340482,0.829830262925769
88.0,0.9211788854858125,-0.8988884035052147,-1.8200672889910439,0.055764314736916454,1.3922994248387717,-1.3189648399321956,-7.881317704206395,-0.18119034039130694,0.28877501410629225,0.8647014547710878,1.3380247735486193,-0.3442072572363195
89.0,-3.247824490458331,-0.6714910750965299,2.5763334153617867,1.9452230280655807,-2.9661704220610905,0.986150233708877,-1.9129761796677855,-2.311847456208674,-1.1319820494232211,2.506301992993613,1.4631076467835824,-2.1148990383772865
90.0,-7.704404784788249,-4.953415527707463,2.7509892570807843,6.310579368707464,-5.201543504423906,-1.1512627631754795,2.19761494594661,-0.025680038621394452,2.232368452841994,-2.6288531284853445,-5.177381587917269,-11.136068529771658
91.0,-6.034848944530855,-2.166126776320459,3.8687221682103945,4.077104109782333,-5.005398245664844,0.8777638316562903,3.61273017087455,1.506046023325282,-1.186500829089273,-1.0255418971325092,-4.366813377106606,-8.21773476159253
92.0,0.6987060347553471,2.0824177156740764,1.3837116809187373,-1.3410542599125428,-0.3208257499141993,1.760449755868887,4.216888773920204,-0.11501217891138049,-1.3892770316326108,-1.5332476834223245,-2.7762831690300755,2.081075480846667
93.0,0.7070181906941094,-2.7037940249953083,-3.4108122156893885,0.9632050514344426,2.075744309726485,-3.1048046925138353,-3.699749977488927,-2.9186121922039625,-1.593294015703723,-2.5590378304640224,-1.7002481920032333,4.57795405974657
94.0,9.289857580670583,3.5537379871528447,-5.736119593517705,-6.4619742243874025,7.525102717933892,-1.132463954305968,-0.730816541422382,2.100723726036858,-1.3795890998159805,0.35892029923462654,5.4240340038984565,16.352950242703002
95.0,1.189768532899616,2.890298955199987,1.7005304223003925,-2.0045094511347386,-0.24646171827748287,2.3406242833350444,-1.0966620290189009,1.338335954691256,5.013515820287498,5.502916754780417,13.536156613328673,6.215494812159466
96.0,-2.668514030232101,-9.08480884348058,-6.416294813248503,5.9115538029287045,1.882041700796851,-7.697320474960156,-1.7234480604069415,-0.991255587037223,2.670781520036207,1.1085008302584916,4.184093341574798,1.7106157396015558
97.0,1.7392288488678487,1.2748365967338446,-0.46439225213407326,-1.4707645047694633,1.0332827377333715,0.3864086286394608,-0.8270148630329832,0.08932598557338944,1.1997638967637199,1.8580153945470854,-12.752742537761854,-17.89907736775212
98.0,-1.8925708126618377,4.390774889389232,6.283345702050967,-1.289376337558026,-4.07278497681104,5.321935914689542,-0.49457819225455574,-2.314197456259479,-7.275372241676436,-6.687441221170393,-12.924397458306661,-15.202911182401529
99.0,-5.5343378691792235,-4.018269559682185,1.5160683094969607,4.737778047184078,-3.50252649127869,-1.266679590985774,5.812679264148432,1.5195130922891316,-2.5233198398706715,1.4625629071409136,1.8984122739467137,1.9325068569314592
100.0,-3.841670733010958,4.377191557498968,8.218862290509918,-0.3056018047908562,-5.998414985610724,6.277974009145408,3.557621885362931,4.534215585350954,2.099401230691221,-0.8777682117461996,9.439656989524172,12.116962087340667
101.0,5.050235198717015,6.93952841434138,1.8892932156244162,-5.953907325491985,1.5428406115040514,4.387450399882159,-2.263570370513498,-3.220889678450333,-1.4741460908271589,-6.114396832894065,3.107359301682045,6.708138281175585
102.0,6.059092014580159,5.773027706521004,-0.28606430805907546,-5.874486721082505,3.2209666481560424,2.7884649150050347,-3.910576156105022,0.11548056120645811,6.258110616227232,11.292906145821538,2.297420704298504,-1.2022790812178812
103.0,4.23634283287942,-3.5955246141614574,-7.8318674470408025,-0.35540326433372593,6.007001989207835,-5.672988062452336,-2.4338130780209295,-0.21518770852513003,3.6097937391698007,3.787123970729046,-1.1868311777467493,4.410626848872006
104.0,-7.5371936457703725,-14.081134661622166,-6.543941015851766,10.85692378699595,-0.5256198452879985,-10.351069603257052,1.5681688409524817,-1.335775558354173,-2.2289165854031765,-6.897745207305985,-2.5769056175959637,-2.2365539916971855
105.0,-0.42247432241823013,-8.60012007136751,-8.177645748949312,4.485345568483614,3.8418734410207978,-8.345830768678134,-1.3084419637376394,-1.7549997393154038,-2.2114829451674685,-0.8819017207342901,-3.049530710676202,-5.720378140437137
106.0,0.4515913809702983,1.7868506389790824,1.3352592580087213,-1.1405631989224534,-0.40856175177747805,1.5295690872114327,2.647304436308197,0.33976394194048887,-2.4760033413611087,-2.7754703004029997,-3.782952121508413,-4.7736177791058125
107.0,-1.319722920512287,11.717662606750071,13.03738552726231,-5.21763006307025,-7.155523269095781,12.349049838998736,0.06316958037921117,2.2711998407779435,-6.130230358081465,-4.209477051153955,-2.6554106792577885,-2.049217961144737
108.0,-0.09252912132525692,6.138209534074403,6.230738655399674,-2.9629261576508177,-3.1469824481752267,6.23442040159643,-0.8186837682296347,0.844225156648672,2.1846732674376295,1.6909871915985353,4.802766578232674,0.7403382430250749
109.0,-0.7622556085491287,-0.6690514058783625,0.09320420267080998,0.6937651921417882,-0.41830900694088236,-0.3212253714802067,1.0925936410125547,-2.261707286116371,1.3592840821508319,3.2133692468647688,-1.1761434696675055,0.8810492389979021
110.0,1.799203501716907,-1.4057970430964346,-3.205000544813296,-0.22358339162292484,2.5094866171863486,-2.3464913313366345,-0.6263932223831968,1.946370144385702,7.008241931500862,6.494471147991469,7.400589759792777,7.102864022119455
111.0,0.09352853896990632,-6.094330012700104,-6.1878585516699935,2.96823655119381,3.0697313876830816,-6.112170409146257,1.5243154116895785,0.9324308780520466,2.6207921680282626,4.0159030283913335,8.461035542754383,5.759276345640327
112.0,-0.48410597145991674,-3.488683215636634,-3.0045772441767293,2.029208229153338,1.270010674538577,-3.224364177978581,3.2251485074331057,2.102155568622031,0.7712916832696244,-0.6362978122406961,-1.7331371969339378,5.143406496158445
113.0,-1.7932134549178473,3.0190661549354765,4.812279609853303,-0.5711760836311781,-3.2898862177819588,3.935934912109177,-1.1178850734618309,-2.36626121563638,-6.546857912749079,-6.704729920464918,-10.833835641260658,-13.357692277009438
114.0,2.8464354985779954,-1.5079451988336006,-4.354380697411617,-0.7046498812422942,3.617329631724603,-2.9858498501092523,-3.3815973715977234,-1.6669711343233564,-3.131002933122987,-2.5046523977658683,-5.439125658084204,-1.7010739937488015
115.0,0.5613558438359446,2.173787818242432,1.6124319744064688,-1.3213822216765063,-0.5036855258634019,1.9259967625649685,-2.975750943772697,0.39004123862850104,-0.31703249912586795,-2.2441707560174526,3.910558340241532,-0.11701025247761976
116.0,2.097327079364952,9.438448054761551,7.341120975396604,-5.798548333010488,-2.67343019242406,8.433916289457155,-3.135203389946902,-3.6606816479291844,0.6437796544510931,-2.3588032223399487,-3.8662230429006836,-1.086765964737506
117.0,3.3408218887128163,-1.11099953400847,-4.451821422721287,-1.1465816981266135,3.928478848440856,-2.8060666669121717,1.6324045681913257,-0.2084310251555037,1.8201743772598242,3.027958110532854,1.5932298404944376,0.7922600936089069
118.0,-1.7343169179700424,1.4991737451806655,3.2334906631506986,0.08118311983166548,-2.448296022372352,2.346726549130758,4.423850302047849,3.451293859307445,0.941987790782723,-0.9592594344197112,4.501852557018351,-3.767174893067774
119.0,-10.29683649892021,-12.356038067443816,-2.0592015685236067,11.361095621510758,-4.160853512106694,-7.229342653575574,4.131469875565943,2.9117343594216867,1.1746800226590075,3.7344474206751093,-0.3988445323351115,2.5760720779382624
120.0,-4.515672204846448,-6.778093966561108,-2.2624217617146387,5.672701279077648,-1.1700816006818722,-4.5512550900634645,0.35933069050574185,-0.6553786902823799,-1.3079567644089225,2.0792666902920125,4.152548406491942,9.944822775834513
121.0,5.29732521280388,5.463585858855275,0.16626064605144864,-5.362498478478446,2.5976234032234418,2.8485746319660152,-3.363090465791974,-1.853181883216903,-4.1997758106612695,-0.7142660425003722,-1.1253317071391207,-0.39560304783978584
122.0,4.1597328785995344,6.043993532012551,1.8842606534131319,-5.08918110848405,1.1663439284494748,3.9826589100394623,-1.6042419547330622,0.2562765434005513,4.341319975481067,6.591753936776827,2.6188575084998424,0.9125437181463936
123.0,6.197082360234633,2.3870356571824525,-3.810046703052057,-4.360029551174227,4.951330100258169,-0.7051693608186715,-3.0005908842613493,-0.174518624427495,3.942509149096028,1.743528039560562,0.8897198371194508,-5.900764212988564
124.0,1.2094031265377407,-0.12386296215063108,-1.333266088688315,-0.5304276229339546,1.2982409314481715,-0.7286817455017187,1.0301215808279425,-0.5930917740879134,-0.29254900129392314,-6.8774416987421025,-8.043581617513942,-4.926315850944407
125.0,-4.273573839967602,0.29092598262836333,4.564499822595944,2.0083579474742477,-4.389323499787574,2.427873756193823,5.0187855083722415,1.5213854765217887,-2.081308085395462,-6.1540891952117125,-2.9524592125784657,1.4712632221749717
126.0,-1.0602154407394053,-1.0512475970564559,0.008967843682882393,1.0799636722706445,-0.5009995632707898,-0.5148084933825774,1.150411084858905,0.6965503853186964,-1.9895452901065458,-3.747879724181895,-0.12745549171714865,-0.7670123021872225
127.0,-2.9345670299099265,-2.627524808902432,0.3070422210074102,2.735350226097905,-1.6631322609402728,-1.1439272529065498,-0.5174979583363449,-1.5076112249624454,-2.868426988582703,-3.7525056525415543,0.7804319296363285,1.1735877958733043
128.0,-5.381289714416278,-1.8157141802081798,3.565575534208057,3.6408958996639877,-4.5158624945016514,0.8238498158198424,-3.003619284157042,-1.650552313182081,-2.8502100925083047,5.561660916424014,0.34421791735297336,2.7550248044115673
129.0,2.501991210538659,-1.3029023756788847,-3.804893586217535,-0.6272522050819087,3.1861454271730136,-2.5942542420672936,-5.951805888345029,-0.6985853405863862,2.875060862570426,6.93526930867149,5.377986495464827,1.6142475080674428
130.0,4.384040288582624,0.17782246415856084,-4.206217824424002,-2.301819761429238,4.243204715633687,-1.9669126966298769,-1.053895458592932,-0.5936818868911982,2.8544969937064453,5.021271724627056,4.58420856994854,0.2789250176970819
131.0,2.8499905728363086,2.395021274018386,-0.45496929881783954,-2.5605465740363753,1.6739214530589699,1.0238046195689086,7.390284094598174,4.018189699229908,5.41372683363529,2.767291631433842,1.1904410793085258,0.9353595996326587
132.0,1.6126755893925282,3.821455758525171,2.208780169132707,-2.7329560009911966,-0.2783604989288133,2.9939127437648687,3.4202344837587635,2.072183078056351,0.5653390343998312,-3.6836696300682443,-3.2186586201606575,-0.3481064620189131
133.0,-0.5409327291411307,3.9423221318817507,4.4832548610229095,-1.7187429753753598,-2.488387626323795,4.192312069027467,-1.5174472168479225,-2.7959952396113437,-7.418719916391451,-8.118279829730506,-9.608589434180715,-10.059179452840885
134.0,-5.469907957787597,0.9525331441504167,6.422441101938001,2.2363407103532955,-5.9126095730986385,3.664573922949893,-0.4530923375402872,-1.0880589772193061,-1.2028351576517324,-2.2954129226681816,1.5744143189988424,4.421654744150084
135.0,-5.679369382542999,-7.754266346409146,-2.0748969638661663,6.689664348842122,-1.8338548480434822,-4.863942651404114,-0.6231776537579736,-0.7303067228629789,0.5707085085383814,2.917191135414607,-0.3141708214517116,2.7052177597485514
136.0,1.5638293623753783,-7.728326761639757,-9.292156124015154,3.1304160797867233,5.410090506531269,-8.545151301013373,-2.1013257215885837,1.6289851136599807,2.5738854431142655,3.221904189551898,5.02909091147967,1.4533368123628143
137.0,10.772669453592885,0.554804913932994,-10.217864539659892,-5.616232607788747,10.48763185787022,-4.873028311950005,-1.4621057395931454,0.4909320139774226,2.8954391399478703,-1.5983532387397066,2.952777257462292,2.6656643466331
138.0,3.3420302573446956,6.415052890774566,3.073022633429887,-4.907436839279196,0.13137643558534373,4.7769067547174995,0.417279366530541,-0.6755400039836836,-3.490631802003028,-2.0711744113221124,-1.2696312991987093,-3.6591643144617896
139.0,-4.384279743607955,2.2023713023358398,6.586651045943812,1.0663819607480214,-5.490121858897851,4.4266743471896195,0.4111038858445678,-1.388549953624978,-1.5688245881369958,0.22964524967003735,-3.753545271062265,-1.3754587027294003
140.0,-7.155597166467263,2.613970356583812,9.76956752305107,2.2506218045771034,-8.473130913671218,6.227206236296042,1.4421115993299318,0.42576780618634735,0.09734744971027487,2.339170854001588,-0.1187005844797393,0.20581866099747614
141.0,-2.649512244327602,-0.514761214482373,2.134751029845196,1.6430381746588996,-2.410137159758694,0.7728913738892951,1.225193079108731,1.9830654129543317,3.069842652414117,3.9104461019299093,-0.7546600195009074,-2.145174148739631
142.0,1.5057758764625744,-3.4582544243403923,-4.964030300803003,0.9570918823037294,3.289304033457818,-4.241051018657082,1.0293576054558076,1.3169406193711837,0.7556356334766938,1.0425302190977732,5.247437948051971,3.3934042317940474
143.0,2.1589305565277925,-0.32277718742078454,-2.48170774394858,-0.9427824505446873,2.370901713789512,-1.4260129686314258,-1.584736922045515,-2.710255208130805,0.44693083266674116,-4.226161519155624,-0.9497010765382439,1.121119353541617
144.0,2.513283704262866,-2.6462653559737945,-5.159549060236609,0.0325702564093755,3.806600943721138,-3.8442819081510646,-2.032346347192968,-1.8889998924468174,-7.079380122758419,-3.825029442578993,-2.899720227619508,-2.168079116991927
145.0,2.168141131362799,0.6851497011419634,-1.4829914302207525,-1.3930088323825947,1.7945770549574034,-0.41843991742194264,-2.3671291342160163,-1.0261092821426812,-0.320483924901664,-1.8396306183661624,-4.014679521822549,-5.44280129688056
146.0,1.4023312234345868,5.841652926067562,4.439321702633083,-3.5993213244098547,-1.5521123172970006,5.118770876444865,3.713637919574534,3.136083215672949,5.825236950224093,1.4056349062176159,2.6465121200634325,5.8919520373136764
147.0,0.6948587453440723,1.4813527174951673,0.7864939721511854,-1.0741632559370276,-0.005775429720834779,1.186706424135033,3.0099978770240265,2.031730751705804,3.479524738180513,4.85936673689035,5.1946366704213105,8.321985733507821
148.0,-4.523652777993089,-7.5881031939753,-3.0644504159821864,6.064630193198764,-0.7753642271411034,-5.357556402798856,2.216789769243656,2.486593128337503,-0.5253702510816007,2.8384942357682394,1.8481798977208697,-1.2968351244107983
149.0,-3.0773553098973023,2.9459693621818213,6.023324672079075,-0.0054637451968369,-4.524563322813518,4.448004386322842,-5.420727800313748,-3.6727574074783393,-3.988879132512243,-2.9472987117691507,-3.320319816409219,-6.721145449242241
150.0,-2.0896654807957553,1.33192826675563,3.4215937475512876,0.3892108385836084,-2.734891044365142,2.414292478262127,-3.824093316713264,-4.451786949492326,-3.5908196642331385,-5.006124356425104,-7.890716317393488,-11.540963143203937
151.0,-1.9002261707632875,-7.190281249546611,-5.290055078783425,4.561674028369853,1.7146511973169263,-6.205951729167308,-0.36196632578789045,0.38710248419342497,1.0977153137885347,1.6204827339678505,5.208645079130398,5.8078381670685975
152.0,8.91539734250933,-4.120261774609374,-13.035659117118731,-2.3727991655676406,10.920197586410247,-8.624552048738256,2.6041934034574377,4.5323146227717075,4.1880453723592055,9.508314954669089,6.975751040293418,8.229873344890443
153.0,7.9259754549757275,5.5900984726205944,-2.335876982355054,-6.724233121805325,5.161866684768126,1.658057129673753,0.18494401300350027,-0.3471293676909972,0.07140471880829002,-3.5729370834409404,-0.9179839771749396,4.418011558891315
154.0,-3.883221485213074,12.259624102014524,16.142845587227725,-4.22530069992272,-9.972847476833806,14.15249758496174,4.01660638965814,-1.3525194441893622,-1.8259301679233209,-6.508673134073897,-9.883064025841888,-4.537565362125528
155.0,-8.84785803408663,8.177814863081082,17.02567289716784,0.30299081942075845,-12.96710538032294,12.63065768332456,1.3529738765040018,-0.0012590284466795776,-1.6690389722035712,-0.8948904810728808,-1.8910257642356862,-11.082458518858735
156.0,-5.451151752088249,-4.5468628482345075,0.9042889038538862,4.9685889136762365,-3.2033540157054423,-1.7937968544357208,-1.0066662842559029,0.19214300204420454,-0.293919093700197,-3.053870844358989,3.847140269670362,2.524016804719115
157.0,2.7517318780240445,-15.390416186453022,-18.142148064476913,6.36630902405056,10.421089885751861,-16.819155694704833,-0.8753834111789445,1.2811610694873496,0.5723717496739177,4.714260548022784,3.0409429047388237,6.994052580673374
158.0,4.239931761372161,-9.292366468067137,-13.532298229439178,2.570175974530164,8.93400322456988,-11.387915950602734,-1.1388458650186424,1.1536962729616071,4.235281119707785,4.512405256447831,4.906408536400017,8.831238734955324
159.0,5.683404890147917,-3.007840838197999,-8.69124572834587,-1.3756546574581605,7.14815013450745,-5.82601884029948,-2.810840257250764,-0.5856434496056556,-1.9494191791562476,0.32175234542924125,-2.417751431404466,-3.014979534628223
160.0,2.982881827411176,3.4092488742846125,0.42636704687336957,-3.23584119613158,1.3084171723703464,1.8625659085579112,-6.190975307033208,-2.864607405592627,2.112372565705477,1.0572385625423808,3.448137585696681,-5.325577060276789
161.0,-4.277609565205059,14.817919230051846,19.095528795256755,-5.231285272601179,-11.66482479584788,16.98109972806031,3.9302798409880313,-2.4623132018570986,-0.2778549049180165,1.2230797157464774,0.8511161873935833,-6.045029013643382
162.0,-8.49640750706786,13.85435220225973,22.35075970932742,-2.638508827181095,-15.407833386128795,18.12825286605158,10.437609126466883,-0.45970912529394403,-6.5733487274471685,-10.4573008560789,-17.71678077938112,-2.6465851358623755
163.0,0.41672619996561977,0.6350167631827492,0.21829056321701756,-0.5615799200875158,0.033234279446709536,0.45327761324905147,-3.9679393653498094,4.960260770645834,2.93581019091545,0.2961855173659105,0.8542098260245492,3.444472870273528
164.0,7.121178648905532,-9.0437838809296,-16.164962529835158,0.9281476539336851,11.655830147572619,-12.65692836114473,-0.3222169303407231,5.213862578313156,2.8307958422261743,4.271519437783673,11.562986989188984,2.3256498262133056
165.0,0.8188124239782946,-12.563898374191409,-13.382710798169644,5.919806668685507,7.1161396466368165,-12.949423396029312,0.05352942660026028,-2.3441515462026103,-0.08958995470187081,0.4440454875825468,2.2265111395458277,3.255360679392855
166.0,-6.004975976863575,-7.65060061585002,-1.6456246389863374,6.79671603281344,-2.1595540305546352,-4.706760741253204,-1.8365664314062404,-4.162264174621813,-7.6472364536953945,4.121162861593118,-0.23281409553917598,-3.0873243326922855
167.0,0.8276802034640136,1.7126442252307807,0.8849640217668799,-1.3018964585921293,-0.08103998091371234,1.3151224559973977,-3.194432155826311,-3.66095350583422,1.5941183367402014,-2.2410425147631776,-0.15606498959496173,8.301691153581668
168.0,6.1537929360816905,6.295130432476247,0.1413374963946359,-6.178699456256472,3.0394879837246753,3.2327457487206437,-0.46799829902182055,-1.182910661622211,5.422047715329588,-1.3192118182990307,-6.877597409785116,-5.979195087453478
169.0,0.9123262438310258,12.509591724292843,11.597265480461834,-6.666636254754881,-5.302567559118448,12.069643687217805,3.3977282753097775,5.83063354887192,6.36148766598438,-1.0634578558937302,0.11091863996726614,-0.14984923457955945
170.0,-4.453594449510078,3.190518478247995,7.64411292775802,0.5955521511987447,-6.082246879279632,5.438900926096833,2.0454107783425037,0.5510321652121797,-6.355554280830437,-3.8097947603005635,4.4108892305315175,2.3163713060306312
171.0,-7.86777922201256,-9.260365733342862,-1.392586511330399,8.526202859518074,-3.2673485771896296,-5.2974234300045575,-0.9913905780638399,3.214502888006811,0.08456334211571681,5.6643433577533475,2.0142309749517335,-9.389886361701858
172.0,0.24376648987434946,-9.603606400900466,-9.847372890774905,4.718441202375161,5.017534981930943,-9.768420358936837,0.721460995956241,-2.469179133221125,-2.886046984478479,-1.048003396662021,-3.1292056138876156,2.767562917567923
173.0,7.219515907472639,-2.9580764843185996,-10.177592391791281,-2.1735656796853142,8.74943105583931,-6.607555475884415,-4.13156164268085,-1.871460880692264,-1.9542097400628715,-4.1130894850999615,-4.490424729832845,1.890075947138342
174.0,5.861507069927322,7.327269966859239,1.4657628969319552,-6.560713952563849,2.247874201455004,4.4335749951826315,2.3346279082799697,-1.3369783965703335,0.16653076123449373,3.1702938024548697,2.1385611207840864,0.17860232178854019
175.0,-3.667351386632377,6.144211909237457,9.811563295869876,-1.20571714855181,-6.769780266786139,7.929443188987225,1.8721977122586124,-1.9591035025559336,2.678762895840098,4.067769201550554,4.616016934082483,4.169028169677304
176.0,-1.2823217358858838,6.511202202528937,7.793523938414869,-2.6593524052237,-4.570408560806305,7.173484358833408,-0.33227936048728945,2.502887842326129,6.027429370802804,2.3601151504836575,4.073321295020251,2.2104803061493996
177.0,0.5136020474021192,2.195423200154228,1.6818211527521347,-1.3957356862617696,-0.6192188628263313,1.9515672762278142,-1.6103043056871105,3.2437064141728196,1.3303224562406557,-1.177233677049117,-0.923489967082205,-2.1443563475374257
178.0,0.7611408115347134,-8.897949288378125,-9.659090099912833,4.112062564303479,5.251009602975521,-9.269501996063928,-2.2502158530966136,-2.0503947809392096,-4.843672780542068,-4.333723281709851,-6.994832211712639,-4.394653216032006
179.0,-4.07266795916278,-12.221668840436502,-8.149000881273729,8.198436417167924,2.0766473220084514,-10.174146400950452,0.9800600228027765,0.5323831120033983,-6.120893770158385,-3.727886919970171,-1.6996919751799138,-0.249503248679821
180.0,-1.1710226638493204,4.396637372637793,5.567660036487107,-1.6330582083855338,-3.4114029762923335,5.001416035684685,5.064261647922851,0.1738173308268411,-1.74901399808408,-3.0176406381414442,-2.9794237862816484,-3.843194356510207
181.0,2.6718173564197185,0.06302887380728117,-2.6087884826124386,-1.383191081817152,2.6757509809301094,-1.32049642379534,-4.323224616115834,-3.697538178191337,0.08827961184214772,2.8472027911401216,1.5980162127970852,-0.5260683284977309
182.0,3.5918047720043216,5.511760860760776,1.9199560887564338,-4.567888713232679,0.7915900857969025,3.759369448868477,0.08021093752562236,1.7525687896717765,7.19367946615442,2.753059052781113,6.007721111448752,7.174170688852955
183.0,2.3299031625768034,5.874979213325368,3.5450760507485546,-4.1245939133187575,-0.5743491678083772,4.6843736487275915,-1.0898789918814518,1.9631650091858603,5.541347915168215,5.745642075396605,5.243767128792058,6.6464295213570805
184.0,-12.267015695411093,-6.653035049912755,5.613980645498341,9.505672038357304,-8.987457037634943,-0.5406466983365013,4.5993388539572235,1.5736765839548796,1.2066070669312392,2.5699965619964615,-0.43086775298681346,-0.159369716599016
185.0,-5.631045428421979,-1.85219761712604,3.778847811295971,3.6950468809736083,-4.674696652230127,0.9411395474382108,-4.307504433806149,-6.316577184755969,-8.93244008485288,-8.1100183818709,-11.358583234572208,-8.50480454619975
186.0,2.71416614062792,-1.8947161623845803,-4.608882303012448,-0.39026200298085767,3.690467697029001,-3.200713709064701,0.9505934873655741,1.566355443334611,-5.435118936278055,-6.139400382066497,0.8619470777181455,-4.583460628702553
187.0,14.426231674402167,-0.5314629775128541,-14.957694651915029,-6.936691376325013,14.641350146813508,-7.779788932907637,2.028604720717411,3.5273073841313165,4.215030821587816,6.426642174928334,7.159325932994095,0.9151008741238607
188.0,8.14020478557862,3.401145028102289,-4.739059757476391,-5.762695602063001,6.467509530771428,-0.6324268531583672,0.9120689568908245,2.3559264286335297,3.4771364488347842,5.404990858147297,0.9274345618044391,1.8426162451418224
189.0,-3.860784401697016,8.293616299809097,12.15440070150602,-2.2046717029835285,-7.979604355745762,10.25610640709451,-2.4109015764034156,-3.15477651900619,-0.1761547864190629,-3.1571439948171967,-5.048440679469551,1.274426018115595
190.0,-1.8059816383265384,4.969048347303742,6.775029985630201,-1.5608513796322012,-4.341049465195097,5.824572627965507,-1.56622160735607,-0.6601716968602489,-1.4408046537756682,-2.1210561649097452,1.1752191297836347,7.175255097105912
191.0,-0.2333073762310942,-4.77589732825973,-4.542589952028674,2.4581753898307617,2.18301905758355,-4.703878597959704,-2.2078823584675242,-0.8720117335802464,2.796898364288288,1.714084333920663,2.9133817858150772,1.9701217129707813
192.0,-12.69227545559018,-11.223050967085298,1.469224488504911,11.922853658522822,-7.130918405082765,-4.837103564824236,3.311565224320959,2.209289648425906,-0.22851434476260513,-0.884513352569628,0.12885241868806485,-0.05171844633775646
193.0,-5.590354263189676,-3.7193208143182197,1.8710334488715574,4.708213000142321,-3.701642981912947,-0.8771741041736023,2.484739427740817,-1.588788639015672,-1.1653685690132376,-2.491621079826971,-5.028594822704758,-11.483648448794082
194.0,-1.3960191043810473,-1.1451816979504366,0.25083740643074703,1.2513025333162209,-0.7935271536857302,-0.47215486768165205,-0.09801708958870359,-2.096365437727657,-5.049766341551663,-4.271068493492957,-6.061283154983437,-3.305453565928186
195.0,3.580077313353336,6.481206937756312,2.9011296244031093,-5.0474549083583025,0.3703495613557619,4.670695618080423,-1.2242502067146033,-1.3342930486228102,0.34728858350802083,4.205566159298806,1.592820874420023,-9.468699004465849
196.0,5.937438559032337,-0.2536578951377484,-6.191096454170026,-2.780642307339061,6.01688982498702,-3.2421389501307223,-2.5312895408530536,0.046118804692171916,0.982083782912595,1.9191362331958626,5.998963458435699,8.646562582651592
197.0,5.928799525238967,4.220976613987034,-1.7078229112519727,-5.095475401019865,3.770355044302878,1.3118754978856138,1.6421034190905204,4.171536048516039,3.9846336051397584,3.927009425740391,9.035441194983228,18.372669457385904
198.0,8.754276123626994,2.320586039725821,-6.43369008390127,-5.562505225927884,7.622937244898244,-2.0875370097275403,-1.076376252739447,4.944843481015648,3.206803349740026,-0.18511689645070395,-1.4735435225723483,2.189955476218974
199.0,1.3367979979738025,-0.5035568620753927,-1.8403548600493143,-0.44641794278134195,1.614777214721626,-1.2127037432559673,1.7665534692446192,-0.02026583928321557,-0.9831455659233783,-1.2490342839268562,-2.4210522731701998,-2.5391133944939317
