Time(ms),I,II,III,aVR,aVL,aVF,V1,V2,V3,V4,V5,V6
-200.0,-10.865335799372858,7.921499384799906,18.78683518417267,1.4970456443982512,-14.846006178379735,13.309343151870182,2.963810093841418,-2.1980647535997226,5.94240370841842,2.5893489362033186,2.962736143701774,4.7142037254289795
-199.0,-2.159835928578432,-12.11380862618798,-9.953972697609668,7.160213111865011,3.954665792781692,-11.002996834926527,-1.4712017016169154,0.7428917411121053,-3.0129048317947054,-1.3637410233662537,-12.079658140014374,-6.223732158386658
-198.0,6.53870514451256,-5.821825156620804,-12.360530301133455,-0.33485434093866384,9.428011286668776,-9.141484958754779,-0.012380100162489693,-1.9547880858600182,-4.354604988894922,2.114608021201594,-2.7559496150981753,-5.7294857019447045
-197.0,18.774021937774712,9.781877398594617,-8.99214453918012,-14.253037324136798,13.940995564259094,0.4221275688474053,-9.264082889050604,-3.613815216272958,-0.20289109857449494,1.9812522913766424,3.6259499462478484,5.995596399037766
-196.0,6.5792882865956726,15.949444797266402,9.370156510670808,-11.317135471881098,-1.415095279319753,12.68766952839449,-3.5085352021994494,2.8218810798276177,8.89763252210243,2.8798670186206228,3.8074289123468095,6.6851033124144665
-195.0,-16.711300814237543,-3.9483094750306718,12.762991339207032,10.276661001763237,-14.756883907386245,4.43755048645001,2.367829231868067,1.7046942275201054,-1.697226838217062,-1.7094056829770907,2.552229618053266,1.7214092747877205
-194.0,13.720980417886015,5.880918694243752,-7.840061723642078,-9.777457805741367,10.75787044313083,-1.0247667731988361,1.5578322443276398,1.526870816021292,-4.820203448165106,-3.187741649175015,1.8151512048489964,-3.5934372668283743
-193.0,6.118277733334804,-0.7994786209753417,-6.91775635431004,-2.6390702482702078,6.4890209495150994,-3.9005645615858495,9.041835864243877,9.208127379176823,-0.2879228779191365,-1.0158707038070989,0.6569843882942272,-1.4900212471135144
-192.0,-7.2923313221292485,-20.67131089773666,-13.378979575607476,13.99907467996155,3.0840848777698646,-16.986188020031587,-3.505985650578058,-6.71060125737697,-9.85874373170314,-7.393521765458292,-11.44164888563555,-9.468433527902164
-191.0,-0.513865052114534,-9.086239230643544,-8.572374178529266,4.815139845261113,4.060260183223195,-8.789829318431835,-5.327125153229838,-10.737418303687038,-4.011088183529133,-2.7889244287476886,-8.88686862017308,-8.57878219636578
-190.0,-13.900541783228432,0.29704786375058223,14.19758964697871,6.815641613656,-14.105076050986513,7.206957793078183,-0.4691718190896297,-3.0071507848937804,7.300131922167552,8.214683290089221,2.1659058890971274,5.135043747612526
-189.0,-21.3424129145876,7.2058924105841315,28.548305325171633,7.002586218997775,-24.927595294685215,17.834561600070796,5.872206050589044,5.45997334213013,17.530111162084467,11.571471781708496,14.847900381969522,14.197164251372245
-188.0,-3.8784458209147323,5.453356425841505,9.331802246756377,-0.7756016309187701,-6.5883095671248135,7.426335859842422,5.7065176638432185,7.453339292157509,3.7070956240405524,1.190760732153711,7.667597952942418,5.363058382841836
-187.0,7.393251014432014,10.42483555417125,3.031584539739524,-8.899292092144519,2.2001465532079445,6.759989403957123,3.287918340946653,5.240498236462828,-1.748256811876439,-2.636668176869406,0.19029589197491426,3.6710983055759225
-186.0,14.311733999290949,-3.19207981036646,-17.503813809657146,-5.553041627965364,15.931375674492827,-10.31728278006535,-5.137312223315435,-4.639587171304373,-13.823824266823518,-9.218722185678407,-9.133724633561894,-4.976670442695581
-185.0,23.07947253837068,10.462022676911307,-12.617449861459347,-16.767386442662147,17.79737998095174,-1.1261151577799664,-10.247649112700369,-1.8663715836096502,1.7528764393817138,-0.36914660958999157,0.022843760725369755,-3.6253642905948906
-184.0,20.019777765965134,1.382817148554269,-18.636960617411034,-10.70124600344469,19.279730234374313,-8.67523289198067,-1.7201430201764447,0.6647261103722184,-2.7319388341594917,2.2375541873653315,-2.463507922037745,-7.300351719816746
-183.0,2.8423680219828196,-3.1914423011311754,-6.03381032311424,0.1719737500161428,4.468916483206113,-4.581326318238326,-6.224987741034715,-4.693485027800165,-6.228106625858996,0.11740487699524993,0.549560916389968,0.06358977586734049
-182.0,-27.147569878205687,-28.988906744265034,-1.8413368660595357,28.064285059424392,-12.622086551677002,-15.382493835167168,1.9772468520560649,-10.792491705218831,-9.98620186101512,-11.016182078870397,-10.76108532875832,-8.583310084774167
-181.0,-9.711898918130785,1.6156426879506487,11.327541606081441,4.04448199125282,-10.565913479796773,6.427521962806855,8.871361243336974,6.768006652996062,12.293839304711508,3.5653065878833106,3.1428681115019166,5.2165447720956415
-180.0,-14.833843711203494,5.1594413996289425,19.993285110832574,4.835936444991213,-17.376704359210045,12.613518156267983,7.961158180911375,11.149396703241848,11.938906878235667,7.4450172029435295,6.049233054335358,4.730627495438345
-179.0,-15.064465793521157,6.7130730275526815,21.777538821074085,4.179069973750381,-18.376827923698055,14.284510241303717,7.503848600009736,2.1331079658043697,6.742488803197826,6.345778748027297,6.535790619167788,3.8098830104753834
-178.0,4.411354941693878,4.988794248002826,0.5774393063092074,-4.689942944268794,1.8914582536082083,2.7440649615906985,-7.157437233675827,-3.1128081507603924,-7.15891882154352,-4.180911213954332,-3.5350330037941076,-0.11086754031104151
-177.0,21.951228034616054,-0.7529041892876931,-22.70413222390359,-10.580668771667169,22.31072197772986,-11.769437152935726,-9.807616938082369,-2.32098964538035,-7.608929350497451,-1.0825743574453675,-0.42369427112489766,-2.2839207663660224
-176.0,4.2409246447417495,-0.3627890439221795,-4.6037136886639125,-1.990176509684444,4.410970084088927,-2.4495113338693724,-0.2286354050193795,-4.812998688902719,0.9122902582839565,1.891395753726672,4.704719134997834,5.456955473190556
-175.0,-0.5875966113520139,7.406455358684256,7.994051970036171,-3.3727733355242604,-4.301001452397637,7.650218216182855,2.374164345270744,3.3852340024892253,8.824966270853892,6.634930547740603,2.0669134143545578,7.446053969878588
-174.0,7.27546025687651,2.178619245120372,-5.096841011756293,-4.761065561777661,6.1726764997257675,-1.4343428924983244,0.818246065349045,1.6418508225370223,-3.913908302818049,-3.6967946779236835,-1.8719111899891832,-5.664510576898762
-173.0,1.3236966143348696,-10.986742132748166,-12.310438747083179,4.8827934139715845,6.87598314589746,-11.624877623612255,1.3999349313373548,-0.3998875285968838,-6.766927317215323,-13.226881921225589,-9.32174308484759,-11.6632196846426
-172.0,2.259570734497527,-3.858749576868002,-6.118320311365631,0.776851387731865,4.161995404473549,-4.962335424437448,-2.8811344941936357,-4.489720084323106,-5.433667824611036,-6.282311284710493,-6.710667193081429,-1.6450106273492233
-171.0,-3.531983307468212,-0.5585926766070974,2.973390630861055,2.02551638480573,-3.285046540089046,1.238670552627615,2.630081614493744,3.149552759516227,6.750038563125388,7.474056851249609,4.131734164850677,-0.9647406545963964
-170.0,-1.981489286958781,1.9014987584952157,3.882988045453973,0.021739667539319996,-2.8876608622841813,2.8502609560379546,-3.171090592392617,-4.820241603174672,-0.767590720851969,5.129063685293286,2.726858673347318,1.1925101031228864
-169.0,-9.881792373025714,-6.03520149104693,3.846590881978803,8.019553526961113,-6.895826055232759,-1.1326312432986718,-0.5968330293480337,0.7728109949812321,-1.0773291807364833,4.489365945623547,4.458128505557917,5.120328153096105
-168.0,-0.6864674752080111,19.246707303083557,19.933174778291566,-9.297749846810103,-10.256501366593156,19.552262071222877,-2.451457222393995,4.420844326655631,4.144579702288946,5.133269558179431,8.391664403882597,10.158358473997241
-167.0,-13.886091173595977,-1.248356921935451,12.637734251660497,7.549393681209075,-13.27949152480849,5.733902427278736,2.75290037443266,2.572238062190812,3.523873315768534,-3.599412099925951,-3.007508271281093,-1.0659548968622685
-166.0,1.2777988627935857,-9.225768311160156,-10.503567173953805,3.9556722006733187,5.8798179752124815,-9.82798773506915,8.856916521012003,1.7620442552141755,2.8745675310404586,-3.8618384721738126,-10.308368458962793,-5.652767360873286
-165.0,6.794283705046321,-8.726569887645535,-15.520853592691942,1.0256484809664803,11.149629147306616,-12.166869148627836,3.7674594380334474,-2.6504333512921514,-4.136944111292934,-6.18273766343546,-4.396976610796857,-9.627886765387498
-164.0,18.241380556706538,0.4166497691374391,-17.824730787569223,-9.349789703836773,18.022637393469704,-8.666768587993557,-5.1262079758600985,0.27479768706483654,-6.440045182291565,-2.3913371048060426,0.27609705720123534,-3.071408437490395
-163.0,8.152938332501584,1.7909803357838388,-6.361957996717852,-4.994786479894817,7.239102483777646,-2.2438711146900436,-8.39138056686527,-2.091544449833104,-1.227718936578447,4.820248456203968,8.004592081894792,5.157590962832538
-162.0,1.624876709848774,11.162430823415932,9.537554113567161,-6.418589090693866,-3.9078105242083394,10.318477528092743,-3.445264731110197,-3.0359611087248988,2.557868562169299,4.668674810210195,10.581684945643046,11.689406677726037
-161.0,-9.291943406310912,7.7889442458904385,17.080887652201458,0.8040024726447776,-13.229962529617984,12.408392316713424,-0.3925978237435923,-0.4413945013564151,5.871966139381267,2.738953859909032,0.42266585705424964,3.091659826570949
-160.0,-13.112881818134444,2.6366124112552827,15.74949422938995,5.2123309598458505,-14.408079058560997,9.169537805239411,4.7228943238930725,-0.8385520581577033,1.792807343594639,-0.18644430910085008,-4.462460499491907,-1.4078854369680585
-159.0,3.289791240686112,-6.709309254902083,-9.999100495587921,1.6867509035855122,6.6587618486399975,-8.376807455346142,3.442722709979499,5.096118983219448,-3.9774906418013027,-4.475637401101663,-5.2621844597413645,-4.4777396125410585
-158.0,-12.126535992600106,-26.63902079043217,-14.512484797831851,19.443456537150762,1.2027577011714938,-20.51970255497597,3.506831352465502,-0.9052959779861398,-8.027524036516711,-7.763870533137614,-14.384157755120816,-10.757336059143341
-157.0,3.3143808995507,0.4191096476650493,-2.8952712518855233,-1.8789647871268746,3.1141321714704446,-1.2603584415052076,1.7992091134002377,1.159390501606773,0.7265593435227666,2.5594503036513876,-3.718217945850226,-2.69440497170688
-156.0,13.006869726582638,21.288781419802504,8.281911693219822,-17.155319863486127,2.295612763175293,14.843754829273003,-6.6401267870059755,4.4428442109058395,8.275761748078038,9.255012850114124,17.492557850716764,13.215366549405942
-155.0,-12.608723570015707,0.5517134564114556,13.160437026427022,6.022347616112862,-12.868311483638838,6.839025130180139,3.063284782809329,-4.898808045404916,0.830048930568922,2.1220200412531067,3.9035489163101165,0.1486024453564747
-154.0,4.465169078638304,4.659011164349623,0.19384208571111206,-4.571971473039314,2.157040500257935,2.4127977285163364,-2.3339711377433496,-4.326049885735409,2.2729858941589987,-1.314790807284655,1.7152198776756196,-5.382489151279739
-153.0,6.368798945230804,-6.532266984999021,-12.901065930230054,0.06266648578505363,9.661338463394014,-9.728334273701847,-1.9869654737454032,2.3172608386443585,-0.7693660973434142,-5.625192746755135,0.8148769320528935,-2.717670231943479
-152.0,-2.803613874119433,-9.436476485229912,-6.632862611110682,6.166230078618402,1.866643483701182,-8.04689129793863,1.8291850378900398,-0.35984498233645246,-6.533822462307602,-5.536958313916755,-4.652535963471179,4.704785695077949
-151.0,14.371856101196656,8.321788402712961,-6.050067698483768,-11.394701703323264,10.244993543288308,1.1206324240861405,-6.5353061636764185,1.303716906428603,-2.5859153276140816,2.9287112200587884,-4.997961222237423,0.6189423714373623
-150.0,10.231903173648503,0.576803717737898,-9.655099455910547,-5.387387423604379,9.900668339095192,-4.558706084211487,-0.5234997500105706,2.526751085026735,-5.502615572958476,-0.005297574101578384,-3.188487902391576,-3.7979672390952217
-149.0,-2.4445188427042917,3.350125241116597,5.79464408382111,-0.44520843733837195,-4.0832495076814475,4.627459678464274,2.649871768794372,-4.897457231272087,7.342828318980173,-0.3121213905816447,-0.28332778672307235,2.834167814715963
-148.0,-22.126111047293556,-5.077330247015977,17.048780800277875,13.60665697716378,-19.552061834598636,6.037973460040749,6.857013994868109,-1.507628675995316,3.3380262173981294,0.22178948227945194,0.8893134984628577,4.3237932893818085
-147.0,-17.333409611688104,1.7778033337407757,19.11121294542913,7.787422625503697,-18.26763124920262,10.416557602100433,4.17703536971032,4.007408709959908,4.769231480376138,8.113704385468191,11.968389868508313,5.17156137469136
-146.0,-1.336818884035818,2.7733444926879027,4.110163376723876,-0.6977114410049072,-2.771100729091053,3.413006132037084,0.0035952056662644782,4.40386328842485,0.6249879161055705,0.6854081954831606,2.2299737326385847,-2.151118725553805
-145.0,2.189268139089685,-16.65306093684855,-18.84232907593821,7.1883875561747415,10.545230551837296,-17.77740975601646,-0.8238081764098084,2.6111220008841634,-6.113808893322235,-4.1439666146659775,-10.392888107096924,-16.448688218339672
-144.0,6.4761629268355945,7.5671010626449045,1.0909381358092034,-7.049909805048953,2.7217376723924325,4.297941419120287,-5.7989561699592596,0.8763841080935726,5.53056764416532,6.21775820618131,3.807882684495465,2.0667508144243474
-143.0,2.0529807942474783,7.6689739677771955,5.6159931735295565,-4.797927881613678,-1.751063203647906,6.688879631864048,-1.4081128375689946,-7.965317540713566,-1.3707763601168368,-0.6001282926396789,0.06631719534238179,10.308510272184716
-142.0,12.756183964655246,-5.005829091456688,-17.762013056112046,-3.8835103434003804,15.213056028741137,-11.338040834855072,0.910189913566779,-8.602915501878869,-7.150877908535074,-11.594420727464897,-8.98411440545551,-4.5062373107389835
-141.0,21.019470308389963,-0.09131418948059622,-21.110784497870586,-10.471706376958526,21.099651945004855,-10.633534115824837,-7.3699972971549705,-3.3272365994344595,-6.387459210416242,-6.672529960793993,0.012338535843767762,-5.066919044847889
-140.0,7.694492816865708,9.812565573959088,2.118072757093402,-8.767112903232077,2.7438652767574334,6.012148709702416,-0.3172025496174136,8.138361756362295,2.3196416081542397,4.572419263232087,7.069516744398972,5.820827182471195
-139.0,-5.792921045426193,4.687959090574051,10.48088013600025,0.5279073319242779,-8.105395931922052,7.552001160001061,2.5668754939777156,3.0827304496100227,2.7181003741653718,2.2004369446702734,-0.7448553184071338,5.7658091970845025
-138.0,-13.1767164000614,-1.9456899096934563,11.231026490367926,7.602396570788828,-12.256515157078784,4.607746869905587,-1.4711992234592572,2.953063337996104,3.1854954691552892,3.567260722331125,1.351489461853069,0.6552117185917243
-137.0,-23.928069318422494,-14.862836179521084,9.06523313890136,19.34669792818237,-16.477037406973196,-2.9381116107076464,10.353786904931644,6.272686598138693,4.976098830707437,2.4047881489485374,-4.6419215526851705,-10.98048408560051
-136.0,-19.42022536731028,-5.50417447713924,13.916050890171025,12.486254681588164,-16.654113144491294,4.240457218718645,7.76845503261867,-0.6944951243572997,1.9608474362518957,6.3118642880990325,4.362370909584792,3.868968186290516
-135.0,-1.9493491222228578,-0.10386321189317549,1.845485910329666,1.0520493150007644,-1.8863157146152545,0.9018713715478153,-0.5642584821765155,-2.7490331181308965,-0.3148831354064365,-0.7900512982771721,3.9123766169856733,2.4893310541054814
-134.0,-1.0632963292654853,6.679837670146802,7.743133999412307,-2.774197203906425,-4.391597108792187,7.242160607694844,2.4911885984194875,-2.230855319231623,5.569661324851163,2.9857562502671904,8.344851167558742,8.306113404949015
-133.0,13.750635812368929,7.739766300198994,-6.010869512169849,-10.776313986888212,9.895793649091909,0.8194571920578771,-9.191058794109376,-4.7932594492574125,-4.936280075571833,-5.7200478600230635,-5.627324989923923,1.7481470426717993
-132.0,29.563810676471753,-7.416987241303757,-36.980797917775384,-11.089829898225247,33.21333224548804,-22.159589676204416,-8.905700125183312,-6.387167828513488,-15.359316963623407,-15.508074773284767,-17.946378675327786,-12.775971076866018
-131.0,31.330425687869738,3.0449886489669247,-28.28543703890267,-17.19234311800247,29.831758654511958,-12.65359386218099,-12.096833682672367,3.4523773142699374,-1.4911284833269525,-3.6810639180813673,-5.936660531547513,-9.891724222983433
-130.0,-9.414706570205169,-0.6293240835429379,8.785382486662316,5.023235434370965,-9.07453811405845,4.049272301710896,6.859937740116899,3.3890462797904863,2.590502342162938,7.564133754315886,5.26418658440614,0.6088985713270332
-129.0,-25.09502174290288,1.9771096266892172,27.072131369592093,11.558965704985061,-26.138354427350986,14.576486724261677,8.082163252644035,2.6393519152418072,5.433407034792079,12.149741685400553,13.25867136766637,4.748569561799653
-128.0,-1.9651743826468433,11.851924827629723,13.817099210276481,-4.950701017936385,-7.871735776677141,12.806654087824173,5.724135081198753,1.9383420886365261,10.680802003471648,6.174930995280326,10.03408765026883,9.089490866177567
-127.0,-7.956989446052784,-5.334245359234682,2.6227440868179137,6.627448683211531,-5.27703924285229,-1.386383656859108,0.11425829470336346,-5.808199120330974,-2.16136743888893,-3.443270713822125,-1.7478140275306924,2.8171862140254316
-126.0,4.024100822594326,-6.55602951304471,-10.580130335639069,1.3156312679825408,7.307854314906242,-8.522770115100494,-5.925167533104179,-4.095147276259091,-7.86632657515705,-10.622357140351632,-10.806324432045477,-4.335786050740834
-125.0,14.768792764612783,1.7586610410142844,-13.010131723598388,-8.30058999540124,13.889074726838196,-5.66024230281085,-5.999139062240845,3.4156348727602963,-3.1272142238969463,-3.8156242456332423,-3.7803965921463485,-1.9148269847980437
-124.0,-21.869523067291865,-8.82822351399798,13.041299553294076,15.388161333905646,-17.4598270931958,2.1524491374567596,6.590228616553807,5.158675809020621,0.41788795579664795,-2.3644260914950537,-4.41896081797693,-0.06600617777401396
-123.0,-35.10836356404389,-8.82796836342307,26.280395200621022,21.931633573894963,-30.700068849202527,8.697449301692158,14.692059692232622,10.329360048889834,7.326176193488363,9.302549135805412,6.417697788276983,5.087139552495142
-122.0,-1.5776988100727827,0.8563077249338531,2.434006535006755,0.41000427485844704,-2.0098867156453046,1.6999361923017637,2.7058747256508084,2.674787097053254,3.0958344083868896,5.666087134039003,4.658239313383231,0.21150600218328108
-121.0,36.60788369516097,12.740324370851598,-23.867559324309298,-24.69487169615302,30.23799201441647,-5.5845441004614935,-13.967440394866209,-6.37561399076357,-1.7456327635049278,-0.3876419078218887,-1.9984673684016565,-4.553680747824558
-120.0,27.19027149614912,10.898938362682445,-16.29133313346661,-19.058032629734335,21.74730632677695,-2.7180134598251193,-4.007369462525729,-9.618826948406678,3.617545880409368,0.33107692098669006,5.663906061800314,-0.07571259267017671
-119.0,-3.3138666631365474,3.849085676926199,7.162952340062802,-0.2773098789410664,-5.224853047560854,5.478606907901306,-3.127953238355646,-12.416087111238408,-2.0444995369561405,1.3128116324929802,4.694782387063869,3.56810434236504
-118.0,6.545979653287988,3.861279515109648,-2.6847001381783016,-5.21413675642557,4.635452589409336,0.5518462865657665,-3.826449840464432,-3.532414209469489,-7.930184006123372,-6.82722219961179,-6.108791772255255,-2.9398931264906567
-117.0,-7.588510214704401,-24.11445446994893,-16.52594425524451,15.836253606976506,4.414981337052199,-20.287336745077614,1.6045979817903062,8.534968347136164,-11.675100312324174,-11.438285730156851,-16.143356007224774,-12.60127524674034
-116.0,-7.655615224812255,-7.974088348508904,-0.3184731236966427,7.871493389003767,-3.640882340218633,-4.119696569196742,3.893127363277302,12.551039855667106,1.3527138360196203,-0.19840006985041336,-4.7252816193230816,2.5470269775891796
-115.0,-25.51247935792275,1.0065263504714395,26.51900570839418,12.223962821422239,-26.06609061988601,13.78881613830993,9.185064215404942,6.5016482322657065,11.370185859397829,10.75095564863542,9.837071684348956,12.100912310152976
-114.0,-9.974740518163628,7.839964972118929,17.814705490282545,1.111963350451635,-13.866598775708978,12.859051105466815,2.2883899103718885,-3.2371688968200116,7.074891221185513,2.792470650029151,11.794077023549075,3.928785805869423
-113.0,14.140736216553478,14.83265062960622,0.6919144130526966,-14.523287343525073,6.752433266897734,7.7253278370757545,-1.9057260913753913,-2.900268252105963,3.6585839853149578,2.4862050997990996,3.8823453786486537,-2.9530246243125955
-112.0,20.469725961531815,0.7017017339330796,-19.76802422759877,-10.621794492338953,20.147736771870903,-9.558742383924322,-7.303874945864634,-3.529293225814534,-4.190049873744817,-2.826304076483131,-9.727413915354328,-8.841468210845175
-111.0,3.2456836338039103,-1.3353633157770828,-4.581046949581028,-0.9094878770954677,3.865311957405897,-2.974167623993555,-2.9975892503432497,-4.322108915856186,1.075508427490877,1.4946424150098276,0.05947396666395388,3.7676790514590763
-110.0,2.9149430411911776,7.894132511895189,4.979189470704018,-5.4330333614170305,-0.99908670058596,6.426738689709229,-0.36517673207561385,4.815355539631357,-2.4217976339226417,2.3374406443622355,4.656111099428941,7.561978869873888
-109.0,-17.482134577638156,-19.986665701216683,-2.50453112357849,18.789565133830692,-7.532225406272701,-11.253272323572176,6.2813272542077385,-2.6947810738894695,-11.597992594737132,-6.321561698216541,-4.344274888999258,-0.9294339382047978
-108.0,-3.6935282216973997,-13.748451615035528,-10.054923393338093,8.701266473299528,3.1393028008456945,-11.831179917862716,-5.005676377671877,-5.012200442690009,-8.185729055064385,-4.150039794167064,0.5232560239773507,-3.812885594522309
-107.0,-2.2456536803299105,-0.8817498094412999,1.3639038708885645,1.545682455264493,-1.7655208280954287,0.2307845772188033,2.7845756101572388,2.82453007103204,7.615506802421766,0.4008628275336257,0.6123131341643488,-2.7179458713166835
-106.0,12.08535185563561,15.006698704172868,2.92134684853723,-13.56487212380778,4.623096264820775,8.951200843510044,1.648328432292667,4.626412044002606,10.502784851003806,1.3025172232173436,-6.46581120435676,-5.557085601179002
-105.0,8.786454565841648,16.471186626839756,7.684732060998104,-12.650424282278461,0.5932356797152236,12.062558905465151,3.826418820167352,3.662113592748469,9.341883251321265,6.352023192350231,3.2827279695638345,0.28715453586702777
-104.0,-6.556549668208684,0.2693626321591793,6.8259123003679445,3.1974132091482463,-6.727929950760009,3.529633827799894,-3.0893647490616063,2.392951105802773,-2.265402746451705,2.8487713549678806,1.879212157310711,4.68488989159971
-103.0,-9.588312980990784,-11.119361252243158,-1.5310482712522733,10.326485968312522,-4.068234342086955,-6.2671586717074526,-2.344329578891272,-3.9543814697124406,-8.203851631410426,-8.192634856746924,-2.1326131474870955,7.283926150317659
-102.0,-1.809297583094608,-6.077176080841493,-4.267878497746802,3.9939812639328607,1.1842037695611056,-5.1959430589389815,0.18395098892039918,-4.87110196235462,-4.729737775877131,-2.811879378470402,-0.4545512741463681,-0.5329725771806317
-101.0,2.140367797653281,2.2357776235608036,0.09540982590758418,-2.215142026765641,1.0495227201607413,1.1398386555329836,-1.7624200639966676,-4.297969064208146,3.989271788748184,5.558863291535114,6.712595672633376,-0.05652644375465821
-100.0,-4.513399725321307,-12.235372657990535,-7.721972932669193,8.348731282285492,1.6260813528182338,-10.00572735423937,3.156021662848995,4.241063610448768,-0.8721027867518578,0.9070033598406395,-6.819025489588613,-15.23013948134666
-99.0,-2.696135466692623,1.2693166849600006,3.9654521516526753,0.7668995344487357,-3.3104077766240634,2.669516962125776,4.6433808855890435,2.8638015899762292,-0.5924586926399719,1.205530350318431,2.940489399981024,-0.9643110172382405
-98.0,14.048435501863276,19.89655089670594,5.848115394842739,-16.999511466697435,4.124234834622969,12.84814629089309,-3.609809680167327,0.6185587985949019,-0.5431319113093592,-0.8937837784287593,3.102440981170967,13.884960685233189
-97.0,7.667505377970706,17.605644918896456,9.93813954092584,-12.667636706075026,-1.181791462595187,13.830261836465272,-9.213957022069934,-2.6681769622580127,-1.216410223477743,-0.9225849472237401,2.351733807441798,12.413137305098473
-96.0,-0.8524100483763768,-13.173619619426539,-12.321209571050051,6.976733514074163,5.777144076533207,-12.764148235504646,0.32816507624732294,0.8740237248995204,1.8465954074953608,-0.866894925521675,1.4546915098774358,1.0241291665365333
-95.0,7.41910272552501,-11.88438069161753,-19.30348341714244,2.270689327454571,13.33496734141926,-15.60910344327217,3.9662733965277943,4.941958576780243,4.073784810571263,0.8976797172604238,-4.981834401762694,-12.110644122042853
-94.0,-19.23100252344108,-14.404385111102007,4.826617412339132,16.85406417539913,-12.049000196865085,-4.80597028819641,8.336878804881804,-2.082871699863302,1.8297357948578052,-2.439105584322717,-7.877696245066312,-14.55108549568824
-93.0,-3.1677971133020044,0.5626461382908481,3.7304432515928885,1.3408968801917887,-3.4682327814206344,2.1240376585228757,-0.15298177583652883,-2.728875798163558,-4.186693920129669,-2.1910645693861404,-5.561245724313551,-4.206162294894541
-92.0,-1.155407857771384,5.0193296108476355,6.1747374686190515,-1.9674570705112648,-3.609245357714445,5.567165578207649,-1.880013505551059,-2.8144224154160398,-2.035028123691597,-0.2747178546189384,3.5588494675361613,3.9162752418470057
-91.0,-1.5425099507131865,10.132281166270467,11.674791116983693,-4.324352391990961,-6.638582576490267,10.945670364187514,-5.7234583368510785,-1.1921375922044513,-2.4130651376639034,1.4593871871599582,6.0252436160446425,8.534167217514305
-90.0,0.8529190036577203,0.46658570676871935,-0.3863332968889708,-0.6843295559317673,0.5820406251718437,0.07846859009002305,2.6988901709528763,2.6191427382500096,-0.2892303455705758,3.1945576693385327,3.9031935022239876,4.319256128443852
-89.0,8.970643458785426,4.2174397246402755,-4.753203734145133,-6.537793997007087,6.897304360394023,-0.22939979779739628,-0.44702521061608563,-1.0119027671535414,2.9201825617371577,3.326042354072162,3.1864310964336937,5.872700725666984
-88.0,4.163112337574484,5.903286842963172,1.7401745053886692,-5.057031710296526,1.2445129443637892,3.784696856483697,-2.0448535769475664,0.58945045666408,2.8121726308192887,1.840862183140922,3.668375745982347,2.79970519432359
-87.0,6.612963690055828,-5.14506705607371,-11.758030746129606,-0.7619781142256286,9.219740447259907,-8.484393353659444,-6.890428766688906,7.773581937131583,-1.6734677250812333,-5.28238950949247,-5.083677213075168,-5.328876698576454
-86.0,-1.5776358639441836,-1.4502234725803076,0.12741239136378724,1.5589277430600075,-0.8935986705654306,-0.691428769268148,4.54373270245156,5.2383747786456825,4.477449218347106,1.5379714528786934,0.20211652436592686,-4.891753573539827
-85.0,-13.134840427804445,-3.3262470475786086,9.808593380225723,8.191176407441306,-11.50907143541189,3.2898926286762196,12.16096153146142,-2.4037194877371504,6.162068777387394,3.3896468172582206,-2.6260607528885225,0.2717024893458895
-84.0,-26.07630649065025,-21.120131413723808,4.956175076926366,23.63346116374964,-15.551200950496863,-8.11496422652479,1.8161697975790387,-19.2086084679648,-10.413998428614729,-9.63706600688673,-9.44427938662836,-5.981739230131167
-83.0,10.845054381810622,-1.045240304490715,-11.890294686301335,-4.866611591048887,11.411856955542078,-6.426847617630559,-2.6631902759116546,-1.285651403782989,-7.667598734632439,-8.232987435222629,-8.12822853176042,-4.59247988722726
-82.0,28.47098686495354,25.14534762291884,-3.3256392420346206,-26.853375086285762,15.941096783925468,10.866977402192575,-5.4158747412436865,7.5207900099527585,5.961531599380722,10.732053494529946,10.46433871873786,7.693979520047376
-81.0,3.7075656595954136,8.855150329042731,5.147584669447447,-6.324611533517597,-0.7585569427438852,7.033663326296001,-11.805560246235563,4.668555264414996,1.4711825377185883,4.321197423320362,13.573735150920372,7.283216398421482
-80.0,-5.362738515441586,-6.027214193879102,-0.6644756784373604,5.733490567139183,-2.3121467132271087,-3.3145044593958106,1.0725924071465869,6.958871536140823,-3.2117330771035593,-1.7802880653312334,0.4890812659043977,-2.356273044543073
-79.0,-8.754981256185221,-17.87515017356655,-9.120168917381193,13.357053947762967,0.137317923213097,-13.543017523265021,10.370586185529582,0.2732394985861255,-4.87241698596039,-1.7180979833220729,-7.318444486751613,-7.001036595033778
-78.0,4.791860592024875,15.693589844453639,10.901729252428868,-10.276088316276905,-3.0249772013568,13.256980258823237,-2.1429799011823736,-3.904137664208644,8.177034955040819,6.307314724674967,2.5888569631379394,6.363986255114879
-77.0,0.9519385047660593,5.065785311968511,4.113846807202476,-3.039332617188517,-1.6328531256420242,4.634175779326202,-0.11222939756498596,-8.669497282995712,3.703796357398912,-2.621744182790482,-4.335741785376058,2.2428182173012177
-76.0,-11.824524372833766,-4.325980262032756,7.498544110800991,8.125676056669219,-9.636819816298607,1.6370331425643991,5.127230033901441,2.5176490071395126,9.199903499382861,1.9029886005768009,-0.703397660307481,2.492483591710776
-75.0,-22.088698072092843,-31.675324249374103,-9.586626177281317,26.855107443680463,-6.227010283771021,-20.65423729875366,7.397828632453224,-3.3237416876043153,-9.197380130015915,-8.988895817901179,-4.862894075058136,-16.61040758061669
-74.0,13.783093486689268,8.264166409131933,-5.518927077557391,-11.049565391699918,9.675891220307031,1.350920936991125,-4.295639692488594,8.66789298609951,-2.84909891647734,1.8130496356657466,5.844954254811782,1.0757962584991905
-73.0,27.681589738310436,25.672624348358344,-2.0089653899521513,-26.62341425796885,14.793386868215059,11.807899276530206,-13.878062138075101,0.9529824680232375,-6.170756315185941,-1.0792103428459503,-1.1222104793626397,7.161434374517694
-72.0,3.039295421744667,16.614603079837078,13.575307658092349,-9.8509657136406,-5.238828122102207,15.065723691959835,-5.369949604439104,-3.2652656469157137,-4.275709280244859,3.440128598534627,10.098538413722455,13.002604870643735
-71.0,-14.80432527109037,-15.935436266504366,-1.1311109954140308,15.347030110048314,-6.884335687975083,-8.490195603232202,8.561357890976975,-3.2858527575517202,2.1604055807248486,-2.8912075093780207,-5.560480257823266,-1.1269356017118595
-70.0,7.057435673507236,-3.158682522702085,-10.216118196209342,-1.8925718723690501,8.668585694985016,-6.6495177764232825,3.8560267686572836,1.5479709506443227,9.804421080140935,4.524192824257503,-4.936970078674171,-3.9640657033211193
-69.0,-12.832197395060545,-18.40851989597742,-5.576322500916843,15.598431270221328,-3.5966691351653366,-12.035390220623178,5.822682019501494,-0.9742633956394194,3.7451591915752367,1.042765509689402,-6.415353183613296,-10.315859550649812
-68.0,-13.047031454595373,-12.663593147612312,0.3834383069831109,12.831894140183364,-6.764606344188294,-6.10271025548334,2.493177249181275,2.4247254787842665,-0.18149886103217705,1.563407992294291,2.1520370343076567,-7.894056059294322
-67.0,10.621457186283985,12.783490854077428,2.162033667793517,-11.729227227382777,4.256026093830276,7.435828752830311,-6.773298914796671,1.9364873649001393,0.31159280236184317,-1.1671929435904034,3.5954252411035017,1.9334129716572983
-66.0,10.399251005673865,17.398944053124946,6.999693047451133,-13.852171958448032,1.7222453670597502,12.246586269388645,-9.822573061803494,-0.6987434795094392,-9.063762652734932,-4.153413056792392,10.122573070894997,4.370775702427343
-65.0,9.918317725137412,8.257269991194562,-1.6610477339428336,-9.047146434277987,5.7294206848730305,3.270917771238312,1.0480845119148219,3.2980536112321124,-3.067176656146246,-2.533435188183711,0.9505357027067611,4.122817172217884
-64.0,-8.155228187515359,-0.34203459946491677,7.8131935880503995,4.203905287968229,-7.968945389558296,3.709862616392734,8.94752362877034,-2.259296221739289,0.3633046900544925,-1.3294896934718459,-7.14145532713712,7.106051354263769
-63.0,-9.954232188081747,1.0240242051247623,10.978256393206427,4.414562642683992,-10.452518167190968,5.973546033461377,-1.209808591295078,-6.864960091412452,2.1778527949900295,2.313555050905238,-3.4456582438413506,7.3832385051328995
-62.0,-5.7728603850985785,-13.86622201448731,-8.093361629388834,9.844106560437362,1.1747544093044073,-10.933179363919125,2.5805083348649593,-3.2828475648607274,4.319513833659908,4.521985719086335,-2.312803730723377,-2.899311899468565
-61.0,2.6970833741237485,-11.635783050269971,-14.332866424393801,4.49370142290135,8.532611946043872,-12.943381156022571,0.966484227197536,7.446637305665314,4.567096785294079,2.5973394875318325,1.4570889073024187,-5.2926435087362975
-60.0,-0.01285821406267229,-1.8542814097878226,-1.8414231957251719,0.9617573830589743,0.8580354734691218,-1.8906843685154353,0.1933619909814837,3.976982465810105,6.4254232365618345,4.088405800565811,5.463371096137866,-7.591942873583448
-59.0,8.203658221681517,6.082007201231986,-2.1216510204494834,-7.185966216259279,5.190695161424301,1.9343942719387854,-6.317410172826073,-1.107250620746604,-7.546141021277156,-8.60753197377838,0.49756860614947396,-5.6976282589531335
-58.0,12.071163494617737,12.1582834232007,0.08711992858303308,-12.06964359680095,6.025161686647173,6.155479404128901,-5.201515799865928,-1.682649612408022,-11.120994014153005,-3.168981313530675,0.11206971319252501,-1.3181049520870416
-57.0,-12.219063039487787,-15.509553168338387,-3.2904901288505535,13.839934595155167,-4.506005638846588,-9.364988950747438,5.901340706657481,-3.2977129377062266,-9.373620099186109,-10.036878363397562,-13.461855137031408,-5.371507732755417
-56.0,11.319498836268586,24.08798083895356,12.768482002685007,-17.721090865891835,-0.763702384421125,18.466592886166616,-1.0702315994280283,2.524869523225446,7.930526750294853,10.810144855045559,7.6200370220464935,17.063388880445455
-55.0,-8.77849581967119,-1.4471853871445957,7.331310432526562,5.098898382160174,-8.0138033059428,2.90406425068846,3.766590481891429,1.4570982145426024,13.833872394667619,9.39322585985063,3.9101732114319923,10.79169964679217
-54.0,-9.554405253039691,-9.685072810374674,-0.13066755733509527,9.605320590820607,-4.669382491896286,-4.946195728157443,-2.9833239795972077,-2.3720963634309022,5.627050584083429,1.827563368189975,1.9339655400019828,-2.4622741462546323
-53.0,-13.984291010266272,-11.541098757401048,2.443192252865045,12.823270317684399,-8.248091209061515,-4.590930509621809,6.595586615328064,-3.4220551631804654,-1.9720098973467115,-4.854081384946404,2.2652964089763143,-6.217771417711342
-52.0,4.9818639827347715,-4.508254630981299,-9.490118613716191,-0.26104255661364384,7.204401892576898,-6.968433976803956,-0.1668379416979786,1.5724317065182893,-11.46875324326829,-9.144642706608852,-6.140810437223344,-10.633444181753397
-51.0,27.950683922887592,26.95707626233331,-0.9936076605543178,-27.40685429765736,14.522751297565975,13.00614324165359,-14.616417720777912,2.0220720301899493,-4.942079787607539,1.8040442893298696,1.5573845644319282,5.467802422732464
-50.0,-4.3409114764578085,-5.442489724309874,-1.1015782478520122,4.85175172829947,-1.6442715115291389,-3.2522316314742272,6.50760132039291,4.130752752089927,-3.0766561461551722,0.5101533785944046,-3.072691942166528,3.5560353781532283
-49.0,3.090479774996164,-7.258223073900977,-10.348702848897046,2.035664565672775,6.697710653604917,-8.785457559977093,7.105429466106443,2.862723261156594,11.471509584220158,3.6411627830504973,-2.709525983625692,-5.590898730338349
-48.0,-12.188621169134676,-10.38290610877116,1.8057150603636165,11.308987823316283,-6.9394664671477475,-4.269829559858765,4.724970978057368,-3.619660004128697,4.597441464864229,4.27708570951601,4.826872633896597,-1.8501470214694389
-47.0,6.013797678420019,12.518612424006001,6.504814745586102,-9.248159173575342,-0.26862943822250074,9.453952109361685,-3.353822976052168,0.09888038427842583,4.899863207964185,3.0696679890624994,8.938189622302312,7.3229300428434865
-46.0,-11.613945020448348,-9.42626976542832,2.18767525502013,10.536179485174582,-6.9295401495604345,-3.67439308022328,-10.664444936545216,-7.595805624361937,-8.575807173190142,-13.182616568075764,-9.205728438343552,-2.0589539243477284
-45.0,-9.45827473222,-0.9471333582160928,8.511141374003932,5.220516404874755,-8.94374499205003,3.80852181042368,-1.8773675906830367,-4.89234555054087,-9.040499828844354,-3.81759410570035,-4.54986037418424,-2.000868842927451
-44.0,3.280156617906804,3.243013899141398,-0.037142718765432736,-3.317276343238996,1.6093780615024973,1.6330343873899464,1.253701405124973,3.4880142511857337,-4.54438817873501,1.0364470141043522,-1.4278273643723367,-0.8560089708602756
-43.0,10.963651290470187,14.349919470169338,3.3862681796990612,-12.625737719535099,3.806139768773492,8.90311864144754,5.458895781585612,7.68273007732267,8.937737405845171,12.27993475828632,6.221074767873832,7.787737117602714
-42.0,10.095161932938712,0.46712935378593734,-9.628032579152855,-5.319133658991603,9.86881599027364,-4.617937500940496,5.8854526793007595,7.709203751521402,5.9110497570584055,1.9492335834088275,2.1335700409302856,2.4256086574205242
-41.0,3.6077731407694174,-5.1881832784454875,-8.79595641921495,0.841367936662945,6.20283316129125,-6.944255112242879,-1.9941950346765003,-4.373419054109921,0.5749658786964593,-0.5106673195344378,3.693535458619434,-4.702867076701628
-40.0,-2.7966750619897693,-10.002707978204157,-7.20603291621439,6.382221340802188,2.2047284863214816,-8.630058574798918,-2.3475263484919098,-5.618502200794193,-5.338972569409044,-4.116942930425865,-2.974109746051382,-11.115512159644421
-39.0,2.5027641778368848,5.9973464358628625,3.494582258026047,-4.258566131143356,-0.491372164807247,4.722807458183144,-4.663009453334705,-2.445379842100043,2.1109551122376575,-1.0252036443785588,-1.4882903196001749,1.6835835822640144
-38.0,-25.898451754444977,-5.877321495320867,20.02113025912422,15.886444748050097,-22.946639226830715,7.048156718871382,8.927820626292071,-0.2945560886038061,7.7477411100809395,0.33754529360385277,-2.3867410202527637,3.625088379045434
-37.0,3.3151816237978853,4.8224666925295,1.5072850687317683,-4.0656246156858895,0.9275742783996908,3.1383148306934503,-7.449245412209846,0.5204632365134845,-3.236424678420358,-4.680386276582554,-4.397687163342589,3.2131241923376175
-36.0,-4.4622984031845565,-9.618940649441846,-5.156642246257165,7.045716816761182,0.30184941755425765,-7.338885661483314,1.2471093807042548,1.953987478420824,-12.609901745861674,-8.70070671255111,-3.359690028167293,-0.5072899990980506
-35.0,15.690797043656355,9.253008093041002,-6.4377889506153405,-12.467746165316447,11.02613925343701,1.4543684873810285,-2.8822149510931507,3.9131444440099217,-3.4234099943175558,8.375674637007597,11.830552843004677,11.270406087434859
-34.0,12.104289549785506,15.627720119655423,3.523430569869812,-13.865479967122067,4.334744521680202,9.543074174122204,-0.28916922752835517,3.436379242360811,7.735728831246011,11.590650410075359,7.46477387207473,3.332710915409929
-33.0,-5.386226148999427,-8.593552074039815,-3.2073259250405983,6.9845457771168515,-1.12326478328497,-5.853976511725839,6.579962054110102,-4.318169002137889,10.151870619866065,6.004840768441858,-1.1636442225374202,-12.668032894466837
-32.0,-11.929524089964149,-21.472363345148683,-9.542839255184784,16.688304704243727,-1.1498444154237766,-15.540711560974877,4.255308351649546,-4.848770670476101,-2.174826728782513,-8.75720851355148,-11.625712566983566,-15.72176277480409
-31.0,-2.9263685865890094,-9.034938619704269,-6.108570033115442,5.960385889805468,1.6322007429522523,-7.608192777932956,-3.243026180707047,-3.072567311524732,-13.394623950950743,-16.561696887890104,-15.066670031768577,-9.163711834404332
-30.0,13.181955993387794,26.195011617138732,13.013055623750843,-19.636837292888714,0.04421985317231103,19.561641126205853,-9.12220426568898,1.9665638684649063,3.36904156641162,2.116450422259623,9.62731865391569,18.90212989077321
-29.0,-0.37952879361967806,16.92173343944144,17.301262233061113,-8.303459498525612,-8.88287276869197,17.14083759554249,3.4065106301689916,5.143049527284672,7.076809715559993,7.396603190196185,13.008048588701973,17.124262879615646
-28.0,1.4977125499026263,5.461224056009049,3.963511506106461,-3.4365794866292676,-1.1979889085211157,4.736232324452786,-1.1204798188146312,7.350499594599281,7.569552808857842,9.866852704310936,5.419302205101389,6.432081447290942
-27.0,-13.173695266091835,-29.208261477523457,-16.034566211431585,21.152902688205007,1.3868727888170418,-22.59911293121489,6.520219461642458,-2.610619962516279,-2.6363943594532784,-1.9507750876142937,-6.304194606370385,-15.910687031482526
-26.0,-9.189871929479178,-14.195200942113669,-5.005329012634487,11.731515301978552,-2.0543939443390022,-9.574695978671425,5.46847099478634,-6.233040274473233,-5.071665937568135,-3.7884430603443455,-4.153898639319741,-10.522766271446505
-25.0,8.926529100952983,4.754575464698494,-4.171953636254487,-6.882088002151052,6.59259885179573,0.24520138891481835,-3.9694467786162937,-3.5727643092125536,-1.2639696496522168,0.2578136065037424,-1.2766373206992148,-1.3152106555118506
-24.0,6.871568802389344,15.572235997814502,8.700667195425165,-11.265288526008618,-0.9420175196207232,12.17741835761516,-8.121543978956328,-8.522388786951138,-6.453527567427176,-0.6143807223420124,0.3205093878679319,5.065965425812681
-23.0,4.16455592642092,4.032830623915682,-0.13172530250521008,-4.064694656436989,2.1300093488061145,1.919383457752394,-6.229277812492805,2.842610538259766,-3.0260808841982794,-5.580907605707154,-1.2391481393446913,3.4059737511852006
-22.0,5.582368136944298,7.297674770640719,1.715306633696478,-6.406166598704772,1.9248052734617982,4.478087336300869,-0.1746566559897924,9.096895856325405,1.0445927862222868,-0.034455314204554055,-3.248118012902817,4.355870194654826
-21.0,-0.19056055833828034,-5.847210277950965,-5.656649719612605,3.0541229884899455,2.732568490280312,-5.7818753851699975,8.044545002891269,10.989411054245416,3.1237361132301986,0.7359095428990151,3.7046089315997324,2.227488136987884
-20.0,-4.600315476458999,-11.890458239066284,-7.290142762607239,8.204329082759918,1.350637360558322,-9.546050246368882,1.3924449405590984,0.3604185341390975,6.476569723055748,1.2642588401550312,1.8554761151617272,-5.013153424233224
-19.0,0.693648507831246,-1.4420109219140231,-2.1356594297452975,0.3356234691876283,1.4239044585240617,-1.7497790285820645,5.513462830730721,-0.7325655869674583,3.3984598716065335,1.5039188598533313,1.828432503868988,-2.453921394885584
-18.0,-10.779497465376526,0.3007364170296374,11.080233882406043,5.281057215667513,-10.920286137398849,5.647366218357131,3.9539506280418486,-9.92208523805998,8.962157599483099,4.227634410439548,3.9052386675190336,-2.74293124926065
-17.0,-24.2692777875047,-14.708156360670078,9.561121426834493,19.451510243839575,-16.90896040180106,-2.537980760001341,-0.16426662557573768,-11.469446776741403,-11.089267705541765,-6.164400414124057,-8.63795580053824,-6.256989044761147
-16.0,13.549809726629677,12.260160933175534,-1.2896487934541954,-12.865162296103236,7.418755177984049,5.445584564280999,-5.671253914208132,0.46000871967713675,-8.38080401102615,3.0178871677980874,-0.34681927668200574,4.267830839530789
-15.0,17.190291815058913,16.869092197593513,-0.3211996174653642,-17.07141169320397,8.744167606995685,8.31933227958136,-5.430335775104156,8.348550597894512,-1.5860681455139973,1.430458695982434,2.0002779462994975,6.012985912831032
-14.0,18.390966086359192,12.354842290039205,-6.0361237963198775,-15.339060459817208,12.189510873749278,3.133439013610917,-3.650409274911817,9.747360120702469,9.005956413582354,4.22702757435809,0.8476034912461998,5.161328241357651
-13.0,0.06324054230499421,4.581756838137291,4.51851629583245,-2.2916832341731066,-2.263393493129719,4.5309694321367955,-2.3690126990738154,-3.5066789947799837,5.841125897790263,3.6885339777876593,6.5576076422938065,7.075332740426786
-12.0,-15.781364018912114,-10.960082048509127,4.821281970403157,13.32023262605559,-10.266286563311258,-3.0840164757620907,0.4428641105886444,-9.686678365156773,-8.749946728104877,-7.870067788905553,0.8596424808796639,2.6388700505132596
-11.0,-15.007790090413609,-15.13739104760664,-0.12960095719292164,15.098946638666035,-7.40586883486418,-7.567890684973011,6.855714964863912,-5.6006484130647145,-2.7445919917789503,-6.853451430923284,-0.916165344218434,-6.425319165816838
-10.0,-8.584087196336753,-34.25854113820118,-25.674453941864392,21.367900851632264,8.583398287860085,-29.981369320688607,6.013982797314411,11.84305041300087,-5.208275875557234,-5.247658951548123,-14.415796404467596,-23.284409908817903
-9.0,11.163785420281734,1.8149730971443034,-9.34881232313747,-6.463843127599896,10.22600348134931,-3.786048506884187,2.948609615860867,6.832228909087056,2.187442099782857,0.6949190319259699,-7.018437748369191,-9.870951556698108
-8.0,14.83128444306316,16.793904109883034,1.9626196668197602,-15.78538618047379,6.416238599205783,9.353783153099574,-4.889780942901402,4.7661381885604595,6.572373754786329,4.303162529613436,1.772021205805034,6.197689922719613
-7.0,5.30866590012782,15.552868517351522,10.244202617223538,-10.400522372674967,-2.4755352215603743,12.869600140644689,-2.07614974179783,-1.2744068812940454,0.8564302390840313,2.3024430505997318,6.164673530078325,12.141771349092155
-6.0,10.86657346186634,31.26247923614969,20.395905774283193,-21.109212553084603,-4.767015944222155,25.877398449583758,-5.760784515590716,-0.9817173441478051,5.533730956070295,8.468298661107141,16.82109954507788,20.232211326103787
-5.0,-31.788496003499933,-7.794249675445627,23.99424632805422,19.750406867960887,-27.894503076235992,8.150543519135308,0.9708269042316622,-16.588342940232614,2.191466371651054,6.0564680817312,7.530741577170615,5.410983504802694
-4.0,6.829940659699487,5.707039122748472,-1.1229015369509678,-6.2279423706509345,3.96700499711903,2.2697626804759734,2.2572946746263045,-8.225329008638699,1.7823442743450657,3.891502039312245,4.036180982481502,2.651895371982266
-3.0,-8.116133745699969,-25.27107000494753,-17.154936259247364,16.73535898055723,4.50041619878475,-21.22772648331594,-0.6113848839395151,-4.753957606135483,-12.9070975496458,-14.76964659281332,-17.88223283519059,-19.36543827907453
-2.0,-12.30569180901645,-28.39053151530009,-16.08483970628336,20.310536219992684,1.9392762089805746,-22.245795543016555,6.185869603305894,8.086978516041418,-5.5114274296181245,-8.027306864408555,-14.786325661690729,-12.353458584269664
-1.0,21.391094525021796,11.028981628994504,-10.362112896027108,-16.24981895511891,15.918083930079169,0.3285943114493399,-4.900512457815189,13.942732177695856,0.5419510883456784,2.372736049000001,1.8227170735130365,1.384656096807948
0.0,5.551148779038778,-3.3269642973402367,-8.87811307637909,-1.0763558364089976,7.17218424407564,-6.10865847349778,7.962670569062432,13.785237784604508,5.281838522464809,2.252140696891563,1.3337679545983863,-3.3006823466392166
1.0,0.2654764384081698,-4.154796602133905,-4.420273040542447,1.9770658511782564,2.298298614804894,-4.299174044550517,-0.7700101347708554,0.42296207351735315,1.31076155545259,-4.423958178075308,-2.725099452930894,-2.6050706419369365
2.0,2.983696515027037,18.39419312248011,15.410496607452597,-10.737672690322459,-6.179100590405943,16.882469662808838,-7.005939883086716,-10.749456756441253,1.1962497018761566,1.3686037893622218,6.559319777213082,6.475583272704199
3.0,5.741738615934211,29.627821352512633,23.88608273657811,-17.655281641594293,-9.036532129390489,26.806810237289188,-4.957599011523457,-6.14336077328934,6.0893694463867405,9.841084744892612,12.369052400040356,12.732230539286917
4.0,-4.383620810334792,2.3718553757188268,6.755476186053629,0.9585379312729936,-5.610956076536271,4.605157766907176,-7.039215884571076,-5.542102289986432,-4.952620544326777,-0.2223101220795911,4.0101450268272405,8.605331581092194
5.0,-5.992428835668507,-5.408681563894296,0.5837472717745262,5.736340362029692,-3.327850677439762,-2.4570693116349878,1.529427271401407,3.9301086137022225,-5.84692978141822,-1.4394975214664893,1.3153091843285347,6.031338385132582
6.0,-11.497121246791071,-39.169177822336394,-27.67205657554497,25.375162093555065,8.128079400209426,-33.39335949161921,15.469111835055031,-2.0163195494709654,-2.970849799995354,-6.303511819351903,-18.41925556253377,-18.13493313382633
7.0,-14.4018998488998,-1.4023039706130298,12.99959587828697,7.87218163353822,-13.658248458776821,5.739913246501207,1.822070503572708,-7.702775638018502,7.449209343626293,6.749305902332595,0.926826806106197,-1.6811885781771405
8.0,-0.17648311102525138,22.138022898927773,22.314506009952908,-11.004855318183004,-11.279375581999098,22.23849328279731,-8.14290880570159,-3.6030081188948873,9.056356663590648,12.110215731914952,14.69832995164764,7.700461429558794
9.0,27.63915932511635,9.244617058805996,-18.39454226631079,-18.462503978489014,22.985777965205678,-4.570174641401936,0.17487538366115452,16.881092920383374,3.668693589820744,0.11472278041175032,2.4663066328095926,-4.594906462699767
10.0,15.782184954821252,-38.60240741229564,-54.38459236711738,11.468582212649867,35.13401963671923,-46.49393745321437,17.078168569254718,21.988440843843602,-10.78480835583187,-24.113946623623896,-30.411024670653504,-31.104795662261346
11.0,-5.795705066689033,-36.955082883871206,-31.159377817182445,21.35232242530765,12.656407572282445,-34.05849228001282,8.810487528724291,2.2351977980496516,-16.432066504702128,-27.34405746192114,-29.37802104464577,-20.03477372653472
12.0,-4.140568083225853,30.6867902830123,34.8273583662383,-13.301428182449701,-19.507352719205873,32.760997429543735,-13.166789024382153,-16.251414189748026,-0.8337120602911314,10.24331526277159,21.60901738615842,25.181158398097608
13.0,-9.071737688460221,67.39848091083259,76.47021859929336,-29.119524547967952,-42.71449375885035,71.94970937896461,-31.243459378376688,-20.000095681114193,13.202823697918454,31.735407329683714,43.29946531633462,46.39093387923372
14.0,-5.852748300449329,35.68830883153417,41.54105713198393,-14.959354213329345,-23.71902814033715,38.64623265457673,-19.282341036703308,-15.091879192339652,3.316670603243228,15.182881867133775,23.610362415382916,27.942940953939356
15.0,-7.42132594477625,-33.69332059357187,-26.27199464879538,20.588844899779335,9.40254545067988,-30.0119198656585,17.770973487981966,6.77809701596128,-1.2804957634060465,-3.843502020109103,-9.784299419030933,-17.620364053406135
16.0,4.159702572873746,-30.77604141629855,-34.93574398917227,13.335790768602125,19.523881106466117,-32.86916725659261,27.478319144296513,19.272966962027567,15.617082256796301,3.8885488359427374,-15.56028459419898,-21.429349886757887
17.0,-19.225255952874253,-29.20818322666181,-9.98292727378773,24.163778748431746,-4.56721406636381,-19.598072216217357,23.824691398951515,1.5649930973424624,9.052406408623533,-2.0242390211942487,-19.99362275777056,-21.31427118755732
18.0,11.76468539667422,-3.013406129870507,-14.778091526545001,-4.349501292461561,13.245983554474105,-8.8946171440689,-2.7100184901280144,-0.9594568783340183,-10.79160212905763,-12.748601593695735,-9.540694277941075,-6.602561051828065
19.0,25.053988719180904,-7.2552934859825875,-32.30928220516373,-8.949574144626363,28.734505092305803,-19.784590177006418,-21.048758796846045,7.09187153440483,-24.678355963091423,-24.676827223347164,-10.597679896149415,-6.763368112179738
20.0,19.479916782695348,13.826366135366523,-5.65355064732893,-16.620414888041644,12.53984709108933,4.075408702117446,-14.851359833332925,8.627364458294286,-12.95447598055756,-12.264664077262267,-0.12830715877569387,0.3140682019018577
21.0,2.917959391658586,8.959160495837853,6.04120110417932,-5.900397439944191,-1.5907535944000601,7.478167818159946,-4.571424121781138,1.5163746715506439,4.076458006676292,3.0745465700016883,10.240557318209154,4.95481394046184
22.0,-21.714645194125275,7.106137232998478,28.820782427123863,7.269223510052276,-25.30058436639486,18.00991986457955,6.1762399995227995,-19.290622719728617,4.12410554155119,10.082470165255776,7.8669010272059765,11.420899086022336
23.0,-40.1080463531637,7.590594498705061,47.69864085186879,16.306592950702232,-43.86222558179699,27.683683258738455,8.668948432788723,-21.27723426590687,8.967386251803902,17.724898835274825,12.554718910171998,17.634635364312985
24.0,14.304971629758281,15.869299837196552,1.564328207438198,-15.116727761600195,6.40667816161854,8.673254779353334,-4.150831798678764,5.577141307503647,11.896029857645985,18.507495115167586,9.39798189107833,5.186255920638251
25.0,12.944084480062235,3.6490657687688204,-9.295018711293707,-8.328384948847901,11.073529303702399,-2.788921611654328,-3.733841399702327,7.8425262520322345,10.824424342400086,9.756705377303895,4.406963147781693,1.2609034523689044
26.0,17.45195371515995,-10.38585427491089,-27.83780799007114,-3.5699315147034056,22.67593606175864,-19.156426360240836,0.7139044117365547,20.23250173905174,6.643393289639592,-3.935293054856772,-5.327264551649435,-8.38826642010277
27.0,-3.4489725624218046,-5.972053626597136,-2.523081064175564,4.746338379919529,-0.5100524507783213,-4.292178954435013,13.077474328821408,7.7316166308010565,2.7007823192374927,-5.6855264217002155,-2.4900251692162634,-3.122842902222372
28.0,-21.954801400007945,-23.311515040626148,-1.3567136406182563,22.664336786039282,-10.264784655029569,-12.30075773807201,3.58568098868471,-9.416993171758682,-19.302074347607494,-20.35330544160343,-15.343625984853487,-9.742499813234078
29.0,-6.400739601710973,-20.988387645316934,-14.587648043605835,13.724298199563815,4.131692314162464,-17.756167712507022,2.539207412005246,-12.060123644272377,-22.33226730538724,-23.625048407624178,-20.465978517723194,-18.777754870776626
30.0,7.275909642829733,20.523263878459158,13.24735423562965,-13.94635480841135,-3.021768128707987,16.915253399016038,-10.24651034702689,-12.511850656268885,-4.375150383797665,0.6449077261310308,3.598209936952923,10.57666031378423
31.0,10.48333817114105,25.320906076806562,14.837567905665697,-17.86511288562669,-2.208982088700804,20.028363931878552,-12.319066469898313,0.021833123831639156,3.1989689237876178,12.484619872747203,11.44705013514558,9.839262684668455
32.0,3.8718349862741492,-3.413487396904074,-7.285322383178183,-0.26487151972531997,5.550163341288274,-5.323652736864034,-1.095513370447776,10.123011346998343,8.019973825197738,8.957404862560075,6.9366149612561046,0.21181367193587164
33.0,-3.828695537588497,-15.929253200373003,-12.100557662784627,9.848526462308197,4.1888267113416635,-14.069904383177594,4.851445588760903,12.29616987115599,10.892221160288718,7.715418640051228,3.2573067862059624,-2.549042793705361
34.0,-3.6241517299152473,13.703734894016284,17.327886623931317,-4.988236421288947,-10.421681964810105,15.53810658047479,14.330165961028534,4.238704100133874,12.719742693444232,9.458434548550077,12.571172693100596,10.50434236495597
35.0,17.939549276926023,16.300279726838667,-1.6392695500875334,-17.14620574541488,9.764751910220848,7.352453870722776,-5.921033507030009,-0.4756914548365172,0.224441610034404,0.7612217466531614,3.739522053461946,6.031525019080951
36.0,-1.4286307254208441,-16.770199556657914,-15.341568831237172,9.072013629535746,6.929134709660055,-16.032787006054427,-6.844943312078248,-12.501311627051782,-9.164423113889905,-11.738923504221447,-13.973387448302377,-12.138054728204967
37.0,-12.76615050647915,-22.12742933137593,-9.361278824896798,17.49564600101596,-1.7352251869079773,-15.797434482743462,2.2893916672538213,-5.6636616651566944,-11.164456259267823,-10.706426509634792,-17.916606047799526,-12.302395247922464
38.0,-9.612285165897141,2.2237879308073634,11.836073096704512,3.7397948847780977,-10.685824375148027,7.059022027482378,2.439744199191788,-1.1038837078093513,-5.055414866482061,-2.6709526897795683,-1.2145814623596625,7.104233073802527
39.0,-13.38507763451301,4.98138667219665,18.366464306709677,4.164923841738446,-15.924222303117974,11.706430688265517,3.911070545737645,4.984799644556861,-2.70167634771217,3.101279099786437,2.7747999863352155,0.7642190679259881
40.0,13.202654601525671,32.98917882519868,19.78652422367307,-23.136458599279376,-3.267898544747718,26.344241518736396,-7.908887851879118,4.759303648258611,22.616695350650016,17.790945574001903,20.969772558283477,14.834912350403036
41.0,10.452392528329906,1.0869301592694,-9.365462369060422,-5.812798937054523,9.930340019206165,-4.181354132677546,1.724705250514167,2.8156325971436584,10.899663989568392,3.5128211616702805,8.811866032883831,3.566451300695788
42.0,11.833523398963383,-6.265696654105467,-18.09922005306891,-2.7485785663942712,14.989346999441691,-12.145152604246906,-2.8375180750140956,-5.545777592806241,-11.977422622892053,-13.4679442906825,-4.966144929642889,-4.965343661660249
43.0,-5.356500872170032,-18.433837137908075,-13.077336265738154,11.933575998206653,3.888023721566432,-15.717913415265471,0.8399743045680106,-0.844437164162414,-16.685669392001373,-4.754233256207365,-8.191371927566333,-7.522170986046443
44.0,-18.022643725512246,-42.39062521138222,-24.36798148587004,30.251374791625153,3.126866507178788,-33.41973646933204,15.464904460277245,-0.5044496251270412,-6.053384774408181,-3.4411452955194424,-19.55222149556405,-30.167812370959805
45.0,15.964105974617802,14.133580980004563,-1.8305249946132571,-15.07489807566901,8.855034797641453,6.19093025123788,-4.416351819059211,7.083030672465787,12.482050807806441,2.9751137231816864,-2.559712563248283,0.12643789908929826
46.0,-0.05294607461438128,19.26462240780225,19.31756848241664,-9.625080245318587,-9.648629232583609,19.2530214588406,-7.018017365871646,1.774625213413049,3.281287444221598,0.3672948435671115,6.084784413309736,14.503935744326741
47.0,-4.6229710568750875,22.35479729054693,26.977768347422014,-8.882248442188102,-15.845593243414442,24.708019823106937,-5.440533172453966,-0.21514744971402056,-0.3469924801517772,-1.2845885426702237,6.343401644027157,20.151116967003023
48.0,-10.421689034301123,10.343778955204316,20.765467989505396,0.02006423011230929,-15.564800303523604,15.518313259724549,-4.215816122282941,-12.050519820930003,-4.59984094643745,0.09100874800247238,8.734906053596745,16.489009260664055
49.0,2.450679747529742,7.42324635769765,4.972566610167898,-4.963591874922019,-1.2362163150808945,6.162350531410059,5.171371028819573,2.9925660957169216,2.9129997568134565,12.0929917918609,12.595762763712374,5.243535863801505
50.0,-1.556880761806763,-19.61744852361091,-18.06056776180401,10.628229706945147,8.275301628841166,-18.794062895376587,7.638362396682603,-4.822736542518765,7.455383219563536,10.335401431962728,-0.9449666245370638,-17.98417053102609
51.0,-0.3885997610286922,-15.204295875493735,-14.815696114464878,7.8256476399591435,7.160860934769716,-15.03998855455782,1.9427961559865583,0.5990965465475275,1.1648948628878815,-6.589844337646332,-12.198747926856646,-20.054458255457845
52.0,16.830268587213197,-5.801367701334486,-22.631636288547504,-5.495831932007007,19.76335348153393,-14.16134515422846,-4.548985591548494,4.593342814355138,-3.712600794065073,-6.710580465008212,-5.640867104925826,-6.4584507979835735
53.0,3.6088126395689564,-0.9242535403600716,-4.533066179928902,-1.3318584455718188,4.033494949352438,-2.74382683392634,-4.635408273527317,2.5731500253873616,-3.344686869498669,-6.708765756044464,-3.074133999436498,5.562722428039889
54.0,-13.14786618248679,-8.483882861221081,4.663983321265739,10.741992074111531,-8.85490293779352,-1.9164263811634414,-2.6562813493028825,2.8274922237651694,-9.063478258030589,-10.548887606945272,0.22992065915076632,5.340436026044026
55.0,8.273965604091195,10.80504301349906,2.5310774094077235,-9.537514991334241,2.8524165270751567,6.667994866667311,10.074670421761834,10.160525626583402,5.6441088951565295,2.293433387237492,2.216573097862026,2.6643064974626895
56.0,-8.326048651560034,6.3494891855133275,14.67553783707314,0.9903705115527544,-11.513533335324553,10.514059256063868,0.47736317197683453,-3.729776134099252,-0.7827197985043408,5.36560680148396,-3.5232047644439026,0.7510975046033002
57.0,-3.226216650537763,8.577288985024651,11.803505635562217,-2.669819189032088,-7.524304789905238,10.187139948868541,-0.2335469131667085,-6.140861694172466,4.475585929398386,9.075587142718458,3.4201857474497412,2.2603196637384673
58.0,-0.6401423957461221,13.442986042714441,14.083128438460486,-6.388314982468423,-7.370417317060956,13.748537494609234,-0.5237265045055002,-10.586123090023264,2.767629286638326,4.571125541107145,3.8518296287737557,3.8156766573584298
59.0,8.614093268755726,1.9365181170655101,-6.677575151690171,-5.251766786562525,7.636094537102492,-2.401046111017222,-6.47000468300477,-1.8811568654369042,0.6766385910652821,-0.9099158893899668,5.827973396289579,4.0183726749735404
60.0,-12.147918129742319,-27.588211625755775,-15.440293496013371,19.90314068429115,1.7137105902246672,-21.48364417075259,1.373276661876512,3.0520956696222967,-3.140408763097974,-6.247135263328964,-2.6865725045029256,-6.8422108137714694
61.0,2.3863122703245545,0.35649588322391956,-2.029816387100608,-1.405143126285525,2.1953934751686734,-0.8216945374323483,-9.182025790776608,-1.3631125359960135,-4.902482063505914,-1.7146146502548114,-0.001077526109365179,3.1582795077869985
62.0,11.99356635356425,8.874793846791514,-3.1187725067727063,-10.462011809473111,7.541904654222519,2.882344027976364,0.9080700108892488,4.243038468447493,-2.8009101440304014,0.3532397634882267,-1.5991168879738984,-0.9636722664790889
63.0,2.330095189542945,-6.520829250787523,-8.850924440330404,2.0684093593181987,5.573762237433663,-7.685560081307206,14.238671829056116,11.25899582223202,5.474965677563089,1.5304868195050032,-5.104143430958205,-9.176896958379274
64.0,-8.46671870257738,-10.682235429134254,-2.215516726556789,9.544334338714842,-3.1464976461298084,-6.446090438963001,7.40465392966165,-0.0960839721318294,3.2794979990732753,-3.333825289714657,-6.925207125916007,-9.824905802455362
65.0,-15.195412639235297,1.029910281077096,16.225322920312472,7.126641093210954,-15.658688422272327,8.637754848821906,1.1230088765487936,-3.700572697902902,3.4469695895566987,0.5780302218823616,7.458884417546851,5.150342066429881
66.0,16.48776435847062,14.715100606146516,-1.7726637523240942,-15.560958263835097,9.095210911274352,6.4124235591396355,-11.793780724481694,-2.325638446291636,-0.6849370880352621,4.430988802944548,5.064712003219056,10.31514272157116
67.0,6.972300029560994,8.87394512817221,1.9016450986111444,-7.88299752033039,2.5702463561742404,5.417538768614132,-9.45981912385978,-0.6563022230312976,-6.498084380411585,-2.4106618778576765,3.790630815175155,9.174455208299996
68.0,8.52729440787388,0.1354852492353924,-8.391809158638658,-4.367327212862662,8.40729675103729,-4.090647556913764,-3.9568344888488785,-2.0535731034875204,-3.3332102992817716,-3.6207456720825295,-3.5073825077262546,-0.34869623366923985
69.0,-7.2423614828166905,2.503217264592209,9.745578747408686,2.337813275678183,-8.474006968968265,6.087736427159158,7.909645976671662,-2.4175112998298633,3.73615838827505,2.6070491984515636,-0.8968631262949625,-5.246159988792175
70.0,-26.08287477239408,-23.32470745585374,2.7581673165401632,24.675635825038626,-14.403859502605856,-10.318851991005303,4.971122486144944,-3.286964659392828,0.45552051672626026,0.9950752001239385,-5.770045829944844,-10.861929480458812
71.0,-0.014434632124679325,1.9184674325017994,1.9329020646263995,-0.8999223618652188,-0.9562637198212016,1.9668978862303792,6.689103966344133,1.629988725920009,-0.21014067681845328,2.1708472284491047,-4.780957856776066,-1.4451445006257737
72.0,8.648177392496391,11.471969642864146,2.8237922503677924,-10.087740441035015,2.8556496655922103,7.185039106809145,2.600313652957414,3.843714186296984,8.357496609650008,6.9705016247368645,9.163115434881888,14.383142282656287
73.0,14.01408870745462,-2.2314161124405487,-16.245504819895103,-5.921837055892245,15.160007604115854,-9.285118789735982,-7.662061606404702,4.005873413867571,-3.979602188578789,-5.869030803625119,0.9029286347934402,-2.5517484313418075
74.0,-11.605624970888003,-14.032235164252612,-2.4266101933645086,12.86381700785423,-4.549678417988887,-8.202366225676323,-3.0134704993128087,-2.2554056362866537,-10.715153689902676,-10.699296216392595,-5.058689762395057,-10.422848718074485
75.0,10.79627357327917,25.827412020319265,15.031138447040206,-18.269596649099988,-2.1470985357822077,20.373514920788192,-8.429386864126664,2.254607690706033,5.764323283387551,8.176878618467981,13.419228354131473,11.865938300647638
76.0,-0.27085206244792115,-11.418453713369596,-11.147601650921574,5.806941761921612,5.415724395624769,-11.262376688167715,5.972181904157031,-0.27040241838068463,-1.3502726162956966,-6.306153923480354,-6.9429991146492265,-7.464092414529502
77.0,11.47715528560711,-5.190804878640645,-16.66796016424766,-3.18060752004218,14.053417785410872,-10.908969989238315,2.8155862016678883,0.7958566000418923,-3.612869835932689,-1.7261920642114856,-8.036444069515433,-3.9451649914596496
78.0,-6.242124466543733,6.042879902359805,12.285004368903618,0.1423017047976729,-9.20430074220322,9.18594431292659,-0.038386381850472606,-1.8993005880674432,7.155004444832038,6.053998400420305,-0.5956896483368688,7.757615555813285
79.0,-4.60058342358034,6.887376266961447,11.487959690541878,-1.1775972365797598,-8.067420320874316,9.212135973492863,-1.408582662865592,-5.271126071860465,7.791722724674398,8.641509624103781,1.6117270347345565,1.9496796553474933
80.0,-13.17329550029419,-11.31170739964687,1.8615881006474009,12.288852822186792,-7.5464112102636225,-4.777257784044343,2.6820483105318447,-3.038052463190821,-2.426244464189928,-3.8026397543673154,3.886087557278294,-0.36545794485428984
81.0,-41.90028752292638,-26.997428776829278,14.902858746097154,34.417662811755534,-28.358376531318093,-6.098703107406515,11.341175098450421,-0.7958265267801907,-8.793970150891905,-7.0718076301949875,-2.784539685952216,-7.58197265765166
82.0,45.30631180747773,36.72357334559201,-8.582738461885706,-41.04603044165033,26.902865334260014,14.097116809191427,-9.83227881268154,16.51677723049883,7.538660339132848,10.53231531984233,13.93267995690505,9.16127259151612
83.0,32.040742115657146,18.05903129695348,-13.981710818703665,-25.003694749942156,23.04343720841863,2.0639577476697313,-15.688401804811187,-3.3832191536885503,-7.664143846618558,-4.058101149152169,-0.29818881671878117,-2.0890768760888925
84.0,-9.731145582887898,-14.822370448923875,-5.091224866035956,12.319454255428113,-2.2913268766856536,-9.932826591913901,8.863577121367257,-6.477328037530857,-5.753143358868643,-6.685064335518092,-10.210039910254366,-3.9591361738313453
85.0,-11.127515768510722,-18.87209801807207,-7.74458224956132,14.957970989251052,-1.7443771350713009,-13.285165035143432,5.674604339022162,-2.8589377676995977,1.558072897850804,-1.4371502745837046,-7.371364033710332,-5.205082926743787
86.0,-20.403961942447175,-9.720755662180167,10.683206280267063,15.012696384448734,-15.520513386309371,0.4252720125357037,13.551032543655515,1.5101512994142228,13.816103488085425,4.368491755319507,-4.622474514030435,-0.3200946908450313
87.0,-6.05858364732298,-0.6973725153097439,5.3612111320133025,3.3982239534030922,-5.690077623719173,2.354389737400871,-4.396699209786192,2.309990450528992,3.4654679091552856,1.310585734210657,2.0583384698464813,0.37032351890443216
88.0,17.117084745018854,16.326120945686558,-0.7909637993322338,-16.709456949365176,8.891503907343946,7.710895232770081,-11.875509977245674,2.8376064608645803,-5.920539222189245,-0.146063375467256,7.847902554340831,6.4216992697186654
89.0,10.797458573042348,13.5537398614385,2.7562812883962096,-12.168838508731195,4.033774350085726,8.176931064010223,-12.768481216792988,-1.1432991377163708,-10.00677790299623,-1.8663327786949138,10.13328650477372,13.307029679304746
90.0,2.901498329568298,15.066213596524232,12.164715266956001,-8.978307276597857,-4.619613223777417,13.638062800726406,-0.8523981808232097,-5.676861328433357,-3.9492489921351206,1.735269666042378,7.537163289204459,11.682298370249388
91.0,-4.90047328091713,-8.885495521529437,-3.985022240612213,6.901873204278168,-0.4439850165969089,-6.410880208838966,8.783741750446191,1.9982798020018833,1.2048611521609747,1.780679453366837,-8.217105386301633,-17.706988180705924
92.0,-13.244872515428472,-18.331388049504053,-5.08651553407549,15.804082915464813,-4.060560899165717,-11.682082937250621,12.038566521542577,0.5854953894162017,6.723878207175564,1.8897396117155831,-10.271338845562683,-16.329025431084553
93.0,6.395480079705274,-8.239967685944192,-14.635447765649355,0.8685396919506516,10.541119072525541,-11.487360093567684,3.97601035983529,4.155175512422348,16.23318901621,0.45724639959118596,-6.4972349633746544,-8.165124912478971
94.0,-4.893430241249051,-16.370644612988976,-11.477214371739771,10.666270032342352,3.246167715177626,-13.972633771871674,2.498325575217038,0.07092348900154533,1.281078492734057,-5.001468989810288,-3.1878291299123713,-1.7852548211577024
95.0,-3.551475663095208,-8.31935871186117,-4.767883048765802,5.898614653053058,0.5682583145008571,-6.514403545346163,-3.7138767681984306,-1.690769650500159,-15.092090920364296,-11.337907771505924,-0.38066087439918667,1.5239284432065996
96.0,18.15894796271578,34.50328127972872,16.344333317013064,-26.283755721334806,0.9490509936353119,25.45064782273427,-12.005186128065711,-2.023260852364958,-14.495320815642954,3.8848126887476795,14.591476167305727,21.44404241135119
97.0,2.9344522370620636,33.88229568836455,30.947843451302557,-18.436713307916513,-14.043816267938452,32.43869642257046,-5.456474689791078,-0.17224379323941097,4.5899572527858155,14.181590072712726,12.963998294643055,18.86730603344104
98.0,-17.132518505476238,-3.1170036207845406,14.015514884691747,10.097614336392992,-15.534912881566498,5.390862181426355,1.1255695056296715,-3.6187531858384876,8.563309377494688,3.2913250319376104,-2.3748110949984103,-0.6579857662246038
99.0,0.02247172548802734,-20.752051561729793,-20.774523287217782,10.416408245588574,10.433672480584175,-20.745717506066608,-2.5132512249108374,2.7659057786425936,-2.2034961353303766,-7.440296862838296,-12.054399828351647,-9.700007583686467
100.0,-4.210827407563394,-30.693510442815924,-26.482683035252503,17.42432742141755,11.087960437022586,-28.572652810290574,14.906074051273,1.985090133712112,2.5260492573671502,-8.25567654043625,-11.703155235654078,-22.32740662257614
101.0,2.5210193851364004,-12.210475654595598,-14.731495039731984,4.894153183040046,8.652908515074405,-13.45716362359339,6.524659847522493,3.249945424361873,5.08570311184254,1.5827232246892358,-0.37688930754897143,-8.644875926487137
102.0,9.509286506025719,22.57945344926612,13.07016694324042,-16.07647226224806,-1.8358091834109338,17.837208823213842,-4.808381484597358,2.855701401151712,10.051692088445831,9.302694600395167,11.685206214804897,9.18076891649051
103.0,1.0983679038092045,14.790344006866597,13.69197610305741,-7.981169705059056,-6.275268754540003,14.173459811939576,-7.6669869828411645,-11.406479346460959,-12.807872026061233,-4.694923481353561,3.3469343824758186,5.387474821713014
104.0,-1.1231561376911503,7.423382127655994,8.546538265347156,-3.11509024328313,-4.8133100655628995,7.995091064176057,-2.3799585992086296,-1.7641963772662832,-11.375779607142071,-0.45191764659168143,3.296027550577728,7.720662188145958
105.0,6.928230891356024,6.214249233917901,-0.7139816574381594,-6.544848088165784,3.844520572680412,2.7606220455071027,1.2003291447524154,8.402798956872765,3.9326151303362566,6.85045302862537,2.487726526848992,10.318111132175204
106.0,-7.08040395462132,-16.929849630722288,-9.849445676101054,11.943773546367282,1.332389364193973,-13.376578288697244,1.9283205491879647,4.54079508357381,7.185607247596495,-0.9629338307218862,-7.7456768010260655,-5.550337331523407
107.0,0.5466102562282469,-13.655648789171991,-14.202259045400355,6.56459200870063,7.404540606580092,-13.910613620012283,0.6090735375623924,0.19387868815707954,-1.396509406581996,-10.065610454037534,-14.051607740318637,-16.97985068165767
108.0,-14.256658665740854,4.002278871847887,18.25893753758868,5.133843078027976,-16.225109794587123,11.156508957461117,1.2038705563395895,-7.001044412109183,5.166889234023246,-1.4197742453581652,5.242125720443153,1.6629806182392084
109.0,-0.4168551577146271,5.1833459533015835,5.600201111016199,-2.3743962373025367,-3.0537617428963326,5.34759513226639,2.250803903111957,-5.747724037096626,-7.802511039336659,-1.1490785384165403,2.1546964740231314,3.9246189410740016
110.0,17.068597579773648,28.56069705389756,11.49209947412395,-22.79752195532488,2.7419870577258196,19.990553219052153,-5.717580663300886,0.3060599361100458,1.4141148224501154,9.277464428945306,12.911655430927484,12.287727957932333
111.0,2.455661872927644,-20.60492813640372,-23.060590009331293,9.104953738507074,12.78846438233825,-21.78297810268318,-1.4774046606270679,5.587185381645344,-5.248583346457238,0.8528703534025759,-4.0371971335642,-9.583432362788578
112.0,-5.980346790494524,-14.327181922643938,-8.346835132149337,10.120884629928486,1.2115202886584422,-11.361027398021346,3.0503441103069973,2.591050165438836,2.2575166180268225,1.404429251087203,-0.43213230662568014,-3.1651619399818363
113.0,-6.4803715515848,-6.123292614570721,0.3570789370141245,6.283679461482201,-3.3914046920343237,-2.9040004333312126,2.120208027285643,-0.20543820792182776,5.031655475814145,0.9778438823749427,-3.751994351180947,0.6196951583970429
114.0,7.176479965516807,14.957947412382161,7.781467446865381,-11.074238199069491,-0.35349419982303387,11.429175775825314,3.8400373255270157,1.6627429300296177,9.21989375925635,-1.2339633817617388,2.2510920003107913,8.469297800416154
115.0,-4.294476658614957,-6.640111213843172,-2.3456345552281688,5.4661881034457025,-0.945424191496679,-4.511916577620895,-3.054075832625733,-1.3266446416728277,-7.796495396103154,-12.752757235942713,-5.679863870834921,-1.6624413660286064
116.0,-15.28911112213042,-14.609156137124454,0.6799549850060673,14.948498954898158,-7.954491582669845,-6.98497864900916,-4.246721492912885,-7.139085837614266,-10.6067368948093,-7.178533634973354,-7.136912555039831,-11.663553328046481
117.0,0.42918378094818443,12.26102641868578,11.831842637737704,-6.349929242805234,-5.750008313042148,12.101539158661838,-0.8628472527020161,1.02871600647729,1.869486766743969,11.597693003023545,5.939329073174061,0.08190065055463558
118.0,14.694611963949457,26.364459202819223,11.669847238869725,-20.463267801558512,1.4627145712488918,18.988244089946093,4.137210179665238,3.4549819273919287,11.452542526792662,15.501530064800143,11.283125854605293,6.716679796800747
119.0,27.5026843202295,21.168629005142808,-6.334055315086823,-24.35817080932349,16.94642968876542,7.381862159863802,-3.6512605694468823,7.558342771119987,6.000757135052899,7.578271962799471,5.914047391326811,8.321842786185648
120.0,14.61645278590926,-6.608478938132208,-21.224931724041685,-4.038014931038764,17.949237949518558,-13.958128981875722,-3.830834776474079,1.173971599733266,-6.77367499646695,-8.17794268295966,-6.651202124529155,-4.772257338679809
121.0,-50.95814234239443,-53.089207326084626,-2.1310649836903917,52.056367263934284,-24.381761496672162,-27.575894391478485,15.403907746482233,-9.074991194781237,-11.13775924298872,-19.9122609899074,-12.958471784374748,-7.604343143948165
122.0,-23.584025466109154,-12.654094945834022,10.929930520275056,18.061854726531333,-17.297822626388506,-0.8259991610063473,-2.4859757167636447,-9.476298391040556,-5.452251641680306,-7.544141243148749,-0.8970545093844047,3.45420031712822
123.0,33.312168078824506,25.639267820598725,-7.672900258225774,-29.462547184817105,20.538294444725974,9.026478390559035,-14.651501834150526,2.2306399032575293,-0.02076299917655522,3.5689647329766956,2.6701580451540674,5.247656958624452
124.0,6.860663885842275,21.458269714358035,14.59760582851581,-14.149925095436341,-3.8939343570462386,18.003303203303336,3.3778762858149447,6.368613024198069,11.81529389202471,17.67787150762253,13.545558782609834,10.34686136892759
125.0,-7.411034250055621,-5.265486155718852,2.145548094336821,6.350186265457434,-4.798633476506954,-1.5737680131804481,4.1967313040201235,3.332428247967289,8.168855081489674,4.4227482214976455,-3.0641474917674048,-8.192091716740658
126.0,4.7572947098900675,-4.732573307478637,-9.489868017368655,0.0077691244946116456,7.104712963957775,-7.118317487468356,2.7514855976636072,4.263031200482724,1.4262142447743758,-4.390633988481392,-6.550695419606354,-11.881052499987401
127.0,-9.647556516058373,-13.324018184315495,-3.676461668257075,11.517997790716379,-3.0065708300748404,-8.507858146134712,4.1016748988258565,1.3899496437960261,2.60563670909375,1.864499404083456,2.453390662834211,-6.010111122664987
128.0,7.111613456728454,3.35083369351733,-3.7607797632110724,-5.26503596322939,5.4892209531867655,-0.22111161281890235,2.440950518396207,0.9525088457197194,4.309189506513585,5.45994537487763,3.2842432494279294,0.5037230466759843
129.0,2.668980893354293,-0.053398206216366484,-2.722379099570673,-1.3316477569935892,2.7429667749276674,-1.4185963945149518,-4.997066706692339,-2.4578610364802276,-13.616531576385636,-11.279222287806073,-7.665356341908867,0.2872001168788647
130.0,3.108226379176485,4.028868573309875,0.9206421941332883,-3.587569247968739,1.0568877047703138,2.506261405870594,-8.27649830790427,-12.774302091773428,-24.001326789396938,-15.079610948174839,-7.9814517628023856,6.143787657067447
131.0,-3.5015290556356526,24.82033270929923,28.321861764934745,-10.679200803694357,-15.952808991679072,26.588923626504414,-11.287317921933626,-7.974598343325847,-6.672684086967084,0.5919707941467678,8.589418908834588,21.4810257838555
132.0,-3.991601418655294,0.5872575908829685,4.5788590095381405,1.7560460691141624,-4.249870992625303,2.593970974902641,-0.2423131395627367,1.2683696179594843,9.114909928252413,6.338853377949276,8.92209180416216,6.744455083971879
133.0,-16.730484692256965,-24.225722535764014,-7.495237843507107,20.446135173920794,-4.660691594150828,-15.84799338442273,16.21765914031769,9.9606598449893,24.310019209561283,11.623656758116564,1.5466718851329624,-7.082758450305885
134.0,8.31449660067765,-19.857530000911865,-28.172026601589536,5.811307199322681,18.282445473294352,-23.993107606366447,12.156243731728821,13.518111225692653,16.480233843634856,3.2323757455704953,-9.491021982443835,-25.40030300419264
135.0,17.200809982797665,2.4498655890315124,-14.750944393766169,-9.7913558582533,15.943135291058322,-6.19376416887639,0.9388564923509533,3.987051052895368,-2.8806006291516315,-3.0220095652447214,-3.2266250774267315,-11.403015832589228
136.0,4.814295599984392,16.554523002773454,11.740227402789042,-10.733963681154606,-3.407538039136462,14.1188455964039,-7.704475360567154,-6.040394101040844,-6.182741180371227,1.8301069580864175,6.646096909413322,8.488894524597736
137.0,-6.7372192409442375,11.590774105541207,18.32799334648541,-2.4022462614905162,-12.545726565103154,14.94290568024452,-5.5355487995215915,-7.669799029967599,-11.86789016293481,0.11748074146441034,3.0859192325053617,9.193683568456958
138.0,-12.377303005273905,-3.002535063212103,9.37476794206175,7.630395018838729,-10.88084511396109,3.2554695753260123,-5.355048379156777,-4.910402539963857,-14.427303683540119,-5.426743277304357,-3.7585441960715125,6.757347641047676
139.0,-0.608331556188082,1.7317446504166079,2.340076206604695,-0.5483204540863151,-1.4754304849574824,2.0277063765867096,0.07157777726424897,0.24023963480671107,-1.313038472026049,-4.717411123061812,-2.0698440879213265,5.2649464610315
140.0,15.762786214069582,6.378828259478345,-9.383957954591189,-11.06265835483094,12.568952054145512,-1.5150750506545592,0.6353244295663212,2.4042943943162793,12.603959349711754,1.036445924389477,4.7771627583043355,1.230289451885484
141.0,-20.177075407938972,-19.592613228063755,0.5844621798752714,19.890037562446462,-10.395579684233269,-9.524910507576356,6.1027989686524915,0.6118000137688668,4.966341881344643,3.02276702050406,-5.298651838927477,-8.123444643069732
142.0,10.822692016549553,-10.41782329143427,-21.240515307983806,-0.1965684455457275,16.000788441505307,-15.860094125833049,0.4948310308986983,2.299336893764261,-3.3780432626776435,-2.5672335143373455,-3.9156429449934094,-10.063923501866384
143.0,-0.7441202816540842,1.9506621714158285,2.6947824530698767,-0.5929026759141314,-1.6898371530165317,2.361179680421859,-0.5841428877465566,-1.912012062832793,-0.27641130211814113,-4.172546922031297,0.43473795575668583,-1.01444504425531
144.0,-1.751240740064042,10.019086141833473,11.770326881897441,-4.116519045210287,-6.7477125503264475,10.926511141117576,-1.743901169129277,0.1843536804849626,2.6153095525469183,1.0386845430020393,1.1086851343091109,4.773890233385717
145.0,1.7069605218739519,10.081943686399544,8.374983164525537,-5.869956168493035,-3.3320445757330077,9.257223993619101,-0.3403091643206732,1.6016115031348854,1.80255074786417,6.172943360613351,6.783595450746018,8.650928299090024
146.0,15.39138804598495,18.473929060762227,3.0825410147772905,-16.982491006735064,6.152856382845468,10.72848781729681,-3.078108954613128,2.231157171757647,-1.204219646728666,6.267573267593638,6.470534317079863,7.10008834042486
147.0,-7.267740105447662,-3.4046697946147413,3.863070310833009,5.2863111418734885,-5.562930235053406,0.18188241867915877,2.4418464917776674,-1.224967958789764,2.440362197387925,7.116590840095823,1.7661464559306843,0.017675812222271325
148.0,1.4053450460933958,-20.724869803186166,-22.130214849279437,9.684011019464315,11.779804639351747,-21.392705628987333,5.313738303256503,3.9014631136391316,-1.5884744467655705,-8.201818874207255,-8.757690274985917,-13.015617386622857
149.0,-11.788070556837628,-24.495824991668155,-12.707754434830445,18.15877532681412,0.48344915297126523,-18.56344196397709,0.9350248857618411,-5.572022572065293,-9.149188654538143,-14.32915205282671,-10.885433712279625,-10.289662514260431
150.0,-1.903564961449633,2.6492797342693084,4.552844695718917,-0.36349394682609226,-3.273517304431678,3.5638311042953834,-3.259772926142451,-1.417353072567916,-3.4870354475375294,-1.4329621180269791,-1.657693964174081,-3.1529316617231204
151.0,-4.6511659928514355,17.941985172220654,22.593151165071998,-6.640886038961427,-13.662298075682543,20.23296220197266,-2.009860695361393,-3.279809601551811,7.738442475344538,11.444986792847503,5.11835320416332,9.486273081672381
152.0,-4.373884559716544,2.077161396291242,6.451045956007665,1.1522594711005993,-5.37450677634782,4.310093427454927,-4.543185877962075,-1.3704986637773753,3.948212437821972,-1.0807861885936925,3.2260937115960684,6.086830654019026
153.0,1.0332015915005193,0.20314226421649817,-0.8300593272841157,-0.6106100132656769,0.9638971504824021,-0.2668793593011882,3.130472846250507,3.681999766194464,0.7139351809824346,-1.258612318813372,2.06471117728637,6.085444760782425
154.0,12.477683949571706,10.564566324528698,-1.9131176250430544,-11.506861034632502,7.140495526488533,4.292166913914604,-0.5674465431568931,2.472280016250258,-0.1994016967644019,-1.2983363424865217,9.066137019602397,6.720636975525659
155.0,11.524947179416717,-0.3247414033256266,-11.84968858274234,-5.656767801355678,11.703016313094293,-6.12476145909081,3.4712735208962227,5.557642346808992,-2.093261611081086,4.545765010492113,2.7167191373859128,-7.073838208828382
156.0,4.976140661757822,-3.2891148163789374,-8.265255478136712,-0.8142650325658229,6.63127575959754,-5.742561765085361,-0.8888197561036453,0.802976505100784,-2.441246026083872,4.821261913505968,-4.064967010091359,-8.063874414078555
157.0,1.4929144718195013,-0.5211314640528348,-2.014045935872269,-0.5299284774387689,1.7636091455761609,-1.319848790024369,-3.4416584492550317,-4.688254893478571,0.11090306463008393,-2.9028515501094905,-12.177407826747197,-3.9433980553476955
158.0,-4.748657673859493,1.1409622935894257,5.88961996744898,1.8421755498191184,-5.30474981532195,3.5340652975000606,4.860953754076888,-0.14187358609023581,3.4833663938699577,-1.1644358840879807,-1.0826100490789576,1.3135674728285434
159.0,-14.129070589744202,-10.409431663863806,3.719638925880432,12.309820087224896,-8.902522665605158,-3.3311406710004703,1.5009165561101303,-6.936964096819586,-3.2584810956483388,-10.542936081565902,-7.277398806822235,-2.5928226900529086
160.0,-7.786586659813208,0.23800445482352384,8.024591114636742,3.737676812403765,-7.954340440803737,4.144422416109819,-1.3718529026873356,1.1338738943068316,2.7073502185514506,-2.2992978316453194,7.212550745897618,7.383573606694231
161.0,-11.972743119835336,-5.538829643757866,6.43391347607746,8.720684241242461,-9.245633227410133,0.4647889748269596,-0.5464884476583056,1.8845377276464252,2.6089706211902044,5.658887093123475,6.6708558295585725,3.3751016046547124
162.0,3.0237235735092898,1.81257995338845,-1.211143620120859,-2.3726517782442946,2.1570062587134835,0.3257080794628937,6.526700497547537,3.789431706967685,-0.6630859050589295,9.8531496142966,8.72041613985101,0.7639676331716947
163.0,19.90009056083544,2.7968912696651795,-17.103199291170274,-11.379467961946215,18.540632291225958,-7.197671243190149,-7.615665671395944,4.817528473276097,-5.936659354603626,-0.4219379947465951,-4.359704885803771,-4.620398542531957
164.0,19.878994417994697,7.3614003392235725,-12.517594078771129,-13.570041403969128,16.15493411447687,-2.6140385755273616,-9.535951134411308,-1.9323521981450908,-4.746911065419612,-1.9877571735885247,-6.56277489183811,-4.881769609071285
165.0,-14.88329545346017,-1.000917286458617,13.882378167001548,7.915320123182221,-14.352608504550206,6.4113126357247845,1.1254058855684637,-5.846276007103887,3.4789153860216357,-0.15722085254554674,-1.3746191332281708,1.8335423744951624
166.0,-13.404295613548634,1.669136540527235,15.073432154075867,5.841164519083321,-14.292309914884761,8.42472614133089,7.727266357895765,-2.8498894332599587,4.633038173809678,-4.996403856295026,-0.8897592209920502,5.980481442928955
167.0,5.210170616485847,-0.9508963686028492,-6.161066985088679,-2.0790681673162803,5.70796290509069,-3.500588333050139,-1.1574502168211387,-1.0838580691348945,-1.1665573713641946,-7.714860973094897,-1.1634004703576304,-1.112895412685973
168.0,3.461042897781203,5.227298401918058,1.766255504136899,-4.376471088993684,0.8699168243422195,3.4734782215749687,4.438608130762633,5.6082302286792665,8.417655861244581,10.443184611531965,10.575334927999847,2.839289326025753
169.0,-8.62697032888726,-11.518641617556941,-2.891671288669603,10.03445751287017,-2.841598495642361,-7.230308377568074,2.0436710999273284,-1.7329636737314118,-4.195563465291626,1.656775836519758,0.18651227869252462,-6.843713929579323
170.0,10.988120338005332,1.01482281295669,-9.973297525048551,-5.968086398787572,10.434014454976667,-4.508263289084608,-0.3596505208534138,3.7884532899909655,-4.149648767292362,1.4264439566926188,-5.440914218956302,-2.2132311622160894
171.0,6.22939301522438,0.32377369150829427,-5.905619323716008,-3.250035018381029,6.106395661603619,-2.746903785934205,-0.17010629098469776,1.2061469555856075,-2.7575212335840993,-4.063522357474749,-5.707493072306466,-0.4690301245669588
172.0,-11.856412192843129,-0.14769489171929195,11.708717301123876,6.022871383831027,-11.81656301375802,5.738951706305586,-5.006126910042935,-2.918824641679007,-0.17419884807421226,-1.6866009566968683,-3.849263067493939,2.9534248015889
173.0,-4.699336960787766,4.930007114494502,9.629344075282287,-0.17739858961138255,-7.194765609791002,7.310033798538012,-6.173665292219712,-0.26252422867374614,-0.5805094085065665,-0.45148628113788236,7.264697232242051,4.874301389708787
174.0,0.8149388716857504,10.133114914472205,9.318176042786476,-5.459730332671487,-4.202481508426229,9.750371549714552,1.33022943881031,0.20254191109076847,7.99724986026505,5.414345919001664,9.186922623021577,8.996655174318485
175.0,10.841913195056426,-0.7925049037549368,-11.634418098811313,-5.011032063562744,11.206937263985566,-6.270989224089194,1.2068252436551221,-0.5000611949804712,1.0712327291447523,-1.2919168625261535,0.2284993268330444,-5.51570451388593
176.0,11.189715258516632,-8.049813846377814,-19.239529104894352,-1.5550719211606783,15.25889757335052,-13.624432324167879,8.073830274948621,4.13624656378446,-1.6548110991855431,1.1781286300394722,-0.8686383405706442,-8.424500493076541
177.0,-12.544451643715107,-21.300925197175626,-8.756473553460385,16.86194915575321,-1.932487446672078,-15.007185206818345,5.644977121442137,-0.636333997979281,-4.2692104511158915,-5.213164631423437,-11.342069048030606,-8.811872254180656
178.0,-15.345708790335888,-1.3447068091236476,14.001001981212365,8.36822542755544,-14.63726486645315,6.352324403531419,-7.740800565703159,-7.198814386492078,-3.7225432727579157,-0.8290451194499986,-3.9649112483634243,-0.5634779290287075
179.0,-9.6964190867142,-5.858065646829319,3.8383534398849335,7.806683922507651,-6.813984529003977,-1.0615946938962062,3.8606661211089097,-1.7203800927368882,-5.900600096032477,-5.1699421496713,-4.7221338949985805,3.7154679147764296
180.0,11.281661537228555,20.456707992297098,9.17504645506852,-15.832959113711443,1.0818997249851154,14.844790361239872,-9.57552686386801,0.3468920372148311,4.023793703874762,0.5729677218333711,4.127371676263179,6.795349950984509
181.0,-1.5704498297512437,15.769400836078578,17.339850665829726,-7.136391848440392,-9.42964601588455,16.505223507829083,1.9924762572708907,3.6910234930428434,15.089112053691641,9.798017409540241,12.157219884033536,11.292841251363834
182.0,24.97165565084935,25.155710387453095,0.18405473660359872,-25.097648184057203,12.338109534653542,12.698436524576918,-2.4903786513047512,3.4180726810856155,4.872352500453634,10.46836218302067,13.65246915593959,4.815028976562376
183.0,17.883664880644744,3.58140074497736,-14.302264135667507,-10.688140857291698,16.114578346261357,-5.333071318656869,-4.763652446189255,2.2815363186789623,-6.49705950936163,0.8678506153814531,-3.525117703681076,-5.579445804504598
184.0,2.1138476268614417,-21.07270035113027,-23.186547977991797,9.441960475111703,12.671913295904432,-22.18166096365211,1.3812238547673963,0.45644713468931664,-9.554714522076166,-4.785484400310681,-3.5201684019994843,-9.485414999520712
185.0,-45.59271825402023,-52.63439558532043,-7.041677331300235,49.07217870816365,-19.330327794389,-29.810889619583882,11.889373718905228,-3.2016606471646876,-9.658089295590331,-15.43765453265886,-16.17468839504349,-11.972974082722255
186.0,-23.090003094826898,-15.258063777707466,7.831939317119425,19.209197182806143,-15.432370740298047,-3.684629064111256,13.19534840508816,-1.7508088350736455,4.829001354268508,-7.9845058988313244,-9.729889390360345,-0.8830065308186343
187.0,15.808623747096927,19.59688968882591,3.788265941728957,-17.666107226966663,6.0455573910671285,11.72217155717436,-12.557553264052064,-4.738844219666869,4.842728584828192,-1.93512658905291,-0.5014501782462668,5.71541357287558
188.0,21.32826869568947,41.1605805226658,19.83231182697633,-31.20217244853408,0.7123872180089588,30.447052748346067,-8.313115595845204,3.0136490463271763,5.915389853838533,14.406726422081096,18.036372392261914,14.129005245050339
189.0,7.184817398865334,13.348983886857983,6.164166487992695,-10.295200086846837,0.5604956378895081,9.704727568840678,1.0535321641205586,3.479971362117415,2.705087928251299,9.927397660027417,6.647867711521691,1.4367769452113954
190.0,-4.803106958577914,-8.270429981469285,-3.467323022891306,6.516388690738598,-0.6920832332412277,-5.846402369518177,2.5201418188210725,-2.1703457835463027,-3.4420728549520048,1.8930745539638751,-2.315069411807901,-9.565073175589156
191.0,-10.782131813753237,-20.03650737107959,-9.25437555732629,15.393652125897752,-0.7874243304148514,-14.628019640042737,1.5212187761227922,-2.46409774117125,-3.6867840484183527,-4.622068679339895,-6.639470561774994,-7.426112591599589
192.0,5.332528551606205,-2.491040374334787,-7.823568925940929,-1.4365569354665695,6.551685540235244,-5.14368242440143,1.8066308146931451,3.3738471128700898,3.9798495327453725,-1.5398603671267854,0.6668830167263371,5.199790954357614
193.0,13.099751264464777,6.955375822962203,-6.14437544150254,-10.048050984802675,9.591179941373714,0.4181413336102713,-6.471013618433336,4.315004389104269,-2.5099456134104483,-1.6976048866326514,2.2370469085951576,7.450610579470589
194.0,7.024884204359363,13.65059517520788,6.625710970848522,-10.286605931026735,0.2437289948328738,10.153279927170226,-0.8185057099606825,4.3730089700717,2.7457594782007666,-0.297375703847075,6.539799836963379,7.403447338541982
195.0,-14.980747206608644,-9.20367152188267,5.777075684725965,12.057830228065042,-10.335754951168227,-1.7713531820674286,0.6665847308126535,-8.749020021942489,-6.395416505113078,-4.616061852537648,-7.259943265126267,-5.652943211559621
196.0,-8.467350456206683,-11.599591646774957,-3.13224119056831,10.073737363234509,-2.62242106891524,-7.337699852859112,-2.8594451195269253,-6.303363719518391,-6.49291072694169,-4.204344267506001,-6.663637014150034,-11.512794062737637
197.0,0.8515849729067764,6.248017098372358,5.396432125465502,-3.510177165146307,-2.30286728988855,5.779695354180859,0.27396110444253396,-0.26560606371158846,3.7111401732591984,2.6051374562210543,0.911267785649049,-0.37120502650605225
198.0,-13.818836625627464,-22.58753084656493,-8.768694220937547,18.165961619475134,-2.554017579310665,-15.63494718415842,14.117287456209862,3.2867598888272638,6.845561886717574,-2.446272030483199,-7.343800545034323,-2.606986369191281
199.0,-9.91377202860574,-2.4912990910665163,7.422472937539135,6.167702312651891,-8.699616458529839,2.5131756386500084,8.198232333163123,2.6161208785058383,8.226493071747285,5.507260285955675,3.984972066611096,2.9813967437753535
