Time(ms),I,II,III,aVR,aVL,aVF,V1,V2,V3,V4,V5,V6
-200.0,-5.947292388599194,-2.759423612154321,3.187868776444948,4.382686712320556,-4.598081802835871,0.19178948524866782,6.134671628625875,1.9736802607697608,2.133961080120605,4.824421114157307,0.03780928751650514,-1.0415584496970944
-199.0,9.365378580861481,11.825804271051744,2.460425690190349,-10.56989185283836,3.4278678065664163,7.116363408504068,-2.9426196189270977,0.325256004414204,9.793380980846528,7.430512654713513,4.548675752169149,4.829073716602699
-198.0,11.738638809086124,14.6601994056579,2.921560596571856,-13.174775909619704,4.387955094912378,8.75619769709358,1.6391255374940301,2.2282903422205758,5.5424964598459745,4.199065244075325,8.483328192885516,2.49438296483949
-197.0,7.586799705065739,4.193516922255182,-3.393282782810633,-5.944490909440718,5.470849122951192,0.43529783950504797,-4.421177124268878,1.9571297379923986,-0.45970297023976503,-1.488754241484251,-0.5663382522986686,-1.6268139614383883
-196.0,-6.642976247480605,-15.327154528778673,-8.684178281298239,11.008230564832902,1.0789853819063682,-11.97721414928043,1.0733064305136382,-1.2569813732612625,-3.61022189188608,-2.1928776877222202,-5.860618082932993,-4.146901215008259
-195.0,-12.232155465207653,-13.288390421248078,-1.0562349560406243,12.701458604981,-5.611455048737343,-7.146303861952618,1.5263698105899985,-0.4987494867832474,-3.833700056943297,-3.9512845785846356,-5.4626076001419355,-2.6985045418122415
-194.0,3.684736870763447,13.28906974111713,9.604332870353632,-8.471640913359387,-2.908927123074886,11.474722243474705,0.38449647853745517,5.903173419059179,4.895186793796085,9.071903804995038,6.262362346284132,8.456219612078042
-193.0,-4.93530707262461,-0.8087243557064379,4.126582716918269,2.882985861010419,-4.563909366951268,1.6129076801401796,1.7110321139361333,-8.887468941236763,-4.05180073610713,-4.0493444226409405,-2.40298542987521,4.5625072282804195
-192.0,2.48922151104848,-5.471164018556307,-7.960385529604537,1.5002587330863344,5.186564493786856,-6.757118172031461,0.38973167925140195,0.006385666539906243,2.774652581544526,-7.520217268399761,-2.104585943764682,-6.58774246520493
-191.0,1.9198703856930923,2.3464328969899246,0.4265625112971416,-2.121453099900999,0.7824247568667526,1.4262077120727372,-2.6166994241535964,2.3794326954960443,0.8284587650350548,-2.0891782471052975,4.090158564045085,-2.9960966339487793
-190.0,-4.138186952257248,-10.343174323432985,-6.20498737117566,7.2587727328137195,0.98723619698091,-8.31412046084661,-3.2987039624211048,-5.577562431042153,-11.212096261889918,-2.860412140536494,-5.136577417304544,-3.168351023245144
-189.0,8.260622649807594,8.654209275418893,0.393586625611166,-8.430790188666235,3.9655332401348917,4.559105261609198,-0.8493509469214366,1.3340391190267997,-0.5978371863636909,7.618638929734776,6.198780767697392,-0.3875017503718634
-188.0,1.2003875448814645,13.038314950774001,11.837927405892348,-7.163697454390656,-5.284119108912489,12.390651969981459,2.913946794706111,7.242676299519552,9.40750974086307,12.15699437879511,-0.3565741466398684,8.590006792710781
-187.0,-0.48374221410142915,1.4782642434089635,1.9620064575102605,-0.5373264891921226,-1.261452555893133,1.749459371882483,0.24711070507575794,1.1865835101204518,4.974483378396991,-1.915448548118527,-2.937825622301542,2.5061752996108093
-186.0,2.2164938094436373,3.554523564334208,1.3380297548904996,-2.8474540190873237,0.4864901561084265,2.477216870087635,-1.7848612672955881,-2.8454733036201114,3.078888459441425,-5.468099348916893,0.4132830056347081,-1.6183477505006216
-185.0,3.105748868387343,-7.382078229839606,-10.487827098226946,2.092428459281733,6.77201750386654,-8.898791235621978,1.943817119264107,-1.3865374614982076,-2.7653953995187304,-2.7320007112978417,1.2982187721441052,-4.870035100810851
-184.0,-6.880986706334295,-6.189106249604909,0.6918804567294483,6.560772726754035,-3.8066752887895365,-2.783985874984385,3.2845521752272817,-0.19787744621647652,-8.912596944212128,-7.3266219633751755,-2.5779021535700712,0.057340481886702044
-183.0,-12.913633729976853,-24.859869465961083,-11.946235735984068,18.905860648066046,-0.5026375426704541,-18.431758104564604,5.175358426997732,-3.3503409741706047,-5.583859872697333,0.07005720027578732,-5.151618800315372,-10.65753737876935
-182.0,8.959950511939844,11.652096624881848,2.6921461129421727,-10.290318884499795,3.113103228074213,7.147192288572382,-6.325844958987048,2.232539603690192,3.4709387733481876,7.269238830973486,9.282879060914482,11.91333727313796
-181.0,5.484822577794738,13.694410149597026,8.209587571802428,-9.572777634934686,-1.3085572271844716,11.005526901515033,-5.806456612093996,-0.4983883597897468,-3.7050446467257614,-3.9302399728061665,-2.5702987827326007,4.701591063168723
-180.0,-4.57003020964725,-3.9799027508253566,0.5901274588219891,4.218587992236557,-2.5315330018186524,-1.7241112886876016,2.708689656357221,4.863374709389109,13.317545562477004,5.1974098875424435,-1.3395279516070897,-12.22797493867292
-179.0,0.05362762045317515,10.55687475885896,10.50324713840581,-5.274232294660903,-5.2606506270600075,10.494740469704208,-0.24139351313344978,-1.1559737474463443,9.76993448539239,2.900822407633571,7.303585368071465,12.882081833103735
-178.0,-4.937174588197723,4.5536736350917835,9.490848223289422,0.15395221149019545,-7.2554420361080565,7.059610880891372,-0.2092646412999864,-1.7659226242110342,-0.6536516663826242,8.245193203154681,2.250517491902296,3.502858026593181
-177.0,4.919333727849633,-4.050544153992205,-8.969877881841944,-0.3840376113923646,6.9767163398242165,-6.47722109832671,1.6712188639099752,-0.39334666711295285,-6.957352726977796,-1.6056886984730907,-0.6364330671678597,-3.3856504137406676
-176.0,3.432278395987037,-5.620890814727911,-9.053169210714987,1.0733656729308083,6.191853447843175,-7.306057106739854,2.7894427355468876,1.7712133145258346,-14.292951274498375,-14.196400786159087,-9.617239673875458,-5.992303155067237
-175.0,-0.038537407820689484,-16.701461875277012,-16.662924467456374,8.353704173281473,8.337670674205294,-16.73017993222532,0.7323032864637784,-3.2796250937055027,-16.372454368518632,-20.53320312726064,-17.90333300349255,-10.951902501705012
-174.0,2.2859237385449505,9.807426395390506,7.521502656845598,-6.06138162014763,-2.5921741592055283,8.616925370268929,-4.529703991188907,0.23153399449913525,11.993166876092728,14.468629773641792,12.63914830370932,7.330229281426945
-173.0,-0.4984582740978407,5.129036600808184,5.627494874906148,-2.252459077681432,-3.0346061678831098,5.409617025751911,1.028235134118562,1.1486387616315974,19.649034879311124,11.462015305297463,10.043060609821065,-2.1873757525549764
-172.0,-2.149286298062999,-0.8777841997447964,1.2715020983183507,1.4941775595320679,-1.7561857068058733,0.22782441401849685,-1.429519957639788,-1.5004476497770844,5.4457493935964045,5.763679809272012,3.2877614897790206,2.69216003104877
-171.0,1.534134763306502,6.149903693347399,4.615768930041041,-3.866281365902008,-1.5028227208004332,5.3347407777399845,0.33850983583129546,2.0395344635074926,-0.5180613497506741,2.7373108398989645,7.046923646508583,12.673314343911949
-170.0,-5.356015642728235,-7.615439837193619,-2.259424194465379,6.455960720059915,-1.5849229518889203,-4.90592670634117,0.14910915782508188,-0.6031002815623001,-7.334069740572052,-4.0566552035501715,-7.850724284126052,-3.1857988165376883
-169.0,2.2495212590378584,7.761103061376044,5.5115818023381165,-4.961550013421533,-1.6651097333580485,6.592131815056917,0.4120392217548177,0.5713800329617866,-6.192807260715731,-4.845087862115728,-6.42224133517861,-0.6831545104332007
-168.0,-3.163977076569077,-9.312267233247296,-6.148290156678304,6.277674627087565,1.5381089943019368,-7.690157454947286,3.0848608803844773,1.5201620120482775,-15.277349592249852,-10.067416761439173,-9.207533341514084,-9.690608134415026
-167.0,-4.225312550421371,-2.6347997892669768,1.5905127611543333,3.3880668991826397,-2.939606370275373,-0.47460233901982285,0.03487114656152346,1.0335240186354058,3.8761270114125264,-2.747117604606723,-1.472891861159848,-3.422210862507968
-166.0,4.1187495072758855,0.1212556310959314,-3.9974938761800174,-2.16329206348923,4.107338555478129,-1.9618327408445106,-1.2619981016032547,-3.442759330510003,13.997222634906038,5.949248443830578,6.497341488311838,4.504732043836964
-165.0,6.584917786901096,5.546984933058122,-1.0379328538429444,-6.030452563576668,3.7857704288786285,2.2361707953906587,-2.3700081034868443,2.7263164881251134,8.300103087079698,7.7480148657417764,10.45719386837626,4.9619827529600355
-164.0,-4.889891273266105,-0.9682720633456379,3.9216192099204203,2.965657571537383,-4.426217292985454,1.4598741142047158,4.635700701339936,-4.129737333842858,-0.29740478862785746,4.13660856503968,4.673584201282687,0.6324946404651608
-163.0,2.6324875030493904,10.155337914204548,7.52285041115507,-6.434393498650474,-2.381920861306704,8.819809003334644,-6.372746201078327,-0.7174127617694968,-3.9380109860281047,0.4056359759222583,0.26384733711157216,0.2531440685020072
-162.0,8.663847984364654,2.138862279146738,-6.524985705218034,-5.361231485397623,7.581418918669931,-2.217443420840124,-0.25199103090620656,-0.09974005388627813,-9.878593864436121,-4.3739088091784755,-5.32681522389439,-2.6808447004156655
-161.0,-3.7637701807173403,-8.741526418715539,-4.977756237998223,6.21577478512828,0.5918346409648707,-6.810471227182977,2.517839163248825,5.252149916817602,2.6412710630754175,0.9908578625210138,-3.18733384552331,-0.5941056435676184
-160.0,-5.97631631624241,-7.67528010799716,-1.698963791754559,6.7907377621738085,-2.161728857912271,-4.64081593864648,-2.909056542525385,-0.26920996803114194,1.8410286911899834,-3.522561732246902,-5.3994419897338215,-1.549028226769201
-159.0,-4.813393471555047,-6.112582414641066,-1.2991889430857566,5.509150417956459,-1.7930157943727627,-3.737615317311292,3.747978763656933,-4.4711524344312785,-7.377076458711145,-10.984135830944354,-5.665984720103776,-2.283278934121596
-158.0,-4.005378752245686,0.19366302230751664,4.199041774553402,1.877120273021132,-4.074504683107891,2.168437459018828,8.74750814411012,1.2383103748448223,2.29376825077901,-3.092711001908473,-2.745373787572391,3.120882187844603
-157.0,1.5159275037695072,10.548176727214624,9.032249223445195,-5.976500020034308,-3.7439858647677218,9.846008421418315,-4.336480166719181,4.1923546354869154,6.301634510640244,10.071121278619966,8.895605637707288,3.8401487747080463
-156.0,9.551781370177668,14.29242626337167,4.740644893193959,-11.938572351445037,2.4115344083174617,9.497094710201077,-7.746041977268525,-4.002135481188374,1.1877582677279115,12.982142344191471,12.021373416419838,6.3357605845109894
-155.0,6.7746034101475425,0.9501809204289433,-5.824422489718721,-3.8722741539200323,6.304829363735629,-2.456645598262112,0.20204008040333443,3.457097869779923,-1.3149805323704642,1.3283392121488689,0.21211772426960174,-0.22068438530399614
-154.0,-6.88466606650746,-20.78584625965646,-13.901180193149166,13.830061101880492,3.5204201597342957,-17.36750381185675,-1.1453050475369173,-1.1254826301978043,0.4187140915639609,-6.965371060116956,-7.901084305391433,-16.564441680221123
-153.0,-4.881578444591087,-10.043037036153825,-5.1614585915629245,7.458344077484739,0.16407870581507078,-7.634128091199415,4.312640969123899,-0.7805644043755471,2.691144728211714,-6.291554658295264,-7.863338245704064,-7.080114554108479
-152.0,5.894621373022362,15.172122277922384,9.27750090489991,-10.540376368360931,-1.7328287332432633,12.262647172653796,3.3782287975275307,-2.7805846367139377,-0.015967270997025107,1.0059344538949073,10.94644847038893,9.77558181256477
-151.0,1.0721088473002434,8.275382584459722,7.203273737159595,-4.687904804990015,-3.0966113344860124,7.769502831625777,-2.914799276840879,-0.1822809628868559,0.8252848375311059,3.8339136690559474,5.586806139402419,9.01149137265991
-150.0,-3.979693458413858,-3.9899700983896924,-0.01027663997557493,4.039186212902566,-1.9325216196024426,-1.97467646764769,-2.53780261742018,-2.4284772182971004,-10.366722945909755,-3.246340445365788,-3.9033160225074655,-3.8330659106268694
-149.0,-4.392316269197298,6.8241421147371355,11.21645838393473,-1.2520361776648665,-7.833465454154545,9.04392427788399,0.22647435849666997,4.54048734053844,-4.276310981062869,-0.8500203299573917,-9.342934570268643,12.804341435983131
-148.0,-6.054980723941713,-15.150770529970366,-9.095789806028476,10.634093530474544,1.4828827053958853,-12.178644072825307,1.1233984248044009,-2.3386443123718186,-3.547449457188977,-3.8362190097393007,-11.381186568142052,-0.013200849754233523
-147.0,11.485822356496769,-0.9231598137384562,-12.408982170235182,-5.33818708520129,11.97695487530299,-6.72170076108082,3.4580717695811254,12.085504015492084,20.045509771850398,6.628181132055034,7.749785996647485,-11.538990183228755
-146.0,2.085400009789182,-0.812125972897231,-2.8975259826864166,-0.6204915453305795,2.5094458124448975,-1.8328759920019002,0.45040797350909434,-0.5760456036055341,7.5237984348460305,2.2607746311655337,9.19329901398978,-19.938162868646472
-145.0,4.319021126982761,5.633863592232984,1.3148424652501354,-4.961549805499269,1.5114186926081175,3.494509685331156,-6.305093454418518,-7.70397563149849,-11.880064078659348,-7.464099377590564,3.566715150962568,4.299243819251258
-144.0,-8.7504815610803,10.907319883078449,19.65780144415856,-1.0602473869226752,-14.199143107851897,15.301396884879052,1.7292609802567904,-9.355239718999412,-2.8189112963829666,8.7997383867298,-1.517179810172503,18.610676309819517
-143.0,-2.0445659341340696,0.01357680342061851,2.058142737554391,1.040494343275606,-2.0466023828230506,1.0550090395660128,-0.5327084829012302,-5.519092386592624,-8.80117937573867,-0.8450912533013075,-0.05573054229996374,1.9555430683736788
-142.0,-0.3763318372892739,-17.513503219861,-17.137171382571893,8.899778285845013,8.387576392408373,-17.382421610721636,2.9929081246648264,13.326993575024273,2.0754114100715446,-4.107251152025366,-1.0224631473693886,-3.1463144062510935
-141.0,-0.11148920069052848,-8.16302719119178,-8.051537990501203,4.1005322542261435,3.90172742469781,-8.081203243508872,4.881572998267589,5.111717737534894,6.689548742591396,-5.249573099647503,-5.83916531729562,-2.170756204432203
-140.0,1.1700650350935038,8.105175142981512,6.935110107888223,-4.588971682060584,-2.8691311445052965,7.5514279052873015,1.2002089983116089,4.343993359482582,6.7997204821565775,6.328589788800111,1.1201963785009261,3.8469150459803894
-139.0,10.46074302244464,14.383206570299057,3.922463547854666,-12.44810371798409,3.284760365904551,9.10979515505023,-11.882359892351545,-3.3444690241949866,-0.6557506406339066,1.8120787607809863,-3.224341447809131,-10.218187162195225
-138.0,0.30816971845315777,9.901662261775478,9.593492543322398,-5.051091506768028,-4.625156022814952,9.785386324425444,-5.147660196712158,-6.950352772590384,1.031103879442217,3.1066914592619868,12.342743577120238,5.207585674714864
-137.0,-6.274864431653578,-7.400513142376956,-1.125648710723584,6.811690138236207,-2.5550085366977164,-4.305206405682293,0.2624756814741467,-8.216885718980814,-12.78905678492803,-8.29807347219961,-10.928894994452998,1.800770936438972
-136.0,0.999537227660265,-2.1170048667401082,-3.1165420944006996,0.5303597785806913,2.0014390837324347,-2.5845398187782624,3.3161402254976697,3.055050545997667,-3.990252529167136,-2.2772150529329576,1.402063835506456,-1.1434810968506441
-135.0,-7.108770592219983,-8.120765685654339,-1.011995093434583,7.584013291633601,-3.0235174271568024,-4.619246269563451,16.934244350212396,7.270870010405755,10.953962533233465,6.7350434290248336,5.423425725300502,2.2767127014987936
-134.0,-7.231014281031544,-7.457355670741245,-0.22634138970979123,7.391078792519613,-3.475317024995051,-3.8221488253814795,-1.0884784858726668,4.2424491333825785,3.9775943269536134,4.318426259118815,2.9824947737022685,0.06815639299652476
-133.0,1.7303968764761368,-13.64804640327146,-15.378443279747437,6.006664769112405,8.582149329881483,-14.497257384704811,-5.251088174085572,3.3209821942774487,-2.9020180560841187,-6.807823060221713,-6.49257710594043,-6.928065613991832
-132.0,9.807547833834601,3.0375151993840723,-6.770032634450266,-6.450599480707106,8.23658348135624,-1.8498761096186853,3.2452948594345497,-7.338674630905196,-3.8023150835022674,-8.43239423121368,-7.85967070348494,-5.416992237690104
-131.0,10.837089516935524,33.563407213147634,22.72631769621225,-22.224635225223132,-5.999398819753577,28.166067556519973,-10.314212958892547,-7.642266834771837,-0.510267751015204,1.2268813753692838,4.683922764818426,4.818009192649674
-130.0,-8.919939401733323,1.5642780315023792,10.48421743323566,3.656465710380944,-9.680437417005422,5.97483757598029,-4.269653657362295,-2.822808957838867,3.3151604220893,16.204668203764065,8.315963451057295,6.555743222949782
-129.0,-4.327436047545681,-9.37451947829655,-5.0470834307509715,6.909419669299372,0.3816806869303502,-7.172111015325283,0.43241986274412314,8.202771608477072,-4.205260801345754,0.14400808786027408,-3.6342178380553705,5.503889345370677
-128.0,2.820260293915278,-5.408598044969413,-8.228858338884791,1.2723362950641617,5.551032789544733,-6.850505826533885,-0.08659193794551912,5.956883250954528,4.796412514116885,-0.4828846309193391,2.7914043878498416,0.3765118516860064
-127.0,0.21350353090845697,-6.832251697782671,-7.0457552286912035,3.283729286565067,3.6654921138370593,-6.965264940877291,-1.0960038403924441,-2.1469311590939513,-5.299392999748733,-12.970340607451304,-6.210994353182314,-10.302328717839828
-126.0,3.8717850461378607,8.487639415026893,4.615854368888955,-6.2103499413051955,-0.40229195443921917,6.60634453137648,15.072858176516975,3.0508928565041145,3.0633550491632255,-5.097577752961857,-2.2430292213424794,6.0165200118522195
-125.0,-4.882922778155123,-9.689400104088106,-4.806477325933029,7.329579239003761,-0.055555902318369876,-7.272926196618058,2.756576935115185,-1.3016162950264354,9.10998918859712,6.980369212574622,2.1820497581946574,-7.784012827680052
-124.0,1.9724395843652935,15.182353204014714,13.209913619649464,-8.537214813655314,-5.626078299513578,14.168625474792485,-4.35743522050424,-5.527736046770108,-2.2384061658627625,8.545791768402504,9.7611353193979,-2.3375542875632886
-123.0,-1.55337194915727,5.751101690901997,7.30447364005931,-2.1389943777335296,-4.431500899786185,6.576368430458038,-7.510757328119547,-8.648974787932499,-11.546327002619849,-3.322826626407905,-3.2632083827643132,6.963642377135647
-122.0,-1.4502748760088922,-12.45943827618392,-11.009163400175009,6.992685262847164,4.775795045252888,-11.765990210922393,-4.5288011394907715,0.44761058096771356,-1.0701768276605579,3.06164577717978,-1.3004826191757846,3.148897867333758
-121.0,-3.5541083286207327,-14.618384588660621,-11.064276260039883,9.043681735469832,3.7456758306260136,-12.794046329227227,3.5100689223729873,11.765722433445186,5.670452964369001,-1.4040174522127644,-2.966755494827974,6.239329701770355
-120.0,0.46645263891344046,-9.220734147029136,-9.687186785942593,4.409302712450925,5.059266172028534,-9.483671759949914,6.792935445907127,7.587652695566884,2.3348167204872374,-7.761288541035889,-5.667482560524714,-7.867527613478449
-119.0,-0.12857113074910886,4.368214846921622,4.496785977670745,-2.1734170917202205,-2.2595434569988058,4.40523831149272,8.602715124771102,-2.071863416481677,-2.6852338518680905,-1.5132442326089408,-0.5417528031920888,-11.155650677434027
-118.0,6.950921824505056,24.67334452063842,17.722422696133425,-15.796162366518269,-5.338892962216382,21.251462204124593,-17.807207121784597,-10.84718741392623,1.6465005875337126,4.44069351631654,2.0377382089810636,-0.39605846497410857
-117.0,-4.521341838929702,11.149334156652303,15.670675995581917,-3.3072481784493917,-10.131906134352219,13.38573329107831,-10.493920465284221,-6.841263009543928,2.7621052458425415,-0.09681333430892325,5.57950253806965,7.878354290052714
-116.0,2.2629418740611427,-5.535346812550268,-7.798288686611494,1.6365184966199808,4.992522541791923,-6.691688704382577,5.098328579288001,6.1424754314266155,-5.02827536679734,1.403983236069291,4.6379110980145555,4.957446838196482
-115.0,1.584557417164722,-16.019085861247397,-17.60364327841224,7.216494366434588,9.55489448018952,-16.838062177334923,16.494972118355484,2.706545824023604,-3.8934801428831207,-5.05952186803774,-7.233407576414722,-4.2138196426149666
-114.0,0.9630955735206317,3.0115143309751584,2.0484187574544936,-1.9824846559740363,-0.5035703647725853,2.579561225226689,4.3225226565391734,3.748655049312776,7.464514488351014,9.974820302366552,1.9653598010687743,2.0816413983113295
-113.0,7.821378054673723,16.99230927262525,9.17093121795152,-12.390260768209863,-0.6355274026113341,13.12859550047776,-5.470350069697768,3.3925336785148286,2.2605997011574077,4.38652845582797,5.57838897728686,14.475594582206893
-112.0,-8.080817627663391,-8.466255527478033,-0.3854378998146455,8.305690261449106,-3.8864368472575177,-4.460400710673712,-4.604519617347145,-5.709831763158334,-5.744780734119326,-5.680587668457993,-2.2828975698980196,-7.389949960533423
-111.0,-9.567903647683096,-15.586870460300995,-6.018966812617861,12.546590169137957,-1.733445868592677,-10.840825334895275,-2.866717430787002,-3.6529522282492843,-4.781806256986332,-13.200425747587524,-7.889339696057403,-9.701419629100819
-110.0,3.8654181061688115,-9.793455948409093,-13.658874054577804,2.945623796759903,8.725013751725351,-11.689667239198636,3.5817478297781387,3.621837227133186,8.178851542067054,4.848645118095939,-0.6221906163134805,-6.407248578800409
-109.0,8.875656863176095,9.595142009346986,0.7194851461711145,-9.247194272814685,4.119124690429157,5.109739795784104,4.36033863136622,-1.0369005673356162,4.958098571579192,9.547017363724073,6.907101666729622,-4.424004081474137
-108.0,-1.8301355189150055,1.8298989658400462,3.660034484755295,-0.011231024838551207,-2.784892550409423,2.7704587867701234,0.9792398874399364,-0.03840397780874755,-6.6384686490216644,-1.738429535943217,0.053491457581365864,5.830597964148163
-107.0,-5.593665289946808,13.72940459118292,19.32306988112985,-4.083222285857009,-12.501373693212852,16.54670161877347,-9.050840903415484,3.1253827256026963,0.9517827010642463,-3.642609803042328,-4.005905313244874,15.69204733524125
-106.0,-8.990333197414282,-11.62923071448082,-2.638897517066569,10.367678212514697,-3.143117180097393,-7.1169242761946405,-12.512257003555609,-0.7783071138176849,3.5694510371070347,3.5421226833460357,-1.3957413744633453,-8.119803508436569
-105.0,-3.7164571811079887,-1.639799668876431,2.0766575122314648,2.6532138828637395,-2.8656061632719334,0.15593247416223144,2.7835303302694903,-2.425645969960616,-10.095408771993458,-3.57494119285278,2.7304828633907596,-2.0928271757254873
-104.0,14.035439115045929,22.92396971906889,8.888530604022886,-18.426693608478395,2.6052937105154,15.924287652966651,10.875341627363534,-5.273697753554834,-6.3172219608440185,-8.026224494454068,-1.5887883783030183,5.52039291358371
-103.0,9.633163924303695,-7.891025140395537,-17.524189064699282,-0.8942607867027919,13.535361556134974,-12.685466180332085,7.5966375949200735,4.938788797802739,14.517636180514444,5.193667913597846,-0.6795713642946651,-1.0541183598608554
-102.0,1.8445002109828987,-7.451536840627821,-9.296037051610732,2.7849726136798543,5.532516417849664,-8.346150216620511,4.940104931623377,1.0047981709348692,-0.2484759727528827,2.6160022957837246,1.604024761628346,-5.481958524486654
-101.0,-8.865612509439584,-10.425439825886201,-1.5598273164466576,9.631819481342099,-3.6057076862955917,-6.038186820701746,0.35850019059909966,-1.3388239719432875,-5.381450165243289,-0.6174759430189196,1.5220301770610098,-1.0522822328133956
-100.0,0.7102317778120426,8.30302857668835,7.592796798876213,-4.516991677357758,-3.4676020534666883,7.985417189516486,-5.066013053952505,1.624580973758482,2.971574933387317,5.8104962817252925,3.5931423770955777,8.235308583273444
-99.0,-9.346955944485732,-0.9021533350280195,8.444802609457595,5.115075459531609,-8.84061539741415,3.7323618717083265,-14.025971334455406,2.129724724232281,6.720671218626542,5.2846020438485555,7.31139865822035,-0.6864725917817691
-98.0,0.9209238648117681,-4.081227029160209,-5.002150893972031,1.6476196631823106,2.9374184766073856,-4.580256859767045,-0.9687579400150632,2.0349150169147667,-1.8486185714093823,-0.8867609877609022,-5.038619065429289,-4.32678813282538
-97.0,6.662000389756498,1.3591911608845666,-5.302809228871867,-4.026090033612535,5.953921491046727,-1.9321331044922112,5.113911061651997,-4.092291835491994,-9.391854194484731,-12.884559518580934,-11.646422556528037,-7.40588383820783
-96.0,-1.527902042925899,-7.804642638252283,-6.276740595326242,4.644711920192233,2.3386384767578967,-7.001102290977061,10.593881023402316,2.0578344839038167,0.40103755160995647,-6.08495551967694,-7.403356522164497,-4.796955990520223
-95.0,0.6808931700697327,13.570138754893174,12.889245584823614,-7.154202911786362,-6.069665035144627,13.191819830066631,-5.8571880938117316,-3.753717137401559,8.998509359130132,6.919933391268437,7.417422853009243,11.838753734444015
-94.0,4.741160873080097,16.063213620755604,11.322052747675643,-10.359267902116665,-3.263371280159931,13.736290938305004,-6.490379558012683,-3.777014774060877,-7.605839150779731,-0.3833387444118186,5.951993683483463,7.656537645238762
-93.0,3.2974148842748363,-0.37636731041234217,-3.6737821946871554,-1.5023529722525715,3.508044763423281,-2.056611571314595,3.58066887918517,-1.2642332440382382,-0.31708644901716343,4.290525284412098,0.7703280833165724,2.713457013299824
-92.0,-16.981706876598444,-24.77870803846276,-7.797001161864365,20.91324496046225,-4.649705733221343,-16.31617911123856,3.1013766549157316,6.194142917889096,-1.849888752236096,-0.55270640173062,-0.8555962136980404,-6.802684853604697
-91.0,-4.79066178197325,-9.235064968222359,-4.444403186249129,7.044577478279647,-0.14960214821241222,-6.787368712077179,-3.489868272258901,1.5961360164961835,3.2301456843078724,2.3454998424417304,2.042728171056096,-5.397250716589304
-90.0,8.360290513985525,6.09124967067642,-2.2690408433091522,-7.271786768609283,5.34221310953158,1.8851127728308192,4.29299067805105,2.684727317762942,3.7078849685238167,1.7945108639370577,3.1290278174155524,1.2284646490309141
-89.0,8.35562881840616,19.277586815542396,10.92195799713611,-13.781224702122104,-1.3301060320967486,15.073164189670573,-2.037568861486763,-2.5616426211402996,2.8964075051751643,-1.9508451006435408,-1.5313157584060544,3.609211156061182
-88.0,10.03204293736028,1.4017536518882103,-8.630289285472266,-5.756818236275624,9.366047893967828,-3.6413859012821836,2.234715034212293,1.9057987968282497,6.223779604026965,3.4583193628385014,-2.561830926150562,-8.985617035051046
-87.0,3.3849366691807985,-3.0592672601515574,-6.44420392933248,-0.19914145935575434,4.871848784487332,-4.699408462519219,-2.248302668375044,-3.921300079106166,-12.156604740682956,-6.2778810134914025,-7.304082690295183,3.2332881498739376
-86.0,-6.273716526550668,-13.76320991267551,-7.489493386124843,10.064300132956186,0.6432953713021947,-10.571772229518764,2.6496289043924333,-4.7484925021510085,-8.185821732852169,-9.208055035114288,-6.936687244078176,-6.167286532977552
-85.0,-14.090107759921677,-6.48090543123357,7.609202328688339,10.33413360219978,-10.894474327178365,0.5429823030173893,-1.4237145192598177,3.857645939233869,-2.2334908838766037,3.5905271950981623,8.998660902714347,2.6397392288527177
-84.0,-16.28313142330463,8.970725214330486,25.253856637635437,3.6276237056410747,-20.735675386694936,17.093208907592068,3.8355100937901407,5.149706978169134,13.853132134601966,3.3833485757723483,5.644941983549509,19.364154028904434
-83.0,-8.16459333807253,1.1900592405254353,9.354652578598197,3.458130350296246,-8.726611931253544,5.252829771202738,-9.415606818318057,-3.506778854769223,4.65792030090492,9.914967570987056,8.940671051738246,4.854982523497255
-82.0,8.332552379121196,3.4164816474180832,-4.916070731703032,-5.828199583137432,6.58026979506941,-0.7727977580373997,-1.6417425086049642,-1.5183382873748605,-3.9056534747381306,0.8230336457563308,0.16572635679986458,-10.227481072671397
-81.0,23.824397809685042,3.876389799088614,-19.948008010596528,-13.888721231695058,21.923449965877076,-8.064234767265111,5.712905388432518,3.396843836089623,-1.3884015383757622,-6.076330494692787,-10.092123907491182,-15.515061215262255
-80.0,21.601946226751863,2.9614004871161814,-18.640545739635947,-12.327256128655462,20.081858864509947,-7.79433993138279,-2.0188373666926767,-6.110498292394009,-5.885578328180739,-7.729505053855219,-10.85064401344987,-7.655662996568246
-79.0,7.38076352390394,-1.3030181718960048,-8.683781695800164,-3.012177278257477,8.071980331342537,-4.950578934835049,1.5494080500227019,-1.5262062717560019,-3.6983768748413315,-1.9144163231234153,-0.46287268811426774,9.105750984986146
-78.0,-11.366005860513443,2.534905359381669,13.900911219894997,4.438863263295518,-12.67479193144087,8.183441706503764,-1.4242832122928326,2.39477087678776,5.275427976468801,6.328093021817576,6.3167150988708665,12.322658068386762
-77.0,-23.664698993701233,-9.301743445591054,14.362955548110229,16.50771314371427,-18.981298513424218,2.5795856909465877,4.464119096534212,7.322495734926083,5.718788845126358,4.333726191661334,5.250969439695468,0.6437993185785
-76.0,-26.779104700882588,-11.585725915306675,15.193378785576018,19.212573996178552,-21.03888058771814,1.779723612332461,8.113111892899791,-1.1957100747742104,-0.7523913937126996,0.5764629213880825,1.2628642939522368,-5.174674755687876
-75.0,-2.3864792676783058,-0.7296843135283275,1.6567949541501434,1.5180406808702838,-2.0016417595961062,0.4431871083044432,-9.574931308627939,2.9836851719996274,2.192458188376019,3.7308659043149652,5.735609973473994,-2.565139733399642
-74.0,21.01143105204169,12.542366856085128,-8.469064195956593,-16.807890392924357,14.75640939275384,2.0158052618836093,-3.512974226210573,-0.6446526214669805,-0.910170046122356,-2.4061791479764523,4.384731514576501,3.8724897789728723
-73.0,18.09161348787095,-0.4494060569905054,-18.541019544861545,-8.844664224661125,18.332302066582734,-9.521447685920897,5.727463694358413,-4.9374376514946,-2.1382970077108174,-9.26548857115152,-11.845812999037975,-4.490655503036998
-72.0,4.3085195322394885,3.15301294510548,-1.1555065871340062,-3.6708532606658792,2.7516979873157013,1.042076642753956,-0.15608077050965252,-4.753240826092103,0.594978006944543,-1.7660359289120957,-16.76037120663449,0.8802440835110721
-71.0,3.1355321095570403,-2.7806924819740897,-5.916224591531128,-0.1941264739864481,4.473375709598259,-4.315748166891587,-10.032802224293999,-4.987238339531523,-13.478813975674116,-2.068601194500384,-0.2513463102594864,1.4096797784733321
-70.0,-1.4804088148752168,10.133232313216393,11.61364112809172,-4.342599216845082,-6.513171742927145,10.818065365835057,-6.745858468520387,1.2730711340025798,-2.172713027561679,3.824673156819711,17.79570665555059,4.071685843713067
-69.0,-14.538835857532852,3.163675481628058,17.702511339161,5.671573550268698,-16.158862626051548,10.450515600891595,8.046916908286876,7.455025882757413,11.69416201468622,9.084878250241113,12.168222906888495,-4.396782233070344
-68.0,-10.362387414868948,-10.926487851888607,-0.5641004370197784,10.708003695250712,-4.854198065980337,-5.729589660031522,8.45323615072527,5.5894516978914615,9.236240343408282,3.71864603443195,-3.954116718010357,0.3493198724790203
-67.0,0.470864813632474,-9.05019809832563,-9.521062911958353,4.276232634568214,4.963697159896166,-9.267961836697427,12.201537433735604,3.1725599871814376,-0.8927889988766466,-5.127609133592886,-9.618725926722561,-3.345889962410726
-66.0,-1.7747753281483107,-8.983359813041684,-7.208584484893457,5.3678486599878195,2.683764340591611,-8.07433430392504,-3.595671794631947,-9.097832133536691,-4.384947072165899,-8.595480239620102,-10.320785169028914,-2.8371345052503063
-65.0,12.10114596941884,4.096473801804185,-8.004672167614627,-8.108222082869059,10.096363840624813,-2.007290454506459,-9.192339436731885,-1.6548559675017716,-2.286906117058862,2.9287851015949835,4.379587462322715,4.641632548345098
-64.0,14.960062029398493,25.58277776317126,10.622715733772818,-20.280188635218764,2.210039233590215,18.05189648492078,-7.966074053435271,10.206088425493402,8.500699782590061,9.459371886764076,10.870777120093125,9.819970877506234
-63.0,-5.68390183874873,-5.140569871905974,0.5433319668427532,5.402710391611853,-3.1519243472551333,-2.2703953480553647,-3.224485306194458,-6.626067703020986,-9.46494876631003,-5.9496666345591915,-3.7917627091866883,-2.7031517099001716
-62.0,-15.707790013900532,-17.26592889387245,-1.5581388799721516,16.47549601197753,-7.1122876951639595,-9.38493992991079,9.640372688731766,-4.863619718461518,-5.972183670535901,-2.5395831358142944,-3.3627907710408467,-10.35967594274489
-61.0,2.4768769246908953,6.395325402100342,3.9184484774092216,-4.371070147730051,-0.6767886002335768,5.182320486986256,0.6880604543872102,0.33661964855611304,0.7630194602335663,2.6787408366134207,3.8286460296418134,0.2067289571447013
-60.0,4.0264164121260535,10.070116537562615,6.0437001254366285,-7.064468512865864,-1.039166292177807,8.08075882264472,-4.283783182978402,0.23743021997458658,1.3825738688301787,-2.963386099735268,-0.9597669269312719,5.184507714561571
-59.0,-0.14787270694794596,4.39965016974677,4.547522876695096,-2.144708214014338,-2.2944478566024755,4.4172613303126065,0.9320005919034633,-2.8608664351070114,0.663973233952504,-5.639794637965014,-2.935641726547763,2.851014554107855
-58.0,1.3425055932635626,-10.355997701077992,-11.698503294341055,4.484876829985893,6.499849127317824,-11.006214349995044,5.584969073250601,7.1622684693588665,6.011639698800205,-2.5349033200846987,1.0341161560750025,-6.437979796688781
-57.0,-4.066414840859629,-15.253974673240808,-11.18755983238081,9.713323654511875,3.543628756184246,-13.279637908539552,-1.4912272332954992,3.793107103154572,3.237290757686567,8.600729360888105,1.478548251164058,-1.6888495976698403
-56.0,3.3391244022742654,2.757946284573822,-0.5811781177006328,-3.0785394883914803,1.9452055752794537,1.1080728868214544,1.277585474524082,1.2090237964348596,7.791765783090044,13.126342682055023,-2.7376557413101508,7.363278772255672
-55.0,3.3044132982970833,7.812661171735778,4.508247873438115,-5.592992844643741,-0.6165725960974531,6.181888492818183,-2.978753405491219,-5.2701256544902115,-11.204614146082534,0.9681505312455068,5.82008944804951,0.41074295458857435
-54.0,5.794984240170952,15.401283421166207,9.606299180994672,-10.557392934837905,-1.8424750756892974,12.52945324566722,-5.886815970524352,-1.8990108401269716,-4.378243010330936,-6.806361523765329,0.9623577756722899,1.73096456533886
-53.0,-10.43544857649455,-7.896099451809439,2.5393491246847875,9.126131596371792,-6.504401249436648,-2.646418183223349,5.916819696355873,0.19203165508054587,-5.129065432330607,-9.79776491683041,-3.9175805225938047,-5.100307661425339
-52.0,-9.803322739720134,-8.495992944101552,1.3073297956186871,9.189622641679312,-5.573756573796814,-3.63414198219112,-2.568759283261186,-2.8920901462352804,2.223844915161381,-4.117885308430535,-4.456596553392705,-4.977468022722765
-51.0,6.0055102066373625,4.218505799329816,-1.7870044073071838,-5.06898759634802,3.8766362405030828,1.1818502972939053,5.798159274641694,0.7482139963622552,3.526421147637695,-0.7479267523255868,-1.682546613307961,4.059690466059752
-50.0,5.552355219879839,-3.6230128519146927,-9.175368071794148,-0.9963204580388868,7.421995599848552,-6.429614224085365,6.149188593001366,3.023568181252029,1.7135903892579196,-1.0056692247964194,-4.282556656918652,-5.1202849041315055
-49.0,7.3443401361173635,5.434851956366092,-1.9094881797511594,-6.417716756750385,4.605305051050221,1.8115561065021732,-5.151528906368197,5.704286302155214,9.028574655429242,12.474878711339533,15.203205244318019,8.931264714734366
-48.0,-6.182193295294859,-4.384624807918856,1.7975684873759552,5.257035163743257,-4.012667131009157,-1.2467253036382258,-15.284556968219674,-1.0665302101451313,-3.696799058932874,8.920734508514093,5.587233975530957,-3.488003810877787
-47.0,-8.309336754184702,-1.8996909277488054,6.409645826435984,5.156551378104071,-7.38367224792993,2.2190847152236115,3.1830458510595356,-9.189002042364473,-11.178398039901033,-6.895064642296738,-4.863121394173399,-0.5329708910129247
-46.0,3.8473177181571403,12.46905030962101,8.62173259146392,-8.186616878882761,-2.3341087391819304,10.504544025724947,5.106876988193193,1.5639342542308485,3.658867172131159,-2.9016421013454234,-4.211592096185184,6.215160322758168
-45.0,3.925068271155341,1.4236319821659627,-2.5014362889892348,-2.7046072313519374,3.1862333480174385,-0.5061041289545383,3.0867400758420636,2.5659913018668647,2.3001110223560026,-1.661105279432451,-4.493013891040874,2.6625261404224823
-44.0,-7.046670474253059,-13.79077228584293,-6.744101811590008,10.4664257002667,-0.10077293860674774,-10.23908612450629,-2.61617871904238,-7.363262770092138,-6.061473511925919,-9.45769907246636,-7.494254892769787,-4.968935910854526
-43.0,7.196218142128444,-7.261037032525044,-14.457255174653628,0.08070699299300355,10.797336919667382,-10.912656110542784,2.769947996952457,4.9975032760067775,3.9149523125131096,1.7897649229667065,-0.6279046023245596,-10.88466316206473
-42.0,16.617374995662434,14.97783610942133,-1.6395388862413114,-15.826779881859993,9.097940561677927,6.693066931488799,11.924747340135411,13.607546513304843,13.98555702090325,11.225933167701237,9.50262772335134,5.1012804452645035
-41.0,-12.1018812019039,-5.421298419587476,6.680582782316331,8.732983526563128,-9.4225339533007,0.6541816761857553,-3.6139247449219365,-0.05653364301266972,-2.819776235388643,2.8623727965890366,6.727338874463246,-2.8615264027833467
-40.0,-19.056326569686473,-5.715641233366902,13.34068533631965,12.355915428501433,-16.1509542655133,3.7606908481517123,-6.147556334746869,-7.6212170735250595,-10.831962933707073,-3.280344727825285,3.480824444559377,6.664048075198903
-39.0,2.354851129464409,8.563538047814893,6.208686918350599,-5.414514816867948,-1.8778800838718483,7.41664883486179,-8.861596170127807,-8.021881440384313,-2.9946986339219315,-1.2111476677212503,-0.2193440468322294,3.1726551140150363
-38.0,10.4224803196783,7.389514863504074,-3.0329654561739967,-8.946023760162149,6.70093172306732,2.212876935340752,-5.372724269863766,-2.167158728662045,0.3012465482736326,-2.1514564454625824,-3.227336724505766,0.7956035079577237
-37.0,2.134239401759099,2.0241943116635235,-0.11004509009556962,-2.046976923976414,1.0992395399454873,0.9165271674955555,5.039967867538149,0.11853362911803145,2.9535283593227253,-5.748784717990672,-14.312538184847957,1.8882286168640907
-36.0,2.0918630219749037,-12.378493762390766,-14.47035678436567,5.170234294368232,8.262340119119834,-13.462670879213132,4.0481472203473166,2.5428422912721054,-3.4925603170725235,-4.143470859994018,-6.063273259039832,-8.87791210777391
-35.0,-1.9558015131546291,-8.076021796724705,-6.120220283570259,4.96128423795514,2.0671652245696075,-7.057197999258729,7.317631898466997,8.082222612281548,7.499736471017598,7.0591589970386615,9.122270877413492,-5.966671776386431
-34.0,-2.529042122836916,6.449630476626431,8.978672599463103,-1.9358096229560102,-5.687313226734899,7.753315990296838,1.920586016676487,1.0552847792242863,1.7688658556439365,9.849365247147903,11.980701674466964,3.5318470319492854
-33.0,2.0402088929964353,10.02044510603721,7.980236213040512,-6.002557894611957,-2.9807013492458023,8.956790567011188,-6.516185856421416,0.9505080050500532,-0.12139606839573669,2.2182558990002716,3.2429504922084194,6.47231199543685
-32.0,-6.397945600040144,-3.8945102013205357,2.503435398719432,5.100441930015645,-4.4616677412955985,-0.6662182917115391,-5.8744322790624794,-4.7056456235729796,-5.3298339776322115,-5.210122978145962,-5.033960082328239,-0.09427710208743356
-31.0,1.5994882925873561,-10.614364428691161,-12.213852721278593,4.546005733157094,6.893169803431208,-11.470580691723523,4.53497123080506,-1.9776436817168541,-2.8894950782105346,-7.675602946613852,-3.9588027669426813,2.2938175985427867
-30.0,1.4536119311244742,-4.638006305243776,-6.0916182363682285,1.5564557881898318,3.7542683079503516,-5.349456664789953,5.40773209727812,-2.9837515155183834,1.2257364925556096,-5.334231570501123,-9.419450106806698,-4.3381135464638465
-29.0,7.613760604734784,17.852239877190847,10.238479272456185,-12.687901865383726,-1.2586599556957019,14.055479983621698,1.834488565649853,0.19150971383985338,5.419636655793939,4.417415815627807,5.2991597322253865,5.982795800209727
-28.0,3.483329658383659,7.396592839949866,3.913263181566335,-5.474307567092496,-0.2475602927844185,5.662832459993566,-4.7289860238804735,4.792819185543917,4.816026399087234,7.580233295643842,4.194897814389928,-8.045250751888407
-27.0,-5.091075431694485,-0.722745373998039,4.368330057696722,2.869584550170256,-4.769331957268708,1.832027456267395,-3.8430487466853203,1.7371160340952776,-2.3455749353990734,2.7906447137372488,1.2815533073080858,-1.2942317253723776
-26.0,-12.186275912997605,-5.77640500876944,6.4098709042284705,9.018811496796015,-9.264202047686242,0.33028795780981346,-6.9837767155626596,-7.309874197533489,-11.104509092308893,-2.333623117879273,3.992092339525521,1.80802207867349
-25.0,-4.751155441980404,-14.591953848700872,-9.840798406720356,9.705788532838941,2.575983031983082,-12.196937658454251,4.912161890182762,4.962509941198073,-0.03182930059496769,1.1451286449552742,-0.213280919865652,3.0603936373598923
-24.0,4.7768189731039055,-9.26039895868603,-14.037217931789879,2.1962396607120036,9.43793205365019,-11.70231026673581,4.61174309280227,0.14510525202740698,5.206996015116923,-7.417510735992238,-9.2995610235197,2.885644514344024
-23.0,13.273121488380015,11.514182266524923,-1.7589392218552522,-12.358464338949226,7.469598530056842,4.828765630874055,1.8464984857898536,4.097255324929878,4.894224483874585,-1.1208883918437587,-0.29933178217615675,-0.8395069739883785
-22.0,7.665483711443989,7.454865720271717,-0.21061799117274038,-7.59875934753998,3.8936624847206844,3.6553545203344293,3.7515760411595798,0.6030522297604543,-0.5205757433645064,-2.8552660994361476,-5.724544259999245,-10.33642999377268
-21.0,-2.386580173203658,11.425503314647177,13.812083487850265,-4.472120507961088,-8.062884934063531,12.6546213890177,-3.1562097816385597,-0.7110951255617896,-0.9282883979590444,2.7381282048128024,6.293324228634821,5.061269636105482
-20.0,-13.18608289264115,-10.672841527190418,2.5132413654501677,11.90614823218845,-7.889752292076284,-4.0414898717674435,-1.8735998806126546,-8.425676482806262,-10.359875097244169,0.6204211912871143,5.592451387353064,0.25785823153397025
-19.0,-4.518991220765873,-7.364930133434904,-2.8459389126692196,5.926246810846534,-0.7950246728478074,-5.143405909108266,-3.1748158801663178,-4.306853836473614,-0.14506181612346536,4.405244718099411,0.22317196151605367,-3.2394033513591216
-18.0,1.846802963796521,-0.10866315546508698,-1.95546611926135,-0.8789251081821501,1.9464461384155904,-1.068100630127403,-1.6458108174853907,-0.1947845892922231,8.825536836999596,5.250515904759713,6.57743398464971,5.344501117995972
-17.0,3.5088213724044057,10.304464220804086,6.795642848400355,-6.913327473764986,-1.6723396167095612,8.593379576962066,4.439425360538779,9.178138376071692,10.862431253123528,6.158205576294553,2.095272905954921,10.709266345471526
-16.0,1.0857106728874149,-1.0369918314773336,-2.1227025043640824,0.04750025540451963,1.5796047268636821,-1.6165714081552214,8.128956545814768,-0.7900954046423223,-6.940792985610126,-8.058049585114242,-10.950331674564545,-1.0117194648306644
-15.0,2.6894847500373515,-1.2586243458079434,-3.948109095844619,-0.7263598308894073,3.297252683573197,-2.564625433929791,-12.360035240919096,-0.03671236144983303,-7.4496758525123,-7.693287877733397,-10.099268251432262,-6.676285470804832
-14.0,0.8066592882990369,5.252873428016528,4.44621413971777,-3.048580355165217,-1.7615601411825592,4.8047883612966285,-5.024800340767486,6.477681197487976,3.160052006522373,-1.030678362874153,3.0321027691875897,-2.890901563329792
-13.0,-10.300029766071633,-9.63387341235697,0.6661563537145406,9.937291560620277,-5.504790854205777,-4.455076349159747,5.085671017543932,-3.2988966069064656,-6.255277586452241,-4.888161238452529,0.3245903936830328,-11.93200729409814
-12.0,3.1965461179859194,-9.976358600058303,-13.172904718044638,3.3485387387715115,8.160265393428531,-11.550297828936676,5.9516518177834445,2.8672756787164424,1.755337989813191,3.040754434613528,1.8331063162270214,-2.9800164090457284
-11.0,5.290366658328294,2.9286446386732994,-2.3617220196556485,-4.081637790416695,3.7983198665535087,0.22653650486953758,2.8150793694825973,-5.65843195429247,6.366340955508126,9.735774130723929,10.642716197178313,10.431446911630518
-10.0,7.650449631761318,13.169962818870317,5.519513187108368,-10.386640312374189,1.1139087132934522,9.36683690765069,-0.9826185805911409,-5.748506127490453,3.783556674416747,6.0211633315362985,9.988262576742319,13.861101777765331
-9.0,-1.5537554288906543,9.423520418790076,10.97727584768039,-3.9087550751892732,-6.21825239120188,10.225807140310582,-3.0279943184029308,2.0210312958483714,6.179314922109024,2.3125265183092294,-2.430547275428694,4.804716622863157
-8.0,-4.526351900650015,-10.96327009804218,-6.43691819739221,7.779670913890505,0.9239410523185523,-8.747630436112297,0.9892704021489971,0.9783956718656068,-10.831466398987045,-10.33799905469294,-12.228887644755993,-9.917757802076029
-7.0,-1.5316222643728064,-9.612879797196824,-8.081257532823942,5.540205165681663,3.2441150119030633,-8.808961740420848,-5.0513769062160065,5.035049498333486,-15.668582286660193,-19.766685104012353,-22.45096807928195,-14.853063649864572
-6.0,3.339289352701818,-1.8098672350010605,-5.1491565877026595,-0.786201682416213,4.21353434590225,-3.435491410606263,0.4148163505918805,1.000496823484657,-6.5279736537625395,-4.13498778103261,-3.1314906932148805,-5.7304265967428805
-5.0,-8.923679811929317,3.7469128982767157,12.670592710206368,2.572038705266521,-10.750611171300923,8.176785854724992,1.411438431981064,-4.087739365604973,12.276107177595671,18.16689463273454,16.269716749855746,11.61569358952811
-4.0,-7.672995704517941,5.26151300304521,12.934508707563634,1.186785508496572,-10.260773192824335,9.064213043616997,-0.6650433170392862,0.41364072706327615,21.83488707910929,23.703438610147362,21.4349635657032,14.510868692660129
-3.0,8.021896110130866,11.923399933782546,3.9015038236523845,-9.923021749477714,2.0189564353360616,7.872278574799205,-3.4060766385046817,-3.3245939280398744,9.369412004800626,4.180509682638169,7.145934960963764,1.4526890226804348
-2.0,7.192094542399894,4.7815918459257585,-2.4105026964734506,-6.031079002053153,4.753334906950128,1.2149553234938837,5.1019625530342605,5.96121272803687,-6.477995777125933,-12.690830313898648,-2.888371331156611,1.7913889536406131
-1.0,-9.579035532924877,-25.984679995520434,-16.405644462595337,17.800468424660377,3.437315618856899,-21.174833498573513,2.201090860165068,-1.8531202113162681,-20.04599367176159,-24.473879406041647,-19.510111253833312,-15.317568298084941
0.0,-1.0972427511947782,-10.933393245313011,-9.836150494118789,6.021660813922733,4.388101410898471,-10.37059629894149,10.326321425682954,-3.690416683876504,-10.075639058086539,-4.251948181020788,-12.190676755876469,-14.970943573130906
1.0,5.77602357433886,15.308408572655331,9.532384998315187,-10.54110052492496,-1.8622734558976792,12.433040513674285,-1.471176335236596,-11.053324306632947,2.6104182357787717,15.247528933592541,7.668066879061193,7.568604541138372
2.0,15.08934799846525,12.970117138622925,-2.1192308598438734,-14.025414922719937,8.620566524280898,5.441173422766175,-14.275395221750593,5.163698929295169,-0.23188963798201478,6.513429825314739,4.923312563998497,13.08893777804525
3.0,-5.240772012676534,-4.019342123114743,1.2214298895606857,4.644961467577738,-3.290479028042896,-1.45573376252403,-5.988408335163821,19.93897646694793,16.003951881803697,1.9295142565814967,-1.4344760007824489,-2.4962973769462105
4.0,-3.6154454229251947,-1.2413303780063534,2.374115044919071,2.4580992635424397,-2.9706110162865595,0.595638637734706,-0.8529481347012657,7.900303899198022,5.0525153810831185,-5.345995220169,2.9788416975814487,-4.272707410090682
5.0,2.9262208244444947,15.00696163759683,12.080740813153902,-9.000875209533586,-4.547813947864599,13.500778279005171,-5.069939111491699,-18.046401910520533,-6.297868317952579,-1.849212423234467,6.311661163691479,15.077511914239464
6.0,-6.071687795339262,-8.354173178988418,-2.2824853836471206,7.189394238856984,-1.939141409197692,-5.278092326003866,11.02014871048781,-11.547524951588631,-8.030457308600639,-1.0020455882332406,3.0853191980776864,3.6513378637935494
7.0,6.157866757499954,-22.412117029982454,-28.56998378748095,8.108015761516711,17.401934477456955,-25.52695216941862,16.174828612858747,13.753344498985236,5.889112156618736,1.0585338679827256,-7.592383833958838,-19.87859310036673
8.0,-15.128477199307397,-9.302510238434111,5.825966960873089,12.194482339597032,-10.514914692692969,-1.6942071011575166,2.163215644572362,7.5202900279901925,7.633838416488585,1.7416254591959492,-9.429675531077205,-11.112271856229787
9.0,-10.285775027197563,0.8928234278815834,11.17859845507778,4.7480144497599035,-10.766854578629452,6.001524747400591,-0.9142981598585553,-6.161355963548967,-4.8073395049683185,-5.932363162982391,-8.068810683053005,0.27222818071784527
10.0,1.9932679543911491,11.39460642990274,9.401338475509963,-6.649826593469097,-3.6561657119303717,10.442684809479715,-9.673147721541813,-14.834682201047418,-12.015009506890872,-1.9660115555569073,3.198881514976115,10.948117063490907
11.0,3.0473741515349797,17.04369717745725,13.996323025920764,-10.085910235779904,-5.421819175267965,15.485652113738862,-2.746316393330318,-3.896032542590595,4.340473397400828,9.34873251625456,17.732466273985867,6.500304719431138
12.0,23.71152399523829,18.05832139377464,-5.653202601464571,-20.927436961435312,14.661343297727967,6.245718655313768,-0.20527136107586674,18.182699259457138,12.902506967270142,16.644761016490353,10.337990924732317,8.085920855409162
13.0,4.553597986738476,3.143683329594901,-1.4099146571434726,-3.8104463342674055,2.9646095462380844,0.8287909096564249,-7.8103714280383425,4.774746105691513,0.14417681689808148,-0.16607056488838623,0.9787878191366985,5.457584383495526
14.0,-4.384789181142276,-12.690858492163647,-8.306069311019948,8.581192570994315,1.9446098559318363,-10.540159478328665,-14.798578627038752,-17.822656178876237,-16.576381591946124,-13.064339793468251,-5.250271869322533,-6.650016649175578
15.0,1.5496740583285957,-14.870017539312038,-16.419691597638963,6.6312428642454675,8.966243100754669,-15.61161522627064,0.26215832905611025,0.4754176059778179,-3.50828871645394,-13.152351626680362,-8.23648860291337,-8.377378300972945
16.0,-6.604342024427651,-23.684142761117176,-17.079800736688483,15.12067911862908,5.213820664087361,-20.351398407716413,15.816238740643005,4.115261408868048,-3.7911478144549826,-17.16166443594042,-10.182211490136222,-9.811205931171518
17.0,-14.712223962968533,-15.507762238306498,-0.7955382753369,15.088705887772512,-6.910548172953318,-8.200089918214832,21.125670169646536,9.21653968145011,6.554454130249844,0.5052682826430299,-14.510273496668244,-5.14309260674492
18.0,-2.506860915090977,22.072066180053202,24.578927095145044,-9.726945545714777,-13.50195785898576,23.358464435851356,3.2633873404658846,6.377603052449853,18.714513496697542,17.494787336695342,1.1314853187836578,5.995953998486384
19.0,1.1321398724146086,14.993766644134599,13.861626771720003,-8.091657637413292,-6.407947548331817,14.465661689771343,-2.5897871149440816,5.667038259034192,4.836422114645359,11.292962625769187,5.274366616154365,1.3507386249649347
20.0,5.782881459491735,-1.3461659911693893,-7.129047450662329,-2.255108493024064,6.488022176283265,-4.272648136258505,6.356917222847685,-5.016038905327819,-10.398220621160139,-0.3385925463845467,3.3875833209655077,-4.075655457147535
21.0,-3.510867610464264,21.6087246453233,25.119592255785626,-9.01544265071987,-14.36375288354225,23.33353129043673,-15.056771344955115,-20.280320041770654,-7.567242298611663,10.833357623735404,27.87780784758201,14.439216251965043
22.0,14.75897921081412,17.394698854707297,2.6357196438914006,-16.050423761122893,6.0912261805057195,10.064628601281683,-21.834550477784834,-20.010624214304475,-4.62640793970345,6.882638662510683,17.565152640698166,17.4409167205265
23.0,4.2207765680327265,-17.03630597068766,-21.257082538721125,6.4298318219005335,12.69007936958694,-19.17866268036395,-9.146594884990064,13.053792443400102,11.589739334299772,-1.7367789015379982,-4.308340121731124,-3.759896575687752
24.0,-4.799017001395671,-24.826023490374006,-20.02700648897835,14.754623355306773,7.645157046446716,-22.464578205424264,-14.692514602083975,22.41070066325223,0.13759010219783557,-20.347824057511943,-20.65420625337402,-12.251067830543743
25.0,2.6887340337173056,-2.183187639293468,-4.871921673010451,-0.2303032484986769,3.813809317665271,-3.494813787299975,35.9652295806708,8.712897503700393,7.9477667381419685,-3.328438911907428,-10.21513589557561,-4.7871088981593175
26.0,-1.4080075527871223,-4.019110031796825,-2.6111024790091664,2.6610275799905097,0.5594861917689005,-3.290022505099919,20.830476071759765,0.2606632581085293,-5.94381305172982,-6.605675797728134,-11.905587737350304,-6.546613322862111
27.0,-14.815662912701878,-2.180260245501431,12.635402667201236,8.529149160141818,-13.685380678253397,5.247188869050598,0.4047673682937578,-15.899878987649885,-27.999687996870016,-17.76281739064427,-19.316183379887775,-2.9723202477957855
28.0,-16.646760083292797,-2.1259219160427945,14.520838167251002,9.422554162951444,-15.619678468260382,6.136107968595793,-5.012717927629485,-8.401036659767161,-0.675623578127742,11.3126764891074,14.577587389203366,-1.3723525864667807
29.0,7.776178433437444,9.071006188849438,1.2948277554129906,-8.383736291119286,3.2845077476797346,5.201320218116528,-5.671214841024071,2.1904124167683303,14.88261472085567,15.045567410165813,19.071550241160292,3.5364560271547316
30.0,23.185494891467986,-0.7406073674256959,-23.926102258893053,-11.260474167001863,23.519532094109433,-12.311738084450688,-10.946721052860276,1.959872993966039,13.675118821509521,7.984272442606239,4.563299506653824,1.1884318688754316
31.0,6.963784530909075,11.89956358198928,4.935779051080343,-9.472254920775951,0.9743490269976363,8.44304875036842,-2.655945266461094,5.151722129655449,12.32187805497611,8.152974400971633,0.2263749787772671,7.923178181922773
32.0,6.224803369595287,21.118335696523033,14.893532326927224,-13.7172777060822,-4.299542417423846,17.955071701455104,-4.0115869808475715,-1.0370535735920852,-2.679041156266905,1.9882704425175142,4.190066034967488,8.86893752069382
33.0,-8.235007571031737,0.48090031646516795,8.715907887495991,3.904783722294618,-8.444124651365026,4.626250938067444,-5.959452885389861,-2.878969072475426,-17.911227165863963,-9.953687374074933,-1.6242112647961227,-3.977714043231867
34.0,-15.344700083089446,-16.87515267250185,-1.530452589413222,16.13525993650376,-6.955686245131974,-9.256570119389494,4.024025217228759,-0.35311260207179196,-11.270850246484343,-9.491138174564885,-6.385144156070979,-1.4994774023877229
35.0,-12.095435663666041,-10.131429550999057,1.9640061126665929,11.141639503522331,-6.997500613749076,-4.063514414349668,20.293826419518037,15.263565934927932,16.333144341691998,4.146075638781003,5.180025103760002,1.7537952351072867
36.0,-8.12696699323945,-25.665190583875823,-17.53822359063643,16.932764011060165,4.7428650709217015,-21.586509189370112,10.961511851496077,-0.934573617798554,-1.5854183029205888,-7.745186200245696,-7.464648315139208,-16.832480014022966
37.0,7.880582604383867,-0.5220853750540417,-8.402667979437691,-3.7092862774190554,8.107008431640267,-4.450615984107623,-11.945328570317146,-11.526217994827995,-9.003275349320191,-5.6866863155721274,-4.901917213015352,2.12266029848165
38.0,25.49488898781783,27.888432394373044,2.393543406555132,-26.709814370568562,11.523301205134704,15.151992230840307,-10.927369376050489,-9.733897497991602,-5.387561303396625,1.3024417138772766,-1.242256483707153,7.0016392453683265
39.0,6.57128345328022,8.586540436064276,2.01525698278385,-7.58914390346621,2.2568669713501404,5.313927965837362,-2.275079356352812,0.16724227607365272,9.58154926165901,12.373660901371604,0.3685627015212898,1.2219805865851803
40.0,-0.42834847999239845,-1.7365733636592005,-1.3082248836669637,1.0737871863295094,0.501916978638377,-1.5840969869149326,-1.216535245273227,9.200053961773492,11.559499298204994,6.181985064825057,-0.36583361469195985,-2.26804150917194
41.0,-9.60751226994125,-1.2847522673177179,8.32276000262369,5.432586757223167,-8.979652154841812,3.540875221938094,14.256574053997992,10.178820519195607,9.251363419279865,6.015277044748853,6.993405363270652,3.673398161883695
42.0,-10.288002090053078,-3.1501626507206173,7.137839439332865,6.696452670455191,-8.727212510980383,2.0201934282218814,5.387391915386132,-5.628189011320333,-12.771531181004342,-7.9315926811836555,3.5565123332995654,2.2135729104178643
43.0,-4.70648466871084,-6.975714666612511,-2.2692299979011246,5.887471669735609,-1.2344864114348173,-4.6714946420114805,-8.269590451169572,-6.265884595268474,-6.579187730190683,-10.113696815584555,-0.9076555313211379,-11.882286443349445
44.0,2.2070307680950565,-3.859112453383646,-6.0661432214781845,0.8654451175150246,4.196405988678946,-4.9310012556401,-18.4178110661477,2.270889442295541,-2.7588805298400487,-4.571471941408337,1.0629533665631907,1.3013884291738336
45.0,0.008733592160588777,6.4689101758486185,6.4601765836883365,-3.2803096413964647,-3.248882707264851,6.496575300524373,-11.799266622723518,0.1353236667181572,-6.693520036084435,2.4361862134782517,-1.3184586839961343,8.57044803745621
46.0,6.498299051362322,2.835155011827425,-3.6631440395348847,-4.626763490213439,5.052675544180755,-0.4615453697151095,12.33405597763159,-5.753403282681288,0.010646173765646916,1.4312708867301478,-7.813755523434493,1.8041224204724857
47.0,3.5219004662088573,9.819321501100951,6.297421034891687,-6.703647231384982,-1.4206029575909307,8.08803142738092,24.493697806328054,5.158451096409188,8.220227912571662,8.02650149894885,3.773315771245345,3.308042858497162
48.0,3.5162596247716866,-1.9396844388657555,-5.455944063637917,-0.8152832250655742,4.528177470204001,-3.7483241423461933,4.390670148347796,5.239483596325624,9.061298265204186,3.6567904239057,6.642851530431789,-1.454768203988339
49.0,-2.099282335409361,-12.975034736724506,-10.87575240131559,7.592597362079328,4.428112470138263,-11.897439970915075,-4.35365919619736,-1.3700639164110453,7.288674672974151,4.49434302872411,-1.3946657766187023,-6.268633255078202
50.0,-6.177858193008365,-9.100841977574765,-2.9229837845665596,7.61576455033483,-1.6667835320274607,-5.98220457096248,-4.371069942709735,-1.26470260587412,-2.1113521307206216,-6.770243500053988,-5.143685310838896,-5.766184834639899
51.0,-7.1301212286427536,0.8735661207454344,8.003687349388462,3.100446322266356,-7.52681559772369,4.393786975030867,-1.3380301618255102,-4.914570574632013,-17.02295752624785,-10.071536453348905,-4.818905129885774,-1.6991409916536648
52.0,5.057552856507962,11.770961490976022,6.713408634468486,-8.448718700483326,-0.8656388450160408,9.282354140495574,-12.86796179783504,-0.5450386542461656,-1.9882246847034732,-1.9875604677081231,0.3579528621202537,3.6671088099933518
53.0,6.658015219697196,3.4488119912747095,-3.209203228422205,-5.0155569949918775,4.896428258870458,0.08831834987416265,-9.621547453191692,3.3024426767352786,4.277733145956239,2.7216943158323144,2.60103776269311,3.095868027319675
54.0,4.916820004710058,6.923080723672298,2.0062607189623765,-5.885825015243006,1.496860499041548,4.518096784672365,8.777293430330298,7.632992564576087,5.500161306708669,7.812604643011908,5.666596234919502,2.182723422848802
55.0,-9.221631222002134,-7.9590698490368466,1.2625613729653484,8.6247671150376,-5.279315626589578,-3.3700977347328624,15.921693864178224,-1.642942748300015,1.1159388114026445,1.8609207603999405,0.051984581508565775,-0.14106605064785027
56.0,-4.566062785976961,-4.598202072347755,-0.03213928637075414,4.541696942896227,-2.2249528837110715,-2.337226763130273,-0.19637684813421963,-7.627517632591369,-1.6579917640667698,-5.396531315150016,0.3253861393272639,2.735261133930634
57.0,1.9735831329467977,-1.9836075729424723,-3.9571907058893854,-0.029811901290277998,3.008623061214912,-2.996056881131291,-3.4332019518427375,-4.736013930476749,-7.93224512789246,-4.965911171073955,-1.9935843681439924,1.3592910029333722
58.0,3.785225883755346,4.93600223831212,1.1507763545565535,-4.311860637040495,1.2833192016034833,3.012422750387236,-9.520389619551011,-5.812403434247189,-0.9468569430513267,1.990757933548935,-3.534467664948301,0.6709632276696298
59.0,1.3213462773012699,4.687660044235694,3.3663137669341783,-3.0325478953425717,-1.0551307130391419,4.070147739618141,0.6315610494133961,9.677578768166246,5.93749072306986,8.015909783783629,4.784096347935253,-2.506247662727376
60.0,1.0649245229906057,2.37876001994379,1.3138354969530461,-1.7517652584518475,-0.15681107533810917,1.8874395452064938,1.31447483490782,10.806070748660794,9.85113254040773,5.325312510444066,2.17500953648848,-6.84343130194853
61.0,-0.5772166909989521,-8.980051227872346,-8.402834536873307,4.822186093563742,3.9583538704727714,-8.6493523221823,1.5906115642692837,3.473216548938419,0.6639157196368197,-5.604317774301879,-5.013271965694373,-3.7676453874843716
62.0,-2.6022050918508985,-8.561865792707744,-5.959660700856606,5.539733109669765,1.7225119629740784,-7.294972472039371,1.9944349680919542,-7.28616936101637,-10.953006741923668,-9.708112579904256,-9.35355304452585,-3.9276140667298463
63.0,-2.335116914770521,-4.67240929998166,-2.337292385210922,3.533352299011573,-0.03619591226040153,-3.537634193921886,9.260387761062349,-7.061968297477259,-4.708434370531685,-0.4219020036178316,6.321166311089147,3.179207089183178
64.0,4.012626823075283,6.532800498456639,2.520173675381453,-5.2478776812033106,0.7063161082800538,4.4919300212748645,-1.7272421826851527,1.123425491291604,6.6749660842738185,7.563577280344685,7.39259691407232,9.232111581569198
65.0,3.2756110564756935,16.349537454745402,13.07392639826963,-9.789250342346325,-4.863179996095221,14.750378661976482,-5.8102109241862285,0.22035080177555866,4.554328792454785,2.6049223704329196,-0.7192272550157286,7.740959304119697
66.0,-11.660693739801545,1.8498787082480748,13.510572448049516,4.852033250015888,-12.552830674692855,7.632268281899127,-4.257844350793607,-4.032581151588636,-3.5808873624522692,-4.884627523505073,-1.8281786421992483,2.2859909504061555
67.0,3.9502419601079906,-4.68826022223214,-8.638502182340257,0.3210111505003751,6.244765862505054,-6.63980697921306,-4.015944479197104,3.457646476097496,-7.094780843109447,-4.582539384753333,-3.374062244737071,-5.881496193925906
68.0,9.012810411267209,3.249218709591716,-5.763591701675523,-6.092096255172706,7.413085208851496,-1.237030670296663,-3.1107953614560753,2.7116117978780885,3.1742974936190405,3.856567695005408,2.500000627344795,-5.062215563536893
69.0,-2.3478680669983825,-4.990876785989004,-2.6430087189906795,3.7184278084939404,0.16776242329043267,-3.794404740078206,5.765625953764763,-0.27093219161998316,2.5065934220894133,4.362526390709061,1.9962496295655676,-1.1363036343553166
70.0,-5.068655034208881,-14.047266814489818,-8.97861178028092,9.539094167259382,1.8919625441200763,-11.482278757681708,6.451855617861343,2.8394299013929944,-2.350906936414748,-2.4519731182245867,-2.783352428015933,-5.791320078917412
71.0,0.47380762572849533,0.02818257783785505,-0.4456250478905357,-0.26011821910295296,0.47240865896257234,-0.24507294498832533,0.7125916148446603,-1.1720635918786633,2.8591072520908654,-2.5318709425610186,-1.652384743010069,-0.0634010407323169
72.0,0.4550858890285492,1.0506319378872684,0.5955460488588596,-0.7552681754114323,-0.057766705537921625,0.7987619750212163,2.7964907101163012,-1.3738397991633104,5.302035015672605,5.61698954480879,1.175005092643992,2.9592569771872927
73.0,-0.5795048422347537,13.490539551924932,14.070044394159778,-6.455773598848602,-7.308691190618747,13.765009834241862,-6.775053421389913,1.186537238727245,3.1715826708898116,3.2759929879449103,2.681680710376263,8.152780682972528
74.0,-3.683301147085722,-1.8116946759055024,1.871606471180261,2.744279250656028,-2.7538181097202434,0.01858153766933235,3.638906254080447,-1.6551366634692506,-8.670231498719884,-6.30170015818385,-3.232085066716512,-2.9175892876573046
75.0,7.762273100523231,-1.4864971967016367,-9.248770297224892,-3.148478131151253,8.460750652261932,-5.3020968016068695,-3.6308152427023312,-0.957338383083787,-3.8367793825269723,-1.511060365874084,-0.28221372053549565,-4.110741777112217
76.0,2.6750336952739797,1.129789924801829,-1.5452437704721893,-1.922940181437295,2.1551165549438664,-0.22773425852794804,0.27172674053005297,-0.684981456341934,0.7983806651439989,-5.429132339525683,-0.10120167195626803,-1.6405819975392197
77.0,-1.9068220854409037,5.799882579377586,7.706704664818447,-1.898363927871085,-4.831357971952505,6.723287255882268,-1.088702783061251,-3.3865400898097717,-3.6433372992512396,-0.5873950712728093,2.5944628354608916,7.060813173208063
78.0,-0.6843934734143894,-2.144142741935437,-1.4597492685211046,1.3757923188433279,0.3684326918875205,-1.7641739163482129,-4.330232118209342,2.6297484594211764,2.0277385698261474,6.505044186060892,3.3537586441962435,3.551635823868393
79.0,-5.254223331084887,-6.335008635254743,-1.0807853041699325,5.830533278426096,-2.1053237014161987,-3.758564294461064,0.9332057177625698,2.5173258348333283,8.330212566201375,6.442866787016131,0.28683776341323175,-0.18265415542508867
80.0,-1.4119505343316328,-11.12558104427556,-9.713630509943957,6.303930506190291,4.2074192185427846,-10.39813406333921,4.38475762367875,2.3186083136456546,-0.7298521591127831,-0.1582204379215275,-6.349085918637418,-6.4127632157648975
81.0,0.1971168271745526,0.3603437738081272,0.16322694663363757,-0.32056315480768083,-0.011323089339220438,0.2805939176521455,7.754312758737115,2.4407292379515173,2.630419931407434,-2.387940731613009,-3.050365827617564,-4.314386471963465
82.0,1.642309767050637,6.832682738326232,5.190372971275732,-4.276735808995815,-1.8086343670059946,6.031283535729186,-3.1656927547424316,-0.5588811632553554,-1.6516218152991553,-4.153799940711271,-0.6737446496931636,-1.2467039260359911
83.0,0.02955166553749411,6.915897987987806,6.8863463224504065,-3.431251542279402,-3.3886124787750123,6.924032965427398,-3.3843958210921907,-4.2018346981815915,-1.61212228175923,-3.2387556610221777,5.216042116290753,3.9649902918360933
84.0,4.268849178695391,3.190602231606923,-1.078246947088457,-3.76642861893212,2.712412967824608,1.0038828922784448,-0.5731264603577642,-1.136887625984528,-6.89848504112382,-1.5739611810375385,3.072773764764594,1.1487007534120708
85.0,2.7364045679005264,0.4234190734452481,-2.3129854944553516,-1.5386486684551026,2.4876542716568846,-0.9944701214974196,-1.6837700727333715,-2.279037518836853,-2.137715508968376,2.9830765008944278,1.2111359682437317,3.480024552533795
86.0,-6.127013492316517,3.130899493288931,9.257912985605362,1.458960915090843,-7.723731573998245,6.224968641327967,-3.5630171696620887,-2.5790878376401327,1.2761222227406843,6.834848676169756,3.2616476447045892,1.8592975136139647
87.0,3.818784830544156,1.1217955198735292,-2.696989310670708,-2.4324506048188113,3.3124373197487276,-0.7556721718074353,-2.104492898334291,-0.3328935829964934,4.121494581506678,3.8901511790928693,-3.0324652241366135,-1.1066450081412487
88.0,0.4928345617332527,-9.702850921976998,-10.195685483710328,4.641250720066468,5.3265461733385315,-9.993440740429495,3.688768936337972,5.445824936127914,4.34241422315979,-5.616346490610578,-10.496832120113966,-6.193288621207087
89.0,-9.44513268717309,-16.693080203906902,-7.247947516733834,13.025444892318026,-1.1119808641235571,-11.931070399299855,10.116309883072347,4.870889794447136,2.5494183078472643,-5.122121690647167,-3.084149604861226,-1.128596515671799
90.0,2.6223901075445237,0.25038883535290335,-2.372001272191593,-1.480483409774088,2.4851124289036153,-1.0145711257606718,2.681360743162779,6.650771956914738,3.870831842577663,0.5682548692282703,6.6525147212039,0.3469039162594133
91.0,0.4957004142243768,4.022851485199096,3.5271510709747282,-2.2237673579301034,-1.5295017629056493,3.7496405849498378,-2.2975376562545238,-1.2574907340935608,-5.240858523595998,-1.6013530522698531,4.812688483696176,1.7034140201579113
92.0,1.7116359153941747,6.851380447536645,5.139744532142487,-4.321871530570111,-1.6530157183246377,5.975546603218817,-6.167980614880753,-12.077882172677493,-11.2876727863162,-2.7744193780823516,-0.31539133278621323,-0.9515987941100694
93.0,9.62516392033068,15.30358858982487,5.678424669494153,-12.420685425052929,1.9506066870611032,10.47285139932357,-8.800284983584245,-10.358660495088216,-4.279665595464501,5.8984563281067945,-0.5317809710582998,5.0551922654730115
94.0,4.009103959660564,12.850893600937827,8.84178964127719,-8.379144999899117,-2.4441453446983004,10.826347811487356,-6.865738505810665,5.653409533194403,0.9934647877873233,3.897984677937692,0.02465495749656632,3.660661179335688
95.0,-9.159120234795882,-3.3996112572219177,5.759508977573887,6.258707436021315,-7.412475134622035,1.1559238314861764,7.519103156719808,3.321903612691748,11.692885380196492,2.280098843270949,1.416570549378435,-0.45500285657741724
96.0,-10.20596458794689,-18.72667038375477,-8.520705795807938,14.450430431447774,-0.8770753905021826,-13.572584353159252,13.775884976533128,5.790223367768869,8.282697214130389,-0.7675887137285958,-1.2809801064605049,-5.338136667260779
97.0,-3.371981647592234,-14.681798302215498,-11.309816654623264,9.011064190488472,3.933837201711258,-12.945416872630076,2.5631027096852987,9.025276913803989,-0.23797400480513975,-3.4174269463800298,-1.1267310086851128,-3.026913378838996
98.0,-2.488484528094864,-8.617787614238686,-6.129303086143845,5.531842039428456,1.8652833599880094,-7.398447139599887,0.018904076078395615,-7.1445853934080965,-1.9939489888604518,-2.1753893891534255,-2.4590861479655297,-2.6533359329527033
99.0,15.394430276173816,10.615762985179407,-4.77866729099443,-13.036216994182592,10.133925894733343,2.9008149043210203,-6.037603649025847,-3.0615373102754777,-13.972520353180968,-5.662597098353627,-0.45491336093699286,2.890954958872709
100.0,8.668068401315399,16.547193891312915,7.8791254899975085,-12.571365352462625,0.3659550546652448,12.204425317377595,-9.146649839446733,-2.5102110337111743,0.8311815301608947,2.39036960827014,1.2864821214969928,3.691827455532711
101.0,-2.8493979486184866,7.185880004188068,10.035277952806487,-2.141527274265334,-6.468629739766957,8.61015423032772,-0.9210958346118572,-0.4889068642039036,4.986545556516253,9.62271957371498,5.382502032708833,1.3548673463518783
102.0,-11.913846794329896,-14.91594824782349,-3.002101453493732,13.436406384409763,-4.481076569456215,-8.95414888546469,5.037449792196227,1.8485983699613422,2.1521509503326532,-1.7105542925438932,-1.8988418740808424,-4.843745995725444
103.0,-2.990887532238059,-0.15230816103522304,2.8385793712026564,1.5930845175692339,-2.939726965286831,1.3487961652879537,2.122768751113719,-1.8018648133549757,-6.170639298248261,-6.958542264284315,-4.697747271492726,-0.750370389665157
104.0,8.556788388049611,13.903827577084243,5.347039189034524,-11.283307367949153,1.6587312444012619,9.626997166067397,-1.216862701519685,0.5165947175826812,0.901407415588751,-2.176896953677071,0.021492453021823676,6.5293310713082775
105.0,4.708999314751145,-3.1342307917100616,-7.843230106461069,-0.8337635074177538,6.3305624743796365,-5.49529659966807,7.0078253576478104,0.455407932667804,4.02610513479996,3.6351183442971244,0.20110577399141102,0.42811120182592544
106.0,-9.19099303855355,-14.149404410319105,-4.958411371765207,11.709500420221278,-2.139662826383153,-9.57075895748191,-5.850437703660866,1.6342772853991385,5.175806428774402,2.421137633159676,3.2503878636506394,-2.6702989117296525
107.0,2.9963193761231826,1.0811251715805916,-1.9151942045422317,-1.993690607119568,2.432723572098078,-0.44389198038907995,-4.543449057624883,-0.9934071455433937,0.7524638085590711,2.695407350404605,1.6169318804500135,-2.000962824562611
108.0,3.334803008258031,4.086888131385173,0.7520851231272627,-3.7407704473665726,1.2669244649436515,2.4638953029394117,4.413521586637778,4.266980052036889,-9.259910381840635,-1.2284487917452347,-1.2837571420868912,-0.017737161942108504
109.0,-4.125119389112994,1.7489996183104934,5.874119007423387,1.1600069096270231,-5.027851267246412,3.852250353224274,-1.6136138220003902,-2.530976598564383,4.3493718626148326,0.8878617193228067,0.2760963591439187,0.049772547289306523
110.0,-2.417598828577242,-7.627707152820493,-5.210108324243482,4.995123238322467,1.4407702184726379,-6.4571702789711445,0.9664123776094936,-0.001819844438739171,-3.4380035106623295,-3.559464556566812,-1.029759230324992,-4.2210982704366335
111.0,-0.2887726391892909,7.7338096215385725,8.022582260727503,-3.671377816564497,-4.11849114602695,7.920400666153784,5.264910316573644,-1.392911959551005,4.690167246116596,0.2478355619539161,-0.12425817573615983,1.3899292339421354
112.0,0.400312613445686,7.842494070449721,7.442181457003689,-4.070532129248591,-3.5700246434942606,7.607314591811301,-1.6234774692084475,-1.2242740020657235,-1.297812961794213,-0.888098365958429,0.4034090028827625,9.192997629819834
113.0,-2.530421826604812,-10.69831622929349,-8.16789440268884,6.585783825272049,2.8417038153400282,-9.468338866626574,-1.9648952286466663,1.5038740086044797,-5.804586202225908,-2.1014381958939876,-4.773818299558086,-3.131409493051125
114.0,3.0479371555830994,-2.3410348834858685,-5.388972039068898,-0.38394621870833223,4.236403950618295,-3.9023420834656974,-3.29971878280469,-3.090279076725442,3.2381139369614553,2.999652606988148,-0.11593864419772193,-3.615136814035756
115.0,7.981300274238573,4.987853861450873,-2.9934464127874834,-6.518926224476179,5.423949357756788,1.0358466050916149,-0.49898711377967264,2.353845218228908,1.529659746684531,-0.8991259146649888,2.3461566056106005,2.0252754949869893
116.0,0.37804285860257103,-2.2465611159860455,-2.62460397458828,0.9726973805597612,1.517057762672054,-2.3985494380528873,4.310310234333922,6.507260471102561,-0.37639513256711044,1.1882887280059382,4.314477087520596,0.05983947234343179
117.0,-2.276506127478935,1.2165805149163775,3.4930866423956,0.5609359557552855,-2.865226856707096,2.39268221183373,-3.779595518047156,-3.4224133120056983,2.631438395668617,-0.23530213818003975,2.232319196434574,-4.405480666651454
118.0,-6.343485558151185,0.708837433877598,7.052322992028981,2.76175212395186,-6.671248842057937,3.8428413329168087,-2.6195904256869365,-5.31798517099391,-4.5315634824511495,-0.6636133626949412,-3.584948409912956,-0.6011359663304263
119.0,2.827807794133328,6.299075838548663,3.471268044415434,-4.54706095370706,-0.3645238952976211,4.851516248872582,6.538546974996688,-1.5449671831842249,1.3833971232076632,2.6162276966195415,2.023265163246219,8.253053289424074
120.0,2.1399810253183786,0.9955397101526084,-1.1444413151658472,-1.5561307811635479,1.6877868321954244,-0.026440399941148218,0.3194943116099802,-0.42327859384345834,0.047416937862109265,0.14814720725704905,-2.8852013474888056,1.3548409281250096
121.0,-3.3363500698284136,-4.671233585556558,-1.3348835157283863,4.0131418913482815,-1.0263512677407736,-3.033863585398203,1.4780384696379012,3.661451986056242,4.92484272357552,3.6270627352635714,-1.401284162200565,-3.243758902409173
122.0,-4.0130504513900975,-10.519580946219703,-6.506530494829804,7.275536065064371,1.2243923266780568,-8.547701984839227,-2.7175292050651314,5.397691694865288,-1.0495382411476515,-4.677041245466995,-2.3597231948760298,-5.889264866786294
123.0,4.302074993915568,-0.7568470895655128,-5.058922083481203,-1.7622492872389326,4.734526330982744,-2.870864800123418,-3.7502441406490927,2.649711331147695,-1.8461650515139894,-7.511184206791326,0.32569700070989044,-1.4829004999711457
124.0,-1.5984321848857643,3.0177241159374244,4.616156300823156,-0.7765833200498429,-3.1399780530979142,3.8453097766408564,-0.9259142928536499,0.2905949528918681,1.2858990886473967,2.253236256827118,0.9562303028240429,0.9751251060620172
125.0,-2.909657576967523,1.1946428464666825,4.104300423434214,0.8704749167619852,-3.5515214724155637,2.591143114034112,7.1901623119909575,-6.940552984739418,-5.610183761057398,4.291018156071409,4.238422525672204,5.204229798661785
126.0,2.19883792968178,0.4303616932465153,-1.7684762364352826,-1.3008228173470062,2.0051600701852172,-0.6537301216760731,-3.961228069691957,-8.374552811403744,-6.603296300172737,1.439804968337815,-0.9035720230732556,0.3786082834509066
127.0,9.24772128146082,11.177763023708856,1.9300417422480574,-10.19823681085353,3.670390215301002,6.568339252809121,5.672123834889483,4.483574638283829,9.883786969171831,5.075541522870786,1.6626520303532855,-0.7598283717620566
128.0,1.3737797933407032,0.35488159232977745,-1.0188982010107757,-0.8490114789413159,1.2036480109932515,-0.31421090328095236,-1.7181540648666085,-0.9409244150152047,0.010101839442738125,-8.62156234237094,-6.8722800784853595,1.321475305676363
129.0,-3.813353077754097,-0.566571240487775,3.2467818372664343,2.2060027670249562,-3.520098720543876,1.364137568446193,-4.697872828493594,2.1943697162131985,-0.28685295838886526,-2.1753554592085713,2.4006839855590414,-0.7310031494391331
130.0,0.6485069762508564,2.2319864448659104,1.5834794686151072,-1.5027255241886737,-0.44911691795931574,1.8597486410083053,-7.910622417266455,6.830435069786233,2.8949623328430283,3.7730587591601568,5.962108214812143,2.5775373768256533
131.0,-5.466871178448848,-11.904751437623043,-6.437880259174186,8.701598482634322,0.514789594064343,-9.135790823288065,0.4029914101849541,1.4169535468103098,-4.054384043574835,-0.8948093477275502,0.5372290388996517,-4.464549325063901
132.0,-8.691973041895983,-3.4347809030045937,5.2571921388914244,6.078282868236149,-7.0147674263719795,0.8692280538360166,10.142564545155945,-4.488892697786776,-0.3673751585746696,2.7811963763620695,-5.141437400840978,-2.933990586713115
133.0,0.3862554557103355,-1.167281973314311,-1.5535374290245487,0.40508952289304023,0.9338869227691413,-1.404577222584848,11.525153577620692,1.5827891614702003,8.098457927374966,2.9981764045434276,-1.6916759161439914,1.4393369124446513
134.0,-1.415956951968409,-9.690689848008692,-8.274732896040142,5.490712875397467,3.3910526588541585,-8.952117647832189,-5.970329347430897,-1.0340014036847882,4.4969330098737625,-0.044990885401780534,-0.849224250418773,-1.0994142508913984
135.0,9.913553301602999,7.1196955829740265,-2.7938577186289146,-8.495788529233902,6.38647740166015,2.1901147587018768,-8.35179627876567,-6.57333160218323,-13.386725022453982,-3.4367788981394254,-0.9156457339673569,2.036003677642481
136.0,13.370756045460004,17.042675217007552,3.671919171547451,-15.17752926833229,4.87236988731832,10.383640067462805,-1.195511762866401,-1.3026977494150125,-4.373915365487469,0.8506543973378293,4.557195262718115,2.163214583848065
137.0,1.011303077706974,5.652120373821811,4.640817296114514,-3.291232304194205,-1.800116677703212,5.175112706211683,-2.046952051558924,4.3475896694250515,0.48492810162673505,-6.478868666266637,1.4939362625372303,1.181264742213299
138.0,-3.968471407740388,0.3857913401651527,4.354262747905132,1.7652868260576045,-4.150764408200551,2.3245125254778296,1.8786257096620742,4.496882243974569,-0.2503486555323158,-0.17649127158775157,0.5864019917560404,-0.9228932905309645
139.0,-6.970909605355748,-4.98367770202841,1.9872319033270618,5.961622714990251,-4.467286729768376,-1.538521818747349,1.980289384019747,0.48945818143770303,4.153822016753698,1.087288114738727,-0.5293429562295302,2.4750531009207846
140.0,-10.749312787672284,-6.47364790446093,4.275664883211219,8.601893377500554,-7.574001611704219,-1.056173065903553,0.5568149131793532,-3.492799166339341,2.2078119229229984,-0.16258427429707778,-5.433805096880725,-1.2242988314144523
141.0,-6.992239376337926,-1.36416283923844,5.628076537099544,4.169252087220583,-6.28546336554992,2.0989916850841004,-0.8732850645606403,-3.4923117853756533,4.751341026754185,3.7300972799348813,4.7426507234763156,2.308081724923557
142.0,2.4474079612421193,-14.200436122623833,-16.64784408386576,5.863419673711057,9.579044843872921,-15.455079750203588,3.654586164538789,-0.5101873426156658,2.900408264556937,4.177296206167792,-6.002287259316265,-10.117313882222987
143.0,10.086334217713253,-5.5618677062869875,-15.648201924000059,-2.282060498000579,12.823542224835162,-10.555185203743594,4.366994939807666,10.393660721612877,2.1559428395375053,6.152214923296933,1.9753434225165007,-6.584727452426847
144.0,7.112997357065031,-4.187499739276057,-11.30049709634094,-1.4103542999828793,9.240864318466443,-7.691441135248609,-3.044947555687485,1.2766320486133553,-8.624865843429124,-2.9023764610633513,2.425884949056355,0.38467942697226354
145.0,2.044816006134049,18.192857104018486,16.14804109788451,-10.070540219971457,-7.101691067842482,17.147415213935428,-1.1663914995275277,-1.6029421409144624,-2.7782957910385493,-5.537092980895767,2.4619243338087817,10.212616080916426
146.0,2.1522714784902854,23.270277404084737,21.118005925594446,-12.742551571620046,-9.462825747090307,22.173668695641528,-9.072851458396574,-10.83239151589368,-5.230251856164307,-9.04814099335038,-4.949162723058477,9.805337480162432
147.0,-5.550172076093765,9.400111054185112,14.950283130278823,-1.9544151087261028,-10.239660557335853,12.155444205776856,1.6028758185689136,-3.655080657287789,-2.3797356011471194,-2.6484838570973466,1.3502892991665325,3.7417239157142426
148.0,3.067270114328246,-0.09160756523748281,-3.1588776795658156,-1.5143014928528997,3.115949533047857,-1.6467464295401975,0.5061628863589814,-0.21587328554685947,2.389000759419534,5.163531980980819,6.032972384095313,0.1989039593448056
149.0,-4.734479305134636,-16.41033887432127,-11.675859569186677,10.627199119278577,3.4698109698683512,-13.989624365390766,-0.1792715669286824,10.15887354681778,16.15021168916381,14.242171004680998,5.160172317945268,-6.5728594217301355
150.0,-6.403568714567074,-21.878516706897678,-15.47494799233061,14.118018875443644,4.536100649500586,-18.706373236559724,7.390051063139795,5.22091916067185,1.2827633734665413,0.32243535398567946,-5.557299147723817,-10.28305861408519
151.0,-4.431557606423448,-18.661809048646,-14.230251442222574,11.522675070338096,4.9059240659268,-16.47881025297054,3.806535491900268,-5.409707866006158,-15.812036581031034,-12.540030355409545,-11.446277938920591,-7.971793298020678
152.0,1.5409651853408184,5.641364651954227,4.100399466613416,-3.538919926776884,-1.2634144743966917,4.916368407484844,-1.9305107000700747,2.454582612266661,1.5950013451006484,-3.5795431521290024,-1.8518475821781717,1.3209173755476042
153.0,-2.406688783534543,5.245693167960763,7.65238195149529,-1.4490355225810871,-5.080745952746238,6.497052249143664,-2.1003780075776923,-3.4417041086050006,-4.235834552856867,-2.199451013944304,-2.293011770504979,4.713473475127332
154.0,12.383517330544043,19.17394476958897,6.790427439044892,-15.81056858344869,2.8346024078740197,12.956024040077931,-3.739676856537395,-1.4169610522402833,6.2845805304828755,3.845186118481425,7.650526840001574,3.615038590335347
155.0,9.568760628210558,15.46429919549631,5.895538567285654,-12.470047641020077,1.8038070427611985,10.658458168293206,1.235686133286749,0.36412490529054464,14.609108192104705,9.488669552393304,7.625837688435848,3.599176311788459
156.0,-0.8226537065789774,9.486744369307207,10.309398075886092,-4.362241344515859,-5.516081242432491,9.879434371459269,-5.028023050177922,1.2006003078087037,-2.9421748839736255,4.17127898464266,2.921921076559733,3.90038524319118
157.0,-14.054541140250144,-9.00890865141699,5.045632488833178,11.584630685861761,-9.579240646772341,-2.0005326281475244,2.424292423725215,-1.8189577883358394,-8.164145270622273,0.3798324268423452,2.897999523224332,4.831583011853194
158.0,2.6481995792384305,-14.384757574812049,-17.032957154050415,5.8479386141408325,9.807090263549211,-15.652284268577244,1.6730725923200636,3.2371224216289707,-6.453828355178703,-1.0434409326385243,-1.8725424503494619,1.0749300219802107
159.0,0.06443728839072671,-8.366370486360188,-8.430807774750779,4.135564524271302,4.285627060623726,-8.425883894326647,0.1390190068171937,1.1009519695486902,-0.8072663707237231,-7.621694924219057,-5.368728897059201,-6.114027203384861
160.0,-3.0639083478765,-3.735455398816601,-0.6715470509400383,3.3869300620273624,-1.1668488778949548,-2.235987219745409,2.3948119682814797,-4.8768044152927565,-2.6942176726585565,-10.390080777978397,-11.67465341596294,-7.5406278738866295
161.0,6.623689907204663,7.545876126903727,0.92218621969908,-7.0983203949555005,2.79286347341217,4.276650353803253,-4.520844902835135,-2.3767267719433685,2.181191622690656,-3.816139119501876,-2.8695212918923865,-2.049826406963402
162.0,-4.251750009167955,-4.220005916980688,0.03174409218726426,4.296627667611255,-2.1277393324218887,-2.052745248435679,2.471376563203255,1.1421326528596598,7.600467722841407,4.192520125769914,2.2340972535196615,-3.4272490614039937
163.0,-5.622726047350266,-3.2568284369152485,2.365897610434957,4.4143355029953755,-3.9845883813206706,-0.4818209831740541,5.269333962736194,3.364212429959432,5.067400782694976,10.329232864075015,7.651779119053125,0.2570728917322264
164.0,1.037858059314121,4.0083469477861176,2.9704888884718423,-2.5574852430041837,-0.9580083229178622,3.45529215420939,-2.9130473112468422,1.324415640883329,-2.274024573337321,6.708444045627141,5.125090347151282,1.6342453860486095
165.0,1.6829271967326374,4.318580468696025,2.635653271963174,-2.96485011236161,-0.4670299819783983,3.523851362117993,3.862327127031311,7.094342667237652,1.7032080314850746,2.4988649315079234,4.115904639712053,5.231334622748384
166.0,13.05746961463181,8.63670534739248,-4.420764267239506,-10.895881322527734,8.750929611752614,2.076865989058928,-6.093508185736745,-3.675503469826543,-10.962384356829435,-8.196750836850256,-0.49353014018656394,9.852814198865701
167.0,1.093931181274435,9.757654892643892,8.663723711369407,-5.397772379088801,-3.8490669625767526,9.178826553203201,-6.2805493139102015,-5.927049298012643,0.32302372554210024,-0.36069638370433843,1.9774400343532474,5.965371668775535
168.0,-15.309205311381874,-8.348352454864012,6.960852856517974,11.85921350685168,-11.11831556140409,-0.6491338254775829,6.691562917312808,-3.290224687968187,7.538697159790452,3.5326060549804605,-3.6536025041127274,-6.291604617624839
169.0,-0.5198860573046948,-6.4918601150128525,-5.971974057707959,3.5419404348082892,2.7438108141799287,-6.19053353307179,-4.7044898118041125,-2.7721286236377902,-3.962025016180021,-9.399683320322875,-9.90411663293465,-8.263642336435607
170.0,12.384144823315545,-0.8521533383865574,-13.236298161701898,-5.8021295261711785,12.82792424069433,-7.08510177029169,-3.932142340636628,0.8007114098006975,-1.2688774427584588,-0.26366014809745364,-4.815701893827644,-6.741338187580831
171.0,3.435254933400336,-11.555466297701898,-14.990721231102153,4.028873897130894,9.22969883239672,-13.317064552442687,7.707794463105902,5.86668995416756,0.5922977788937496,-0.17948725237863583,-3.4735049772136017,-6.522725724637863
172.0,-14.82694204971639,-6.648891103454387,8.178050946261937,10.70824124158839,-11.566143127235403,0.7973617921626737,12.436060656020796,8.634796624301682,2.060577673928934,1.6201662169623656,6.624172172049594,4.940305615226992
173.0,-10.180351726658369,10.067482816058032,20.247834542716262,0.10362636262128166,-15.200765286772164,15.190136826548457,-0.947849222636604,1.057017301427018,2.748437672204023,2.5941816145413816,13.333152614834272,11.812347204662663
174.0,3.702611730847325,9.020897586178037,5.318285855330556,-6.397150315143735,-0.7958972850222166,7.125029106199316,-7.993913654421883,-7.4054948923268835,-5.68632180539467,1.5767783064641132,0.9814729436922676,2.8943033856994322
175.0,16.956620440067415,12.463721702588089,-4.492898737479465,-14.670288570463205,10.73619052184142,4.023187249094243,-9.472221925582177,-6.131498319691376,3.9344866038437663,6.430730470665683,0.9376901026768203,1.0523687973647755
176.0,8.091381310864389,-3.0960496671191295,-11.18743097798357,-2.5375655030942825,9.65141822311496,-7.177856462004252,-1.6732205454755205,3.83049264452554,2.536632206335744,-2.5829096131647953,-7.6662214378354685,-7.831654611211218
177.0,-9.785376595695368,-15.511896653934102,-5.726520058238726,12.689750657561346,-2.015864165056448,-10.571374026713052,1.489680560687332,-1.877265938165436,1.261445211878765,-4.238523279368821,-6.748567509252279,-5.875958953480649
178.0,-9.501146427580949,-11.859096029347995,-2.3579496017669968,10.725959297025495,-3.634498519419279,-7.134861870190046,5.5576133721877365,-3.636986355635392,-11.6150452386551,-8.023238788528456,-4.584772442955508,-1.538763523082869
179.0,3.4988760552790312,13.488613354575557,9.989737299296607,-8.521730222855325,-3.2265895026314553,11.716080757486111,7.904251976251205,5.339692376781303,-2.770422790337355,2.5448555106024227,8.911340743509317,12.224165772154151
180.0,-2.261744310017203,15.233919236346287,17.495663546363623,-6.511630031435128,-9.855817776376636,16.343324400470323,-1.0450819673909963,0.08394579156084259,4.8283873228712375,4.9365109509918375,7.738756439847577,8.612827772750872
181.0,2.7161476626285816,-2.693589185706996,-5.409736848335449,-0.038657178456301455,4.012738289424467,-3.994323533721614,-4.327481988016904,2.1207377307695197,5.167510940285822,6.12240828005937,1.6415117688442824,-6.549042023892556
182.0,1.4867961826947245,-9.31202184164136,-10.798818024336002,3.8791938128714043,6.1789652590748165,-10.078276216352876,6.538211470709333,8.332854140836966,11.38580508277765,1.9317668472707292,-5.246929085096006,-10.329621357025362
183.0,-1.4814435677621354,-6.658362178056565,-5.17691861029441,4.10701215241993,1.8931118288069726,-5.864866061630478,-8.880599726418081,-9.330405095672326,-8.070889712248322,-12.191143572621723,-8.119024399463331,-4.190408440487641
184.0,7.907812030254039,0.18825299554486374,-7.719559034709183,-4.018216083740121,7.789910400351805,-3.7967656572456656,-9.174045941053322,2.283137687874708,-0.8199506615104775,0.3273695769471656,0.22910963216022528,1.3946888407106286
185.0,1.997965963467892,-5.204242621855103,-7.202208585323037,1.629434949044196,4.5844869887721895,-6.241561616596269,3.921322286896756,-4.202924169689978,-4.18795352469469,1.8130958615139665,0.6281397153473186,-0.26748849475379854
186.0,-2.7239179635312043,11.094743608218465,13.818661571749622,-4.236183673960771,-8.281875132054392,12.488566093535054,4.472758721795867,-7.733623933460973,-5.592458868134745,0.5015529808436107,4.305721802510725,5.700810508343357
187.0,-15.937615422226825,3.9022919840897528,19.83990740631655,6.052053554129515,-17.898444585375945,11.816156132590294,4.324431185719773,0.5144030039394636,-4.817155028964965,1.2915419683653737,2.454793780755111,6.373435002596741
188.0,-6.543496964932877,3.7345430775651067,10.278040042498002,1.3691203730486816,-8.423466511357772,7.025041014335312,5.120161565197687,7.188842954160973,8.092396572374497,1.6557920300382352,-0.2658313930242553,5.924425504256918
189.0,14.154430301284087,-6.395960142753434,-20.550390444037482,-3.8273203904442563,17.41275185855218,-13.454231280411731,-5.153413422321071,6.741962280042723,6.265244734881424,-1.7253715964336154,-1.3112276927646929,-7.378629989931481
190.0,14.75396510575064,-4.221045021125569,-18.975010126876146,-5.288255266844625,16.839444011642932,-11.572763614468418,-6.010744382832361,4.219111282454051,2.107689254788885,0.17930750053352185,-4.246338065751235,-8.59527799373145
191.0,-4.403505274420823,-2.1428256225862365,2.260679651834643,3.2510132820848203,-3.3629298682134525,0.09540213813160214,5.582129832075686,-2.407633934782883,3.6675475294353195,2.428329041761696,4.418336495062476,2.25247774015535
192.0,-10.816812374102474,8.187933346030208,19.004745720132714,1.286459238106146,-14.866492604064591,13.566957559819553,-0.6706820857939246,-8.04228151389199,-3.9192008175100796,-0.9378529772230233,1.4167839466303602,3.280100018710214
193.0,-0.7024861711710555,3.0826837768322344,3.785169948003295,-1.148670490319136,-2.279125700999992,3.414999649336851,-0.6472509353337956,-3.000604328386464,-8.619035520579155,-1.2186403691022947,0.2068012464469341,-1.195428508010742
194.0,-1.845130188597265,-3.4488841930168146,-1.6037540044195433,2.6002774447474537,-0.07545151900220581,-2.5406907948535356,-3.2405150054357406,-1.560356008801119,-5.908088044693361,-0.3030854686284441,-1.5270590176008765,3.8435155948098476
195.0,2.2792307915984593,-5.734237214868598,-8.013468006467036,1.753828686434761,5.1163505259896676,-6.8910087775422095,2.642754958921052,2.4233726889449407,5.951376109592951,-1.2785790669440051,-2.7031443940408364,-1.692753845024078
196.0,5.482732988620844,-7.474921950176222,-12.95765493879702,1.02317586916586,9.19409553991275,-10.242452710685782,0.6887520543067096,3.8123857632097247,5.4403887642977935,0.13609312037800125,-2.0713234839395147,-8.138451472213013
197.0,2.8934408914562155,3.414490740172212,0.5210498487160162,-3.119058013320347,1.2416896039299612,2.0082877452732433,-3.105727669196326,-2.1717794138869646,1.6951933478432748,0.4829215413830657,-1.0423609967787355,0.21540710159222698
198.0,3.579407309412965,7.08428468496625,3.504877375553311,-5.362610525704579,0.014611560410767485,5.323887724069093,0.5602282231110163,3.633484111165053,-2.3199499043204197,1.1339076485198785,3.007384549390867,3.54463733071573
199.0,-5.522186164938349,8.405445692994203,13.927631857932537,-1.45773313943174,-9.74980729115976,11.188701420725996,-0.26165852937683265,-1.1873428223307128,-2.0090802484384525,-2.3136714634555844,4.799774749849402,7.257423320001228
