Time(ms),I,II,III,aVR,aVL,aVF,V1,V2,V3,V4,V5,V6
-200.0,-1.0967386769207983,-0.6232375845232783,0.47350109239751736,0.8355337163426959,-0.76104283099214,-0.09431700961830042,-1.1366384652727226,-2.217005429997906,-1.106792708219955,-1.2330490091018933,-3.1330473446137175,0.7039386348362926
-199.0,-5.416656448384686,2.1404508953176733,7.557107343702354,1.6031840996691715,-6.469709778274231,4.825702288973121,-1.2423016263823934,0.8466005134799572,-1.0639733150619513,-4.226913644829503,-0.8523532140667394,-0.2029441007150316
-198.0,-4.351836355625634,-0.6573096296297676,3.694526725995857,2.5381740815632723,-4.090467198039118,1.4893592392227557,4.2292067939807705,5.48090137295625,2.734506715561065,2.906291754365834,7.345935431928102,5.651586180950285
-197.0,-0.19804545786866212,4.181479417128744,4.379524874997395,-1.9657289913740759,-2.281236048433854,4.323237642323254,-2.67103488196555,-2.569293986382279,-0.917683677299393,0.515425319964061,1.0882554411661784,-1.8440898027485075
-196.0,3.298499545985712,0.02932570307147886,-3.2691738429142507,-1.6413303106425252,3.289826231129118,-1.5825757958422624,-3.5275759682543595,-3.9571862650326626,-3.4085244460418487,2.4285822303624456,-5.6026242782641535,-9.919505333737645
-195.0,3.962657451317863,-7.59240731822472,-11.555064769542613,1.8383491957575548,7.76605185386986,-9.539353762430128,2.459682144617637,2.322434879892495,-1.709661826825557,-2.4013833720198456,-3.2037369517453387,-6.996360986499611
-194.0,-0.7203612405169344,-6.627717573857474,-5.90735633334058,3.6225990542159034,2.6045670495016955,-6.312681587834403,4.647184994562315,-2.163244692621816,2.4784914212977034,-3.1959903166171513,-1.5153357554263052,1.0188917893972884
-193.0,-0.682676948924328,6.781929289843183,7.464606238767478,-3.0963605841521167,-4.056843126459963,7.078456444304,-1.3932203947755522,1.6944156821752878,5.445638207404939,3.606017907775148,4.1260092286040475,8.893139902923513
-192.0,0.9782546884818443,7.357388375166347,6.379133686684481,-4.132117048555092,-2.677533565231749,6.9025645045287085,-4.249884519969244,-0.8728767252866323,-0.6728217635183609,2.019064399381619,2.324741397060779,5.229555282033511
-191.0,-6.171583637208332,-1.6671246350749453,4.504459002133384,3.9566183753644832,-5.388977017148635,1.3742103691512826,-1.8632514764483272,3.1499631699647948,-1.6219235972827422,-1.923410333586962,-0.3135452173040918,2.5517158804481164
-190.0,6.457019396520008,4.787180360568854,-1.6698390359511426,-5.664362637328894,4.015113502651296,1.5929657033397997,2.072250417489354,-0.6190374400115268,-1.1319142820144648,0.8069577614804764,5.189052886830033,6.8272224371051635
-189.0,2.6133802654268234,-0.7480772894937412,-3.361457554920548,-0.898744113389701,3.018217941822115,-2.0196628125919953,0.5566116019197158,2.104919570770583,0.14767308152386005,1.6873976581967391,0.5040820422970445,-2.155138186333872
-188.0,-5.912535882854319,-7.010287788346901,-1.097751905492601,6.413203634731859,-2.3776638908820056,-4.0954011693171175,2.7140671176522084,-3.6383807158383235,-0.7343699726648957,-0.18906154697604155,-5.305585207106671,-12.061190055360647
-187.0,3.6665468535562855,-2.626070525639017,-6.292617379195337,-0.49264505000826064,5.007902715093914,-4.418132435554918,0.004614058054658532,-1.9634471548370374,-0.8998551098801986,-3.49595243352301,-5.46333463055214,-12.962679185888826
-186.0,-2.7863151008635016,-5.684296195570903,-2.8979810947074363,4.261411239288657,0.004377263790121377,-4.323684322461337,-0.09528404672200734,2.2845262508376503,1.7875584990097872,-1.7460548777754126,-0.8027435307627004,0.7563075358577622
-185.0,-2.231959062278753,3.687606987222207,5.919566049500957,-0.7799450235969383,-4.049052165922667,4.776436625969569,-0.18746771046255384,1.53942702920567,-3.1054026956378276,-3.283365190550089,-0.19942280102100768,8.004037293256802
-184.0,-1.4095219082428787,5.657509237922756,7.067031146165661,-2.094996310349725,-4.2121167029230095,6.418909252640368,0.7011087150242281,-2.49846331550952,1.3588286180571005,3.431180820936544,3.867791136661269,8.689614113346881
-183.0,-0.7240202610378135,2.9314286757419663,3.6554489367798104,-1.071390873974424,-2.243239467852524,3.275463818588524,-4.408555472729734,-1.2370469626565224,0.6477643127534709,3.655746338737753,4.356791671654538,5.325043616090138
-182.0,6.038239793234428,0.9555723051733747,-5.082667488061048,-3.5404750480842244,5.584543320595569,-2.078511251667298,2.100885301074508,4.239804155978875,3.3186239214131064,3.5886201037697942,0.8195996224026887,-1.8784452120312398
-181.0,3.4717496941815447,-4.206043158101953,-7.677792852283504,0.4033244963391134,5.519606684366236,-5.954892458819969,-3.6643766130057225,0.14079298921459293,-0.9357097686739881,-1.7221438154066488,-6.769504648529464,-8.497716078449896
-180.0,-2.2778590161923464,-0.8380318020991653,1.4398272140931576,1.5136429875866881,-1.8336782024703955,0.28917464352801137,1.6880791364415169,-4.003698599323551,-0.49701242451255623,-0.9753536839830685,1.9181423511937035,0.2043416830150555
-179.0,-3.3896758321033786,-1.0065405656683197,2.383135266435031,2.228294070247865,-2.856288540065824,0.7560255742657276,4.4825365398556825,0.054526891102849806,-0.9884506667094765,-2.739189371008133,5.550086235764784,0.841864768674752
-178.0,1.3629321840680628,5.742609310061211,4.379677125993137,-3.606753684471444,-1.4695943442885122,5.050109381062387,-1.0896332456058415,-0.43981352842084487,-2.361071547972122,-0.8111035998346083,1.1096895145294212,4.749648236652188
-177.0,-0.17511807776341182,-2.8831041723823194,-2.7079860946189003,1.5494848158857057,1.2377698162979767,-2.8078037951090713,3.328917722794204,5.922061668438501,2.1149167726075535,-0.39516458141062505,-5.3608319273273874,-6.092549148920071
-176.0,2.5266152862160216,3.144148626543606,0.6175333403276079,-2.8161912451214652,0.9375889876494008,1.8656745193468915,-8.278725769877319,-2.795600805585142,-2.1592303426442734,-1.6604936984579421,-4.363952568062408,-1.9260168656334746
-175.0,-3.010092743918451,-5.497819788958541,-2.487727045040059,4.276426750731083,-0.2686656472849597,-4.012482480880059,0.9686843186730569,1.775028884843417,2.8962161560221578,6.555974911947318,4.490647580666767,7.733212265507874
-174.0,-2.2477194002312375,-3.6739215401910084,-1.4262021399597538,2.990742903067968,-0.41316679390396016,-2.5751544465303207,4.089916201865071,-2.59315020000592,0.5893352203505011,1.5117743885024266,0.14939063085869053,-0.579603266183569
-173.0,-6.360851629500469,-4.580308407087536,1.7805432224129296,5.43160771938337,-4.073476122872188,-1.3511765299183398,2.2410079539568835,-1.3868068532465405,-1.9950298485259261,-3.8543998201714267,-3.5102218330197412,-8.153785164589355
-172.0,13.56185860552331,9.713552862701418,-3.8483057428219105,-11.66693995786253,8.696665445434162,2.9779312314332698,-4.875756510595191,0.010704572751464858,1.0928227544700568,-2.9810164970678277,-0.16223834663844822,-1.9993292719715194
-171.0,5.314213168016921,5.638009531483428,0.323796363466501,-5.49801200772202,2.555778649439474,2.946001235014798,0.07689290765605783,-0.8298116656590269,0.16805035374296584,-0.09856544341732576,0.2726899835852655,-1.3944653146633283
-170.0,-13.314814897592608,-5.272641528803803,8.042173368788815,9.354182091214916,-10.708874255326608,1.3498415426063537,2.9719985746536386,0.03788043759370002,-1.26481416781041,-1.9224181396392261,3.0621805371915185,6.871690455757266
-169.0,-3.7421431469505197,-1.1992605560072012,2.542882590943347,2.452133119930613,-3.1856685397263824,0.71598556251076,-1.426631452926931,4.507799397142722,-0.8405668883083587,4.624146423156555,3.579820102155943,10.606582582111592
-168.0,0.584407358197018,-1.896168062902514,-2.4805754210995072,0.6339868196917968,1.5564901108396612,-2.223298636837516,-1.0997307210393035,-0.5707874180695425,2.1953992600337444,3.1656413079638046,1.0562546714892203,5.057764599314858
-167.0,10.332431025891776,9.028181218575652,-1.3042498073161084,-9.628393669780818,5.83329959753051,3.904161144068878,-2.530725667308277,-1.6925877018325162,-0.4151530725808672,1.046885160190773,-2.3475243039854496,-6.103904425348945
-166.0,2.21956913921103,-2.8333528618611115,-5.0529220010721385,0.27518159953813237,3.6454525275722407,-3.98238878905598,5.01671283283687,3.5249727880924158,2.256332056133633,0.06260484849770882,0.01087399100421571,-4.672523288308501
-165.0,-4.0167828949896425,-5.9302770746991476,-1.9134941797095282,4.938665271672842,-1.0449236415691274,-3.9639353222277247,0.3101205716140263,-3.3564829644689134,-2.3365033480191033,-6.426077714020221,-7.333932513518275,-13.295324092001113
-164.0,-2.57291876652071,0.9191618752871462,3.492080641807813,0.8706271560527079,-3.0255761497770717,2.2407519814184806,-3.9103908972324066,-4.661253190350479,-1.3603292339728248,-2.32684559043586,-0.0613922323918632,-2.487009456816259
-163.0,4.406074064119366,2.41036976849525,-1.9957042956241664,-3.439737840218177,3.1312605490648604,0.2431179871790946,0.5995579434815448,3.363431965690694,-1.942040945016712,-0.3876547630209495,3.9372129831875315,3.5811198590639712
-162.0,-7.3208786213184265,-3.0761600424986337,4.244718578819758,5.2524516530171965,-5.769903574348422,0.6229411577904793,3.392816784419083,0.9327826772151007,3.787556307574283,4.730348744535518,2.1633500769082383,5.532119359220506
-161.0,0.6251580747419363,-0.976282480542945,-1.6014405552848792,0.15914247821848182,1.1314440381373272,-1.3250239226384448,-2.308386059028365,0.2644557287864093,-1.0363928545617747,0.7666024919763115,0.33189969592806245,2.2838776725268133
-160.0,-0.9658430370609927,0.27582697870203865,1.2416700157630656,0.33637289636476186,-1.0790099878408335,0.7257278711701379,0.24770687055454843,-0.9604652070490106,-0.10532127414741593,0.5884259978581035,0.1675890645559096,10.079186451251847
-159.0,1.9270757581754352,1.0268591418134119,-0.9002166163619799,-1.4808693182627657,1.4457688409265368,0.031075604540480306,-0.28023449178747717,1.2907708282776005,0.5864904988595208,0.2292084344018983,-0.927396708766288,1.4091609467094335
-158.0,6.733041216664861,4.83115401686184,-1.9018871998030007,-5.786073667397944,4.27784201368161,1.508968626422662,4.609878079513811,2.579368362830592,4.244358797709997,2.5279635242648846,1.6674074219730373,-1.7064402720175107
-157.0,-6.638038813160677,-4.099437360491895,2.5386014526687797,5.359422355116582,-4.622668882296297,-0.740536034713703,-2.975658184989057,-1.7839847739778714,-3.609702029125013,-4.831187496391253,-3.6004966991400087,-10.709617636941271
-156.0,2.3881849599477913,0.5855075586114085,-1.8026774013363909,-1.5057435096924299,2.1423894370472327,-0.6525547567651789,-8.994116338595099,-2.1760504127706053,-1.3423189206525061,-0.6827744289714499,-3.2782136528086516,-5.783908109813913
-155.0,0.5216594634702703,8.789644005975036,8.267984542504774,-4.607433677341856,-3.9052837336459287,8.48117776600471,6.411175825647144,0.07296595457226407,-1.0434290835310076,-0.5135930269327214,4.271423815803792,4.535858564552465
-154.0,6.646249100582215,-4.342451307745597,-10.988700408327771,-1.1934607279383775,8.782803174264426,-7.634826963645105,1.4708156694102967,2.0494672936656246,1.6233855926669878,3.1263411851441916,4.132638239746415,2.932490372609156
-153.0,-10.796242047565201,-5.641451887760487,5.154790159804777,8.247918340097693,-7.935119866245685,-0.20873361591605732,2.502257184832396,-3.225080173882632,-2.4972166757080245,-2.5502888221732594,-4.018652643699408,-0.9733212271017377
-152.0,-4.115616533928765,-3.1246809943081657,0.9909355396206548,3.6453134224630763,-2.5168077291758686,-1.024841359589542,-0.25536547394011966,0.44427826550246485,2.4823872802248634,-0.2503842185933326,2.075413406857659,0.19595763612434336
-151.0,1.0196200113080214,-7.016473442169381,-8.036093453477378,2.9451255305506674,4.560378687504963,-7.5541701222545745,-2.0913815782496226,2.762609919606321,0.699986277935837,-1.1574928489413838,-6.177667692943319,-3.674913851840131
-150.0,4.260039186557675,7.193011323443651,2.932972136885947,-5.697824585870105,0.6129773763929582,5.042339591624211,0.7861870921776744,-1.9477749785808558,-0.4356855493926717,2.017530341814052,-1.0126816884387808,0.6066516523900062
-149.0,9.661806809089304,12.407108296608216,2.7453014875188417,-11.001508396138643,3.4026266650340724,7.558650600354957,-1.916281849611544,0.44521872606824453,-0.4178721319390265,4.035201722441936,7.589397319721341,9.422199285101993
-148.0,-1.4835711897169928,2.340565054760776,3.824136244477688,-0.47112355805877737,-2.6362245937003763,3.062806682794898,-0.9949063892523058,-0.28987825766747133,-0.5072366683367997,-1.614772511433972,3.155882133433235,0.27682956415460724
-147.0,-5.557211999866623,-12.95428851589985,-7.397076516033275,9.21369695717545,0.9328285850031021,-10.201272869551214,-3.684346369829962,1.5230150885302205,-1.5596067232211124,-3.975074076365971,-8.512207252196099,-7.903081060686187
-146.0,0.08907416016737368,-0.5192036233865887,-0.6082777835539455,0.24916237544534425,0.3591763363067836,-0.5182270169463594,3.416294270283075,0.6764020950173332,4.319939971603069,4.9816193573257515,2.7161763152101033,5.996429196433493
-145.0,-2.32470674451157,5.023358338326663,7.348065082838302,-1.320591728596367,-4.8248367113524955,6.224672344618137,3.0163828285721417,-0.4722353930757895,0.42429280870816555,-0.37951445951859347,2.232432391882548,1.2857715110052947
-144.0,-1.3767598924855542,3.953616332500835,5.330376224986496,-1.2667166860219834,-3.3375722821353517,4.677273789562489,2.4484678277078666,-2.1840789827575238,0.6561220212200702,0.19267104934396007,0.7423714413435635,-4.34586178348309
-143.0,-3.4892353449574816,-3.9025075948744847,-0.4132722499168948,3.631623021027342,-1.515454835176401,-2.201787009406585,1.3360070221438247,1.2360746017757653,-2.785361672370352,-5.434479407121335,-2.293437280037644,-5.718564572951671
-142.0,1.149361434060654,-7.811701799848512,-8.961063233909089,3.339881015967234,5.005568159756126,-8.428077688438766,1.9029630379896865,-1.6488699513762821,-1.7665800588061225,-0.07265418242369104,-2.4537974383234222,1.3825657054225102
-141.0,7.507950277904405,4.815473911572507,-2.692476366331866,-6.155848898832556,5.055349884334853,1.023759566054312,-9.60171553391777,1.7410090123061037,0.18202451718734558,0.3003295296438494,2.510894517070482,3.723244919122092
-140.0,6.353782099414364,2.5380510553393636,-3.815731044075023,-4.438861089867692,5.120749208848407,-0.5926941244383902,-6.020205613379116,1.08541390396733,-1.5374351669297597,3.972715616806565,2.65303157471775,1.2284656145740764
-139.0,-6.6070936349984715,-4.32779708468388,2.279296550314538,5.479983771484359,-4.40742712705949,-0.9720986185326483,5.692863605216089,-0.9248335667139909,3.264286803960425,1.7920046584509093,-3.2475542388204137,-5.207913411267105
-138.0,-2.565941671762845,-2.791536019026367,-0.2255943472635904,2.7001943944884124,-1.2144632728793008,-1.5287021340456501,4.607970859109008,0.06349318112267421,-2.625650214877056,-3.5363485460311606,-6.847972882990209,2.376587432612951
-137.0,-3.9653417125130233,-6.74830094574985,-2.782959233236892,5.310023750212092,-0.5575826993636728,-4.779610055001895,-0.2009227090586272,-2.3987076516723187,-0.06284247826762818,-6.418145032137344,-3.990146731249684,-6.485404912440883
-136.0,-0.7837985442995135,9.044791128671818,9.828589672971262,-4.08882066173371,-5.350518175645165,9.427599562177212,-0.3472511311585642,-4.3472192644039716,-2.092730861070009,2.1214748141379784,8.637859047691009,9.691824013519057
-135.0,4.7745749218361535,12.700818446449441,7.9262435246132465,-8.767967888671025,-1.5384861373999668,10.307263035942823,1.4004915857447346,6.157797714724844,7.6368132182797295,7.070530187472633,9.580092343358269,7.309683575569375
-134.0,5.999230591494571,10.69926255415982,4.700031962665228,-8.376935713645887,0.6914483316538351,7.693775439674942,3.265645581018951,6.7399745978040135,4.883358092715539,8.743570778560745,6.136753694289028,2.429563635442353
-133.0,-1.0637755664517532,-4.770315367708503,-3.7065398012567647,2.966350918410883,1.2892654769389023,-4.246267238557283,-4.421901796304172,-1.8478289184183558,-1.7234891292953665,-3.3037284330626058,-4.490552904560603,-7.927173959076682
-132.0,0.27117688578635335,-12.818439591258057,-13.089616477044414,6.239108702173429,6.651857138056167,-12.887204634584174,-8.71456867818833,-6.555497204899526,-7.9611777164378585,-9.119853276896135,-11.909616148257973,-9.82707742386057
-131.0,-8.120487971959927,-11.743755468678643,-3.6232674967186176,9.969717773023422,-2.2757503316226564,-7.701440695523549,5.232941226059346,-1.620869332741865,-3.5049820480514486,-5.4814376968039324,-3.931274132204349,-3.405721148408647
-130.0,-3.1171491916436103,-5.026197544926993,-1.9090483532832354,4.024325695565304,-0.5532021409405294,-3.4932838339583014,0.7509441476338963,1.3041387233259472,2.308531256714132,0.7945003574698708,0.551020007748602,6.794913304047512
-129.0,0.9469530577299616,2.0144369914100144,1.0674839336802315,-1.4533748300857074,-0.09011664619081972,1.5062804016465061,2.0054396310095797,2.3558605772107635,-0.6912813750730096,2.998872602336277,4.785504303337502,6.945133816856409
-128.0,4.799426477860795,4.582034656567599,-0.21739182129312917,-4.664462579231634,2.555655649519303,2.2170447315290502,2.045774834087389,1.339083097718787,1.6183796252906912,3.8746723849224565,0.6960188022827389,-4.6504316932398115
-127.0,3.726951220030191,8.59286938147084,4.865918161440602,-6.210500651216751,-0.6009149259410569,6.755907688728372,2.0955406058316797,0.22709272065847808,1.9592516000763818,1.7152638365318809,1.7452330419867805,-1.2171395307008175
-126.0,2.347457335916039,8.643837401031643,6.296380065115489,-5.4637203457008665,-2.003181576107887,7.412434539290673,-3.723389434446543,-0.1614859016982707,3.740522380502445,2.6238793083725644,4.274107281283937,6.019047979926306
-125.0,-3.9264454549966197,-5.32596738167971,-1.399521926683196,4.662046596659778,-1.2079427309052069,-3.343034691423506,-3.270334217746088,-4.2637004753901175,-2.7157796181274603,-4.151681039781027,-4.002037154164498,-1.8645904152743236
-124.0,-4.7905243597235,-3.848711973519536,0.9418123862039122,4.278944429562465,-2.8818515354593996,-1.430549195412454,2.2224243906199894,-1.000073100222868,-2.7550793563395386,-4.169806912034922,-5.641165966315352,-7.889973065678035
-123.0,2.9730299647672482,6.149613773121935,3.1765838083547404,-4.602681169274216,-0.10931646336989981,4.69311738923628,-0.9763403412416768,0.5756608895289235,0.25458688683074415,-2.6412022429367434,1.9416034339732193,6.183941556893985
-122.0,2.6661677075597394,4.787436956683439,2.1212692491238005,-3.6931670214165,0.27177399413807646,3.414975833239644,0.31563892374599917,4.101953105203456,4.8271072591074,8.993302124414944,7.281997895120347,4.294579617526255
-121.0,-3.3615293385924208,-7.250435887099439,-3.8889065485068928,5.3338531782710135,0.26679528063095015,-5.59976543991264,0.8274037842026285,2.8208710479714814,-3.2097794684542604,-2.055902489986516,-2.019762914000078,-7.023066319611944
-120.0,-3.2918145634605387,-10.461296721069838,-7.169482157609226,6.819815199819406,1.9414112824279415,-8.759771831887635,3.8972387644556963,0.6413169258508125,-0.7025632743514341,1.116983577254208,-0.63741571464501,0.9353286415440043
-119.0,6.996796784459773,-2.922776963839433,-9.919573748299165,-2.0188628968063784,8.455658350675208,-6.44123724698486,-2.1781558771795666,-3.0968886167217353,-1.7515060032523395,-1.7913373047912593,-4.002637348469462,0.028986987054372415
-118.0,-1.7573548359395792,-0.4521919817279224,1.3051628542116305,1.1225803992022774,-1.5425821625424634,0.40508840281473346,-5.574196444529333,-5.169055607856638,0.9263629459967229,0.7725888560050276,0.633405769944456,2.3355781150820025
-117.0,-3.382086797739392,7.299494139323374,10.681580937062696,-1.9373460122146444,-7.053717791554136,8.963986182791528,1.7879228091518962,0.07009041678099148,3.3999672794857054,-2.031176103140511,1.1877461662715318,4.272735273108395
-116.0,10.653158507746149,2.9964672400621346,-7.656691267684071,-6.796955496926464,9.202013007156463,-2.2855041933891744,-0.5437017937508268,3.0999374782757902,-4.152873353457927,-1.7999791990837233,-4.300123457782052,-8.64585408497798
-115.0,-12.050799764781488,0.13465826823412108,12.185458033015566,5.914808229320862,-12.156298143589598,6.196264637503742,4.192810866580109,1.7323075363391058,0.45948095415232815,-0.9768973235752025,3.4315154066887326,-0.2030373596485613
-114.0,-3.1989197522300943,3.689136751422042,6.888056503652118,-0.2814448614761701,-5.004449579980017,5.238177380228857,0.2672027685903615,-2.7426564435430536,1.2979933704584032,2.037598779126363,3.476817592186968,3.750048419676455
-113.0,6.172525606882933,1.531268891662571,-4.641256715220356,-3.883052747776346,5.370954613622822,-1.5332034202609135,1.46897174504057,1.9272680323037605,3.621860633875633,4.420108669255945,-0.30489681594298723,1.0859998365772519
-112.0,6.152858629502138,-1.5390516462530672,-7.691910275755221,-2.2558588676221363,6.973120491885668,-4.598489973950693,-2.2500956530399803,1.9021886183419776,-2.9937135719596792,0.07090897410796959,-1.4038253483841443,-2.902768341718279
-111.0,-0.10869463411747615,-3.4214211239853674,-3.3127264898679085,1.8185084158203955,1.5836556300030384,-3.4315930542866315,-0.09774052326125382,-0.3736922801292969,-4.02121405616259,-2.965497714059286,0.3648265565081499,0.15163169049096753
-110.0,-5.214258045265773,-0.7659531167108318,4.448304928554977,2.966880031427101,-4.84123267433224,1.855081758706528,-3.3024538774931003,-1.392497898813489,3.3439553747229307,-0.9222652064560835,-1.402439272379619,2.554708118998461
-109.0,-1.0813620774957986,-3.9295534692170495,-2.8481913917211763,2.484316343125009,0.8780075132582443,-3.372436728236404,1.7809940009794785,-0.27657051712657466,1.549519584461731,0.23014703130934344,-4.3543940816796844,-3.59903772107939
-108.0,-2.506429514680069,0.257551244267878,2.763980758948036,1.1054032623713836,-2.6413729625142572,1.5327072386668397,0.1840084840753194,-2.162209332575901,-0.8197430166897122,-1.9196888706717776,2.1915951382398036,2.8489206255713295
-107.0,-2.5901201996930103,1.4750323313163907,4.065152531009465,0.5405592744074559,-3.339712119628712,2.800032011588463,0.7715084721608794,-0.9908797148353379,2.022660365571426,4.7043624879184485,7.667797761529533,4.269540323928269
-106.0,3.8703287113880385,4.916124263814529,1.0457955524265148,-4.329497684294603,1.390718414778701,2.9415671394993548,-0.8194180857308617,3.7784568328237453,0.528736753945487,4.359050378242626,1.2356098013103463,-1.0085056041988145
-105.0,7.020030825018279,-3.0237572775665704,-10.043788102584857,-2.0113355055630917,8.578378505567724,-6.563607638589312,-0.6787908811765685,0.3281970799936136,-6.491427105204672,-6.2833183344813825,-7.043479240706338,-4.06307347129277
-104.0,3.896304745094479,0.8579512908877847,-3.038353454206703,-2.3888042661620776,3.503896414114991,-1.1113432307884437,-0.09915216626444884,-3.9534399878023354,-0.021577213311054777,-4.040571956242141,-0.9173261993417254,-0.6467222504382406
-103.0,-3.6142369660980815,1.6291719388425712,5.243408904940628,0.9818580244901363,-4.478922381654927,3.5012066021595603,-1.0929198426920095,1.68942810355373,-0.09259181320560317,0.026441516773156204,-2.1282132019817697,-1.3007449663369912
-102.0,-6.135785917166729,-3.009066023698254,3.126719893468437,4.5620758110562045,-4.608498543992738,0.05072234436104317,5.042806629362704,2.495318195014873,1.988228734711515,0.8957816899018182,-0.4991395301284749,-1.7225485599700714
-101.0,-7.116430964023376,-7.387074991543617,-0.2706440275202624,7.240998673414058,-3.40470933658488,-3.8329869996755717,2.118704677470725,-0.2550971288552918,2.6892968175383816,0.40256482082500744,-2.732935936505644,-3.9700319467190797
-100.0,2.7773645898937245,4.3910130603632505,1.6136484704695269,-3.517376123187718,0.5173105360067405,3.0001386292520253,-0.9591103338760156,4.65595193862392,5.180223079906009,8.329257507817362,10.374442620197291,12.326142258018056
-99.0,-0.22490137016262812,9.204842428626819,9.42974379878946,-4.50402990528295,-4.816692286290776,9.314717560729084,-3.7660393826848795,-5.617799060715938,-5.442321369249306,-3.4066308603134923,1.672256943102398,0.9203291953978034
-98.0,7.62718543010429,-0.7925852165604543,-8.419770646664722,-3.43459714496669,8.031520290190231,-4.611454687533565,-2.240395889145856,-1.8569484931199223,-1.4576614761446853,-2.203531893974163,-0.2262573206871341,-2.9851763858221214
-97.0,7.647662443767683,1.7455993877845994,-5.902063055983065,-4.718146692542244,6.7823189378901985,-2.088056210232029,-3.3936705893409815,-0.9395074863635187,1.3032243282026417,1.4868298812967766,-0.2697276820770579,-1.0456659578401892
-96.0,-0.24094991592219905,-2.7852034181484546,-2.5442535022262396,1.4871215440047225,1.1613583259921474,-2.6800330466242697,-0.12955256864471731,-1.3798038389600362,-1.7404602935420663,-3.197061929035794,-6.536098687792237,-5.38559207157068
-95.0,-6.370928778088653,-3.2810107341435777,3.08991804394508,4.875469049610219,-4.715548284746878,-0.03742207119538099,4.520038482817077,3.0730775198726477,1.074766173190659,2.5249667056685237,-0.06865006165870202,4.532330897878564
-94.0,-6.362889999276395,-2.3461867918977157,4.016703207378675,4.324642646692899,-5.167686984019513,0.8103656277748148,6.961140709778248,2.8330122210806867,-0.09668456404982168,-1.189335529539644,-0.060813960930899524,4.065862295261097
-93.0,-6.561390833700097,-9.348071117534515,-2.786680283834418,8.006559483061237,-1.9361767901662543,-6.095072706771344,1.1423958156479728,0.6809493320036539,-0.881634680341943,-1.5821802314551148,-2.0733682106097326,-7.223871719116222
-92.0,-0.1716584443889433,0.17037143518532183,0.34202987957427666,-0.019780676814415976,-0.29877591527217673,0.30574527402289187,-8.894909117664774,-4.095745902121056,-6.247578041538804,-2.941032180606783,-2.0805254029654723,-0.17543377986119646
-91.0,8.357633552755624,10.993336031313106,2.6357024785575005,-9.687157658194568,2.902714441815509,6.7844606768952085,2.395272614615782,-0.16168374094178128,3.686994414606911,1.97568098629538,5.207139084959283,2.7025378195007055
-90.0,10.789154531646298,11.972159423429101,1.183004891782826,-11.383437415611917,4.847408923151477,6.546411885367446,-1.2749944921207448,2.006830623715138,9.071644723129472,7.72079077871165,5.944761049544511,2.4733566084002985
-89.0,1.6293550259041547,-2.372694622471119,-4.002049648375246,0.375548047372404,2.7816300125812123,-3.1421181164442977,-3.0859888196168788,2.136621005066522,-1.4418540534044015,-3.3105422356153427,-1.9844753110123179,-2.917050424365165
-88.0,-11.399104358454256,-8.93967214874476,2.459432209709519,10.175666875629586,-6.964865080387377,-3.1991550212155597,4.586406889499351,0.4704830119467528,1.4244788897707443,0.8336986104698613,1.8819681915072046,-3.1249420166249187
-87.0,1.2538139848482786,-2.853533718078557,-4.10734770292683,0.8031123972755667,2.7208592133605243,-3.5247138523355375,0.9642835964202734,-0.8608992894561587,-5.6934729009653084,-3.7954217600414615,-0.8472807369887706,2.7908244323085984
-86.0,-5.22215780406395,-2.912268278530628,2.309889525533282,4.062042088070136,-3.7293458640775365,-0.3535304098276053,-1.2570599756969096,-5.115025472506172,-1.093215069651459,4.6731646127784785,-5.416217086064,2.2327006675457586
-85.0,2.003357550011571,4.97583451852595,2.9724769685142935,-3.5072529393705825,-0.5302144408436538,3.9925409325003685,-0.8202485690690684,-1.151746400711856,-2.5313873911033995,-4.044071699219119,-3.490710462458373,2.9318904579170475
-84.0,-0.09711183270377477,-0.8189045423610537,-0.72179270965737,0.4262123681850456,0.2640062020808696,-0.7576497584260531,0.9017643854839479,2.1012641710867834,-0.7987015981317185,-3.4403088690791694,2.543843804642705,2.944281156445227
-83.0,4.83242041337789,3.573796745169004,-1.2586236682089302,-4.169097573034436,3.075094686476786,1.1690486606089092,-0.8881664749499587,2.5255200242473856,5.150393140309303,2.8841470388529524,3.5725866322578574,-3.2086165568664486
-82.0,-0.015766525137444365,-1.7235340105007682,-1.7077674853632911,0.8942915875180062,0.877221015897597,-1.7000470718885379,-1.6642295060176227,1.5569597384402787,1.1623721103345042,1.3422422571738513,-0.5827805316844117,-7.029144787346356
-81.0,2.8721850609612685,-5.63513942316371,-8.507324484124895,1.40142092701395,5.725048727719384,-7.046987759854644,2.4819857987660043,-0.006933095309550996,-0.20512432460338292,-1.348122371029776,-4.490889794732937,-8.762328322182093
-80.0,-8.56723810955109,2.7383956196256722,11.305633729176838,2.933898336014281,-9.974384170930438,6.978072833449285,3.1674205372071516,-1.2689617696677988,-2.331759881805762,1.0693328602170036,-0.32611206828631134,3.1909358554123353
-79.0,0.5829895498607764,2.0624328863694106,1.4794433365086683,-1.3797300783620443,-0.4808713128445481,1.8148203315758942,-3.5957592517382264,-0.283228784397619,0.7402512663509607,3.084965140011667,3.627848807599586,7.4637577050534745
-78.0,3.3256380851138974,4.0853585309864195,0.7597204458725086,-3.7592005848588483,1.3325340950456903,2.392292388311101,-0.6968711913535306,-3.002077174311175,-3.465221451101594,-3.5240653542389224,1.8305465291440972,4.1880618333026565
-77.0,2.101837498271327,1.8566197268140079,-0.24521777145736792,-1.950834453397165,1.1450499553188829,0.7743204105138863,0.0024609078658653916,2.4177859908724937,2.773583785066813,-0.11766812407750349,5.8536292044162925,7.775860497862722
-76.0,1.8555571285283992,-1.9353379197887846,-3.790895048317229,0.07140920830732911,2.7928281633648435,-2.9004070281465135,-1.5404631972840321,-0.7002762822730311,4.986767607936098,1.0118419921721364,-3.801227591300373,-2.4599022360299694
-75.0,-6.333146039062288,-4.649782076074011,1.683363962988281,5.525984036535098,-3.963210589019596,-1.4495084998834225,2.640934673762819,-1.367805504760137,0.7854243723037091,0.7731365153779342,-3.5223437888182776,-4.484247784859792
-74.0,0.2999481951375831,-2.181979817542309,-2.4819280126798797,0.8995617959875055,1.3544132783247678,-2.304207600000908,0.5945035130396212,4.205658656208493,-8.57812563780055,-3.528211170708428,-0.6824659127582606,-7.375637310397252
-73.0,1.8854896730374626,-4.856335084371749,-6.74182475740922,1.5247672571506008,4.355383580007488,-5.772691787757187,-4.16166048764236,-1.1321475230749973,0.1611799267413776,1.872468540906712,-4.409509769940118,-8.603545003328696
-72.0,2.0579233942516906,12.842826206109727,10.784902811857998,-7.489106146694205,-4.397603101546997,11.84424733237472,6.39397698037274,0.2725459008784404,3.2354122118243076,6.636457165608425,7.194748648963953,10.902809083715681
-71.0,-9.896623538243194,-8.17902665632531,1.71759688191782,8.99805841041125,-5.756256643247104,-3.271198805262837,2.438588993574423,-1.2946548690499147,2.3524251379906618,-4.532207059265752,-0.118710292619022,2.487067271772915
-70.0,5.774824751827174,-1.4226427050594759,-7.197467456886672,-2.1395880968054968,6.466458537860626,-4.341639272353147,-5.424645012308067,-0.47577517586704343,-1.7416453054470957,-4.379871555117502,-2.714750237989789,-0.6151428759423294
-69.0,8.186089978454568,6.50702028852539,-1.6790696899291464,-7.313207751226331,4.9209941624867355,2.389319697048115,-5.126384435261702,0.5662253419145102,-2.007907375300007,-0.824981184341256,-0.8668590295702935,-2.083324813117351
-68.0,3.84787301918926,4.198997186138401,0.3511241669491933,-4.07178826924285,1.7426222777644707,2.3320955634989358,1.993535562140175,1.836444624586776,2.6105294994091137,2.602761325827357,1.6298139084916208,5.205999709146093
-67.0,-3.6498152989484622,-3.928625980752445,-0.2788106818038948,3.817435542228011,-1.6891912129295212,-2.1270636525726774,0.7463616397382188,-1.1980914233439557,0.26473818080456735,3.0949155490098086,-0.3031610809003167,0.6757078792761488
-66.0,-15.367198616429237,-8.881300207868925,6.485898408560378,12.15107432527788,-10.93235292264454,-1.226549505337999,8.060374539348787,-0.0809238459983505,-1.6794660408286464,-0.7460550216839263,-1.6837719704772962,-3.303412336668247
-65.0,-1.1175027174925445,-0.8772603582133298,0.2402423592792593,0.9444014508586607,-0.6902793171953214,-0.2765242321803689,-1.3986695014374302,-2.491723774064914,-1.7196925451826544,-1.6159290126982677,-2.4396538633425906,-4.663991507195621
-64.0,1.4796598579192186,10.037605198616145,8.557945340696913,-5.73422940253724,-3.4794530056291446,9.331062517003886,-4.991054532304792,-0.4699765339385695,-0.5091154379436533,-0.9352626430208955,6.933913800126165,-0.08871280280173144
-63.0,10.9568398045059,4.906796136923406,-6.0500436675825195,-7.909548145157184,8.476349907022684,-0.6251711417750341,-2.014960764616413,-1.7006241986968655,-1.5990025077639867,-3.901925213820951,1.811613282665099,0.34199148511342115
-62.0,11.211415503075814,1.9894163873325887,-9.22199911574327,-6.659754434419116,10.182685862825892,-3.5975030559531804,-0.47584018592472055,5.771584682615677,6.064914832598583,5.619197184577137,-0.4842969108694413,3.1655080138335108
-61.0,-8.157006294677487,-5.184803682064758,2.9722026126126773,6.687357808369947,-5.524676853129902,-1.0913862646744552,-4.555074144564027,-2.6919249958230935,0.14520830652793237,1.7084357765377454,-0.7259496240448968,4.827156245388751
-60.0,-5.651234070134055,-3.98436174810055,1.6668723220334836,4.832203897208179,-3.7001139314254003,-1.2230678530320473,6.821281810662578,4.323349629894393,2.516349679391251,3.6286374037739217,-2.28829015162965,-0.3386266269290885
-59.0,4.287044065743441,-7.709915245517997,-11.996959311261431,1.725693408641055,8.179788801042463,-9.835342803031743,3.896255835099217,-0.7196270740371925,-3.2014040212698616,-4.740982669366071,-6.190677855253177,-5.740201211326537
-58.0,-8.950889133113915,-5.05814574980106,3.8927433833128577,7.0210663104249145,-6.382415364488729,-0.5564452340227937,6.147540106693606,0.034650697432303645,-2.3375964073968483,-1.1868577415365307,2.1456240994258033,0.8157356168437193
-57.0,-7.907704367192218,4.1379486661163085,12.045653033308524,1.8272978814649545,-10.014003555745271,8.13013464470015,-2.405040174689804,0.07205744382036494,3.786922271611586,1.811576999856416,4.4429232797583955,2.466152789612726
-56.0,4.204149674259796,9.616931723309738,5.412782049049951,-6.883100428056108,-0.6400797565438241,7.48866858970096,-5.746337180026867,-3.8814368689662264,-3.3691580397687697,-1.9412114949883887,1.8018241648540778,-1.2222883875837125
-55.0,13.359435271132458,1.6958115852084008,-11.663623685924064,-7.493265749290369,12.47666626832597,-4.996442535493215,-6.775752941546079,-3.0237263261640948,-3.227796104151982,-5.171630847253253,-6.052392972026629,-4.266914875424755
-54.0,9.259484070695482,7.585780715795352,-1.6737033549001623,-8.46049291022656,5.511199675619514,2.9535991351450392,-3.1498158263001454,1.712616264542104,-1.2945214862610241,0.7131262131402678,0.03764507686877594,-0.8933883543195834
-53.0,-8.195168879086928,-0.2330175417995748,7.962151337287323,4.181560777066605,-8.03289016889947,3.8663114591741166,4.257423729564008,0.4104399698188077,1.9118750232426405,3.592097777654666,3.8750806359812557,4.299605406484756
-52.0,-2.2136653728900657,-7.286233624199948,-5.072568251309866,4.799812776250577,1.3981416912581075,-6.180440879438649,4.434970195470343,1.9095429956173209,4.359816135435344,2.7038131187331014,1.2043512218901007,1.7178334507140187
-51.0,-9.439593641690726,-7.921896946096103,1.517696695594675,8.653633363412421,-5.429873221213193,-3.212372969796869,3.8581083358070396,2.1302335025159236,1.6613823217991954,1.0337872679426563,-0.6699194664397596,0.7350604596317456
-50.0,-3.61808847232851,-4.297995051076237,-0.6799065787476446,4.009531634670281,-1.4994957431647302,-2.5129952135667817,0.11320119202552847,-0.9573972243236903,-0.00012879107864471884,-1.5861091936385319,-0.2037784996538644,-1.2557459461276401
-49.0,7.976319819495854,8.019602242836696,0.043282423340934795,-8.027289382907439,3.9327799771848655,4.070566308439992,-0.5668610757419283,1.2491751301680296,1.1438528748186645,3.328489244981564,3.188347848230692,3.681403384926611
-48.0,0.2307396796219594,-1.362504241732863,-1.5932439213547258,0.5327204735118762,0.8719780394837584,-1.4533390966121162,-0.5813595959598512,-2.725722925060433,-3.127286466160186,-2.4180359228921406,-5.231928815454049,-4.654270881307563
-47.0,6.252514876046308,1.385330959519432,-4.867183916526847,-3.7784384975316163,5.59073460069054,-1.727719810027505,-5.457188592844336,0.20140541992543715,-4.243901562783319,-3.6833148619047598,-3.7407645886779015,-6.792916669056727
-46.0,2.0681243091606616,4.612653941074688,2.5445296319139983,-3.3841117610281355,-0.21448956202957215,3.5064722502161687,-0.3692914734252519,1.4640263732914653,1.1007056083513245,-0.9619227285666554,2.140897599251131,2.7439956981317364
-45.0,-6.520111288435289,2.0179230976368006,8.538034386071999,2.2815034137306225,-7.509739320443717,5.283573808345056,-0.8975517872534943,-1.4938310593393949,1.5878128877378923,0.741782201271205,4.540665114207369,5.9727841751087825
-44.0,-5.663272254502221,-6.5090415074089005,-0.8457692529067478,6.113927253502345,-2.389989224068374,-3.6671197814991108,4.807162993628294,0.3776082308074711,-1.1612739293383936,0.11315979872946846,-1.3042750020197351,-1.606590454278868
-43.0,-2.7269813947448713,-2.919872121781655,-0.19289072703681576,2.7725253115214215,-1.3242555337113382,-1.5361907402447215,4.80580202345444,1.6464180330296068,4.83718323775244,3.551651632840784,-0.2648356221287359,4.373741480326432
-42.0,10.088860260310629,5.106493875074548,-4.982366385236019,-7.566935982225166,7.56165903800594,0.09597882405579417,-4.222709051929588,-3.0862757588910457,-2.246591720200692,-1.2396120542550992,-0.6845607664464787,0.9420588931463159
-41.0,3.415321037953902,1.2457577074451684,-2.169563330508597,-2.3734849280539936,2.822703571819393,-0.49145125217886765,-2.030638835443728,-0.6175606165279954,-2.8328924707818612,-1.4102720176905204,3.397038771303667,-1.7828748732881503
-40.0,-7.731639867017131,-4.90893147432652,2.822708392690762,6.36195415480147,-5.3233108633127895,-1.0585166016729324,-2.282361891620663,-2.2034179902840596,1.18586529437076,1.1279517878412786,-6.191315824658828,-12.902445143272159
-39.0,9.320033016953456,6.320399885149487,-2.999633131803913,-7.7738060911390185,6.113650467046577,1.655500678377547,-0.7531857898184221,4.374821320551526,1.3844519218399165,2.4415880858654133,-1.3564122167906432,-1.2796958865033794
-38.0,-0.48831520335046585,-1.0545771872320922,-0.5662619838816902,0.7407070866755969,0.06969492382422382,-0.8100498711608102,3.652596689219091,4.294339778031263,1.2203230562335738,-2.1408496488875324,4.513542762157132,9.75864890218928
-37.0,-10.764433339613046,-4.89235649754839,5.872076842064477,7.794749608417765,-8.2899325223411,0.48964954998670623,-0.3488173044749676,-1.5519334567025025,0.7606107956315286,2.500859366813561,6.453490322674554,7.780652780823387
-36.0,-8.650759389691848,-4.722308960317962,3.9284504293737346,6.645518781098451,-6.263130580832376,-0.4031542403880325,2.523870030962454,-3.8150116777364134,-6.600357552538467,-7.245922926087308,-6.2521761496311905,-7.675521103727952
-35.0,7.871770063049974,7.859354239338124,-0.012415823711856788,-7.837941197789679,3.9676508375235784,3.9855754205582294,0.5032342626018347,0.7122678453292055,4.6395677404595705,0.6616075641931385,0.8532135039261799,4.727099090587627
-34.0,5.12136448804045,-1.5942819644056556,-6.715646452445991,-1.7458998544762276,5.865015244669603,-4.185057446442443,0.30687154754814316,-0.7527632538721432,0.9258432187477994,3.8309569750934385,-1.5026420866378116,0.11888803465689228
-33.0,6.7378623655673735,0.7168776405786879,-6.020984724988484,-3.716673220028547,6.32580642202662,-2.6970029327060066,-2.856787644134938,-1.0170631653368465,-2.4547599076920026,1.153007123294307,-4.178959627692202,-5.951385637882145
-32.0,5.159530635510201,6.048710745326249,0.8891801098161842,-5.595601662084469,2.1603663678824323,3.488379708329236,-5.008388763013094,-2.1902104797740147,-2.014928374121514,0.15745569181777563,0.8750931087220211,-2.5396786545794097
-31.0,-7.678580034140734,0.5989879157926454,8.277567949933427,3.550791021905505,-7.95203494560327,4.445917781416831,1.6622339729037217,5.567165183371573,2.5876559475199237,0.6242601505919868,7.196408803391948,4.543610049314619
-30.0,-12.659046682275214,-6.54809895924765,6.110947723027541,9.619869483371739,-9.356539751464155,-0.2182244676588403,3.6438979012615773,6.24037938894338,4.92665585163671,2.0309497610237783,0.8203161852615293,-0.769012160085242
-29.0,-3.033965566466117,-5.554554045354026,-2.5205884788879933,4.237245704842563,-0.3026420964368901,-4.038706798034493,3.9114653617154014,-2.145832685977107,2.381993953904744,-3.7712341599270767,-3.090677264647524,-2.180012579479695
-28.0,4.092117916463341,-9.147902453634105,-13.240020370097605,2.552840483064463,8.704669625866103,-11.190542813012105,1.1476665076281358,-7.2627066747579,-8.058875353633342,-6.978674499228506,-8.009004690251482,-3.134287864518006
-27.0,7.92962201144957,6.279727066646105,-1.6498949448035933,-7.158558511144845,4.755660018214929,2.3279588210072477,-5.480230151660275,-3.7742856960851325,-4.700963438753437,-1.263838179180425,1.887775253371566,6.407867308901128
-26.0,8.971660518419133,14.54584350432373,5.574182985904592,-11.736711853682507,1.7481128176086065,10.085788241759353,-1.5945674142247284,-0.5285493433560633,-1.150874501656289,7.766120698464437,8.124597646174958,5.727637727748114
-25.0,-1.3825325848059506,7.125365233578014,8.50789781838406,-2.8532230872865325,-4.972523184566488,7.777112842460017,-3.867105808194811,1.7289677545288726,1.7662365505719384,4.275983386192143,4.029046065227883,1.870128188512655
-24.0,-3.9085779440646347,-3.9466249424388202,-0.038046998374025254,3.94287915356861,-1.9636344612994896,-2.0197511784653397,-2.1099425840102226,4.487805223646999,6.036424392160838,-0.4810114239027241,-5.117455344765741,-9.376213753652037
-23.0,-5.796249756295995,-6.519644943067725,-0.7233951867716334,6.172500609794486,-2.5682795697348055,-3.6394030164802174,7.8024099726057115,4.6317336362955555,6.488976072783272,-1.3022717922347666,-4.692934854417534,-7.139053088872053
-22.0,-5.519188889682541,-3.998486790496088,1.5207020991864832,4.774991236647384,-3.4772451470516934,-1.171333834380322,4.341845487655494,1.5447570468169873,2.6889367286161874,-0.06635024784144039,3.855328405267414,6.290836930911629
-21.0,2.0463005079545566,-7.215895181380244,-9.262195689334924,2.525350888716985,5.694062179615714,-8.246059284484193,-0.4711196988191566,-2.7074948101607905,-7.713687136706797,-2.0993083203711818,-4.6311305187362235,0.9100598710687346
-20.0,1.4235214682572466,-6.009616660175505,-7.433138128433007,2.3160137956724265,4.389307659834911,-6.726272662194349,1.7177365768449255,-1.6192041279985623,-5.695594948392399,-5.749783909053282,-4.537431281154859,-0.7498238133368516
-19.0,3.3583183024074046,4.748740774442153,1.3904224720344929,-4.105824275900206,1.026779391155511,3.065085483516762,-3.8284883637416387,-3.982592664378271,0.03316759656157142,0.10760315614703586,1.504448091790494,3.3422070477209638
-18.0,4.46386238069616,12.92783744886781,8.46397506817157,-8.66622155114327,-2.030414718144998,10.690378712604838,-4.499333787990754,-1.3687210673947456,1.9630555544896875,7.613018033321695,10.484142334879495,0.788251658671386
-17.0,8.00128120512407,18.459946660048644,10.458665454924656,-13.198023329532347,-1.2524716437146532,14.451749829066681,-3.938777471761702,2.05159272118287,5.0788256824259985,4.868508084276254,6.445426570355886,2.7426158570525434
-16.0,-16.205875795663328,-8.18725714763513,8.018618648028488,12.231775278693192,-12.13002453728901,-0.09423833933315073,1.6583009631261278,-2.3677085950302144,-5.4770310836095515,-5.026667181040729,-1.8488636660698297,-3.6818430735372516
-15.0,-2.322849997247639,-11.492921363813517,-9.170071366565615,6.866005504618741,3.48864298086294,-10.343374962282047,3.8012005285466146,1.1703838770779402,2.1999855575580685,2.805774126467098,-3.067975781026239,-0.8750830593280676
-14.0,-0.06553474019708272,-8.983488017354983,-8.91795327715782,4.482458818330105,4.413631537228106,-8.88493547357752,2.031043143546018,1.7167149207306174,-0.12839479725450476,-2.2940683971620177,-6.605167614277379,0.25599951921101805
-13.0,-5.215405042034137,-9.076273901682585,-3.860868859648594,7.179897198447032,-0.6921344263220703,-6.48184912249476,4.409396296951596,-5.215802631975367,-12.228667746332341,-13.349040203163739,-6.385879136525402,-1.6235766483954512
-12.0,12.421310545255944,-6.1162006056519695,-18.537511150908262,-3.123558977944545,15.458929239391233,-12.340347393945136,0.5405532137775737,4.431761557136484,-4.909255277248298,-13.865876862287616,-12.951495231583438,-8.3644974353283
-11.0,12.39900673514598,7.492742922889793,-4.906263812256551,-10.002241151020245,8.70284354655602,1.278745260840995,-3.0629164839804046,10.67375907443198,12.081130490735088,7.687816869258259,2.481692837202285,-0.45947550998011444
-10.0,-2.5479197684981543,23.260396547975873,25.808316316473704,-10.340470043876692,-14.215469141354275,24.517468682387218,-6.113383420077422,-0.2018587301805641,14.56444697615723,19.828822512373492,16.748648312758426,4.833584799021564
-9.0,-10.383952980966674,20.129882647894902,30.51383562886138,-4.861964647480402,-20.49353591253483,25.3011619498924,-0.98594143621004,-3.801610534967536,13.352977631256534,24.51770354952074,18.415414350014913,7.461195474710316
-8.0,-5.697911582988729,2.3450000497613317,8.042911632750007,1.6861838559820717,-6.839806366674104,5.24723026770401,-2.5666087183464588,-6.376400384798842,2.622959819593405,8.610613551776302,8.132113904203745,12.66314344826185
-7.0,7.772022425537789,-23.474985645338933,-31.247008070876575,7.864397654579152,19.54185739999472,-27.312898937182332,2.7139184207066496,6.063979616297214,-6.410629599002039,-12.148008752809831,-8.818744430717796,-3.1945021243376166
-6.0,3.58497110634249,-28.930448118669787,-32.515419225011996,12.614528690070602,18.089408075089974,-30.758694518478464,11.195476225763155,5.950434708788773,-15.60609714281023,-20.7008749193031,-14.643024463041485,-6.764930821046289
-5.0,-9.164627726000436,-4.309782776355316,4.854844949645475,6.768731045298517,-7.039152112225979,0.23221104559170058,0.7099971119296065,-18.01491428845646,-28.90673540947193,-28.71387962484393,-16.28759283975163,-13.166892599551787
-4.0,-2.968294354114013,22.842914437223058,25.81120879133735,-9.893414141553299,-14.408899871297375,24.283521122783046,-7.61484749149721,-13.932245472493603,-11.64877925486628,-7.024600262209745,2.9450341550611423,3.709568344707491
-3.0,-1.572948139242355,10.908297952788123,12.481246092030492,-4.69129420785801,-7.039036009021655,11.72920854838686,-6.5170327876010745,0.2347595027880951,4.990456639019165,3.0101519781941115,2.886723044508263,-0.9274486968909177
-2.0,-7.533104725912064,-16.376673741681635,-8.84356901576985,11.938899425985703,0.6452792295393102,-12.573091724498344,3.6033082104281005,10.763129758513632,9.621886023568607,3.2796690968063924,-9.410994339280098,-4.028384660540253
-1.0,8.139350248085762,-2.6128041667298882,-10.752154414816141,-2.776941464939915,9.432075687910116,-6.639513342225669,0.7033012124742778,12.758145712326098,27.59268310136831,26.21823890171145,5.493627406074422,-1.653033530594005
0.0,15.642683745882962,15.11174265930283,-0.5309410865805866,-15.394247215358533,8.143593927979907,7.262539740164311,4.245262913783919,16.468859531971002,31.887463767502304,34.15195608504063,20.796869835340512,12.731504333642768
1.0,5.397060774258955,9.633591221870455,4.2365304476113295,-7.461591150742531,0.5476314262677917,6.914785065942968,2.1019549303322034,6.418207824394834,9.038309950140421,14.272740015392555,19.501136854952108,13.57482868908794
2.0,-1.058389569960832,-2.153417067553458,-1.0950274975924352,1.5704712568640362,0.053900221904836676,-1.639567614887084,5.561419946001429,-2.9673196499283585,-10.180953463528216,-20.31541164048652,-10.806782743852123,-6.507156409428336
3.0,-11.830973846019118,1.8078346380536305,13.638808484073033,5.044702361997542,-12.786269714679777,7.708958117615294,-5.694037618521493,-16.770899625306853,-25.71983764998866,-26.41238414166867,-16.301851847095175,-7.928163089867488
4.0,-3.9612127390908913,-6.42219459089986,-2.46098185180883,5.138618302264871,-0.7271357094659416,-4.458704195412112,-12.286364860862317,-20.069497265330376,-27.66141635175651,-17.402681001505698,-8.752741716889936,-4.237220033199663
5.0,1.6509543587595346,-26.824232559188886,-28.475186917948072,12.609264986829707,15.086049403919061,-27.593114051560697,-5.54091877249812,-7.49753160066901,-27.00394144589039,-21.109400713221444,-12.405775754439857,-8.117087193484595
6.0,-3.4300464558707286,-14.060980060352438,-10.630933604481108,8.770023251167771,3.548618489722103,-12.373578718698601,0.9544178253391071,0.5499874798083475,-0.5719205096541087,11.02857230104377,7.599890807601416,1.7294331510262548
7.0,4.37235636159861,20.65213035148588,16.27977398988807,-12.481833928925091,-5.920311913435454,18.512541340165058,11.537420563385348,8.037773148211885,18.515318073779863,10.827531652489345,7.44742257867691,5.489960927408585
8.0,7.9558981260434525,28.998182790279664,21.04228466423628,-18.51753958693123,-6.502970197948623,24.984794132532045,7.774049871131833,16.15528261373546,25.092301564725886,19.694524315480837,22.27919500164815,16.70193165367797
9.0,4.039455180257504,9.477588257204527,5.438133076946174,-6.791816112858619,-0.7331413077043609,7.498523349760982,4.137522426670005,16.695585963990034,35.09404506276523,29.901235850130433,15.692754967583376,6.546951255350615
10.0,-3.3439778671372586,-10.760418561617055,-7.416440694481179,7.101972848497791,2.0029905656545943,-9.12956439112686,-9.053707964163818,-1.6445545576789176,2.038510331157731,-2.963037935659358,-5.860285264610345,-4.686210766046833
11.0,-23.961861899591277,-9.83105910967366,14.130802789916315,16.867645254466176,-19.005388440456954,2.104570808908713,-5.737733192387778,-17.573286068656614,-22.86546065574042,-25.702804819191115,-27.100193566085927,-12.19044285304109
12.0,-29.045154122113328,-6.744391465887621,22.300762656225004,17.861885263084698,-25.719892931133188,7.806398100525389,10.443553618562788,-10.748329566640221,-8.287299052693491,-22.9417597275436,-31.12172276911783,-11.415441496528091
13.0,-8.936624375917084,-15.331128638791352,-6.3945042628736655,12.172349421770438,-1.2509091500104281,-10.840142692013075,19.81317083768897,10.806676100583799,7.561433158938403,-4.4138790852472525,-19.51017557070227,-20.06778936058437
14.0,46.67643331906764,-5.803928562060772,-52.48036188112713,-20.40706225444874,49.587277039482686,-29.124278028212444,-18.18235127354771,6.485532234941181,-1.8335009018500639,12.39660301611429,12.397846750383376,3.2134340652187863
15.0,69.27824919185142,1.6276145836952896,-67.65063460815492,-35.43344650863477,68.46540675062174,-32.99689962331554,-26.10649181208378,12.667213090533512,-2.721868027388421,13.363329873158985,28.205100012721005,7.546040428966747
16.0,1.7891749167997233,26.053479101819157,24.26430418502027,-13.98938552411347,-11.239045314598549,25.09345574597275,-1.845791556196155,-22.682024793240274,-43.58181508774688,-16.10618836198813,37.27295784092975,25.12424447199299
17.0,-39.90794747583574,9.08556466509734,48.99351214093297,15.41528777012651,-44.4485618431709,29.053636568128688,12.896179234939954,-18.619992933381468,-23.214434360670396,-3.5191533836901945,22.67406051713664,17.072896689262585
18.0,-30.387111574026353,-2.456259379901481,27.9308521941244,16.422717147585143,-29.148143975025082,12.75427070201988,5.680341570002479,4.663462617482813,20.096473203690742,9.885897581884574,-17.15929784814767,-3.416329999906151
19.0,-23.1139072485654,-1.7192657901321517,21.3946414584329,12.419246439300924,-22.232238217182996,9.85957871149566,7.354366287091416,12.150141625913104,23.663169051068138,-2.702854630205206,-34.824827817120365,-8.222125562498663
20.0,-5.4133578076808995,18.17917339096261,23.592531198643442,-6.373459458190588,-14.54912191345833,20.83574359601741,-14.74910960592059,-7.598587012963099,19.17101186251976,7.295526435163149,-5.199722199325748,11.87209971902563
21.0,16.464982062677176,-21.306491314181912,-37.77147337685925,2.4413800786887414,27.15777834593921,-29.50223267189026,-7.450489109546659,11.669731339591609,51.441330456138374,46.70653062502276,4.011480990610078,-20.73915999771078
22.0,28.303718803646596,-16.304397767336795,-44.60811657098351,-5.965643729770859,36.41848108692488,-30.489604618917685,14.19667224993228,24.36235998630245,41.23892925807484,40.209767934639174,20.695636524845575,-14.060833903347051
23.0,5.862496667783816,-7.155649292873976,-13.018145960657968,0.6143354483337031,9.39955877811624,-10.033449311905045,9.56503866523589,7.788141227757313,-31.130063419673096,-34.614240394217546,-3.7762766762521753,-5.24734348901002
24.0,5.111003081559568,2.466602461903303,-2.6444006196565297,-3.812486253715509,3.9090670151941644,-0.1081351009924667,13.722429805591542,-2.6885185664749285,-54.12566865878641,-58.49972919136363,-21.873461210872172,-10.665223835320703
25.0,-22.5019890796749,-3.146015738476337,19.355973341198272,12.803118875324543,-20.9048561480661,8.088519458050529,9.070667461616535,-20.624316202725502,-64.3244187749793,-66.45831518443656,-28.694051240776496,4.050680906313499
26.0,-20.836830859109558,15.491434868147653,36.328265727257296,2.6489288069552135,-28.563822718365333,25.892037716792764,-20.159433529592338,-36.61627481340151,-34.57628427532751,-21.17611796635056,-3.1449985162296645,22.802012227652327
27.0,-0.25018970415798414,18.551230498643612,18.80142020280208,-9.102277961917384,-9.509300222679137,18.731766868555354,-16.342920252918717,-8.049348203883838,22.185429449497732,34.456371758324735,23.419308229583415,18.81465760275693
28.0,16.204926777197944,-1.1950412551371254,-17.39996803233435,-7.464538099479385,16.74108206779089,-9.329475118864645,-7.240742547058899,14.095160708687786,45.61261866194236,54.20573874176385,23.75257000813613,1.5673572048962843
29.0,17.082115853879742,-5.4955889992977385,-22.577704853176897,-5.837928383285775,19.850106714727094,-14.078585387544912,-12.542769876840378,14.912592714228428,35.95110802152548,42.93272645994438,22.13444417369689,-6.9044576375781075
30.0,5.969059773233841,-15.319935291322903,-21.288995064556495,4.706449621580573,13.652348691386305,-18.276573478903927,1.837738938553874,12.947567658686896,15.25293643543435,15.485795351353275,2.2928507844054025,-10.688257973029888
31.0,-4.776789273111097,-10.449925280953043,-5.673136007842194,7.566394238656328,0.3947260027407111,-8.039303063651516,22.080144012720574,10.163600311747164,0.36702095657675216,-14.071778590775358,-22.176188541861663,-19.100069567812543
32.0,-9.531782812056386,10.073619379895739,19.605402191951438,-0.23487525431639078,-14.543358908490811,14.860674865897902,15.565383369652768,4.5292160891242625,-4.477496590227736,-22.27156532934687,-13.58860729717662,-0.4560921695326279
33.0,-10.637386426228362,5.27127382473263,15.908660250960251,2.6470617141347033,-13.25012619809765,10.53591277677863,7.312085039807656,-7.277215008201958,-15.379184872921426,-21.00920960127031,-9.288812558404494,6.985710306393951
34.0,4.931871409848295,0.9126325567365652,-4.01923885311216,-2.8716970792604988,4.494298460425853,-1.5218625949035536,-11.179381044623137,-7.497810758901142,-12.126833041400435,-7.16738764167054,1.804391244250393,11.335143386475035
35.0,3.1324518368096532,1.6698186190936481,-1.462633217715891,-2.4218686497599835,2.232607174751234,0.14268913451782694,-15.484240670899789,-9.435461176207902,-9.804351459448299,1.045504572014714,13.361299572341194,11.873232687598563
36.0,0.0815862108319212,5.52982125264402,5.448235041812582,-2.8205121699144335,-2.673696270153832,5.455521592455403,-1.8947128865598906,-7.306057500633372,-5.3993642137516,-0.5776616974993605,2.264845326994797,-5.776039675767348
37.0,-0.601329810705043,3.061911017573561,3.663240828278991,-1.2414551470220312,-2.124391936761427,3.3320862346763223,6.780596492397223,2.6314552431555835,3.798043911148106,6.9755999256531585,2.3081419690668836,-3.4524853364346244
38.0,-0.3315058058911533,-2.244590196090539,-1.9130843901992471,1.2780214903248792,0.8007839066313931,-2.1095814604516603,5.572279748754206,7.962130761765103,10.097672770512972,7.942608477565765,1.3421570065017119,-2.258282145505154
39.0,-3.840618212395514,-7.6432627729513305,-3.802644560555972,5.80945018731791,-0.0025914255932759644,-5.67706828848774,-3.2456019735314934,5.038497383866102,4.802624986301322,-0.6897137846754058,-5.105013364027656,-2.8504885919541953
40.0,7.222163772392912,-5.89487654283045,-13.117040315223438,-0.6781304800678831,10.195893564879604,-9.540546938064555,0.7216077415043556,-0.5317469438332472,2.48282897031166,-0.7993769089350709,-9.488271372644066,-4.855494395555281
41.0,4.751499143321637,0.8643655047113179,-3.8871336386102717,-2.8272899703198275,4.278325652331642,-1.4665956656696206,-8.180584488784776,-2.086534391595363,-0.7490268405651888,2.71003618066394,-1.23848670062594,-2.0759212660779314
42.0,-6.508206318153084,-1.9192307254761238,4.588975592677158,4.188471589740308,-5.578968937453366,1.3832265195206088,-3.3783052086167906,-4.473828936229273,-5.226691998434081,-4.204499877987477,4.825792013184023,2.978461750204551
43.0,-8.554446688686317,-2.924082713798251,5.630363974888242,5.70798471601215,-7.036405284021163,1.3280933767359961,10.969707025092063,2.320454500252496,-2.4850260822695116,-4.809339765912873,1.610416529181255,3.2261525666781345
44.0,1.2855903690357477,-3.2271197815452846,-4.512710150581057,1.012971056961108,2.8798595079433245,-3.890183769111048,2.604722764770587,-0.7108723325954269,-4.819753887317992,-2.894187172012214,0.6799651790227594,-1.1014283848231043
45.0,11.322050198233592,12.649076093681424,1.3270258954476848,-11.947415765761816,4.9775808069148315,6.969652710007966,-4.3043446313593545,0.1679326049295491,3.831934061632604,7.289219545069567,8.082331210572686,8.021944260005352
46.0,-8.142700152789232,6.648705767660824,14.791405920449884,0.7818298954624234,-11.490486110037832,10.699531800014606,3.932846340146825,3.0827524644218838,4.792319206825579,2.9958176715194393,0.7819526484666053,2.3810593512695215
47.0,7.009552095809058,6.9762514617891345,-0.033300634019919784,-7.0406149243572305,3.5723236988661355,3.4455828713236283,0.9082242276802636,-1.0976507634705812,5.797742403642687,2.070957015582696,-7.883281145264154,-4.958811139192823
48.0,4.385995825913351,-1.962831900268073,-6.348827726181403,-1.2648065116434646,5.336127362905144,-4.10933811569462,-5.151110508515839,-2.263630775106978,-4.866716312564238,-4.112727468281024,-2.5886922146969864,-2.9848940260677854
49.0,-6.566839555910213,-13.578055676059439,-7.0112161201492516,10.09044673174734,0.2683224190951763,-10.252847314724239,-4.358152790947014,1.140456547415338,-0.30051511353412597,-0.41878433635741175,0.7764092033552519,-3.607280482488791
50.0,-6.540055602899636,-0.5448725759199569,5.995183026979609,3.5520686650933353,-6.299582175996846,2.687014962423011,0.3896937038361741,2.0846793519588633,-2.008237417015519,-2.360015072216642,2.540956705407631,-1.1218098618619416
51.0,2.155895168937426,3.3245751836978537,1.1686800147602607,-2.7375432362781216,0.5417927216292072,2.2899094631453134,2.645603977632923,-1.3357185564521161,-5.263774237789087,-1.3360547228515438,1.5861997387762032,2.8653120257564706
52.0,-0.8262715551009141,-2.2122378579078195,-1.3859663028069358,1.5192210103283763,0.24969376337537236,-1.8292338618160477,-0.023947950430078357,-0.49800495925220045,3.5365887247001586,4.433076569465842,-0.1563347162090799,1.6497227158202983
53.0,5.377121314304955,-5.75861020386913,-11.135731518173937,0.19419005141197052,8.224371837573834,-8.47136701951201,4.479449199713541,2.095592232313712,6.485892980131908,2.1035554646324544,-3.3091720788488725,1.1735738224878676
54.0,2.328400761996893,0.7740075295798667,-1.5543932324168077,-1.5375717108676696,1.9049410266688591,-0.4099548641842663,1.531877201229251,-0.9340696488436268,-1.3525847659992913,-0.4422752672156174,1.912612139271018,6.125561235750967
55.0,-3.1622663819042085,2.743854103469182,5.906120485373503,0.2383906644084517,-4.497703388298998,4.385420974842006,-2.6910598356213438,-3.4636877321535247,-1.9440337016023326,-3.9631978152659473,-3.032693655418778,-2.0856560985576205
56.0,1.7662589593333642,4.172494676834385,2.406235717500866,-3.0009176823502908,-0.28886291738810854,3.268915364837397,-1.3029757401840139,0.9939913816624095,-2.373649270522815,-2.3358035490830034,-0.9514952593513769,-11.539004779148845
57.0,-5.8143210735363065,1.8716501756418569,7.685971249177936,1.9566778501813231,-6.722261614528394,4.752947731068552,-0.41802851574071775,1.234729837489124,-3.7209106857726537,-0.6105305678448103,0.51704227769211,-1.2876849343917653
58.0,0.3198078226688379,3.9374538875991196,3.6176460649301436,-2.1308308119604313,-1.700088987204007,3.822796107627202,-2.7623918393834184,2.2467952969144545,5.130668438083683,7.353787151713905,10.691993355787424,10.944018950601391
59.0,7.975858144825817,2.284208271932008,-5.69164987289383,-5.126286180170823,6.863735662224654,-1.7454897708891386,-0.4532528639267819,0.32728754169573127,2.4255286986102,0.4171968107040289,-5.17082279854205,-4.215834636440628
60.0,-12.09804619215836,-11.639890321651423,0.4581558705071149,11.871677990788601,-6.322714905263433,-5.560900117021671,9.019403030146826,-2.5885418300004632,-5.429707824795879,-6.57358256107278,-1.4463288917195325,2.3416438780228592
61.0,3.135317227411489,0.1512217083071965,-2.9840955191040197,-1.6475337919396589,3.0985851845062844,-1.4692235212661764,-6.611908054821105,-4.9228337568991964,1.7079519446332403,3.4858445389422146,-1.8407133739019257,2.6504118277381132
62.0,6.320148453065169,-2.6648401392919236,-8.984988592356801,-1.8427275784856247,7.617072086290676,-5.798792518471028,4.244356945482673,2.3824097965597235,1.5639946623619114,0.6558048078282017,-1.0045658103328396,-0.6459640828695556
63.0,-1.8063057270353178,0.2907584924222948,2.0970642194576765,0.8093101697113928,-1.9049546195450295,1.224408499374388,-2.9441963877946566,2.557989873241421,1.8377350678898843,-2.9069365421595976,-0.6880422426014309,-9.094409687254633
64.0,9.747458104415184,8.158658894190198,-1.5887992102251516,-8.991469193864123,5.638622077360327,3.3227313355198076,-7.062125131712341,1.9016116947732093,-0.6104421611249791,0.25449142687983095,0.18044429737070322,0.2543903176089435
65.0,-7.951322266322328,0.45718753705154436,8.408509803373702,3.778754709944679,-8.207559980954175,4.399781272803136,4.4359009492006685,6.103899062480489,-4.928944057193137,-1.4704872009498537,2.2802955297736203,7.433101875732245
66.0,-7.035519848896396,2.1791161397505703,9.214635988646894,2.3757859661296674,-8.072251495424783,5.669692680109595,2.9742382222566324,-5.703540025647968,4.181629155415799,6.40104055216028,6.126862688819531,4.810028401006223
67.0,-1.100033604022295,-7.605404489401868,-6.505370885379603,4.376933472089179,2.67876533183364,-7.080435224226843,-0.9696591405801351,-4.757721401597132,1.8943997384772242,-0.3132972958306852,-5.789157826374419,-5.922738259206648
68.0,0.7389744977691184,-6.444249635211795,-7.183224132980937,2.877232801869704,3.9396338495227696,-6.84067312021635,2.9360835514690575,-0.09157904391086591,-0.2767413165862448,-2.391185134295536,-1.6068708095259365,-4.27126309347852
69.0,6.430950751728681,4.2414804943173525,-2.18947025741125,-5.309876395166766,4.370009785360162,1.0729658444546084,1.338150539024391,-0.014599731837184549,-4.178080438742746,-1.4117897345786052,-0.8764173151205319,3.296244905126632
70.0,3.729185910096929,6.990787113202246,3.261601203105443,-5.410416871225415,0.2167244220659641,5.166926213343366,-4.514688918486793,0.3186206109473343,-3.086294422488913,-1.4193955387641348,-0.20254676443997677,0.11392445476809776
71.0,1.05602938448316,2.7444726736319778,1.6884432891488366,-1.949107437844519,-0.3327671458056465,2.2508047418990706,0.836900653304911,3.0574192688273074,2.516967292577838,0.24801477726322707,2.964478919488304,-0.004547573419146522
72.0,-8.582108202315219,0.1483920087727244,8.730500211087946,4.24800962797834,-8.674049112709515,4.388976817350104,-2.2924875803318563,2.6352858282490184,1.0653521763877078,0.024400959989061777,2.904794720522917,2.0487705121582986
73.0,-2.352204994728825,-3.694255371163694,-1.3420503764349334,3.0559400155596483,-0.5252631786303277,-2.574318524082534,-0.9384011760062283,-2.0581556250166697,2.0466734818864403,1.11986377545441,-2.088164927391446,-1.1260396753575541
74.0,0.14778403351092861,-6.949769382422547,-7.097553415933498,3.4361531035810318,3.6786776792857845,-7.00617199209902,2.3323091302772605,-1.745401938801822,-0.9920366746660949,0.522247625661367,-1.9500603174571847,-4.0593682034006875
75.0,4.275129449013375,5.180071863785892,0.9049424147724592,-4.767763086942038,1.6610838829213808,3.056221275350947,2.7746156391186627,-2.2712918946651683,2.3996079906306345,3.43252626103104,0.18683853250267046,4.337111632209177
76.0,6.087420447961323,-4.014989266276727,-10.10240971423805,-1.0724941013390257,8.071957401633485,-7.046492975308137,-2.6481098147327544,5.3597921097778904,3.3760201531913965,1.5393408727956093,2.0904491093153537,1.8402074291647126
77.0,-1.7481035616070066,-2.3079244918527007,-0.5598209302456412,2.0739539200849926,-0.5348172890102543,-1.4203175170554743,0.2948291959316557,-0.9568237020484185,-2.772030488462888,-3.587781136166805,-5.551103602940749,-10.595503466677798
78.0,-5.565704014945694,6.087389742102038,11.653093757047758,-0.2914878281517986,-8.623699536812165,8.887761295186362,3.0973068705002214,-0.9764830673511631,-4.152406841159318,-3.3622349396566493,3.4051479376023313,7.626595515230615
79.0,-4.5367946138266575,5.326213145040748,9.863007758867383,-0.3464020518837571,-7.209150273058416,7.538848380967851,-4.188839288780143,-2.607904464777684,-4.549500317639363,-3.0138279792369813,-0.3524687242913831,1.8460164274295208
80.0,3.6941736703802643,-2.6749738452345624,-6.369147515614879,-0.5420852063692831,5.025577990362055,-4.493691034796882,0.7999830791253405,0.18619600322879615,-0.35209262128865926,2.2320706616312123,3.0906595887370867,0.8507675289681682
81.0,5.053688908173903,-3.580952493933808,-8.634641402107777,-0.772952454255827,6.838170306836191,-6.075591894059871,0.3356849049543135,1.893840361589386,5.376654411912519,3.4703581299412414,2.3382431424998433,2.218681438542448
82.0,0.04441197328637525,-6.139550755335479,-6.183962728621875,3.084224949535506,3.1051636262390674,-6.206770509837231,0.5722298503378147,1.5090633598470395,3.8483588809662375,1.6175576672593053,-4.7164800214279285,-4.454816067042709
83.0,2.0146611725136583,3.7919397863831232,1.7772786138694965,-2.8726418196162693,0.10467979955420681,2.739082824551798,-1.68251536182941,0.9336621684799711,1.4831824041847352,0.3576350306922733,-5.8745928686864595,-4.517551530758623
84.0,-5.941656550365038,4.665131282751429,10.606787833116456,0.5846047080910386,-8.293359533364,7.667792782504785,1.6477192646585346,-3.389868400242614,-2.5618043612475985,-2.436999227368791,0.43588610124163907,2.6301386464411483
85.0,-2.8576446114958616,8.442402082403925,11.300046693899846,-2.7717641252194127,-7.022935666838019,9.902276699774433,-0.8398997309535887,-2.22470827369201,-3.647596294655995,-1.9623381652908314,2.543329710679216,-0.8332613655967936
86.0,2.604453290195892,-1.6057770702193683,-4.210230360415124,-0.48182514896472245,3.461398522450275,-2.8761188469056815,0.7189232760030932,2.8045414498497006,-0.10938481623864815,1.8821322557511755,9.588533888060514,1.5734448314475364
87.0,-1.860006069659652,-6.186349734031138,-4.326343664371329,4.038917256722364,1.2074714475824797,-5.3007987686646985,-1.3410502677815657,-1.3196967485192994,-1.7107869226657375,-2.5713367980654596,0.10903029932686659,2.5867902372663876
88.0,5.219984199323832,-5.063377484684455,-10.283361684008275,-0.14198366890056402,7.72397898262114,-7.636105910001339,-2.6558293064513654,-0.3413722611151877,1.712402485752703,2.6765311213397345,-2.7777777794370895,-1.324169163173086
89.0,1.3518772875311242,-4.332555359088415,-5.684432646619718,1.5056304100631561,3.485990722673747,-5.047893666398551,6.0379560713220375,5.938053337591091,5.269253539327285,4.038046499003621,-3.4738226732873376,3.7019499233407434
90.0,1.2837237364731102,0.9696799436283632,-0.31404379284507034,-1.1104209985434574,0.7597514603658198,0.28855361640906985,0.14105761729006083,-0.6088766821984182,-0.1291327123757149,-2.2040106558150616,-3.243994548969948,-4.619149343178725
91.0,-8.532795333814818,-2.3247198785756926,6.208075455238768,5.44667875444485,-7.338570866742875,1.9791363266430413,0.7593262337458219,-2.5129431474469994,-1.9021970482530592,-3.2159281647183415,-1.5801250756575762,-1.9826149845286578
92.0,-5.197602923558666,1.299881885143403,6.49748480870185,1.9688569048232214,-5.821512215226434,3.932619904344325,-0.9670716027583799,-0.13507973392414208,-1.9323371458185183,-1.349713012394812,-1.6390925362952193,-2.3425097171407887
93.0,12.365167150245803,15.210321104663866,2.8451539544180493,-13.84424770685721,4.784482319110717,8.979075632843015,-6.57297287575,-1.9121885736833453,-1.01642738520411,1.3467784539366479,6.52688003280453,7.303517287418904
94.0,4.6454607794776575,7.226719581918295,2.5812588024408156,-5.911510046288525,1.0601322285326937,4.931087711663521,1.490572394544487,-1.0903060845582937,-2.4067182608953988,0.9295655409749307,-0.36684789057350864,-0.5197652682934231
95.0,-10.967236004239139,-10.50698598221938,0.460250022019949,10.68558475385715,-5.756873292356282,-4.997548852308829,2.8793171727699667,0.06112090439600898,2.5352865316831217,-0.450294196547975,2.3841427526336547,-2.7594626607540627
96.0,0.014324785490019476,-8.763190895046687,-8.777515680536531,4.405006497502448,4.361928985365484,-8.82247153921151,0.5812481703198475,0.12952170245348427,1.8411068943407194,1.4575710665816768,-0.7074021208916963,1.5526496961427607
97.0,6.431114575127353,1.6530661696025186,-4.778048405524729,-4.0073238958469615,5.6571901554840345,-1.533010208060996,-0.7578944669692436,4.127630479365609,2.3845179602350908,2.40831750373124,3.1642553723735007,-0.8012986318343392
98.0,4.530782448475765,5.12144837520104,0.5906659267252623,-4.7868270927771785,1.9483400823232517,2.811263630147887,-1.4046031915702557,0.5394180755678053,2.565934907913043,0.05050562610698561,-4.993173906855543,-1.2787958184334252
99.0,-6.633025210816688,-2.252770617809331,4.380254593007248,4.407163641417627,-5.528107540040133,1.1030689424611595,-0.8102778286254471,-1.7560373702010648,-9.13447941881369,-6.835886141601202,-4.80987359142297,-1.360329743988198
100.0,-7.940157824531011,0.13996121080146917,8.080119035332341,3.866166671009365,-8.034739673857212,4.154593360351927,2.1583060964616867,-2.506681154153973,-1.0867400989369331,0.11759270829148694,5.130754940422119,6.8431691994788935
101.0,-1.7818079236770998,-3.974278068039954,-2.1924701443629395,2.8436699916331944,0.25484478258506105,-3.1136815853739943,5.567250816156693,-0.015391052138284067,2.3941065265973664,2.953441997116382,-2.4149604934313067,-2.707839567428355
102.0,-1.6518814969912936,-8.004616831826725,-6.352735334835481,4.87087934731335,2.3171429302738575,-7.2073823161449635,-2.0057090772728756,0.35618374875417713,1.6160267260967092,0.4190211742985601,1.2158868736002417,-5.071480921895848
103.0,16.241636961236107,10.81652464833241,-5.42511231290369,-13.566359037355207,10.876695113885171,2.666085752879291,-1.6713315591685054,3.3539472250659585,3.7770649845889652,4.906508103967238,7.930643282687658,7.495908303108024
104.0,1.946147751443859,4.814351805024945,2.868204053581142,-3.337437122111785,-0.4180144209754162,3.8876936043756363,-4.396862442667154,0.05748495092217787,3.065116941511226,-3.4267502690476057,-8.59151419955785,-4.70022876432636
105.0,-1.160240447139698,-0.4610666646482615,0.6991737824914874,0.8581744958080617,-0.9652381015887744,0.08359122827112753,-1.8881387450738962,-0.5808610925294437,-4.034661772112701,-3.2679942762029777,-1.124894425851024,-3.6199128491694084
106.0,-7.0773113239495355,-0.4220363504836091,6.65527497346592,3.7257614558560785,-6.902878565848086,3.1577712231330657,1.4912581799105893,-1.2712187189865702,-4.767885441166168,-0.7960918814083497,-0.30790526970873167,-0.8414127845041921
107.0,-0.042343814899764354,4.797782457334485,4.840126272234189,-2.3938561523084547,-2.481268321240057,4.859749095348951,2.530793893162913,-0.861349344078446,1.047138585323054,3.0949509364748704,0.7213226980522125,5.455456942598625
108.0,-3.8784894603032463,-14.535738957091352,-10.657249496788268,9.196621468742793,3.4224724422573214,-12.633115024459585,2.9943078852803726,-1.8275845980307988,-6.133782287174634,-4.85388755856375,-3.39973764541923,-1.0059281762302126
109.0,-1.2993791299750193,2.0019529831707015,3.301332113145598,-0.3601284910330307,-2.273545263222407,2.617334226375475,1.7867141113900062,1.0837830829829467,8.60820988594137,9.402547909672151,14.059047513976388,9.090039568854316
110.0,4.923959500954711,2.622651671619767,-2.3013078293350286,-3.784805850723495,3.6346332037611195,0.12881431465688808,-1.4838281562547653,1.9175260284235212,5.446715469240372,0.8973358330724377,0.3951838772399068,-2.885277009602486
111.0,8.820489995722614,3.114850690636753,-5.705639305085856,-5.984803341118699,7.204839734003446,-1.2465302610049231,-6.029234107335533,-1.6065887621589057,-3.620000569862996,-6.563466033461599,-5.835747854484336,-4.430539493329984
112.0,-3.6943684550295464,4.008311353381377,7.702679808410976,-0.10157905670396383,-5.675193762046159,5.905463505512057,-3.8659687153545574,1.427608952915811,-4.861243364039363,-3.622136227282662,-6.5673187407481475,-5.698483686938069
113.0,-11.842616141680507,-4.709536453385159,7.133079688295385,8.248313787121191,-9.457713823918725,1.1829190760461052,7.118991692719487,1.0494748361506512,2.4299759238631666,4.572397152100429,-0.957801809442588,0.11418707364181602
114.0,-0.6408313439219171,-2.1651841893006587,-1.524352845378656,1.4528930870614172,0.402481740022385,-1.8750833244328091,5.652851835154462,0.3998758558688695,-1.2463700138687053,0.4654694050310555,1.8746269302191,6.8132103354175975
115.0,9.89266881449984,-0.538678172860408,-10.431346987360124,-4.703597599060146,10.211070837911306,-5.5181090369077515,-3.6628005528815373,-1.8852303308133413,-1.7046542025559381,-2.915198243850442,1.3050863708129803,-3.695644526625456
116.0,-1.2182096819620227,-4.778257289732047,-3.560047607769986,2.976014390432009,1.1486519213368491,-4.127093907865341,-2.1581316359380986,-0.2777937923066687,1.9678076485087064,0.9734596496737473,0.6781785524839115,-3.55429938299066
117.0,1.4307216785009234,7.780641817756827,6.349920139255859,-4.623381703798756,-2.478394412950055,7.103755427475438,-0.976490754186333,0.8568560900593354,3.4921515870397126,4.086906964993519,2.7128414412462787,6.867034010442009
118.0,3.5340520235339286,3.9715173523478753,0.4374653288138388,-3.689093815020713,1.5285373341407997,2.1615054401787375,-0.04267903488731717,-0.7173961201766197,-3.426157319312486,-2.092837160126913,-2.808289296818803,1.6519028414256303
119.0,-5.215255298838222,-0.5633646096795042,4.6518906891586775,2.873608934133284,-4.957758422463761,2.078898166258655,-0.9186828156620196,-0.6752647285771753,1.9426764622933708,1.4436034813762195,-0.5842621225830635,-4.149397395440627
120.0,-4.911957963625435,-3.1308546868414955,1.7811032767839237,4.001478994891362,-3.297930300712706,-0.7179982173854791,3.925359761713259,-1.6889181135831544,-1.810264844845625,-4.608460482760629,4.623485542907009,1.181372427514085
121.0,-3.9529635307277156,-6.365514410343513,-2.4125508796157806,5.132563738920146,-0.7271175885725403,-4.42865694805942,2.1212611370971306,3.3780966841192255,0.675731548055729,0.09810357106147527,0.9142885781967618,0.22488230556443756
122.0,8.558175692788765,3.7525193682982008,-4.805656324490498,-6.189042706199883,6.642380743514746,-0.4813899684176457,-6.485698583703282,-0.2518531715280936,-1.1470696286056066,2.9447276132360134,-2.9614282475271336,3.031808179192308
123.0,8.14664313987457,2.0467998660010056,-6.099843273873487,-5.056308067369366,7.160279312083744,-1.9734002395646733,0.2225200271389456,0.43789825981349206,-0.4201771560792716,-1.205884029327196,-4.586372617609812,-6.510717715775179
124.0,-4.865274789730297,2.281469181021147,7.146743970751551,1.3318822062279576,-6.048954163810678,4.6966622370846105,0.9237523401018369,-2.4465268465113734,1.2877061478736578,1.9252824347476163,1.9822565175369244,0.09031941878672445
125.0,-3.3908444501343533,-2.6946835094492636,0.6961609406851141,3.086447156905529,-2.0876137023916463,-1.0106934136739556,0.25138287012096927,2.7632077883514055,3.43148596811567,2.077014675101543,0.8880230393700863,2.0657928115550286
126.0,-2.5727252442403046,-3.4664362907163815,-0.8937110464761693,2.9901364883106467,-0.8064349137864417,-2.1900391695758183,5.5654903291828495,0.07187157989131782,-2.625054451720315,-6.07842186242438,-5.095129756560023,-5.785941641019175
127.0,1.4812588760338992,3.743347656827519,2.2620887807934236,-2.6377215444976825,-0.3592127771477578,2.9883931147198544,-6.811407480128899,-1.5293086787693095,0.7731844403479693,1.842225719760484,3.754349000941149,4.437294730939645
128.0,1.0710074411531503,1.4803516455472499,0.40934420439388214,-1.3018989315860838,0.36032679066319495,0.9209185559086751,1.001119430202484,-0.9243564117685371,-3.6323591293277313,1.399647901218359,5.556816063770981,8.912455484584925
129.0,-3.7420914678360004,-1.226182193766643,2.5159092740692603,2.4508373046802263,-3.179200963103086,0.6873645728565059,4.684437157854404,0.220987706137049,-1.9727412223121876,-0.13319794018260062,0.7170061261134779,-2.0880389251996783
130.0,-1.942147200119164,-2.734007214697664,-0.7918600145784632,2.3711612881782482,-0.6249094694336343,-1.8104233209664835,1.9104812094992751,2.3816085262808553,4.295579542795631,1.3088887999706862,2.2116074880441157,3.483254161359381
131.0,9.523815093494159,1.4419789223730703,-8.0818361711209,-5.464438501300765,8.834153873342451,-3.2950000525296987,-2.3441146190050834,0.9514791225206349,3.559332716437085,0.6418667005065252,-2.980698024583285,-6.310875075497428
132.0,-0.26751641907011026,-0.5993176763352,-0.331801257264861,0.4388732245895035,0.0678723789719875,-0.439542502630911,-11.265555756260994,-5.083597220428091,-3.4684562384100204,-4.359472875301721,-7.332922092748946,-10.25963860381346
133.0,-1.694307913613946,4.255243556746822,5.9495514703609995,-1.283007860875521,-3.7803291921887747,5.137125267625766,3.4078135793461914,-1.0235911064044207,-0.3021852636482195,-1.3938852903289445,-1.3114391316994576,-1.0959525478197802
134.0,-4.187664546602753,-2.1142105398486195,2.0734540067542877,3.1472721269055306,-3.16173947830882,-0.050385624818851005,4.664273830195658,6.0319874452857825,0.7530065497465878,2.7813179662244396,-1.0413645721448064,1.3783822499576377
135.0,-7.243274607400727,-3.074495063361952,4.168779544038734,5.1608701254797475,-5.73278885587453,0.5323151099533883,6.347125028559396,-0.11071101474431,-0.43042176916923286,0.6819376200009042,2.269509041024079,7.666257401826115
136.0,12.527753089253686,-0.15492524294863652,-12.682678332202517,-6.173906926661283,12.580213495357388,-6.421892460987939,-4.47105678043692,-4.00713759831883,-4.400333554129113,-3.2793581388856703,-1.2755771223692647,2.284224803469506
137.0,7.582521535995385,1.4459419156758884,-6.136579620319788,-4.489400282743185,6.833671479301929,-2.3437227094831874,-4.744654122400361,0.11045589305920123,4.698388726511885,3.768219211045815,9.797612044326133,9.440941857865669
138.0,-5.472023470376907,3.8851101852762873,9.357133655652923,0.750417958184924,-7.364138886220772,6.618845781700735,3.077155215219225,0.5775421747084705,-0.9418507875171314,4.165014208357939,5.236251246246551,-3.4638843473494405
139.0,-9.64822923166885,-1.5813395427129782,8.066889688955794,5.578797917469472,-8.809647186817966,3.2290711926904976,-0.14109250317611818,2.1308769719249714,0.696404498811255,-2.880021519428961,-5.65235640655659,-9.32212126178469
140.0,1.9144642927667928,1.5173957363198833,-0.39706855644679084,-1.6707370043942178,1.1233164562372213,0.5306481190017587,-1.0867511008897484,1.1691426017643791,1.2409626166844059,0.2079300289197079,-3.45927344419226,-5.462781043597708
141.0,-2.743290915284232,-2.0664776558830753,0.6768132594013898,2.3700306775450417,-1.7430863174115467,-0.6614723738492564,1.585951426000293,-0.9948062331558643,0.040321369216630876,-3.0905830767695486,-2.480070893793098,2.686317325966048
142.0,-0.23524102861369597,-6.296652244240392,-6.061411215626466,3.306870930016026,2.9585543621334884,-6.157544293930573,3.4214557519606297,-0.433416938803185,-2.72366532095233,-2.909222158019162,-3.945157896137636,0.8049387884526233
143.0,4.845042286591757,3.1107088645965866,-1.7343334219950064,-4.018060354651254,3.255474170509185,0.7043136523204612,-1.522341020309979,-1.6994229129006908,3.8060369117179706,5.619625397313285,4.817309102423392,6.005231942981333
144.0,6.780692240037964,1.7091925464064315,-5.071499693631497,-4.2065120969678595,5.968226335745098,-1.6636031153472437,-1.0426269067901308,-0.10660681870784405,-2.063859970800548,-0.7424929044351578,-0.11464273941811043,0.9174598439604207
145.0,-3.040054727835198,1.0212415687209646,4.061296296556101,1.0502899269465713,-3.591254341297249,2.486541021321134,-4.838698217306297,-2.007313921751561,-4.733986967026295,-4.0607286509690175,0.6929751622240736,-4.805780928935275
146.0,-2.975343099874668,0.6759956279388557,3.651338727813389,1.1159645791390551,-3.358615403864591,2.1964158589009974,4.241135128385223,3.5454945693797186,2.5710523327320938,0.36956404152315236,-0.6529184061302065,-0.03397401625461116
147.0,-0.4680534894305466,0.5791608100377298,1.0472142994680955,-0.08496436353640269,-0.7281268198674393,0.7755361509868142,-3.020877043322666,0.015382913550413102,2.348219588054552,5.507391921801249,3.3374719433984934,5.650238065383903
148.0,1.77436343060559,-1.826839364572559,-3.6012027951782972,-0.00014688021689734931,2.7154628576095967,-2.7452534098392216,-0.056279503211099924,-0.4557149752176234,2.212653798852783,-0.5957189515515102,-0.47617673507639746,-3.525893695546881
149.0,-1.65227812195263,-4.801059593690264,-3.148781471737704,3.280147988375557,0.7767792949026184,-3.9231207129337355,3.705026374958715,2.267174752002103,-3.7585349865075037,-3.047493488989265,-3.877528309708483,-6.508963893262914
150.0,-3.003997915761469,3.0762740830077604,6.080271998769264,-0.061964757516388635,-4.510855856054775,4.55422297686975,0.49769534002051974,-2.292557750676373,-2.1649008411408337,0.6414724043111839,-1.1149350090735126,4.157512170083338
151.0,-0.24786336717134638,4.214874144630331,4.462737511801788,-2.0108145770686434,-2.3998335384475835,4.396007930194743,-2.031409195831422,-4.038578441098298,1.088599714452227,-1.0092443671292939,2.2464472414407233,-2.3198709882352615
152.0,4.343005534140136,6.302110271551661,1.959104737411635,-5.272875783523595,1.148895218349558,4.111754299615447,-0.5697829156575056,3.2898533672329107,2.652799188271972,2.3277197593351002,1.4175962559417807,2.0611714438158453
153.0,-0.10359310140227285,2.4871539052705707,2.5907470066729097,-1.1440388265456722,-1.3907456515397911,2.5229822881084716,4.49215035467649,2.585599809151241,3.2983569988654287,1.398291324704445,1.3412859846024305,6.7895505574397035
154.0,5.818547443366412,-10.876153370979404,-16.694700814345847,2.495171056909917,11.290176984249232,-13.798699340386076,-3.8001224777906497,-0.006195890949033389,0.07509566209813134,-1.7205853846525716,1.2761862971896003,1.364233565223567
155.0,-0.787844876605102,-8.630629833103196,-7.84278495649822,4.671669797153936,3.559976604488106,-8.247882355263702,0.1892903652101463,-1.0524230208502714,-3.044359552139641,-1.4476444457344222,-1.3487477214231356,-2.6074876830200764
156.0,-10.556278423474447,-7.304015994868847,3.2522624286054485,8.887255668607587,-6.87100227925296,-2.035824543127539,-0.8818482223168574,-1.0367343041292387,-4.494405510105749,-2.6782948349830833,-4.364795912301273,-7.487340046329258
157.0,-3.6936640775802574,-0.12153892721311199,3.5721251503670435,1.9375839455448167,-3.597224904278993,1.7942181751973718,4.123004811485701,1.0671374698621565,-2.036036606709422,1.5818023489401267,-1.0740661796463649,-3.288179079938143
158.0,2.2607972698550274,11.002333774875448,8.741536505020377,-6.60656503787543,-3.2810053769906977,9.860755144518642,0.098369741280806,-0.022399500580706028,2.989868145207404,3.400249116103691,2.6325279403183877,5.814731933008456
159.0,3.6212286985914104,17.72143384526944,14.100205146678043,-10.649152700297282,-5.2797274906606955,15.89633455785505,-6.527435432100347,-5.643756773542289,1.3110049168145235,-1.4043773124411443,-0.724335175618424,-0.25554446952931054
160.0,10.645925950635426,16.539248903242598,5.893322952607176,-13.570709731498596,2.3331152401258617,11.196330966393298,-3.0749949486708745,0.30507719483740847,3.7676955279470308,1.6475152105265793,2.232294409586965,2.1229456770778907
161.0,-0.9820813976826015,-18.0638656625107,-17.081784264828123,9.467599610586138,8.07943876287034,-17.599930819154906,0.9476407990096413,4.167612664038886,2.76350075561395,-2.039173044854781,1.550262271130772,1.2599866497530792
162.0,-2.590887730527701,-19.57050116377954,-16.979613433251906,11.10600134454895,7.216727245764936,-18.230901949310944,8.956047864361354,5.237227794525044,-2.8794314929692524,-0.03479447002874403,-2.0820232617807948,0.032959801831770164
163.0,-5.119332547463754,-1.9753349282100547,3.143997619253602,3.494961546246862,-4.115448069583757,0.54378679055195,0.39743211316351834,-1.9811032388780476,-1.8676129050927002,4.646510282178501,5.660888527421573,5.371015294870171
164.0,-1.0598134957711762,1.5552688785087296,2.6150823742798286,-0.22179893515485638,-1.8245385523356297,2.1206871902344053,-4.494465164895409,-2.743802566356444,-5.914705314557263,-5.605056676604743,-5.486354142041906,-7.393783487375606
165.0,-8.975624315521566,-2.736668187589474,6.238956127932042,5.880231622882181,-7.594292696828437,1.788050288439563,4.727870867197604,-2.1598704329233094,-0.9823962621197904,-6.7274450447669185,-12.205423048868214,-10.466244601778895
166.0,8.791428878991116,12.422986471018183,3.6315575920270566,-10.585630866149565,2.5170577333561175,7.990456995904207,-1.7231879936878778,2.0165123649355157,7.2198787648949185,8.10541325683586,10.28215535664916,5.896955132331218
167.0,5.406489903216912,3.6427493021006194,-1.76374060111627,-4.583913531567604,3.605429157061464,0.9097085164930441,-2.3398360120261845,1.3873497368545118,4.8444439068369824,3.7075712155571954,7.992750074550839,7.800392516494341
168.0,1.860801067964394,-3.479438618414437,-5.340239686378793,0.8281967763753846,3.625680402615075,-4.354184118522195,-2.250299555251935,-2.6887370414386584,-4.156653927520647,-4.414705203313051,-6.215313549669837,-5.597486325647667
169.0,-5.285085047829693,-1.5005883644131448,3.784496683416581,3.4137357016512757,-4.58380013305093,1.1229766103875987,-1.7440503785586579,2.998073971889229,3.2293561968099223,6.120978371022793,3.6865205076290417,5.924364712098328
170.0,-3.154505072752521,1.8843709884122513,5.038876061164795,0.5825156422207673,-4.062734429421661,3.4426258118847257,2.6592570713046735,-0.894692530197702,-8.519963729203475,-4.5460805675070795,-3.3955828325171056,-2.934851531439874
171.0,2.4932307402196554,3.7715699271516785,1.2783391869320349,-3.097670822835598,0.5667243027366957,2.501409888542163,1.1313913758172003,-5.496378424422134,-5.211126885217421,-7.740208293382448,-3.518579410096049,0.010799071281744288
172.0,3.0389593170714813,-1.7307657638172098,-4.769725080888675,-0.6086509127726374,3.946410931531988,-3.203242716018996,0.48385722769443573,-0.26236992730265984,4.743281636465547,2.1206020629098568,0.41650647893462533,-0.051524785720093114
173.0,-3.2201811345136084,-4.710451375200879,-1.4902702406872441,3.9428970991277166,-0.8192613156930655,-3.1421572473742274,1.3410821259069605,3.9047695160932148,5.808171682821548,4.5101662766510575,4.2384031430598315,3.1156466507814784
174.0,-2.728351861787649,7.08969344012341,9.818045301911088,-2.1945496403629376,-6.303971609080322,8.481051490030058,-3.3944467456285308,6.486473479839737,5.582428934476183,6.4339411622448175,0.6241867172576565,0.7721527072927996
175.0,3.0748584428640586,-5.402730894744256,-8.4775893376083,1.1540684019211611,5.745319337592093,-6.920698683590968,-0.2623878757882503,-2.908334902185853,-4.6506284930016655,-4.247687403452477,-4.071019140946058,-7.307416940372184
176.0,1.6768564542064173,-9.378352057011092,-11.055208511217522,3.839323973221078,6.332011374890915,-10.202010977731897,2.3657439434189875,-1.3856001870244237,-0.4134580064038511,-3.0570312045691765,0.5451880987693741,-4.532314989049529
177.0,4.457140844288272,-1.1175795633044123,-5.574720407592711,-1.6878129839061435,5.054943706163558,-3.4116918216117105,4.553419274796783,1.823638119097442,-1.1992154518922058,2.5049403894909803,1.7741375413554759,1.065827846954339
178.0,-6.5136775121780985,3.9850802477632974,10.498757759941368,1.3152196548603434,-8.474215887818366,7.256142881922139,-1.4976468847833764,-2.9653467670295575,-3.6492173726140753,-4.108849832688305,-0.624670585553372,5.65003753030984
179.0,-0.6026895287299643,4.508996909273723,5.11168643800368,-1.991451292244895,-2.910494544492612,4.827252536169421,-4.220127163836111,-3.206752174395971,-1.8875215133243726,1.0256697723537533,0.005452509292250718,1.6005079115938288
180.0,-0.29446766113126066,2.2512501331221566,2.545717794253439,-0.9467780132826855,-1.3991750981046658,2.418739163046806,-2.919656481432933,-0.8917492897082182,1.6331730736605388,1.8215087852311318,0.956201831963946,3.250404062245668
181.0,-1.6325453652380533,7.9705572882098155,9.603102653447843,-3.143191450319393,-5.598480461790444,8.81019442860006,3.846186953778069,0.3448563950139693,1.3834727663562543,-1.1795814575735193,-0.732815553372224,1.2285426845783123
182.0,3.0577145490815543,2.505825960932433,-0.5518885881491664,-2.8371978752753426,1.825556104922451,0.9240049766364566,-1.3788067980598633,3.2935319887968104,3.0648853461193157,-0.19872193414248746,2.274945209879246,-0.8246387234625783
183.0,0.5103004221149203,-6.354275380970817,-6.864575803085782,2.945439447109744,3.6330851479439867,-6.660356034812343,-0.3488711123491851,4.2468282174607435,0.8984959996135806,-0.17520237840682804,-1.988881523498765,-4.538431793989911
184.0,4.463650502082395,-10.245940945866387,-14.709591447948842,2.9162026375059593,9.615720935498095,-12.447255904952668,-0.3472877395761148,2.314305040090728,-2.34536699067659,1.1404125712088027,-6.520327524380198,-9.068222913416847
185.0,-9.599989697366638,-4.33084332193172,5.269146375434846,6.913758052944656,-7.479601369396581,0.5042783642012365,0.3106038445669421,-9.920889444360501,0.8306633310760065,1.0022646177623566,1.7256725400023885,-0.583573244883266
186.0,5.6363535705308685,8.183546132615039,2.5471925620840765,-6.880919376123854,1.582000382120656,5.407694840997399,4.4146081676788755,2.9297723231520556,-1.5667924134953068,3.015138329577514,8.091346507372018,10.082755585479731
187.0,7.302840373489605,9.442056423952833,2.139216050463143,-8.420192280126392,2.6216010030427976,5.763438962788813,1.4287260164874611,0.853894666954201,2.0629563414024297,0.5218112565503765,3.7341543406275264,9.07456447339044
188.0,-9.21798965312637,-8.801283965974074,0.416705687152259,9.04321004253142,-4.855290341537874,-4.209924040391518,-5.757740862186531,-2.025172384153428,-2.74736227140565,-7.813292611238609,-7.883085152006752,-5.917121012075017
189.0,-7.0573482933049325,-3.227733407587603,3.8296148857174064,5.179750019348856,-5.481341624401773,0.2910669431715962,1.2673747027470368,3.5401767440824523,1.3777191637324977,3.274616283884009,2.8308496180721696,0.21338091992242902
190.0,6.831069721602771,2.448546112445702,-4.382523609156872,-4.676727268295451,5.647676895933371,-0.9725992158513352,-1.742241226858146,-0.08552090640479681,1.5403004278515184,-0.9908032090560129,-1.784236094285755,-2.2309646099183076
191.0,5.76982503734064,-1.9447405495199543,-7.714565586860365,-1.86589726853536,6.705296523388352,-4.835167627635788,3.45860939708555,2.481295419904074,0.6366562324027576,1.5021357809859468,-2.374389641511169,-6.917609067949089
192.0,0.3298072409235817,-4.190994657121717,-4.520801898045143,1.9023109206246165,2.469961200718887,-4.365066495502827,1.4638522684611004,-3.135386068017136,-3.69677413432919,-3.511371130877421,-4.56435563236278,-7.133972192191088
193.0,-12.274199713153116,0.8670749009508241,13.141274614103951,5.6771597808740895,-12.737081076423816,7.067478722563097,-2.84491135075541,-7.310896340049663,-4.741409041467864,-0.9364335178972175,-1.693223725452364,6.6732676766844445
194.0,9.906677412682548,18.327879703309982,8.421202290627328,-14.143884206304307,0.7978953260749622,13.351501971290643,-1.4074721546253022,3.893629609519453,7.110962902411259,9.121489384086976,11.621384285676482,15.036421126839977
195.0,-2.3876791670534327,4.9723529962042194,7.3600321632575225,-1.241650530875937,-4.89254390939076,6.1353790274382245,-2.017300960055256,2.0316720417819227,-1.1125877363255645,-5.964621467106243,2.88116965592941,-2.738652319362555
196.0,-0.17342386906318352,-6.894442355103445,-6.721018486040311,3.504579225624593,3.2570358449565013,-6.76686162137409,-0.0018448410663944315,-1.9751318263087447,-1.9454983701147557,-2.0034453777128123,-3.95529962625983,-4.772365830834419
197.0,-0.5263649174260858,-10.897507769582026,-10.371142852155968,5.761522540269252,4.903053431599445,-10.677809400094292,4.207267718091251,6.56928802848826,4.193828247976021,3.979674714235325,-2.53317520626268,-2.5209718123563523
198.0,1.2818287444356429,-9.84816998063312,-11.129998725068713,4.2562272724760195,6.179311452583974,-10.457224950546596,2.1255237758883037,0.36317052228293045,1.3793338727891635,3.04398238829388,0.39499969834915793,-1.2806308840408258
199.0,0.7489777172899168,-4.054364321653282,-4.8033420389430965,1.6294883176490131,2.817684205607928,-4.4762906906239035,-0.8240509972439558,-0.1136267787771406,0.558539243569555,1.4888249535108244,0.23330371499227542,-1.6358469632222845
