Time(ms),I,II,III,aVR,aVL,aVF,V1,V2,V3,V4,V5,V6
-200.0,-10.010667349944388,-1.1199778774360125,8.890689472508377,5.588579511355524,-9.483798718725884,3.865623121834643,4.218120839747231,0.22793410435860184,5.5711473241559935,12.644768586864064,3.349048112436013,5.833075276406575
-199.0,0.9184104120460406,7.183944776241457,6.265534364195455,-4.037373087749604,-2.701607230707726,6.700973959182772,-3.764155766041717,0.23151187496841635,-2.0791748319132055,1.735275720728052,-1.4112232726943743,-2.7513359018611445
-198.0,9.306087942958703,8.173327864079232,-1.1327600788794179,-8.731580789058617,5.194489093475016,3.489279510611974,-10.17574482260697,-2.447612663131331,-0.29594129138440456,0.35205374582469107,-7.438704686039673,-8.299779950968816
-197.0,5.189765785461033,11.635795463338093,6.44602967787713,-8.484918385281032,-0.6534469819873681,9.079881073832487,1.4341430761557206,1.4904482393506457,2.127496566179255,-0.7462986375062588,-6.924602183256589,-2.3154902221587035
-196.0,-9.50983444125473,-0.1727535188235838,9.337080922431193,4.850370179124001,-9.373668777117388,4.612859687221858,5.199022559575675,-9.558136454081279,-5.5246069101870265,-7.203216396178034,0.9689646012585968,0.27274725518770726
-195.0,-8.255004785354119,-14.993388966516953,-6.738384181162806,11.63916261750111,-0.7925811464047218,-10.91991937815926,5.0368543800854875,9.539683775512467,5.761085869080633,6.070264738799033,15.01690632058403,0.9298437233635939
-194.0,4.753814087879564,-12.24265988815321,-16.99647397603278,3.7677257118337915,10.914647466488473,-14.597535821529506,2.0323484523699418,4.741261288355849,3.054320005683015,-0.4813573773120905,9.793291592750212,-5.4493116597544535
-193.0,3.407378933589861,-1.3186930649005166,-4.726071998490422,-1.011804317890821,4.102965021342691,-2.9997776555265316,3.3659416424964674,-2.9029635208398448,-6.250882394249802,-1.228739431812155,5.258512666464439,-3.68222140885778
-192.0,10.3630235502188,2.778777391369184,-7.584246158849663,-6.609002071887815,8.929790780284717,-2.377236306672125,-5.12834853122275,-3.150841224410555,-9.403286156246603,-2.837898459069162,-10.915950820518876,4.717193619783282
-191.0,-5.186426732173708,5.034066571261731,10.220493303435415,0.043042961225154386,-7.668746777741271,7.577857611171141,-6.118357226005329,-10.156824363625304,-1.145449157824821,-4.927720743671009,-19.826387315618366,5.396922712171779
-190.0,-5.523760210822131,9.778572707496412,15.302332918318541,-2.081308175741598,-10.457252503544696,12.49460267698098,-5.81688711306508,0.6291691454297492,7.741691066737287,5.525280685049282,-7.681191112112575,10.34742092873204
-189.0,-2.35550788733321,4.783238738884747,7.138746626217973,-1.2506283714775634,-4.792163552753562,5.996666232840694,1.099430136186896,16.466688772747727,13.514334125947236,9.687872626432263,9.71259084391243,0.25907134544192534
-188.0,-1.327269700236454,-4.038277357858908,-2.7110076576224333,2.717301191380454,0.7242074508219707,-3.3368649881803147,7.01675077576267,8.546679949259568,4.374277908266361,0.314741644544243,12.496445901586632,-3.3745478653407783
-187.0,0.8188836213758326,-2.8367293581080784,-3.6556129794838865,0.956227320318864,2.268355856780322,-3.2852969581969913,6.315749372570519,-0.019595393344525203,-1.9384372725485777,-1.7756994575848615,11.20405420524997,-0.26732826792532327
-186.0,11.96284822721913,-3.113621239546705,-15.076469466765804,-4.405257617675614,13.5503343509294,-9.053599622887074,-2.147581320444644,-14.543662567916543,-13.07895159048012,-9.230097759403879,-8.25074184542663,-16.434816039660614
-185.0,2.3916059626285477,-4.366302488127362,-6.7579084507558775,1.0041757347786555,4.527159099059626,-5.597788644960958,-1.9096489822842144,-21.130034152762633,-22.2925133674324,-7.132819553678668,-11.359476908221213,-13.856283814948284
-184.0,-12.745226419375289,0.8284148841755918,13.573641303550907,5.97807052589887,-13.127391991268347,7.245044376740658,0.9705105150622637,7.111685882050772,11.86163629500482,3.492748695391715,-0.5347739319132314,10.048091633685308
-183.0,-0.038097400091383626,3.7711877560592657,3.809285156150657,-1.8391075544051931,-1.9698232007432885,3.7553661440121138,-7.484962977975404,15.982678975096812,17.268929062682325,11.778250493728429,10.180238084639544,15.042344240349056
-182.0,-2.2862125289218866,-3.886692792671041,-1.600480263749164,3.0459919211426554,-0.3104455698821571,-2.779655220104659,2.1286679486212194,1.8402325630256335,-2.880681388759463,-3.1738799904044748,-1.339662376531456,8.034986740207465
-181.0,4.9452391822524735,-1.9850734629494597,-6.930312645201969,-1.509146009459473,5.890584189983423,-4.416648199591078,1.0633679632608994,-1.123343098685332,-0.8621147632973765,-1.627601433875142,-3.660330781146504,5.135519605388854
-180.0,4.034015359737271,5.608063141565615,1.5740477818282983,-4.840464194056964,1.260631610722547,3.5522758526398492,1.4628506968797843,-2.3205340727043957,-1.7044673106941324,0.7181623793082252,1.1684783386742357,-4.654481589926035
-179.0,-4.2779909134655565,2.587211312629682,6.865202226095203,0.911120269357053,-5.541157585359052,4.766497950022165,4.794448084846976,-0.8664925134270496,-3.907572202679863,-2.911509070426816,-2.6474124268965844,-9.66893735719285
-178.0,-1.9135315367502927,6.398247468141051,8.311779004891322,-2.252713678307373,-5.160060349888483,7.39712500299741,-3.7236564614777508,2.208083238693676,1.849850543341045,3.6609177653365403,3.7366487401489605,-5.58961549785785
-177.0,-3.9463686880553417,-1.959416281307902,1.986952406747463,2.941738326299922,-2.933522373784559,-0.020385354206077233,-4.278183190082017,6.050240878769195,9.357021694366193,2.4466738431029,-0.5401795262364142,-4.39341174841714
-176.0,13.603400014800478,-7.640119668593921,-21.24351968339436,-2.9962368594147213,17.458440263661007,-14.4742737417108,-1.8439760267069034,-3.6044706662417614,-1.3891987947973106,-2.2451204706161327,0.4633316328042433,-2.44523110068588
-175.0,-4.120574333216842,-4.6721056796200635,-0.551531346403193,4.376757266530002,-1.827472817633386,-2.5659531243083746,8.300670005063449,-14.15978569606791,-11.229436182212078,-5.45855300009705,-3.5745499661255358,7.459769786218872
-174.0,-9.262909211870904,-0.6222192863788845,8.640689925492055,4.996262199990304,-8.995696070368126,3.973281422750517,0.0824649570796323,-0.16072197190285298,-3.2548976758516743,-2.6410701556578684,-4.131248413221528,8.227407987157909
-173.0,2.4158695310987994,-1.4209391285697006,-3.836808659668446,-0.5278142763693836,3.1585403516959554,-2.669845922523815,-2.0922681933640552,8.035502972882112,3.70606449679203,3.4107349487580985,0.5175412589556239,3.3116795185552945
-172.0,6.832246810848941,5.211447649194138,-1.620799161654781,-5.9785502000135695,4.2552879249499185,1.827822514319077,-1.7264015379246458,1.5685449800797722,-1.2220136187768613,2.3091675781158383,9.100086352934396,-0.6743071810067671
-171.0,2.8006330469305354,10.175956963047376,7.375323916116808,-6.529184977376091,-2.3401382124271493,8.804574528264494,0.08574839874532336,2.726745401085999,6.541051581310419,6.059040081598761,6.091315910214794,-2.6194992585115977
-170.0,-2.8622313520118383,-0.643400064452508,2.218831287559247,1.7842502375051597,-2.515474570893904,0.8161873064359204,0.950727733716159,1.8762850742743142,6.000654760979677,4.45360275616683,2.7342457139096625,-3.5790155522814837
-169.0,-5.467900198803262,-1.5290979711921069,3.9388022276110437,3.4435370921228037,-4.676721503588146,1.1574223686610425,-0.9022026407118492,0.6807635331358399,-0.2451425387711783,-5.70167364256061,-3.65708859763613,-3.855722965336311
-168.0,-3.608131191311437,-9.036090318049705,-5.427959126738381,6.337608310815805,0.94016956157729,-7.19550931042455,-2.551110734067444,-7.372929494459374,-9.446635388124472,-11.278924980733406,-14.53422091393123,-7.576242150002246
-167.0,1.3599409020751514,-3.39405896686628,-4.753999868941504,1.0249962275225948,3.0129407412743414,-4.110340769803921,-0.24325535971349288,-0.6002558071792672,-0.276458206944306,-4.089536944660726,-10.300498588667487,-0.5206012570006289
-166.0,3.3625999023862643,-3.8615751300274472,-7.22417503241373,0.2523233088119695,5.2532587326220614,-5.574121361102012,1.188265413273266,1.4261335250055747,1.3719494149524514,5.911943436657067,-2.898326128588357,7.765348504471264
-165.0,3.7592337368923663,6.972184277794405,3.2129505409020807,-5.3641102927572275,0.3141919323193263,5.143213447698447,2.2101574655836624,1.7729086321663257,2.6957395804494384,8.44174393744112,13.32689247382654,14.245966672924798
-164.0,3.6527214571230164,15.133945722254786,11.481224265131841,-9.388638311502607,-3.9510551522926782,13.280279983579407,3.936599686717452,-0.4280834453615483,-2.422835410472666,1.4790230580890853,17.474368545514693,9.800593799994427
-163.0,-5.294316789925901,-2.8456520443857256,2.4486647455402473,4.081349863981766,-3.829556844777093,-0.14852708575669205,5.785133343450027,-0.6877588119778248,-3.511933498666274,-1.194015710504087,6.530912229185115,-8.210421232496667
-162.0,6.915439207362839,-9.883641969684133,-16.799081177046908,1.5038831483983823,11.820306697874328,-13.373560160061361,-8.553276920094547,-0.04331901357345777,-0.5157049625195903,-1.680402562145206,-2.3533840875840295,-15.864753632783522
-161.0,-15.86292033626192,-4.949733034781327,10.91318730148063,10.355218451477004,-13.346145334304023,2.9446762617445863,-5.518872757547957,5.6370636970584265,12.805387657796002,2.467911061299899,-6.310585003734843,-4.894838121928823
-160.0,-5.742211947362313,2.7580120766030944,8.50022402396542,1.5250958853066887,-7.079255654198452,5.665139628269916,-1.1568316693671816,-3.1770138842480744,-0.8125631510449072,-7.067668463486293,-15.316908355396023,-7.1667753900168885
-159.0,12.908272233587919,3.99178160700823,-8.91649062657973,-8.493789203360093,10.874820935866843,-2.432188144192186,1.9935647234007836,-5.745418977884175,-6.860536079559365,0.8951264239049244,-9.37005334684985,-5.082220924028818
-158.0,6.15872630923314,-0.3005803103310609,-6.4593066195642885,-2.894880761995631,6.269269607451266,-3.4339919228561655,2.8811575756646186,-2.052574851506715,-6.742987849856377,-4.860310480737962,-1.2326271572062746,9.859598497898014
-157.0,2.33453300142568,2.0794089523112116,-0.2551240491145639,-2.2533227377018266,1.2517301528862776,0.9321841058676847,-0.11768534139024656,-1.2541365328700143,-1.8278602625377958,1.0687199173450004,6.1591772212681795,20.825221192965174
-156.0,-4.267554623788822,0.3526505885723462,4.62020521236115,1.989344180992822,-4.411534315484797,2.5028895314636594,2.876127229229594,10.29989900133059,8.414513202560222,9.66252171149594,12.573403836627659,12.885879979541716
-155.0,-4.126563142128317,-6.352946685911381,-2.2263835437830344,5.274254164738226,-0.9194579213706504,-4.275490184631608,0.7866162521282025,9.235638169348523,8.04392426210031,1.377068414625712,2.036822746903125,-2.865848685783525
-154.0,3.7871687877810345,-1.7893155298089576,-5.57648431758993,-1.0369178878122645,4.713191126749562,-3.7482245423174607,-5.746940076257322,-5.178083982601773,-2.525653965919787,-3.5971127073243636,0.8007887211243334,-9.296357711294617
-153.0,-10.128305498849734,2.9382923243105346,13.066597823160278,3.644597674143339,-11.563459760404943,8.016952120621525,3.495468772950521,-12.158768474179626,-9.217333482814647,-4.583923372574752,5.4657597669620195,-12.031178560260221
-152.0,3.6394985714183896,3.304800329590337,-0.33469824182804375,-3.4922734252715655,1.9450635360365676,1.5026604491831508,1.107090313162375,-0.8360240236933691,-0.5977832708663886,1.8554626570166457,3.8822169916725433,-6.895593809326517
-151.0,0.4509072563328804,1.9234384925281747,1.4725312361953196,-1.200838195903106,-0.5520724907068405,1.7204961805948522,-2.50919230760666,6.018487130936899,5.451185432621807,1.4056610732273789,-6.54111467845347,-7.210837213102444
-150.0,2.1830193657362758,2.5685093118746036,0.3854899461383896,-2.3876441730441345,0.8552570724028774,1.5053577656468389,-0.9575012254590272,-1.452393302613214,-0.548746205457592,1.6497731202923047,-5.838480742273755,-1.9019087210864793
-149.0,3.8003100925268747,-1.5083743141834423,-5.308684406710272,-1.1613083147244936,4.5850094096303184,-3.4534862685244407,-1.8568658741974622,-0.691623591736408,-0.10335375500055222,-0.261098748525201,-9.585189009917425,8.767186525341966
-148.0,2.1810512630142416,-1.3570734720579516,-3.538124735072198,-0.4348703765724828,2.8846902281521376,-2.488883491828276,7.395511935968292,5.054157668829909,-0.27051783189340844,-0.6463111153154698,-9.991596335545838,11.538839215444524
-147.0,-4.728554922055201,-1.6746576531242723,3.053897268930896,3.248238549441055,-3.870215659290121,0.7282489205715708,0.7722750041828399,1.1155788572087353,4.169068689902197,-1.3349546536411199,1.3815190826325079,5.201179500381677
-146.0,-1.492454438084625,-12.111543199523114,-10.619088761438512,6.840305199681507,4.5826638169644,-11.327832720228566,-3.7945765696089655,-5.922531044257129,-6.115545469607574,-4.435916860266145,10.714178026888336,2.8793116602612923
-145.0,1.1279996505999943,-0.7891809795725182,-1.9171806301724972,-0.21542733983103934,1.5424892622912336,-1.396798005201193,-2.3150374337618285,-2.2964076746729116,-1.6092825398339483,-1.6878179338108823,11.310321724910583,-1.296751853402632
-144.0,0.2861726477313666,11.178772339641135,10.892599691909822,-5.702014524779625,-5.360411941756522,10.990169504217796,-5.828028692649964,-0.038837627870151215,-1.814311319902761,3.485625906079564,2.587094424099366,-6.955883709088056
-143.0,-3.3176891016867134,13.010597433722197,16.328286535408928,-4.894401865464015,-9.878539827022223,14.702846375969331,-1.578627552031498,0.9019675366622322,-1.9826358853759045,3.3073106358325406,1.0204235249519606,-6.208332778725997
-142.0,-5.774195149042811,-2.170916459463263,3.603278689579465,4.004887366682091,-4.664249287125083,0.7526810118908154,8.68041846087069,8.495629598582731,12.065518432543984,5.281360594239304,-0.11691936246985546,1.6379662314959642
-141.0,15.237891550976414,-10.070492408080309,-25.30838395905686,-2.5501976294251985,20.29902530918481,-17.647413638004213,7.512103505085891,5.550867020474475,3.010508208165433,0.4362881111070196,-8.545532682185067,-2.873544953924
-140.0,-2.7972121795723233,-10.799364889020723,-8.002152709448556,6.75281598033899,2.630559359809281,-9.431396742506038,-1.1980191915741414,-4.487471171846609,-0.32474195617602675,-2.750869710964386,-3.594960387253436,-2.5958638207059925
-139.0,-1.4221252110987228,-2.033441339128304,-0.6113161280296175,1.6806049526051106,-0.37412168839414184,-1.348869321799028,-3.5820172549917015,-8.954509905675346,-4.093632378946359,-4.934476966492265,4.222340261136852,6.120927518925054
-138.0,-5.6067502979315735,10.91474834397292,16.521498641904557,-2.624683633153106,-11.108001065833285,13.691871395301547,0.44179719274002904,-4.766512554044354,-6.012177032195456,-2.2789358894530385,-2.089028949684202,8.068740344711188
-137.0,7.068839809232559,15.369038642290247,8.300198833057852,-11.190913402568592,-0.656627873409815,11.804202043804334,-6.982563425778832,-3.171715029876215,-12.298918365067529,-4.251882004685718,-8.002672198643058,-5.033030338160653
-136.0,-5.945452241654435,8.17586482218028,14.121317063834955,-1.0861639247194064,-9.994218424022204,11.189498612254699,-3.466353412005757,5.760834392530519,7.433099884378126,7.191597182792947,0.8179448494270405,-5.709949752951884
-135.0,-4.70021912528146,-16.195060302298234,-11.494841177016495,10.4017420994336,3.357235554366489,-13.812614919167526,4.258354124795275,6.407484159819713,9.1530898591477,0.64553894184069,2.8095077843507577,2.255972391835335
-134.0,3.773375438809161,-16.434581256661854,-20.20795669547091,6.369472931021367,12.027340628272672,-18.296592292327787,3.90346892395753,6.406932962464055,4.716213411839398,4.878235891663978,9.102300598599601,3.1833245213523345
-133.0,8.713672064974617,-1.0659965269763507,-9.779668591951086,-3.8568764807063705,9.280537720912523,-5.482432784867512,0.6190613848676056,-1.9817050875776179,0.21461947924563018,-1.2106231336499849,6.930053583300968,2.587101076327702
-132.0,5.335036275435092,-1.9275550474457277,-7.262591322881075,-1.7307584242309475,6.251048803573729,-4.579142127533677,-2.071730703349613,-2.665909865688905,-2.3478254495429747,-1.3447192181412173,0.8605346185943716,3.9245280391534685
-131.0,-8.007854282871714,7.385843225619276,15.393697508490758,0.36654286883902154,-11.672127959926721,11.404220138794319,4.875309192936722,-0.10695231632681468,-1.9412842619145498,-1.4878728834381203,-13.473614305431905,-8.330518905141977
-130.0,-17.793903410501553,1.2702663821324283,19.064169792633898,8.239355262722377,-18.48039140758336,10.181120704058468,-0.6725197367017361,-9.60461509108763,-8.225789769341652,-7.382335011150631,-11.234038919275303,-10.977448972845952
-129.0,7.223265704408632,18.1598088404024,10.936543135993913,-12.716494427706202,-1.8289236176027241,14.483158109290159,-2.172596157832355,-0.0732570572851019,-1.8626750594396864,3.5285381495494237,8.249268063501066,1.1750600209706583
-128.0,10.117304325042486,1.8355550707683683,-8.281749254273919,-5.927947742198788,9.229467720979837,-3.209214035508878,-6.508037306363256,1.278623047968554,0.75928236942739,2.0367442714932844,4.512911446065336,5.1974246526498
-127.0,1.8820575222719,-1.6634682186793013,-3.545525740950997,-0.14676365482015585,2.6690874605709594,-2.589790118413243,0.6634811838484946,5.864944899199525,6.117709773500931,1.0647486491717584,1.240438172858752,7.703613706798186
-126.0,0.5035828208445725,-7.679996743391386,-8.183579564235908,3.6216661330826274,4.383070302904031,-7.915237427479116,3.245914063222334,3.051411994131689,7.103444656111705,1.3382368517229977,3.46013949147826,5.53814438705599
-125.0,-0.39299548076668006,-12.832183923562368,-12.439188442795743,6.56027154833576,5.989584731689012,-12.616374812993962,1.0795126362026242,0.1527430148787392,-1.0827467542626947,-0.04137156540399922,0.5122229210937217,3.219107025957495
-124.0,-5.733840212760915,-6.768932506032023,-1.035092293271214,6.272892050649131,-2.2993796099735655,-3.879693802922686,2.2596353052007787,-1.0903659155812155,-1.4029093697435342,1.2828598150581487,-1.7054668919615457,0.284724005913786
-123.0,2.4865516510992176,6.4932036063394785,4.00665195524019,-4.470317243702678,-0.7862242521785501,5.195879787677452,-0.7309967647079694,-2.5531227953684428,-0.6337306195748498,0.34928098552507414,-3.0333163256157283,-9.93311192551956
-122.0,-2.0025512089239306,8.430731477591863,10.433282686515813,-3.193332172688513,-6.244320474865415,9.379267991754563,-0.15488345405619858,-2.970819232430844,-4.347610775282081,-0.6971420887273247,-2.655542129770432,-11.869044569721654
-121.0,-3.8124092389257087,5.590377694757291,9.402786933683046,-0.9432874261884465,-6.636864016208607,7.523181690332536,2.1812148042948314,1.4112636233746028,-1.5084507040685389,0.38326267492531363,-0.8118584540211717,-4.202669649657401
-120.0,-3.9043863733045177,-1.6520522603514056,2.252334112953135,2.807580397249054,-3.0334711920275392,0.32755657139675787,0.11180792219180036,0.5347375035031775,-2.1024947887673013,-6.164520154993733,0.29199902364359737,2.042250971268472
-119.0,3.055901447438389,-4.446160800898122,-7.502062248336481,0.7291909178781244,5.31870801786007,-5.944803675550837,-5.70853372727982,-0.17746463624294384,-1.0756353332864392,-4.04557685931238,-3.1686300084627006,8.166065238855005
-118.0,9.211877428478228,-5.686587768874453,-14.898465197352676,-1.8039303954103358,12.011297170837059,-10.260146290103375,-4.24170746474649,3.4240729079754524,6.5317671708266625,3.811424362509381,4.222808717894304,10.657412579922985
-117.0,7.136919893740737,-0.17097485513004873,-7.307894748870835,-3.5224405618923624,7.253050239435165,-3.7822716002221104,-1.6432314404154145,-3.355918137256163,0.8978529583200983,1.642452790543997,5.654493189282069,5.355839928215587
-116.0,-2.6937905701039093,3.823986790955746,6.517777361059571,-0.5249483548392468,-4.657686034794836,5.131035678787127,7.257206309053464,-3.7527819101566773,-2.6982648657272823,2.113771787160941,2.4236377041972093,-6.235447326775736
-115.0,-11.16150056055454,6.603236099988574,17.764736660543022,2.2416748997384293,-14.439971046631715,12.146004885379975,4.710477966198258,4.847711932641478,4.0194353421810405,5.080659717539588,0.31251270945592413,0.8857498714784948
-114.0,3.365953100741484,3.278500488961599,-0.08745261177985242,-3.27842566948193,1.7460561805599797,1.6371509502551005,3.7143055375728955,-0.039019307861474006,-3.285667228861261,-1.9476150905525782,-7.657006351811172,-10.797550047096824
-113.0,-10.246739439815405,-5.921449220708006,4.325290219107497,8.131984303669878,-7.270377577957621,-0.7561296238550932,-5.294242322799702,2.9433139144831433,-0.42844332055450995,0.6204597014266318,-4.190470824195646,-3.620933599710108
-112.0,7.221656784879722,0.9584368088036239,-6.263219976075993,-4.116192206355062,6.67631147575938,-2.6104518970293036,-4.271557130788672,-0.8389875376110817,6.9821061490561664,-2.7749206035571494,1.2643990498248878,0.5344449153461803
-111.0,1.477264124683047,-5.478118246768836,-6.955382371451803,1.9778944216000947,4.227651908285955,-6.254248141199115,1.8986670653480169,2.3531817487423194,-1.7780517202675263,1.3707471069279489,5.679463478433567,5.660488331061048
-110.0,-3.794640453082096,-2.049798279618243,1.744842173463888,2.9005942715297577,-2.7568817321113945,-0.1918749694663715,0.08146424807909458,-5.686731029005833,-9.563712806547045,-6.628483814168229,0.15003141789745822,4.341934188367995
-109.0,5.3062028732787745,-3.857042388413363,-9.163245261692143,-0.7486149252033424,7.25258112456668,-6.552682890617478,-0.7526617879285902,-5.174658309576458,0.09397377617880442,-0.39186920863808306,-1.9764711893485993,-2.243041879715035
-108.0,17.52423813824234,14.964677066341793,-2.5595610719006063,-16.194759184216423,10.067839536304113,6.235261176763471,-7.940731354514947,4.276730848708668,6.091845671262965,7.541094213756391,2.388961829831543,1.1013816366464915
-107.0,-12.447349247450454,2.0845159270945377,14.531865174544937,5.1464200815294845,-13.532862675224774,8.338541745376663,8.660745128808836,4.286010614726355,6.301800137735985,1.7099930924277964,-1.6891996975370285,5.522854388006664
-106.0,-8.41682215950993,-14.241716196470476,-5.824894036960571,11.368024566962095,-1.2519538411036848,-10.002747010670287,2.667751489814809,-3.4868383567739816,-14.808282922236291,-13.124286305011879,-8.628499538755669,-2.7935407578111078
-105.0,-2.1621969488755735,-4.5352415331449425,-2.3730445842693295,3.3847519572545295,0.07554190782494086,-3.4989997723265174,2.7090278540007873,-1.5703940362508684,-3.170325511964539,-4.022747100948552,-0.264597136429523,-1.8811438812312646
-104.0,2.8781601131477514,8.195896410254313,5.317736297106584,-5.579756331661151,-1.250263860048047,6.7966864793853095,-7.654685217069229,3.8130553412288175,11.91077643998003,11.585328539286243,15.176035113247439,-4.457967380205207
-103.0,-2.8814988224983917,4.650576822832399,7.5320756453307975,-0.9248838996011113,-5.164816301307535,6.0598480095833125,0.9725190573896656,0.29184473137440436,3.5473997252379057,11.965236676337607,6.832953475874356,-7.72380737235437
-102.0,-4.864390486963954,0.8737053128549541,5.738095799818887,2.037850680934585,-5.348547052916343,3.281894301517664,4.059960252665617,-1.0875929347988338,2.5752807663550796,3.264006580311853,-5.4473841380281165,-3.2382848169565204
-101.0,3.2710396130312644,3.454882425337433,0.18384281230614857,-3.3940815447728276,1.5631461555154011,1.8018877061634786,1.073801791147241,1.4013082264540255,-1.1796474580011722,-5.859937073020279,-12.44103001769995,8.380936382164897
-100.0,11.282863780624915,-2.6667645663098507,-13.94962834693477,-4.2549079168420745,12.62586831010874,-8.241870106164079,-1.1077288248093053,3.2408234084808782,-3.9052668736247256,-10.633585560635975,-2.1627451044447534,7.322206517626782
-99.0,7.424397228772186,-11.60927715361975,-19.033674382391933,2.0721469509168955,13.233493684290327,-15.330582037399054,-16.630393757518164,-6.84081169983525,-10.844561046727632,-11.929704089418511,-1.3972799648955527,0.06157604284377172
-98.0,-1.4837925637691116,7.0299455407585825,8.513738104527704,-2.7888031904402286,-4.993373967374706,7.7641213841237775,14.460810025583088,-2.3386153557578666,2.5081409097535827,5.919773602508513,4.134293707302623,7.417323061099803
-97.0,-7.136413416031734,1.1319250339329887,8.268338449964702,2.989880800157025,-7.690484125693365,4.691694412553714,2.6264578227599746,1.5554709587678304,1.7940145843220703,6.619704869753243,1.3361269497998793,-1.5521165444012612
-96.0,-3.5012366289382637,-2.8721735515308273,0.6290630774073769,3.1761728648162344,-2.0433700497010303,-1.132788484092007,-4.686810810839989,3.533297159298437,4.560306595642153,2.7784670144676786,4.983957256491142,-0.650841172309002
-95.0,-2.168212244467618,3.1367665110222944,5.304978755489845,-0.41604328070738816,-3.7833328118653933,4.205150049916154,-1.817403497436356,0.8072997952606189,4.7789969690907235,2.322977339750171,3.546969031950526,-9.28117008420434
-94.0,-3.1097507432014093,-0.5637202185514654,2.5460305246498796,1.8241047170344145,-2.8669059317107015,1.0487400768889938,5.25013155609373,-1.550751010937852,3.0775306593807477,3.807448051872606,-0.33995284430035366,-7.909752297863049
-93.0,-4.146571600587077,-1.354331125038332,2.792240475548718,2.733342341110599,-3.4262389997926754,0.6923082476878717,4.076729285791441,-2.518073239039676,-10.805771935840484,-8.902220973483987,-5.131537618995138,-0.8408847190354853
-92.0,1.0953376808158932,-9.905301888724367,-11.000639569540219,4.381219896902843,6.090017505868646,-10.484278575912931,0.1225124943456044,-0.617441704225321,-5.223675090578057,0.350266111666345,-5.646021038554553,1.6410696541507834
-91.0,8.461110783703827,5.423615162346499,-3.0374956213572455,-6.974034754443857,5.708026030220227,1.2372804132472304,-4.011418013449815,6.52483107476361,7.608347954771252,3.2800697454877845,2.88024464976265,8.854245534767802
-90.0,5.003784352483667,9.666342405502611,4.662558053019003,-7.29556567421334,0.12355776618210701,7.128390369894451,-8.361979708086473,1.4011669242029139,5.0382232601762125,0.39354389124170763,1.3192377113734646,8.357438563849453
-89.0,4.213068957320034,3.4611871366278315,-0.7518818206921903,-3.8031603611217064,2.509782518245082,1.3973082535539407,-2.0624161309976112,-0.859101921051789,-2.865085042086878,-4.883343938691857,0.9079114388412837,-4.512514352567561
-88.0,-1.5248291930180664,3.537944011866024,5.062773204884039,-1.0536995804487441,-3.2672984686288817,4.26511359857895,4.372257764023978,-7.176481545256887,-6.225864783430133,-2.9992459971840817,3.115094684464817,-4.192783188721813
-87.0,-12.769548717397644,-4.1278978179345875,8.641650899462968,8.48113011690011,-10.675408561855313,2.3012778648259893,5.187559767618318,-4.49763058992276,2.9285186209326874,2.489786815207692,0.29771621208514754,-4.568848027670345
-86.0,4.349681800385074,-12.089826634269759,-16.43950843465494,3.905258888952943,10.353351081043835,-14.298803662115064,1.0363259450469777,7.513362003345103,5.025992815980432,4.760341702427157,-0.6311759287629538,2.6506434140209283
-85.0,2.0486494929873382,-8.043278001581756,-10.09192749456918,2.956658448474744,6.116290726179825,-9.102498004218134,0.346606389293421,1.6471885945508484,-2.1365928849293883,3.384485896270051,-6.67222088432515,0.9062534989271753
-84.0,-3.051583054870247,3.48188255774245,6.533465612612646,-0.2544711183273871,-4.818731033123628,5.050095223696432,1.2839878501440536,0.3965447601743417,-2.89825721475945,-1.7137456465613634,-6.002151138332607,3.9711053024953644
-83.0,-4.816744409641278,7.019861591790523,11.836606001431786,-1.063133719973488,-8.350891261318568,9.390489935904297,-1.8873400906498896,-3.353272587292972,-1.9883174200512714,-4.7245729917393815,1.6532000893674206,1.8433640217506404
-82.0,6.207654880985579,5.626988901681766,-0.5806659793038156,-5.960464021445605,3.3664067031596403,2.5634026820705946,-3.522241674470184,-0.2224074072828136,0.04253181141538365,-3.478695454455621,6.041204392199408,-4.018678441712003
-81.0,-2.3967446232744347,5.402438199796329,7.799182823070781,-1.4703073724311992,-5.0549407173102745,6.641051553945244,0.9951724035877936,4.639698027937021,5.061362578471249,3.7879142376438693,12.750054045108108,-1.6559817960622094
-80.0,6.720051493942979,-4.594576203144898,-11.314627697087843,-1.0316310204694004,8.971979015060587,-7.992890638642301,-1.4558036636307465,3.2533619058497525,5.032728615512854,4.462923567182306,7.340710553125559,-2.034106095927378
-79.0,1.770215385402719,-8.129440449245566,-9.899655834648254,3.1335661444406764,5.860396239916822,-9.053311794149636,-2.774163140032436,-4.409144075791343,-1.606379574800041,1.962577794556408,-9.091655219954884,-1.5214852542865562
-78.0,-7.039626467874336,2.726324544909012,9.765951012783356,2.194296067450857,-8.380967044629756,6.284191801916503,6.4785010918734205,-8.30491674512534,-8.964132744757887,-8.847625214982358,-19.115839398437085,-4.497334488895817
-77.0,-4.809955274782406,-0.7387995958977644,4.071155678884635,2.740616406166111,-4.4173714971137885,1.6218862560321965,0.9046091787585442,-5.158043204010578,-9.010449315590025,-5.136274640937788,-7.357891313570053,5.754181836696949
-76.0,10.801368953167,6.8468885286863665,-3.9544804244806695,-8.771347839333956,7.405985349615382,1.4757958856210265,-5.202108004351006,12.632799350441172,12.174006640540071,9.17978201601826,9.718899182107265,11.231870083675416
-75.0,-2.786305493303182,-2.3474947965266026,0.43881069677652795,2.546799196786818,-1.657883406049054,-0.9301634769032334,0.7650183531189648,4.050952571883929,3.243249904321335,-0.2982963825441205,5.233921998555891,-0.11460795209703178
-74.0,-2.757270807824789,-3.409507830688325,-0.6522370228635628,3.065246999600266,-1.0951613656251507,-2.0119251554543744,0.3461700009893972,-1.9655678282773188,1.7786323625893345,1.9099118930662606,8.312348549915011,-2.0363265990568387
-73.0,-1.0228603945567576,1.853302712794165,2.8761631073509406,-0.4361619945100943,-1.9152323924084507,2.3004732012823874,4.287372058701904,0.15558295785158466,-0.6229450073162797,2.1818848703194202,7.051944191370698,-2.494739861756492
-72.0,-0.2505692697970908,-5.158320244808126,-4.907750975010986,2.6765925501814047,2.2781832764739325,-5.021698236215045,-1.4838691113416638,-3.693457016233743,-3.0307282668918116,-3.7465628966617226,-6.2186514162764865,-8.976769124873552
-71.0,-1.4388003160222147,-4.813008710719985,-3.3742083946976993,3.167638155803534,0.9884795544721413,-4.083547986831241,0.4338276263084725,1.0621323048098634,-0.7042265320345455,-1.6838582601655305,-4.3629546156857195,-1.278299136883613
-70.0,6.742880813557401,7.296573532075899,0.5536927185185666,-6.987132405477481,3.1096788471643193,3.9363585461453185,1.7185653566570827,-0.3988311742393589,-0.6594076510630462,0.8602097611837487,-4.2991250604505815,1.6398760546412694
-69.0,3.327862999666979,5.099828028880424,1.7719650292134435,-4.188536576444351,0.7922402145432224,3.451092262033158,-1.7353042311724176,-2.0513190063767652,-1.9939136858113526,1.7557821922905184,-5.375277049668519,-0.39818960467682274
-68.0,-7.637130724633459,-5.378174281054909,2.2589564435784566,6.449711420418501,-4.928426668671103,-1.616422090782458,-7.926775546546028,-1.0425696783837903,-2.916433938209696,-4.15700206604417,-1.6204370861731012,2.0370668769247073
-67.0,-1.638301943596098,6.754649348192806,8.392951291788721,-2.5389038126784658,-4.985688850137749,7.604719748078189,3.9349617681962745,1.9827229527451646,6.462948461412127,0.7868975223105912,10.812661356587911,9.446040913629636
-66.0,-1.7067155227935562,6.433979999509916,8.140695522303274,-2.421834860962477,-4.960205833458505,7.328474411600152,0.3168751274619537,-1.1404269410820076,1.3536173669312523,0.17452423364347358,2.2375860821991296,-1.116270915632624
-65.0,5.8343735417656255,0.6199126568130888,-5.214460884952695,-3.202679952667658,5.498606078396263,-2.3247757101138715,-1.4190162142842127,3.0729577715490244,0.14508254152695121,1.8454200516980102,-2.659443653143951,-2.014209384760558
-64.0,-3.817126580573905,-21.180033760666937,-17.362907180093117,12.529283399567907,6.753396887849084,-19.290343658916587,2.35255552369948,1.7604311216116957,-1.0135578795963156,0.2768451855591667,-5.39896819330228,-6.169074674831866
-63.0,1.584910036771706,-8.755739917877024,-10.340649954648722,3.6239015540845454,5.944330346992295,-9.56097770993807,4.149442632215358,-1.5180406395824095,-3.0156187187280503,-0.07002653513922208,0.14422892395441744,2.930232813722916
-62.0,9.549689951533477,14.46888554766732,4.9191955961339335,-12.041641403534946,2.3723335403914767,9.684299154873742,0.6908270321178522,1.4000125109012733,2.215154610257672,0.5176362354207334,7.816254728537213,7.265474004901675
-61.0,-4.672576518318984,7.899504297908152,12.572080816227263,-1.6395815970349434,-8.649280671307842,10.30477626076139,-3.797827884230037,-6.291522884761965,-4.0131752706993415,-2.24631565468143,2.0288131170526618,-4.602819577155665
-60.0,-6.952056211635871,3.1509854210789126,10.103041632714888,1.8773571831013327,-8.480859626557613,6.614428197442073,3.3256574441793143,-0.6435813936487134,-0.2476422407955201,1.311176107738001,0.5597838924583481,-1.8079015703303407
-59.0,-1.483551621220744,-4.695196489255769,-3.2116448680350196,3.1436527447124867,0.8284922916719406,-3.971166387373893,-0.9302290706063745,4.47360233066587,4.330554630742863,1.3088387824640448,-5.700817018585034,-6.0931465745851785
-58.0,-1.4127503983733292,-1.115341693982296,0.29740870439097744,1.2339992441953453,-0.8134904702758633,-0.4334957393294696,-1.099038813137069,3.1876972193167212,2.5983792944828563,-0.28928031737616827,-4.437658956498117,-0.39083356659907276
-57.0,6.262323709180739,-0.9365069455135127,-7.198830654694344,-2.6233114425312483,6.693028467808366,-4.099534073780273,-8.13591953524461,-2.8676899080717084,-1.7164983001743763,-3.143381271000528,-3.5838943424897436,-1.074581212998245
-56.0,0.10158728037017672,-6.213014951593335,-6.314602231963628,3.0052791987291685,3.170331717194923,-6.223576560116024,-3.1421996053461627,1.6012250426432821,3.8059319677362606,4.935265991010484,4.34884619278877,5.855271922365894
-55.0,1.904866343358638,-1.1684423586299597,-3.0733087019886973,-0.3516056686943678,2.5291837024264874,-2.0857001016495,10.243439468477737,-2.5954904584839045,-5.596372721216505,-0.7578517617484901,1.0697586210998171,5.028049051346187
-54.0,2.6271303188507145,0.6359241444704362,-1.991206174380329,-1.6251665689185852,2.347384808106817,-0.645796097528056,6.417840734329416,0.5485167158289981,-5.736216160109128,-4.896531270984024,4.519460736691302,-0.25902390342554904
-53.0,-0.5707873822893246,11.918468136117678,12.489255518407008,-5.674550722026065,-6.57311756334307,12.154683533822702,-7.609469526903683,-4.504161671906082,3.2173488474304857,-0.45028012677363716,3.141068897171779,2.354247852736204
-52.0,-10.03653140098272,6.682202278283166,16.71873367926593,1.6737387747829944,-13.42315149782358,11.649125042444863,-0.8747668752088376,3.5070232439840687,4.1374946312708065,2.623267700765163,-3.9317009936649985,-2.524018972051822
-51.0,3.5221030136977474,-5.416968923806017,-8.939071937503696,0.9460173504763659,6.262605662919089,-7.153204016031225,7.009929613550717,0.6718400899710066,-5.181918802469004,-0.3442718401403273,-5.487613429095183,-5.717624655522069
-50.0,-2.5434020464753133,-10.067199067877262,-7.523797021401862,6.310054948219746,2.523079005326304,-8.773442532778553,-1.6240555997278103,-0.4459439486001513,4.0604627665149815,1.2289571778237063,0.21911597365256252,-4.274956710987581
-49.0,3.1330628328899577,-3.948736087217002,-7.081798920106875,0.42150651256034877,5.143448624382826,-5.49523783063724,-5.356943807692305,0.7554633354798383,2.7271852426093,0.938687486419858,3.1492273590708204,4.066813992485304
-48.0,2.801913264910115,-0.6985044973645831,-3.500417762274627,-1.0283005161873207,3.113216301604698,-2.1583981191738184,-2.6014121544875852,6.274042095014092,4.333978675987141,2.5867041149539483,1.9770216911859755,5.208020275536016
-47.0,3.177232793847926,1.3637760306682751,-1.8134567631796237,-2.317185304012178,2.4626947964808865,-0.20272665422736036,-1.427429147775882,-3.446478814578834,-9.73039977793861,-5.952423932703521,-0.2979012715792597,-2.8152330061137274
-46.0,-1.4905763913411054,10.847701036199995,12.338277427541051,-4.718901558050146,-6.9423422624530735,11.619860084468558,5.968236396602977,-7.669688689563842,-3.1720360285555276,2.9346248051941637,4.3338980840918815,1.9452496326032058
-45.0,-7.352652634427152,-1.5505953594902833,5.802057274936822,4.493777451282199,-6.523030463597167,2.1588446593730675,4.156511850793776,2.310732458607554,4.109882201984995,-1.110824140205595,-4.556549077081371,-0.5016379512527497
-44.0,4.151463647508624,0.06820747642660985,-4.083256171082027,-2.0659140273357073,4.094819347061918,-2.047057003754922,0.4218676017472136,4.1999274963973665,4.747145439768912,4.713077652139892,-4.532580695078084,-1.6728565856202953
-43.0,2.592542074975721,1.939035225691688,-0.6535068492840238,-2.2997017579720924,1.6791409771076287,0.6075672117414679,-2.944284831926688,-1.4157710266456514,0.6037329504996749,-3.4145168123947243,-0.4693900139212841,0.43849857128752223
-42.0,-3.341612503353028,-3.0377577489481427,0.30385475440491905,3.157005376424145,-1.848020289122273,-1.3216885098593998,-3.688334972213413,-4.026878998064365,-7.7838064523674735,-9.125941634378513,-5.2189196654357755,-4.321421090340237
-41.0,0.9539033896977533,-6.448962515727242,-7.402865905424965,2.796041893011095,4.147280589111061,-6.959913657909338,-3.1411321574494817,4.594996706543515,2.413075883999029,1.0985647422884712,6.855106594326811,-1.164796553544492
-40.0,-1.6406093037434415,0.683804594786515,2.3244138985299654,0.45219682739133193,-1.9439765937550995,1.468966248078504,-0.54043829393701,-0.4030222187027255,1.8013342199506315,9.307643247958772,7.366563365260008,4.947144580827939
-39.0,-3.775755688168224,-0.9912763826416886,2.78447930552651,2.362630212141185,-3.3318989936552645,0.940567641250675,7.3481128160292934,-1.1202601697846764,-1.0289794249221502,3.095746744578366,2.5697768564256247,7.128900496261164
-38.0,3.1497158564699266,0.9868307128757389,-2.1628851435942416,-2.0048552894236487,2.6712184644101957,-0.540487852971869,-0.3934698777231165,0.830147071263124,0.8982165264942764,-0.8783590338792964,-1.464865368094334,-1.9332699161366311
-37.0,9.704843200261312,11.121572664067903,1.4167294638065357,-10.424395806971713,4.1492260324574115,6.245169660466322,-1.1175567489287,2.8885364135171714,-0.9802279546857087,-1.6107875364212023,-4.990475437087538,-7.439249300441956
-36.0,-1.833297636091943,3.3849503554709237,5.218247991562827,-0.7860359485435966,-3.52519554624956,4.2873648717262,0.41409680296259654,-3.156150941876633,0.5292950504433864,-3.544145901044402,-5.498526739688552,0.7022237539698564
-35.0,-4.028280930839783,-10.223225209602719,-6.194944278762907,7.112214007869648,1.0864740827307535,-8.213423478756244,0.21291989697360902,-2.2968523193965344,-1.5636516716884958,-3.319150565339912,-2.52051086107178,-0.49177341477251013
-34.0,-6.370013100388951,-6.469396837404907,-0.09938373701584147,6.398677581981685,-3.1220752676305263,-3.281500759871432,-0.14186676100389306,0.5905601774109146,4.193472280318016,-0.1931975654056277,1.0539052547011312,3.599465053920173
-33.0,-1.7538044544330882,1.690647707983156,3.4444521624163933,0.0005631671680443873,-2.5698277118389705,2.5726094413365628,0.6346204244470179,2.9975102326985885,2.5691865367917206,4.3129783197253815,8.35642510923945,2.9084388369910363
-32.0,10.887772652289932,5.628356811211115,-5.259415841078696,-8.220128263785073,8.042955379849788,0.18538436695238547,-1.6753134224378172,1.0325384660597028,-0.02624396752737579,2.584423051158386,-0.3061668812523486,-0.8820376871513227
-31.0,0.0642932867710222,-2.8479383760363377,-2.9122316628073057,1.4228239064801187,1.475169350693947,-2.889328069722147,-1.373924252106097,0.3196134266444185,-4.670435531773947,-0.5933148301621278,1.4997152988317917,-4.689850468100744
-30.0,-8.955154921317952,-1.7982772062236785,7.1568777150942395,5.405196648305805,-8.056532036666061,2.6558295331766,-1.011506423579129,-0.9719619332337252,-1.676559786842673,1.9636238812129954,-1.832657641691692,-2.2939355294372747
-29.0,-4.734748429889276,2.2866841296281746,7.021432559517356,1.1754971601730544,-5.873408776250029,4.694277267797319,3.7898046875815474,-4.694095233378681,-6.949241783245965,-6.049720968388641,-4.526480991426361,-1.579731839282052
-28.0,2.3860778080931735,-1.7026161405673683,-4.088693948660669,-0.30717827857101443,3.2393286231410743,-2.9462908644757686,4.02726752220801,-6.438536447368599,-6.3885793577184735,-8.10847075751078,-5.58411071706263,-1.580316474856065
-27.0,6.991998868121801,-1.376677236177109,-8.368676104299006,-2.8472170706188407,7.672957259013902,-4.850398758028866,-5.066340133167959,4.83496510696664,9.584197777707761,3.7575215158250304,3.7740501717886485,2.8296557073585817
-26.0,7.174498090130113,4.697883390262275,-2.47661469986792,-5.972752314712215,4.805124852093367,1.1351387852376242,-3.758154232667821,5.367703148532225,7.317627685379167,4.216687334843998,4.447067666428736,8.365024045647326
-25.0,10.7206242806615,13.512608059911535,2.7919837792499913,-12.073999195863765,4.00946547346599,8.186656225849335,-4.146862821554846,9.376524315483167,13.230907240033273,11.017844790552354,12.258425990898768,7.8999014116318005
-24.0,-8.020794865965424,2.940269684793151,10.961064550758625,2.5810094975156037,-9.534407263745138,6.921057890900103,-0.5739797710360888,0.9969037235867697,3.6893465727708317,8.893558601866452,2.752662683683261,2.52039274110465
-23.0,-11.00898581127417,-15.629090402953288,-4.620104591679028,13.278054828159238,-3.163393849732775,-10.138739272888422,9.660787601456535,-7.8947804890502,-11.477689511237458,-8.653092795894551,-13.280810788373849,-10.422650891077838
-22.0,-9.273708563063241,-12.756996778040822,-3.4832882149774624,10.97192706250508,-2.862074312221696,-8.12261452319521,11.440716612131158,-8.54455934544308,-17.470697091733243,-16.579450753305522,-14.3793456719157,-13.530503584014541
-21.0,3.984091754948474,2.8091648391937705,-1.174926915754611,-3.3616394441626065,2.54115747269613,0.8191418935767238,-2.5548768315943757,-2.0914933356287726,-1.4154365575455916,-7.019342462556872,-4.271974263290446,-4.407471529194639
-20.0,-4.368672012437688,-1.0880865952987535,3.2805854171389646,2.766040205746762,-3.853116603254888,1.0942905799050404,-7.904911710224596,3.262419202384633,6.618435925571775,2.9038912866417332,4.582908102303669,-0.44982540753858347
-19.0,4.047610353650853,0.03652592279022304,-4.011084430860617,-2.0777448339438234,4.088820525532623,-2.0006027914890394,-5.12828141676316,6.499398444609879,3.547868220697853,7.671885902783503,12.842666513998378,8.144100273135889
-18.0,3.6310701070906184,6.27184902687695,2.640778919786295,-4.901801635976424,0.4813736143460585,4.427341178408018,-3.9074543236428805,-3.9805363287356457,-2.6730898258074243,11.129421611362808,13.340900601521973,16.31411188330784
-17.0,2.167590388411356,15.850759106557334,13.683168718145936,-9.032956665602194,-5.771781451645972,14.80090143481021,-4.013509023607494,-5.852888722515604,-1.7989682560812343,1.9980029912959658,1.8198936149101677,3.0660635367129982
-16.0,10.613574007001205,4.248070720948496,-6.365503286052755,-7.45301054348152,8.469231038108294,-1.037065480732803,-0.4216817523392197,3.8328586830198024,5.048871543681646,1.5360655805600647,-5.359988009788996,-3.3369881976322966
-15.0,1.8582199699150328,-13.697991286650538,-15.556211256565623,5.89412511600313,8.675955307947033,-14.612008669036836,14.36667572831802,8.672120027144109,7.105797104339891,-6.995451253420185,-9.706832469688901,-10.721960929933061
-14.0,-0.657324857121137,-5.287628677788926,-4.630303820667827,3.016923788041663,2.0212299840618284,-4.9446947576078335,11.111825587979265,5.845611720390377,0.22564111959344113,-9.005811210328545,-10.20340720614703,-1.3301280178619193
-13.0,-12.59399332263385,-6.510690594439069,6.083302728194742,9.506398668507346,-9.315225014718132,-0.275162769980029,0.8590647430490028,-3.8636743422814694,-6.359298441578566,-14.170752870756674,-4.962339536919611,0.09175474356344715
-12.0,-11.109785279264322,-0.4445681261227872,10.665217153141517,5.798196137223334,-10.871487760020857,5.131555434687363,-18.02460993802373,-9.905615272713186,-6.021994705173976,-1.3398258798900908,-3.4819286579514346,-11.57249639502583
-11.0,5.176137420485851,10.115753504709403,4.939616084223579,-7.633816576219079,0.1317498409288369,7.551087463668277,-0.3088911944391466,5.219496968103941,12.918824596661688,25.14653825403893,15.371039510489156,4.77707020224386
-10.0,7.50054547934978,5.13611229396469,-2.364433185385,-6.3100715013328745,4.869026462219184,1.329275110349763,-9.17186756698083,-4.263281160607635,-1.600854541295739,15.478643075275453,12.568828529128517,11.767534498512736
-9.0,5.067728351474594,-0.3141206623251396,-5.3818490137995765,-2.3668730562689855,5.24465735584344,-2.8304634625095066,7.615000648662052,-4.818486399114367,-5.0078241968182615,1.7459405032030082,8.965641296825117,6.123066751244227
-8.0,2.6447521583431284,-2.743663506841447,-5.388415665184389,0.06545106715095272,4.042089654899753,-4.055254910572625,6.562236573890501,7.57354501376466,5.31712604204276,-3.8838598038025958,-7.724630556634673,-1.929420892704245
-7.0,-5.4506831879661455,-14.17432137688938,-8.723638188923072,9.75789808769771,1.588643501360699,-11.444790387768078,7.456263977781047,7.53917572043928,-0.9400512979787883,-18.456422362228096,-15.526141432382762,-11.578216921694658
-6.0,-8.088882148495044,-2.2836640977014397,5.805218050793686,5.218092303148776,-6.911484894172142,1.7607418016853096,-4.085219090468558,-10.113088590597833,-18.392426566795127,-18.229796796377574,-7.104258693066875,-4.381697574487368
-5.0,2.6617425931876086,21.663845703523222,19.002103110335614,-12.204481864058291,-8.20931364257026,20.332574845855657,-14.137818233263024,-12.598534836687515,-8.855644747734145,-1.6376460471723178,12.029410400780804,13.897580520434772
-4.0,1.4932479377769567,7.308795010405067,5.815547072628075,-4.36198943625158,-2.1175545041524444,6.5655563278097,-5.992335567283076,1.4257240586695974,5.260193642183863,7.279459230934825,9.507027589038357,7.555798239468508
-3.0,-6.459826475905175,-11.017432834597905,-4.557606358692854,8.69787905439374,-0.9819467097140965,-7.777174067099493,8.483332793025973,6.848910255847678,4.593823133974092,0.9614220644540588,-16.350210385978624,-5.6351311854845365
-2.0,2.667711350526892,-10.881020571180136,-13.548731921707212,4.141608107299895,8.16069790866063,-12.196290864276559,15.277870455322832,16.650006770476807,23.69123254105724,11.01443343498421,-10.401855446731513,-12.769887301082536
-1.0,6.98364195126856,-4.875133867483439,-11.858775818752246,-1.0232055626314476,9.399022510371157,-8.419763325591614,11.079935987785436,6.0212373359728195,17.651923845625316,12.38240537319049,4.6025359625714515,-10.225224265735681
0.0,9.910857290698027,-0.34734990913218944,-10.258207199830663,-4.833338487395821,10.064846023302898,-5.272037530864356,-3.7733253447445114,7.330924673446428,8.595360906129299,12.432684299534245,12.266322825155754,-1.0539306929856456
1.0,-0.022662835698692874,14.272806504377495,14.295469340075874,-7.101311791617495,-7.178880865679984,14.237757898069049,-15.038734884148926,-10.226773704231007,-9.915902848006777,9.086134423634832,20.179866400817016,18.37196950085142
2.0,-10.996314482106458,20.552102989698444,31.548417471804868,-4.756902704008562,-21.216715924381592,26.081677604018065,-11.270655368921275,-21.163458540782507,-30.26918937251399,-19.6531860412799,1.2324363737221962,15.173364362018724
3.0,-9.032115243273815,-3.1823037261106055,5.849811517163783,6.04743296003957,-7.470289127657942,1.3631162982415148,-11.094132260926667,-25.00576577494904,-34.75034367374258,-23.42385728791745,-19.8199298307893,-3.9244087304570865
4.0,-8.050001040382288,-33.49896291871268,-25.448961878329364,20.79245013921926,8.661916380981662,-29.524724206246812,9.57751588416635,1.1952437737444601,-16.504467158707122,-28.988431482728714,-27.241503550563714,-20.32887546391014
5.0,23.317685002668156,-15.371224953508515,-38.68890995617553,-3.954839389976806,31.035616673830056,-27.001282672754755,12.188983274377684,27.471345460778686,24.60556619586235,12.040612184974067,3.8877383229479463,-3.0121232362256
6.0,3.764596944858342,6.630364033467405,2.865767088609573,-5.176857807124204,0.4736728625086766,4.780601951084256,11.029685145075938,22.819111799983006,30.272362470938774,12.229737915079067,9.918001504310297,-3.562811955632143
7.0,10.6979932160303,35.29610422956095,24.598111013529998,-23.051026848085478,-6.931971688813948,29.90753470760942,-7.8320178276191434,1.8975482936400923,20.791648456673308,27.059169383424752,39.31851887881201,27.87953642731395
8.0,14.63647352601736,11.169570277028948,-3.4669032489894764,-12.872491718497818,8.987286163475066,3.8204823914023898,-10.663024762863515,7.135555105962316,16.98451410069541,34.037663044244475,21.589121965045344,14.09306283884536
9.0,-33.76189534423446,-10.077294773376764,23.68460057085673,21.956790307611854,-28.710146763157326,6.861059170663238,-8.865325409836526,-33.14786969180835,-12.345750379442427,-4.639360811120277,-16.022502806580082,-9.038666433295903
10.0,-46.62089832156376,-2.4308105347755466,44.190087786788055,24.49094557165599,-45.39138042908687,20.86708743303881,8.054137589618742,-24.158559730107378,-19.819923493706504,-35.103647751118125,-38.17435766838355,-15.853090557119506
11.0,-18.381239138502472,-12.260415896039602,6.120823242463101,15.291651017434058,-12.234033710462926,-3.075690696754388,27.031160891580804,14.423879952567201,-8.420654926436587,-40.86144414422748,-53.040777608134206,-25.489369163448252
12.0,2.879315003675109,-10.330018566283188,-13.20933356995841,3.7003182475389105,8.065664979358388,-11.772071296654822,25.60376591675725,20.427430108612143,10.764095633561721,3.3210630598608653,-1.6930432301137337,-4.645628755094166
13.0,51.773762645422664,-13.377644280906814,-65.15140692632981,-19.142288831189852,58.410703139285175,-39.26688819739738,-12.180231723242251,9.185982731343175,-5.041281783945614,7.02254628182258,17.576263230157018,-1.8511981088523397
14.0,69.45825846914957,-19.529260818437514,-88.98751928758742,-24.90930252584285,79.17774419942536,-54.26360793807082,-32.877053229330805,1.9191775762288872,-28.150176203484957,-2.773285711593709,25.313660325999336,2.4196755043762996
15.0,8.556167186996326,27.514821560186398,18.95865437319025,-18.06288779399542,-5.159449300357931,23.227147851194832,-28.697361914229663,-27.65862966069993,-35.143482070397006,7.575759763809197,50.146369456069465,35.00904294482599
16.0,-16.060661335895965,33.58174717995088,49.64240851584751,-8.79540093592116,-32.800071010199886,41.598366525126586,-13.020258863085093,-4.214600902776343,6.9078959390009915,37.35145589806041,33.24700110171259,25.98934740875833
17.0,-33.50144860204351,11.634220176920657,45.135668778965105,10.88825439543587,-39.33542762642929,28.447689415611126,6.882105554615801,11.958344393265033,41.610089773459634,20.00503828692331,-13.877768919089073,-0.772043371633174
18.0,-47.47951058326285,17.504876678619617,64.98438726188283,15.009122402038262,-56.23936796990363,41.22900292568615,12.482514366136119,-10.654990598330475,21.414881889805674,-20.52176409152035,-32.63682067042592,-4.652606741973761
19.0,-20.941597652860864,2.9474544233462057,23.88905207620688,9.00922774716511,-22.4165901546831,13.405545523657176,13.166889090356108,-4.808125482867641,25.388989391901166,-4.739859032763924,-26.829563925643008,-10.82515950702381
20.0,25.26120647673757,-49.18677112235915,-74.44797759909716,11.970284485141875,49.8540682230815,-61.82552677336132,26.2363438151133,44.34813849220417,65.82425852812467,44.45326447797447,-9.688650714229212,-34.31446492127927
21.0,18.27437364530018,-45.77569040404702,-64.05006404934767,13.760331190625552,41.15603052599136,-54.91609362262578,25.37459073648088,18.623407205656953,-20.295214651689456,-12.769482999019987,-2.7073579695648746,-16.11974681593335
22.0,10.588951776321288,-4.377869586701021,-14.966821363022461,-3.0871812532745624,12.76035873154877,-9.671400999333692,9.191957383597344,-4.043350197566226,-51.900769530890244,-32.94033066302667,6.1454180059587475,3.6726576614515327
23.0,-3.9654411841707713,24.944949202906393,28.910390387077182,-10.458732309724429,-16.46998670136945,26.931187514149563,-25.845689342900656,-40.108784444263335,-77.57149045365507,-53.1923015102475,-1.9550894715678204,15.283014888839729
24.0,-9.220226884023216,26.15939329057798,35.37962017460144,-8.504622668840359,-22.26744728193421,30.773573385082674,-30.119763893565377,-33.039813197757304,-46.114636895905534,-41.00043270793339,-8.058193094474783,14.602068661820606
25.0,-5.549627404329766,15.100534526644775,20.65016193097457,-4.801661905622126,-13.077844641068218,17.877791056481463,-24.72344518898195,-15.455892226506673,9.37914976280331,5.15895517652695,3.4645291331578214,10.128138370248676
26.0,9.479507151398751,0.17542132199976024,-9.304085829399138,-4.8510219714403515,9.409292233921294,-4.565644090811439,-4.570383683085904,12.575820037011963,43.87012232416056,43.06853967629454,13.668152911684722,2.3689349371731865
27.0,13.880940994012942,2.3188055808392516,-11.562135413174008,-8.126885396030564,12.740376865543343,-4.628679351963189,6.031458134779319,26.806061805519498,47.18877948575935,52.980349904253515,25.492031976814907,0.6609118239013712
28.0,9.791756309989454,-14.920484235137506,-24.71224054512721,2.6087989796977897,17.19739820047965,-19.830708146608373,18.115828382880654,26.90865643917266,38.34703825944583,35.65474865038717,11.233513393473022,-10.404878495464315
29.0,-8.496094013114512,-14.13929318185815,-5.643199168743632,11.354305437714705,-1.3960255664095316,-9.835331708694584,22.921163571112427,7.43118606553907,2.1384329346645075,-2.4077231140185695,-13.011210287866732,-8.968234750117297
30.0,-8.741218900455612,3.9547347629819285,12.69595366343793,2.424540183790393,-10.762565331576404,8.293514415244674,9.562218717607358,-2.3066784879837128,-16.55246956355468,-21.56074996534097,-15.558361545446182,2.325849596688009
31.0,-2.3033244547870293,7.301038791580946,9.604363246368582,-2.54732278357438,-5.918392671057111,8.412258274290604,-12.11321670847411,-3.5868283040883036,-12.157676709422358,-19.28124669600207,-8.50112805554933,0.59868819276321
32.0,-2.615369937123191,4.739421597100087,7.3547915342237875,-1.1068708834168817,-5.031491067980676,6.078294268593789,-12.852942051340474,-11.548904860313508,-13.578085676205692,-15.644412901702292,-2.4827975948722543,-3.157655410484808
33.0,-4.040691065951394,-6.33407956573122,-2.2933884997794785,5.228707630418409,-0.8468479156158901,-4.28699583022487,-0.8099528536247416,-14.4809141818599,-13.377359864842354,-14.93665051988491,-1.7259758392561784,-4.745966592006532
34.0,-5.077586528625984,3.1806291956836246,8.258215724309634,0.9206235078495183,-6.6468161497533575,5.666549916889352,1.324893930572502,-16.980467088508988,-17.74608465734928,-5.214401545685906,6.1655386049031,11.275035111949215
35.0,-2.2448551733088395,-9.958309304107742,-7.713454130798924,6.162015372181151,2.751794883386592,-8.806970870862777,7.890349838209199,4.405508906939186,-0.5942636518097792,5.517332907385494,2.9855075975383834,2.9206524685320456
36.0,12.51357326116444,-1.0521476822888545,-13.565720943453563,-5.741984775344741,12.978614216779173,-7.273632212673226,-3.6430470669157726,15.86336631137167,20.418457308307563,18.460429649132358,3.0365182994489786,-0.33591770463802906
37.0,6.040300556615064,6.429277080275965,0.38897652366044877,-6.243724581973572,2.8480414275223627,3.3740610876914667,-6.210044004963793,16.69349544493096,24.28191728941798,18.243154254375156,4.220252963779473,1.681062845833239
38.0,-0.9762539549824325,-3.197080982787641,-2.220827027805875,2.0741358758982695,0.6531796333021171,-2.735557932252469,-3.476897869435618,-8.648827509845765,-14.219511539482317,-10.610034089976644,-7.066479847485875,-3.700632739766704
39.0,6.472774469370059,18.772956674202955,12.300182204832332,-12.644476237051022,-2.9509516098246085,15.595291625335738,-4.671409636769138,-1.8580581053215952,5.167756406286559,0.4421429490178699,6.1254370799580435,-1.1692353851642738
40.0,-2.119106015573026,4.824485173436639,6.9435911890093776,-1.386560117352777,-4.479755388489094,5.867230707475847,8.277064651133392,0.4855147055823277,-0.001763738682571736,-3.424247745300566,0.6911046441242863,-4.695513013464487
41.0,-12.25656200363253,-16.680936240203607,-4.424374236571056,14.5017555182924,-3.9365324641980135,-10.570103089360355,12.065354178820613,-10.412562136046397,-17.180218455887694,-11.756091744033444,-10.60351975334454,-1.7921149773870373
42.0,-0.6134510949438692,-8.515289425551241,-7.901838330607138,4.589479805891512,3.624851057327515,-8.22979936067214,4.748919813429086,5.272851326210162,5.062347032777721,5.326429243943384,2.0847111461925087,6.960187649218453
43.0,3.984109027510079,-12.431181733681768,-16.41529076119154,4.246956015601986,10.175007109671965,-14.449616046338521,-12.60768932336726,1.4935109930399888,-4.519128228510217,-5.077473186414567,-8.219459631701099,-7.019330311213451
44.0,-11.962074690333253,10.169029489375625,22.131104179709336,0.9244867718677701,-17.00327061567921,16.198166138159948,-2.559929887343123,1.8943576502596877,2.268022255701487,4.203125602800384,3.8049922895831814,7.5320365288266915
45.0,2.659968719469109,7.75459050000879,5.094621780540103,-5.249339846167909,-1.2660902834383139,6.471023149843083,0.6142930936143909,-0.26516179000041706,10.896977251728048,7.992636760602522,11.963954621551794,6.543317260444946
46.0,6.832526569406512,1.1140126890744533,-5.718513880331734,-4.00555736119411,6.293352467226976,-2.3332855735264815,-1.1302670449898722,-2.6233871666725985,1.8365587544520094,2.070764694803678,1.3766800068528058,-8.231393412077889
47.0,13.208714676389707,9.145644374823165,-4.063070301566462,-11.201545635963852,8.646347611211464,2.5133841626556515,-3.5409252568699467,1.2407765755487512,0.04869990116143219,-1.0402043906812035,3.092800358980607,-0.41276520832315056
48.0,7.597836576279132,4.7089092055659085,-2.8889273707133363,-6.094605189989259,5.2534683724497215,0.9636126882620928,1.271941529936639,7.19415152543516,-0.2227927908167897,-0.9889769717356476,-5.571658354873316,-3.5211066052475406
49.0,-4.771996622850164,-2.186901142201534,2.5850954806483575,3.4601222142684,-3.661772245894224,0.17410129579978317,10.776378107170023,-5.855796665944309,-10.669837023099015,-7.342340201199554,-6.940378603016214,2.257585801588938
50.0,-22.632527084388474,-13.79359853651222,8.838928547875906,18.19165727021892,-15.707441048408814,-2.506210385821978,-6.9616808114648485,-11.973283558020162,-13.10732087338614,-4.701200605328913,-7.108468782156363,1.5994201756254067
51.0,-1.2376935768991135,-4.125895754849871,-2.88820217795105,2.7359084149214024,0.7873584066750219,-3.5436083861404977,0.8706551133098327,4.783303099864665,11.94912300738952,6.8160262246626715,7.419903956201754,3.757826630520834
52.0,-0.7017018969695616,-5.362047714357348,-4.660345817387921,3.004433330236982,1.951062437634988,-4.978708527769026,1.153958600791349,3.973420105093531,7.54753918206729,-2.5820803201319107,3.015206869588299,-1.0254118239841188
53.0,4.7525668424269165,6.75082011812185,1.998253275694942,-5.780380186183711,1.3527769129002296,4.397957681295736,-1.0688703468899428,6.93411046369031,3.1367042355254853,4.107542925166795,4.407899512348579,-0.8043367623059292
54.0,9.027505817893468,5.5703574084071,-3.4571484094862517,-7.248100789142912,6.294003057087492,1.0740210360020659,1.5513199288625865,7.572181542133346,6.421660827559897,5.061036115776918,1.5628453339888324,-3.7114700332281236
55.0,12.83568503253956,-1.035192034757456,-13.870877067296831,-5.9256795006429925,13.318180255089999,-7.437270367555275,-6.746464515385725,-4.70540636487023,-7.250715393166295,-2.118072746644066,-6.032722540333466,-6.515894046093901
56.0,-12.481632615687598,9.947552014798589,22.429184630486418,1.2448543155424385,-17.422429372861274,16.127920693330378,7.582875082327587,-12.291794876342776,-3.10366236484286,3.1526175574889836,2.7058564777834353,10.615364405333269
57.0,-3.5858539759185906,-2.2809018092818443,1.3049521666368733,2.992559721760113,-2.42249376102514,-0.4642375982076006,4.363276097400799,-3.250619908954392,-10.392107541351178,-7.531419153067125,-8.807312960306756,2.506577189128469
58.0,-3.175289158964354,-8.527257806055228,-5.351968647090892,5.832250753320687,1.0259917694701546,-6.909304841078335,-3.6827501853743847,2.4212115775195135,-0.44353174054305633,-5.554532458949758,-1.7095521091884769,-2.641639804506984
59.0,-2.192613970152518,-11.656124886020905,-9.463510915868541,6.90280765320756,3.650970812071154,-10.602103714997293,-7.8098732461006355,-0.9222838389805144,1.6461764820181006,-4.444716091197344,1.184989268355473,-5.989669937838943
60.0,4.9523425606156,3.9473274155725466,-1.005015145043271,-4.477150488028462,2.9997191989791827,1.4337184664624978,-8.680854700345394,2.9149983397788493,7.153522672815069,6.011655979528657,7.469607823893638,-0.4472031271697179
61.0,2.3906895241797903,12.411893304646576,10.021203780466605,-7.357884094520921,-3.783000517692503,11.261267820527367,12.421449722177876,7.871128757284401,5.391498494014843,10.226430550131713,10.66387753532162,6.451080429925997
62.0,4.061889340688495,6.378664140618051,2.3167747999294748,-5.26415019816192,0.8409469912274024,4.394788731314925,3.1911546339238788,3.8025114192994387,3.5598176857731043,2.455611651518468,-1.0777496973693115,0.8357929330674692
63.0,-3.345508272263927,-7.027443119272462,-3.681934847008524,5.214288765747753,0.15229460945404152,-5.384550788133851,2.643474297385564,-0.7490441046293057,-5.185858417169236,-3.103697924256266,-10.718729513648727,-1.0130989311154226
64.0,-4.299371732296998,-1.3849985672557827,2.914373165041312,2.8658267646144164,-3.609247859019404,0.7365315363215621,2.5533082321038147,-0.9415469878346954,0.4259510708044454,-1.7125079944968629,-10.095615787371965,-7.0330885216210115
65.0,-8.058149696338813,3.768139549940909,11.826289246279853,2.167725322505397,-9.935592289938935,7.770894461261436,-4.325061546429852,-17.7340739636687,-6.8272208889213415,-4.500320632547698,3.2692095580603606,5.900151513154212
66.0,21.49585415636751,-1.4368723582741403,-22.932726514641576,-10.083940917576294,22.223940865250054,-12.130394386015993,-10.417931499927926,-0.1564866267947238,-7.271624139048184,-6.412174319608429,4.65122916089416,0.3114166471870743
67.0,-6.381124630579136,-9.022199257913488,-2.6410746273343637,7.72862901103845,-1.8637012770769283,-5.85425606374918,3.350858224298089,8.604660225322272,11.955667465098252,6.859151646211784,7.239746948594721,-1.2277521049143494
68.0,-8.24177258860362,-9.078748134810146,-0.8369755462066149,8.610805601588908,-3.7050972301805443,-4.901169445841244,-1.9986074396197044,6.070391782744174,0.22499026519732457,0.46104467513079994,-1.7968641733253436,-1.298701129724528
69.0,-2.4696011940800955,6.383418703112305,8.853019897192342,-1.9265639049605046,-5.677169181494298,7.59428800863501,9.830543566763463,1.1237367052345855,-2.3156184075496906,1.8025487716657367,0.49592073807682724,-2.251561443439089
70.0,4.009546647706063,10.401766093096004,6.392219445389935,-7.175848925600079,-1.2222726527255037,8.36768161157779,1.8990953526580414,0.1454375660809497,1.5958142703686689,2.6197719149536183,-0.8315487082151749,8.653069987590014
71.0,6.416035051462989,12.371325392811231,5.955290341348284,-9.444582363919995,0.2636293998741692,9.124928316340682,-9.32450445597086,-2.152452279828755,0.11924082052156393,-3.328418707352243,-5.1406601162737,4.997393615509655
72.0,-0.4760839123177578,-5.212247161982331,-4.736163249664498,2.869000420000231,2.1513156105620785,-4.945507279456003,-2.090082891640383,-4.8459283452290505,-1.7461324327222005,-2.8407713525927747,-4.606947275511374,-9.674094174239414
73.0,-6.514532939096307,-15.302751736494457,-8.788218797398121,10.929774020856193,1.14986360642195,-12.028940606848021,8.547706797910994,-3.6775182414472822,-3.7706734771420907,-4.580515768544084,3.2133630346684776,-6.90284203131851
74.0,-3.2505492548053168,-3.526745496394984,-0.2761962415897026,3.4056907481682805,-1.4785737987746814,-1.8951368945933442,0.3424106566530787,1.2840404086990218,2.0711182282916383,5.607304739459163,6.190957327973101,2.982792402259433
75.0,4.329817534853515,6.115091179669428,1.7852736448158257,-5.2882646719195545,1.2009625278708758,3.9501196441580007,-7.433292813004103,3.8772962269632045,4.786515792572019,9.051196454011574,-0.2746131600827333,-7.298753863180364
76.0,3.2225283958715885,7.83071432702483,4.608185931153147,-5.517182297650749,-0.6839920860117555,6.217556973460924,10.674400693005,8.295092263974421,4.111956793573635,-1.6475985889321496,0.2138594830309578,11.19368039411368
77.0,4.1284802796220745,-1.4458783920242921,-5.57435867164642,-1.333873275508917,4.863788609681038,-3.5097465029422046,0.7739322453279176,-2.327057029087568,-5.835745745025192,-5.828251844582775,3.796822354306352,7.703872148123513
78.0,-6.468246888139777,-8.885148610805174,-2.4169017226653944,7.684466489669696,-2.007807114026012,-5.645672242884,-14.901610324341188,-7.78251539601256,-5.286708260931501,-3.8919818762319327,-5.354109416011565,-1.3771511125695683
79.0,0.19682062715757853,9.658437794702333,9.461617167544798,-4.916810178291808,-4.607309427582142,9.571356491255946,2.6077938285872975,1.4093777913888657,4.9815017482773225,6.037984992548467,-2.930970908437984,-6.335241331107602
80.0,-1.6106532462681085,-2.286678687976182,-0.6760254417079969,1.964735916657792,-0.512589970062491,-1.5432541966455808,0.19023383376764738,-2.367121593783232,-2.277549510594876,-7.050995316307096,-4.105577544583777,-7.864938123230054
81.0,0.10175090950137333,-0.43750950354414103,-0.5392604130454292,0.19007901916072523,0.3626522741477043,-0.4672406059069085,6.128033284191029,1.4139315253142912,-0.9359157924771143,0.816168991961173,-1.203961556470466,4.806885992464891
82.0,3.7708071068844315,-1.3985524893175545,-5.169359596201928,-1.2372899956263836,4.441537178088644,-3.259746572045494,0.4420937108078782,2.1513974631168282,2.598319351505365,1.3680040093752956,1.9309223097650348,6.356076970214984
83.0,0.30179253407778384,-1.2876201658139326,-1.5894126998917157,0.44519515429539613,0.9238966935148685,-1.4119736067384094,-2.144138813652933,-1.1806704295602999,-2.5279329611242014,0.3523587972588629,6.212665195123576,0.09230201422508477
84.0,0.822607242121,1.804947922800229,0.9823406806791359,-1.2815439230745869,-0.09610440327938097,1.343706021837789,4.197744786330829,6.660381569884167,9.72238802886071,7.876209143389664,9.693184756191094,6.492819020985327
85.0,-7.065384393594181,-5.732648421045134,1.3327359725489267,6.4307585173154225,-4.132313343353671,-2.168329253577731,-0.8003429306408588,-3.316851495028353,-6.277056270323541,-3.7794552148096834,0.7592608136507857,-6.486795287366766
86.0,-3.355349639742404,0.7567841569171494,4.112133796659503,1.3297369256038263,-3.742648313507094,2.3911632517118773,-6.9215598516586985,-4.278124653155893,-5.402868871252544,-0.15062895667329568,-3.057597627108895,-11.503403678862627
87.0,15.36026539233801,15.724082300587684,0.36381690824970514,-15.591822743773676,7.491099191034445,8.084492273950238,-4.268327074307504,4.155965774481234,11.745205433059398,9.54001257199269,-2.5424199782733234,3.0158183637134233
88.0,-4.810791656031169,-9.305998731645248,-4.495207075614017,7.086451546391345,-0.1648071816034693,-6.932554932344187,9.385335928294905,-2.269967795123156,-6.58048324189383,-15.12701288981584,-21.243141492396727,-5.029978334924062
89.0,-11.343905151604954,-10.676120930969732,0.6677842206352815,10.9587289686991,-6.0145949737664735,-4.950500646585141,7.202600175474998,-6.7320722403671045,-10.762627960391912,-11.075621842206374,-5.229073684603531,-0.4314465515666024
90.0,0.27258283644545456,3.250115940127645,2.977533103682206,-1.7339005152553524,-1.3644458339701666,3.095257434943594,-5.4032015281385,1.7001789821496152,2.2741499851805846,5.79485888769913,10.463168838794289,3.402990570914227
91.0,10.249718778513078,6.880992582045242,-3.3687261964678825,-8.537203146485785,6.7935118627890105,1.7426260336912507,-5.945951679338821,8.276914199140787,11.184298493327113,14.709055491334036,16.517282551583662,14.759443446430538
92.0,5.806755593222093,8.906247481657404,3.0994918884352494,-7.405605294670955,1.413684860419791,5.992175544198972,3.2201228398880835,2.698917269049377,4.742439630567596,4.969071453528335,7.5406463948536775,12.246625524176988
93.0,-2.221905545708425,-6.36542865498055,-4.143523109272175,4.325449537417023,0.9409401028662827,-5.26473442736049,-3.096977022811086,-1.8690910108926544,-1.025338474205745,-4.148424224501137,-0.14951060125233706,-4.115995855780087
94.0,3.673683541590669,-1.3095258422326224,-4.983209383823308,-1.1479195029109754,4.309593937148813,-3.158012148785199,-3.919232027900954,-3.0672249356551338,-2.5834002927240265,-5.862087614773235,-5.005780604686484,-11.781032663867633
95.0,-8.820709959594073,-1.239395864565429,7.581314095028674,4.987545605439498,-8.21721201297423,3.235759998800628,7.968139841784209,-1.940670745972366,-8.666430218319679,-3.4955365519361585,-5.672782421745259,-11.551686576316207
96.0,-7.610422208018898,-3.092303263105479,4.518118944913471,5.31020716528408,-5.998859051501245,0.6964961403499207,1.6070082545146653,-0.5676189073164175,-2.7348559297803807,-3.6766258993226417,-13.856819534997227,-10.045742319022432
97.0,-3.0980915406742278,-4.900008294216429,-1.8019167535421658,4.037099257093689,-0.6603322253255755,-3.369705925944462,-8.034001769268555,-1.4869509801514884,-1.323837258795132,-0.3711549635724325,-4.042439105576858,7.262298432916329
98.0,0.5427227522304926,4.2101289769803305,3.6674062247498496,-2.3387279172040696,-1.5771804773175913,3.917635301014298,9.43205963009977,1.9008260052459298,9.792774906033479,8.625314597006751,5.403792899019241,10.413466529542095
99.0,10.004625416034,-3.5503308186384634,-13.55495623467247,-3.2691746456999673,11.757585303373217,-8.497895384480913,7.961686430599517,1.441461252098806,-1.3555318676596038,0.9833661562079188,9.848475053731113,2.482667212453432
100.0,-0.9016195837960685,-2.673525498976466,-1.7719059151804037,1.8228573977785292,0.4011703317089861,-2.250418518180692,-17.05377343498149,-3.26344583440319,0.17800313315985483,-2.676184187729571,4.1597902463345156,-0.8130223153078653
101.0,0.7634383147201267,6.3301413652182985,5.5667030504981145,-3.5919591341533885,-2.3711088057611116,5.916156104374615,-0.9752694298262297,3.941682673985209,6.593141245411813,1.6792669980306913,1.9309911800143333,-1.160729269582533
102.0,1.8922758049736537,6.839660936984478,4.947385132010716,-4.333986066981657,-1.5109094319391567,5.934979270619407,-2.8011146012706774,4.12238125392886,-1.6874793380796502,2.7099497808780484,4.410922362311726,2.130792613401188
103.0,2.056470070170513,2.7262833112673084,0.6698132410966768,-2.439042653936212,0.6992551434699368,1.65599702811496,4.571833971925295,-3.7396367305029496,-7.746432271016014,-5.606732712205353,-4.878078086947008,4.100516952091834
104.0,-2.4533224292308486,8.696501259829748,11.149823689060545,-3.0900475804297094,-6.80147310334493,9.956159864876906,8.20903145554058,-4.31433787479134,-2.598670170371778,0.07818068256167265,-2.4259213706764333,-1.124067489234994
105.0,6.302205299830874,-4.175290902898149,-10.47749620272898,-1.029704938987797,8.389174413845478,-7.295545974251752,7.144875708639791,2.4828831966323355,1.388786714925462,-1.7340798009709,-9.160202380170679,-10.770845138678498
106.0,3.8797052695403274,-9.062554648599873,-12.942259918140108,2.5502369137278773,8.41325094666835,-11.050903982792235,-5.254079982279705,1.7320122791364598,1.0984277786842096,0.5034151549728172,-11.341204060707675,-11.126664690444924
107.0,-16.39519869592418,-3.8080756165930927,12.587123079331164,10.143855455230735,-14.484442450673018,4.420306413735902,-11.979690948700524,-4.282391128855776,4.529134430308966,4.969305141599671,10.564505701319508,16.772655275855495
108.0,-7.609841705896832,-15.029055682130252,-7.419213976233388,11.287320308568585,-0.0848476556856852,-11.271063000346523,1.4280211308176272,2.7465111764897028,1.6325022818318642,-1.1295298460931087,11.646339907130285,8.155234744658443
109.0,-1.7380435068128621,-6.770431540480622,-5.03238803366776,4.225243818161059,1.580617440840542,-5.868556986697426,9.32240794213803,4.638064253997449,1.5288343063294363,0.07847879054832996,4.3361878704523455,-3.9550226428223403
110.0,13.336003814446448,14.051770268560878,0.7157664541144283,-13.642830128639106,6.322127138978611,7.417391223965332,-8.413090772921354,7.021516216164661,3.6791081883690486,4.779190488971168,1.9665330361969682,-1.3813170295247659
111.0,3.730826815797644,7.56012884070957,3.8293020249119323,-5.673693653384216,-0.03790699046791035,5.650156713363914,-2.600711586192625,-8.21716313475089,-7.403501112976324,-3.588034743587178,-12.13955297313878,-10.210951242392952
112.0,3.964859860622955,11.217749211516924,7.252889350893998,-7.621429141543256,-1.6318399755100699,9.191441311546097,4.7607143719961265,-13.79314328565517,-14.54881129524795,-13.451782922298499,-11.018272114572747,1.3009333024628713
113.0,-4.34885720370856,13.050959110283006,17.3998163139916,-4.305181892945042,-10.858226538839595,15.261416806165624,4.076852759069702,-6.1217436924777395,-1.7471384947797874,2.4284529052386965,5.941644093111914,4.868201127975386
114.0,-2.911218430602981,-2.3058667727231095,0.6053516578798872,2.651128207912521,-1.7348442227679493,-0.8125367062146687,-2.37819593547319,14.208059719900415,15.584242392003432,4.257569881539415,4.3057158827425415,-4.525930024237523
115.0,-6.562891274004323,-25.317034528609508,-18.754143254605182,15.899989777024283,6.049860330980182,-21.99617915897618,-0.4753664227908454,6.016443661480678,0.6295476234339406,3.50433458350585,3.419157372969475,0.888257064369214
116.0,6.160471784261217,-8.099513851094828,-14.259985635356045,0.9251192796366556,10.252756607714097,-11.218414890327725,0.4075867461795981,5.741879403852747,6.931666915426821,9.207511372266541,0.9299450735638706,-0.7722469625416367
117.0,0.8501497171740285,1.8260996082964311,0.9759498911224025,-1.3086223286204253,-0.091925846052054,1.3611734122047334,6.772213980139096,2.3110786652749025,4.299682657764502,4.824732178129492,8.756834946942565,21.083094249762468
118.0,-7.9568181624565195,-2.160852158338712,5.7959660041178,5.083825530711412,-6.902117014513433,1.7747449123189616,-10.73448886629486,-10.226830115334241,-10.264014019552352,-9.956417678758452,-7.496271562616107,-0.28362179976397783
119.0,9.289378132405982,12.60028979353979,3.3109116611337983,-11.001562905177538,2.9627301840714955,7.988115383830532,2.8166979561236123,-6.153158838173987,-10.106903023943417,-10.922429955072905,-19.06821568592194,-5.830384404909193
120.0,7.842876986864651,5.455807262036511,-2.3870697248281543,-6.627479685766527,5.163499937533027,1.5650201557927375,-0.041419343029792444,-0.06610232343614086,2.78546631599466,-2.2631447875723163,9.594702945561849,-11.757633643095852
121.0,-2.3938269867690076,3.8994426606799495,6.293269647448936,-0.727493578673994,-4.299818211457857,5.128381630658968,-1.8331225873491852,2.3131792264862843,3.81428081650515,9.286732800147544,8.00352721333301,-17.79590218710131
122.0,-6.562938106734611,-0.7568335281357759,5.806104578598816,3.692169891184294,-6.2235929935163,2.482898929833392,-0.5985858736747091,1.0370273029167523,-1.756985896705419,-0.5189663443219668,4.84762516522834,0.5414431414029508
123.0,-5.658748631816591,-3.536747561751085,2.1220010700654903,4.560696758739237,-3.9315468231389015,-0.6629951041216067,8.373097161251359,1.0564010485519635,3.772463483400293,-0.028060303004021403,-6.368939022951308,5.3505242417787615
124.0,-2.9029034967723866,-2.1960580015077173,0.7068454952646578,2.522558604188659,-1.7670822848685392,-0.771633124170092,2.788059015875803,3.7379700195588534,3.1561049779695183,5.216147080302533,2.4935146811837106,17.701833292327787
125.0,5.453210374780346,-13.56385553619099,-19.01706591097135,4.037400388569044,12.274997553871792,-16.312765508945297,-7.3751838364664755,2.038278897870816,-1.0775276221664463,-0.37934243508977916,-3.9548016641479773,11.78821762631446
126.0,-2.932691732892346,2.2922804315503384,5.224972164442677,0.3873976041931715,-4.114895187763102,3.736611850457903,-5.448025625531107,-5.344127377466162,-0.9618903205300491,-1.820994361132166,-1.0414140679205786,0.8442154856070792
127.0,3.2326237046472768,6.633198967344569,3.4005752626972927,-4.941684621385916,-0.117811740435948,5.069104117757692,0.1730885275566072,-2.108866095228011,-3.5050317443031753,-2.7439293954976183,-2.760783544571049,-8.612411121571236
128.0,8.092622790596392,3.7742026376348368,-4.318420152961538,-5.94324108091554,6.250887099270878,-0.3068321846023352,1.4990981754911372,1.931598850001777,-1.3186046009595074,-5.4653043720459635,-5.193531494551763,-18.166615737486687
129.0,-0.049858373917568866,3.1923428001500898,3.2422011740676844,-1.5853972351491845,-1.6813772913857346,3.2516902839496353,4.327966074044185,-0.44305629719776757,-0.7782843131412726,1.8262241870880302,2.0503438043301934,3.6699437759313103
130.0,-4.01391453866472,0.4528190057445327,4.466733544409261,1.760272305204972,-4.201279381337243,2.40711977192494,-3.8083633443305063,-3.6402086930838586,3.1376114572295157,5.825546977504767,11.400235232433712,5.213793063143835
131.0,3.06222469534022,-2.169049806157269,-5.231274501497507,-0.47262057487294107,4.1008828435070654,-3.678727256785923,-2.207755430811222,4.539222648966142,0.298046697614889,0.47473921925837015,6.969278127598653,-5.308318978548938
132.0,-1.991081990594252,-0.2685931173468241,1.7224888732473929,1.1793284538620794,-1.8309104384980184,0.7487294270638505,13.73482306317572,3.4486555539703865,3.603109340686578,2.1708357842573056,-3.555907434837365,6.539878929269257
133.0,-12.71294767909672,-5.2059789499811036,7.506968729115577,9.009548764550592,-10.090845001466496,1.177428477067413,4.363907588009116,-1.231178643115088,1.3872521573336964,-0.794903748680496,-0.07335157475295029,6.157893761315137
134.0,4.315464191756369,-1.236808849137136,-5.55227304089353,-1.5638059136932045,4.947532007038713,-3.438171268441363,-10.393231965353971,-1.1023646403066056,-2.2094781600185764,-3.5974031615230913,-2.5981923708161445,-3.272007668675232
135.0,2.0266616467216645,2.2688561234648947,0.24219447674323757,-2.1661711414339475,0.8239936628258853,1.2990662784017502,-6.441968381510494,-1.5114333206160828,-4.138280766556208,-5.264855433981412,-15.557932358671119,-6.519671482488565
136.0,4.6435198244893146,-1.847286859659519,-6.490806684148806,-1.4110625491209414,5.57769799601212,-4.19845178508225,-4.319626841832852,-0.6581079723773544,-4.690717687890239,-0.44973879710841036,-8.953955368554979,-0.08846768974742902
137.0,-3.82134289577143,-1.0976254108832262,2.723717484888221,2.449146216366969,-3.2581761958622124,0.784951160940725,1.8671503178474902,-2.745761965893315,1.2087728664288484,3.3514966284997625,8.509315068278276,4.188410256589607
138.0,0.0020391359498192485,2.0476425387405714,2.045603402790755,-1.0367078871258184,-0.9998150681742157,2.0150876892991496,3.760290038295169,3.781475587984411,4.1055844380354225,5.362589730162636,14.924928271796343,3.109515224488276
139.0,7.795549953477348,8.656656211921762,0.8611062584443976,-8.164922438756145,3.4996462946266678,4.799220742961165,2.4460116810440864,2.903642670114289,5.5755559914032125,2.2752101512986296,14.458250556715159,0.8673888271008354
140.0,7.114608270928434,2.0936074252521055,-5.02100084567634,-4.630512416659793,6.032893352705381,-1.4314877811281455,3.2520533197795767,-2.5601807599958186,3.490448395424426,2.7140176810901027,-1.791310284574287,-2.725623578416812
141.0,-5.830400978610527,-4.702252958277895,1.1281480203326526,5.229697887120438,-3.504169852977517,-1.7621446053613166,-1.0566923894530826,-1.3928505344448974,-3.08976064883083,-5.106034521127449,-10.957626153910967,-2.9073059626066033
142.0,-12.78883993756433,-7.146882355120013,5.641957582444319,10.00040162330465,-9.23379370984341,-0.8114578811432607,-2.377177818069896,-0.6339783157245976,-7.823599999728043,-8.309591134577316,-14.888801979934307,-12.351686446685877
143.0,-1.187369509376687,-1.669099755856358,-0.4817302464796982,1.453750218313603,-0.29078313807555656,-1.0582290467495226,3.529265717314411,1.3128751803384953,-6.8831611173128895,-4.484869885375651,-8.243270487191968,4.21121299703531
144.0,-4.280661649647765,0.6436839474845901,4.924345597132305,1.7621878755987639,-4.622606011384583,2.8010811971224028,-1.8953847815707385,-0.6480061115605218,2.5018976950058556,6.535603046617329,10.8180650579029,10.037494553582642
145.0,10.140060396743092,8.806573587055837,-1.3334868096872876,-9.449380791458376,5.708969301442422,3.6768712792148355,0.34351077550109,2.1167772553949664,9.654427249166348,8.852493459638316,9.45712213810117,12.326258799501371
146.0,9.409663843782685,0.144372229155612,-9.26529161462707,-4.7474049112486565,9.37798335182433,-4.537537619533362,-3.1083772951259347,-0.5121886391734335,1.5876955845108949,-1.9767827720375224,2.9605015784269746,-2.181200046115573
147.0,-4.590799584066889,-3.165852601871395,1.4249469821955332,3.8377674653865874,-3.0571992990797496,-0.8421902962300987,-3.328143733572193,-0.23973041763613268,-0.1667971633710077,-1.3031666582085248,0.5192551304004169,-5.985083530795417
148.0,-4.738518491709783,-6.537531784403755,-1.799013292693931,5.685748916586127,-1.4498559135669984,-4.133725570630082,0.992170406197671,-0.2440941779753163,-3.7306004282550953,-5.536667341495651,-6.614215616724647,-12.87737133051965
149.0,4.62647400405408,5.222391156928392,0.5959171528743337,-4.94708049317404,2.028982092150545,2.8713630467814433,1.106279702671169,0.799281021667148,0.9136780253786787,2.2209416348976068,0.4060557083642302,1.4996737439280983
150.0,2.1597024090955848,1.5649392259234696,-0.5947631831721529,-1.8793998901086493,1.3889779160085476,0.45295624804334134,2.317343468807077,0.6127662745988582,0.8187743864707266,3.579095269413034,0.6051114216500526,0.5206747575142461
151.0,-2.7419983161075727,-0.18893763199345526,2.553060684114048,1.4504423141362317,-2.6336992976602334,1.1541729815960364,3.8220328488616353,-0.772963336909032,-0.8405215870725719,0.7027346562712717,3.3197116877235824,7.418153324383092
152.0,-10.262865290733458,-5.241329439889109,5.021535850844263,7.735979692012676,-7.702114471104747,-0.05658970940605701,4.1450279681085265,-3.479172654194833,-6.196379472107145,-1.6978248890694316,-4.5328604729867,1.20349438474301
153.0,-5.70320013907334,-4.48279206254696,1.2204080765263177,5.15249430533201,-3.436644984326923,-1.5775437766639797,-3.3885154984455,-1.780844293523991,2.9001420846538974,-3.1853675709860374,-2.8776345824567513,-0.5160888961665244
154.0,8.134394426032726,4.526603659446669,-3.6077907665860662,-6.353720439214779,5.902332731588187,0.43212018930759477,-7.364318938030253,2.773379606263198,1.7033294608930594,1.4767196716049453,2.040082831054553,-1.6950598314631184
155.0,14.505752332395435,14.087722450545542,-0.41802988184980583,-14.245231746420108,7.419127966091273,6.802469342397868,-6.953584477515203,3.3136423880725943,1.703069650668191,-1.8891852536417613,-0.020336891208288632,-1.004073794000809
156.0,0.30729859364940637,-0.6199751280850849,-0.9272737217343665,0.12527931640240286,0.6563236110732005,-0.8138809016210458,3.7384367679690453,2.6711081134793258,-0.21034440646017938,1.7577876660961753,0.3611119911957592,-2.4320319070359675
157.0,-4.457427207987647,-6.435531857566094,-1.9781046495783472,5.41190579523826,-1.2775676939197453,-4.178023151771577,7.562356663553548,-2.1041524646613294,-1.5283215871324272,-2.8057906882587043,-1.769792522675604,-2.1061279006494056
158.0,-7.65093104640467,-3.5667819658647897,4.084149080539898,5.571449077163523,-5.903788426900803,0.2776747549757608,3.5420082631742478,-2.0751926848362894,2.2004729396227747,3.5181237344011898,4.178294708596901,5.0282765647129715
159.0,1.967216193203611,0.3147774426734218,-1.652438750530226,-1.1010085293953589,1.8551036783554964,-0.6578310194097374,3.5983275820320513,0.3516907867724335,0.1961669455479198,1.552642578542669,4.5537257010655035,5.307401335728139
160.0,-4.855340505236525,-5.675045061866156,-0.8197045566297019,5.306134115397215,-1.9678875172916204,-3.2410349272693977,-9.034213211242246,-7.235739758822807,-7.223990579772656,-4.988424370617306,-4.510926771742136,-2.618019893913784
161.0,2.903638457442435,0.08327554879655308,-2.8203629086459694,-1.5277935476782225,2.8394490218341217,-1.3627257184190196,0.16686696812007185,4.115117927305176,5.727907104285601,7.800594751862255,-0.27836186788852757,1.1439272243538015
162.0,4.83502256928141,1.9925343765360193,-2.842488192745453,-3.364193150299359,3.8227566135002062,-0.49416207055452155,-2.2045284683707713,8.294378998813603,11.134110195832047,7.864755362766027,7.430124002541556,-0.03356265475429643
163.0,-5.70584289639564,0.029725245026316127,5.7355681414219175,2.8140659661607414,-5.731738791176841,2.8998591760185586,-0.9753256855863751,-2.071182802153266,-12.09844317465623,-12.005283744850995,-7.779080798838767,-4.886673727870045
164.0,-2.6153085277467705,5.91683995982948,8.532148487576258,-1.6714891837996315,-5.583036839169468,7.252444303607792,-2.4772923749747946,-8.110396627001442,-10.94196149396658,-12.86868354439113,-12.784934411171415,-11.422394878681136
165.0,3.424788835830427,2.01194308374015,-1.412845752090214,-2.7389828255801194,2.4071512674062157,0.33998470469102626,5.51352175440338,2.6736410088359435,5.985872464004912,7.49789348924555,6.163332435980312,8.926822369735213
166.0,8.240618772205979,-2.627069417332773,-10.867688189538626,-2.8305226573649795,9.614966229490001,-6.7733154163417515,7.955098401265416,1.4426087908666179,6.298251745655366,3.087885123297691,3.111859797426191,2.4727958763383433
167.0,5.452411551115789,5.58882941572672,0.1364178646110572,-5.470931655580984,2.6309217480227627,2.846946081288698,-0.8717731989678188,3.0797684287398033,7.259062068003717,4.714859237392086,3.7456214263685768,4.999379512329838
168.0,-3.9482285873188294,0.27258210833243945,4.220810695651325,1.881627586910016,-4.121952406693827,2.2376479835047896,-7.456330244239153,0.5307453244459348,-1.6403147221863805,-1.1618951198723684,-1.4400028129826539,-3.5431946910114887
169.0,-8.78673674137165,-9.799207656667544,-1.0124709152959745,9.253034212604517,-3.8554523388447963,-5.412315469993664,-5.138760879275377,0.4472801389870717,-2.5789312095866874,1.2798277995049148,5.299394665548315,6.203025299578279
170.0,-3.898009896954245,-5.103056873791866,-1.2050469768378431,4.4573618543484725,-1.3218171141983421,-3.1611987392325114,-0.49870182696390364,-5.089539367999113,-5.959858677260122,2.076409686700093,5.60619064422375,-0.2026285296084287
171.0,-3.434635662705738,-1.5061596325866002,1.9284760301189656,2.504656255577177,-2.738549689913071,0.20175320943214392,7.9116116232398985,-5.912311177031142,-7.563481849316146,-5.605825537144995,-3.279800981566372,-10.743306227997353
172.0,3.714572504409212,7.485174438892102,3.7706019344828667,-5.565508189156763,-0.004331001962215586,5.695107356292376,2.572325900472471,0.38285071107191326,2.2286183268798756,-3.26933263115231,-5.000009101245575,2.232066878374458
173.0,2.195125875326836,2.1278642405614487,-0.06726163476526281,-2.205322857984679,1.1613595672090318,1.0177986604743419,0.3212139502124931,5.486504602895993,8.276926359973869,0.917195674035197,-11.071806019554765,-5.258877603798033
174.0,5.58129983629243,1.792820975194001,-3.7884788610982483,-3.6523260334147944,4.645982153734246,-1.0101806525100694,-5.141448594568335,7.854833484629578,7.850269280874288,4.31431454774815,-2.797759185152665,6.800576493198914
175.0,0.9109220162787586,-0.5152050890046707,-1.4261271052833058,-0.24382178039718205,1.2190086065343295,-0.9826266512369473,1.2245010370902074,4.887798475954459,-0.6841007527348228,0.3500831355846179,11.763701929704807,3.5752395162234407
176.0,3.7802837582056563,-2.3854187446243356,-6.1657025028300625,-0.6687779170097419,4.953768568260731,-4.288060000531993,-8.214803427214816,-6.085167107402859,-7.622352734840733,-5.001121017561868,-2.088630752050827,-4.899913067066846
177.0,-6.678989817233919,0.771909069461814,7.450898886695533,2.976309039739212,-7.078845539590935,4.096532105839847,7.33290492173879,-11.712530547444556,-6.91980955785532,1.1991933801755716,3.902130316622157,5.153457143519475
178.0,0.7674535663454423,7.525718938846801,6.758265372501116,-4.208901731053564,-3.0086102299477924,7.201305444715299,8.27061237836271,-2.081439470287644,3.1773912712433043,3.3574694939565974,0.3064926022603589,-1.0504915249338385
179.0,0.30166009103206326,-1.782457876795375,-2.084117967827607,0.7519625742095802,1.1764544054710266,-1.9593081488903716,-3.7867649894455786,7.3661009211537625,7.149489174822255,5.9842826925960955,7.1014435772674345,3.69882373311828
180.0,-1.502125225200432,-12.951925688456807,-11.449800463256349,7.237131118535024,4.952315460452206,-12.234932748049694,-7.7122447420462095,1.4794686470843992,-3.3929397767198988,-6.297981647139794,-4.436202940101397,-5.135152392182588
181.0,-7.210157219795239,-0.22158912050030377,6.988568099295071,3.7291597177028306,-7.046503985043384,3.419422066579676,1.2744215906657126,0.05947206812121797,-3.1667974662509666,-5.38529762869457,-10.137652711890723,-11.10200035552681
182.0,0.981876941533677,2.9499897019217967,1.968112760388307,-1.9449801754671634,-0.4419499776858413,2.48637972451307,1.0704812318602333,0.9869325958076283,0.5347771278293675,-0.2722250745695618,6.161101206461001,6.9000416456759
183.0,6.029864699504152,4.460069951894047,-1.5697947476099667,-5.213555782587325,3.7737876951681963,1.3860612418860563,0.42891612723134565,1.8444293423427423,2.5522591776204155,4.228248620843798,-8.337447994386313,1.1552607732060154
184.0,4.195578904097266,1.7245881356241886,-2.470990768472992,-2.9968543530006526,3.311127216197855,-0.3595397350876264,-5.599295376558645,-1.051689176523601,2.14416170651987,3.8178126789495774,2.291541071997455,5.531989832624069
185.0,-0.04964557419366411,6.222363523644795,6.2720090978384535,-3.1150213765560664,-3.1783984561013403,6.256983694307352,6.524056759864092,-0.7844668649624316,3.5857945878557547,0.6286001411421989,10.13138440428451,3.794799442887376
186.0,-2.6805162440378503,-7.010936895734966,-4.330420651697155,4.821377282208656,0.8111789233932776,-5.662392579602042,3.1525751318512456,-3.8442353856673543,-3.954482062276576,-4.068605396715978,-0.6507355053127988,-7.015934188066823
187.0,-11.681444681112303,-8.521719886495193,3.159724794617089,10.078151033292015,-7.4321052592428725,-2.672047400931782,6.64661936406707,-0.7623396923065875,-5.061096019167806,-3.5763315700955394,-2.0989568753381023,-3.8069067817470605
188.0,12.000751268060462,2.2644122458210214,-9.736339022239491,-7.078028363947698,10.936488541218097,-3.7246682134607356,-4.701045659206528,-0.591992143731233,-5.39146066396187,-3.4169298214840103,-3.442782975401653,2.813438012502356
189.0,6.563349668715257,10.424870623273963,3.861520954558708,-8.440087939248171,1.3397055325156426,7.079196738230625,-6.344321247854318,6.050911484331058,7.251657795949658,8.086820606016609,1.5668882228443708,4.871749486224948
190.0,-7.466451773633473,-2.2201466783231005,5.246305095310406,4.819287761087196,-6.368612134465247,1.532013554124426,-2.963664905265358,0.4435628552177766,4.593358775773888,3.84928485898855,-0.8535251648417039,-1.143196738837253
191.0,-8.456136151883669,-8.331891020690904,0.12424513119273728,8.371601267743896,-4.303615225719445,-4.080089505186287,1.0252811264050132,0.2771602316740336,-0.2924798654096161,-1.192650369466592,-3.9814718733306664,-8.538347474748349
192.0,5.611140377657853,3.6627214794845173,-1.9484188981734885,-4.658261748897475,3.765479071751731,0.886311640371843,-4.0217855653201,-3.332227942664067,-0.1065902556712155,-0.08507111703375714,5.102862513196232,3.4084332219498905
193.0,9.323060428661126,7.700206581068562,-1.622853847592833,-8.455229354515811,5.458589693905135,2.995047184903601,1.4994125388359243,1.3191096474667028,1.692995190039626,0.4876703339257584,5.3557686877611985,4.40488362382466
194.0,-7.436007990330629,-2.3801761064012372,5.055831883929166,4.881795647333339,-6.180501037219007,1.3003391366396735,6.454076245668201,-2.527317440885938,-7.413020611095538,-9.043118071160091,-1.8339028527314412,1.3080599641595998
195.0,0.7200072363354519,-5.04382001345518,-5.763827249790504,2.129255010903633,3.230534242482587,-5.356917214737152,8.835529904710652,-0.3339036039287052,-4.633262144415996,-3.510679037560654,-5.520828180603741,-3.823696191735231
196.0,-6.0780521965253795,-8.00039111964182,-1.9223389231160377,6.999806034406355,-2.087136328595264,-4.9103053179612335,-1.2569349699001813,0.8296612196677657,3.595445979125612,4.371031919964469,-3.5852899275546335,-1.1796851301310463
197.0,4.890981998860386,5.062692937914431,0.17171093905458057,-4.941823462249877,2.3515767659218225,2.591022855842244,-16.551005396719383,2.181179967276091,6.424069973623971,4.7942695910444675,1.9901334460832332,-1.1245896175720422
198.0,3.7940174197145424,7.191224253787898,3.3972068340735477,-5.456981341647809,0.18988774714267154,5.2660701171642685,9.640927384700788,1.8323883321323042,1.3713412680744357,3.996748616656106,0.6219780156767843,0.8535212633061118
199.0,-0.2111264461014466,4.7992387912523045,5.010365237353619,-2.2520033649940245,-2.6215144996959525,4.8713341750893004,6.1881592408635315,-3.9999910397141667,-4.540209087618377,-3.8386441992891775,1.472891143664091,0.7411553633810375
