Time(ms),I,II,III,aVR,aVL,aVF,V1,V2,V3,V4,V5,V6
-200.0,6.5412862563013325,4.844021417985671,-1.6972648383156708,-5.690649537494982,4.157742983074382,1.605340553472236,-5.14856037895155,-1.2942021388026714,-3.227287420070299,1.839956416934082,-2.1643431519349297,1.6392891398460343
-199.0,9.261843198727359,0.029085004303091466,-9.232758194424292,-4.639283052722088,9.282291181249077,-4.576006821098796,-3.948138191521025,3.3681231813177392,0.8748093432547884,0.9148277934208422,3.1756638232888066,-1.6129415450684315
-198.0,2.8288767533279024,-5.344017701202866,-8.172894454530782,1.2705357784203022,5.53290256048488,-6.736437000261623,1.0450634946501847,1.6560261578958668,-0.8148024067247059,1.6250494697628168,-1.0644776333471802,0.17444935378245907
-197.0,-6.759645456189828,-6.376912617803342,0.3827328383864872,6.5101481566182375,-3.620557162012346,-2.9761809947247158,6.1400268621679235,1.9255323038768688,2.7101595294507774,-0.6854434981830131,-3.559501036095293,-6.171331947385081
-196.0,-6.083698023699013,1.320917258931516,7.404615282630538,2.409317455541889,-6.796204011745404,4.30606020857066,5.351348249152254,2.219256394509384,0.5711006354127195,-2.5271485048898414,-1.103144688452848,1.122745530251778
-195.0,-3.0096566561124307,2.95718562230973,5.966842278422169,-0.01799939755060942,-4.464264334348077,4.40802797006242,-2.1492566884814033,-1.7547552205991277,-0.3925137331018598,0.5111956147691683,-0.232551486228751,1.7445536233947405
-194.0,3.301718441714209,0.7701011495142565,-2.531617292199961,-1.9952646274722483,2.9385652276684997,-0.8520144262931728,-2.6086218946308533,-2.5772692332004867,-1.1829174834643073,-0.8577699328154624,2.788402211020121,4.734640555705182
-193.0,1.0649625958833602,6.2586511720670455,5.1936885761836615,-3.615161994483176,-2.0428329207453775,5.760182556785514,-4.333931732380301,-3.0951031930361053,2.1172671246163906,0.9474548748025388,-0.7601276694546324,2.7692871024272696
-192.0,2.2076276493240377,-3.162133391759077,-5.369761041083147,0.4508665405893826,3.733801687031887,-4.225440321471469,-1.8643671822273424,0.6512640043921294,-1.6153361332005847,0.6053560265338477,2.2264989600773104,-0.05470450893269785
-191.0,-1.6916921711973631,-4.448783433341922,-2.7570912621445878,3.0484986619801755,0.5619194904246232,-3.6340787959594665,3.267915045741275,4.953320325966303,1.680829586661933,3.193436075549441,1.4767265916042112,-1.2408256458041138
-190.0,-1.5737228992609773,-1.9654554842356458,-0.3917325849746889,1.7502743628400612,-0.5539637522272634,-1.2032508351685087,4.073653498200995,-2.2236016049845713,-2.7052833385142296,-2.2685129794014642,-0.016369797535564973,-6.027310768266648
-189.0,5.068130470551471,-3.999707488956398,-9.067837959507878,-0.47559043438346227,7.0350233060759795,-6.554024707007935,0.0026688982039444475,0.9296504707633682,-1.196359452496475,-4.05806918783271,-3.4232397009989257,-5.140362032608898
-188.0,1.0770503974630137,5.699988223733261,4.622937826270246,-3.413124360583954,-1.7982832787462888,5.221077209142374,-1.063534471062748,0.2720874835152788,1.3044771238644826,-1.446125078351786,2.9214392140207197,7.5503467854094595
-187.0,-3.724227610847417,8.621599880748187,12.345827491595609,-2.48096749377005,-7.977209951497813,10.461803653759164,-1.0888233703346892,-0.5743733603635758,0.27894539154837683,4.733788716048943,1.5099426332051897,4.053801002009658
-186.0,-1.1270324273196386,3.262611646231101,4.38964407355075,-1.0307777224961403,-2.7794902238431236,3.797720718185228,-2.8771374746885887,-2.09698175643969,0.9782105904146932,2.116069787333177,-1.206163998325956,-0.5842408789136857
-185.0,-0.6751400961932297,-7.878440154354223,-7.203300058160986,4.225960133175145,3.237877002263877,-7.499794932790585,-0.12360684311629866,-1.001771311064104,-0.8616486225180973,-0.4799373540176006,-5.349349896233821,-4.2261652334596205
-184.0,-0.9457296314875894,-6.477011459765041,-5.531281828277446,3.7328546530679123,2.2579249364989527,-6.0522585346151425,3.525957770815548,2.6952045567939655,2.66833575129542,1.4330469588061543,1.0661779730613252,-0.9740083590415123
-183.0,3.836470414586489,-2.295993645938117,-6.132464060524599,-0.7509013848176318,5.01853641348077,-4.193265046547929,0.11707395700934953,1.8675672527218137,-0.9615492241255483,-4.700309797303613,-2.7817547687346096,-0.9000110334160827
-182.0,-0.814877607103415,3.2858811332312756,4.100758740334694,-1.2137644282191717,-2.431921748884218,3.7071792502805527,-1.2206170194663417,-1.3591689115985566,-1.5359686945247166,-1.6352989703070775,-1.864966268363339,-2.4182280466591144
-181.0,-1.6716979001629038,2.4067445327665715,4.078442432929478,-0.34019663071494843,-2.8534024732398757,3.2531564252864107,2.261448385525407,0.45969690100182176,0.251679762527808,0.22082584690508533,6.541515191317574,4.739871204702017
-180.0,1.362644178927666,0.5490665366421528,-0.8135776422855074,-1.0010195026546311,1.0317395456193625,-0.1207522045185696,1.3037175053999879,-1.3017230887372009,-1.638896628817513,-0.6759259728952279,2.014412660731109,3.4698407452515854
-179.0,0.2608971005892978,3.431471491012796,3.1705743904235044,-1.8870874941465585,-1.427314296504061,3.238628239821463,-3.3965650220519863,-0.7465003942876016,-0.14105967368785954,4.0212192675680845,7.402296865844192,2.2912462686927304
-178.0,1.3866302414012066,3.3418417184903406,1.9552114770891338,-2.3258688920655888,-0.2488707093918453,2.67282190802151,-4.735489888909685,-1.8450472286875854,0.34649226272531797,4.123078803964991,-5.541930529804601,-0.6775704227768397
-177.0,-1.5788483745999151,-4.3332685904771395,-2.754420215877233,2.912234889151877,0.5529013784010731,-3.509593961170266,2.484912624727795,2.6614856762171515,5.520938348988087,1.2829708356569813,-2.2750140978728486,-1.9551870349635767
-176.0,-2.55813702106874,-3.22353509183698,-0.6653980707682547,2.919537009399756,-0.9742053873566756,-1.9781998959810814,2.000675748885648,1.1443732754335594,-0.8000376491052807,-4.1637998285355495,0.33596682008180334,-5.368684604242685
-175.0,2.3162786160016644,-2.3219003942881526,-4.638179010289834,0.024387444016178428,3.453932520936416,-3.5035086230620993,0.8990840265308317,-0.7255573165203075,-1.9949487225044025,-5.508225140499543,-4.088848769778929,-1.8350039990195843
-174.0,3.0812814948533367,-3.320130160469698,-6.401411655323051,0.1347456465144563,4.798688050286084,-4.797124161047222,2.4513562574213257,1.106627327157412,-5.440631930371478,-4.197382546021889,-4.92860180053521,-4.070381493461081
-173.0,-4.975986008769385,2.81833152324352,7.794317532012903,1.089872376881651,-6.406837489577844,5.296326291937282,0.40967422079599536,1.2247498011517242,1.4704986500790462,4.051646059074191,2.4866922193851297,9.58262395610097
-172.0,1.2192402204399146,5.974158609291765,4.754918388851857,-3.666313516559458,-1.7126218187527427,5.355345378408996,-2.064022901464738,-4.028828831306092,0.12738720084062682,3.9660278884441293,2.5732786025080507,3.6403818419002123
-171.0,-0.8604798911651304,4.950724600594002,5.811204491759158,-2.035605219444942,-3.362395953864764,5.367997623482106,-3.6712805116927716,-0.9108797160145652,3.6238129914950545,5.6226791379668475,5.566462836549817,-2.089789769777255
-170.0,3.3352386001484757,1.0017991432018676,-2.3334394569465746,-2.1566368417746538,2.8038683871181243,-0.6862831193586136,-3.1917458339178513,1.268285981376811,2.3221408920044535,1.0404007746466228,2.719471557586689,0.7576749122305702
-169.0,-1.2031041097612831,-3.4542491839318967,-2.2511450741705827,2.3443719203774203,0.48918949095838116,-2.8823964465513106,1.7680416963161116,0.36435185846946805,-1.0899760746213105,-1.6268341201953564,-1.3816876144468178,-2.4063832095160076
-168.0,1.896221695421493,-7.434720415633229,-9.330942111054695,2.789328198709764,5.653464884613463,-8.34222876081125,5.561012198809812,2.1301950823614817,-0.10478531651063488,-8.533064661561948,-5.357084811462099,-4.988899333251627
-167.0,-5.767049839641475,-9.12805425082119,-3.3610044111797004,7.47143482636165,-1.1659815585786815,-6.209488891875344,2.742901448586787,-0.010057351392760872,-3.397552312088557,-6.005694730047242,-3.235598390247862,-3.135285161723199
-166.0,1.3787310363148082,0.9497857931805638,-0.4289452431342362,-1.2169027321594967,0.8610260821372122,0.2935749753246846,-0.1752012236125544,-3.27698172847502,-3.4210274834582286,-1.1745601483987684,-4.385345693752372,3.4377021757747057
-165.0,2.2895258830367298,17.309742520907438,15.020216637870723,-9.851903233107116,-6.328867822781344,16.120402803065957,-4.858705005428542,0.026311321799607823,2.038920686227312,9.84934432503209,9.009486216278365,11.028843222976128
-164.0,-0.9680104675657806,0.9765431167864076,1.9445535843522013,0.02151880534143391,-1.4971018096774915,1.4180800882047189,-1.2035250680534548,2.1872056250986827,1.949255021890646,6.6056079334735776,1.866171883880364,-1.5157951823008817
-163.0,1.1430367528939236,1.0207455550702842,-0.12229119782363185,-1.0563629963567445,0.6718932208883155,0.4867975872873509,-1.4005709585549198,1.0384623621355258,3.770657898828421,4.096596149922197,3.4648020205472516,-1.2818968014617405
-162.0,0.5653432301228446,-8.690664930123429,-9.256008160246282,4.0897972776861975,4.871323047912867,-9.015243031219038,2.81172621643174,1.0951291064717603,0.01404466026326845,-3.136943209152749,-4.066370725638263,-5.575285911054397
-161.0,2.539734990460892,-5.337852050746312,-7.877587041207228,1.4302135412654606,5.246599898313869,-6.5737903404614855,-1.279419334159308,-1.9655841403659775,-2.1349098703441562,-8.685305189308902,-5.492824318427974,-6.6030294535024865
-160.0,-1.418655058730009,-0.554815762818837,0.8638392959111343,0.944980334141367,-1.1849224019756615,0.1840094226677116,1.5689437102275319,0.37729341051203225,-0.09833504536880655,-3.873548444948632,2.7837575648952617,4.57942875480787
-159.0,-2.8789070249118374,1.770538472728184,4.649445497639981,0.518763645274693,-3.732444071854645,3.1558752626478537,2.2065930166320182,0.14331581170806823,0.2868498468360038,1.7329699671722572,0.4164703936102899,3.7813167589199237
-158.0,-3.522335979742527,5.392064998836743,8.914400978579227,-0.9648488029609854,-6.267874803806231,7.173643246026702,1.2392178054845528,-3.4536571287066744,-3.6166807068547886,3.6166102786396377,2.098387096946982,5.300354533325342
-157.0,-3.657819961749937,6.462636794098103,10.120456755847997,-1.3501192032733331,-6.860345043277054,8.309141547881982,-3.238683620812526,-3.8491893574384135,-0.953553651160816,0.5394486273454682,-2.421348505581478,-3.498610507447071
-156.0,5.857134826644959,0.5898395908247394,-5.267295235820258,-3.1701969595652955,5.593000108093554,-2.3222234802691193,-1.7329858691425652,3.647865912228009,1.094044754526242,-1.830130011799279,-0.6345889563310024,-2.9900335658918413
-155.0,3.4350048193381504,-7.747130007939543,-11.182134827277716,2.128736135100657,7.343017988757401,-9.52635521713258,0.7089161787698596,6.105459909532142,3.6577326627280917,1.3236813897988147,1.0905822544348962,-2.554034822434567
-154.0,2.4388024857752,-6.2010245606413035,-8.639827046416505,1.8490094067382783,5.498551229923322,-7.401674139693165,0.24976992938626927,0.36151294580110216,0.4419565480193208,0.0699500595934206,-1.9477111923079922,-1.221201807700187
-153.0,2.323851861439836,6.049876685973868,3.7260248245340515,-4.226139966529701,-0.7405235860739259,4.909044537562418,-2.4931692338727522,-3.4679121332881095,-3.3558251577944826,-2.2308434383485385,0.3262537665637855,1.8504956808576227
-152.0,2.954813309232489,4.204508532930313,1.2496952236978662,-3.548569335828844,0.8895834282112562,2.7504669593248003,-1.780875810838665,-3.276487107999756,-1.2143689114232554,1.0547283000643546,-0.5943311170372305,1.5680628412415054
-151.0,-6.759195480432519,-2.01971202193806,4.739483458494508,4.412564320226711,-5.796995114534051,1.3059847157116256,4.596581554599463,3.4281071299454697,4.761317672066925,6.429979984801522,4.007787614230554,4.878330140481092
-150.0,-9.788449030799997,-3.6329615557424875,6.155487475057537,6.727715759474485,-7.949033205624755,1.2862289282833523,5.750271443741044,1.9684812990948117,3.720909223554524,3.3480958220941703,5.544317432542185,3.456517961893909
-149.0,-4.543741426078142,-3.1494358163714327,1.3943056097067137,3.8602711701506665,-2.9541854558132012,-0.8540785387252816,0.6556543298211883,-2.3946459157867928,-2.0866918339302325,-3.698722516691628,-2.1270139560094408,-4.028880476950333
-148.0,4.414951902857228,-3.2763603193323423,-7.691312222189589,-0.6346829733513797,6.062225528103982,-5.541918055427706,-2.38007341341483,-0.9020403791068679,-2.497639340729114,-6.569186653424351,-4.740638177807972,-4.820501908451851
-147.0,11.179930937622414,3.9555667716486003,-7.2243641659738405,-7.551848081498017,9.209344549774485,-1.6171855771171018,-6.456341747385923,1.312918278817702,-5.078888779903862,-7.4138772798961945,-5.687795388550267,-4.63430581884586
-146.0,1.6741818276712017,5.773384465402518,4.099202637731288,-3.7027321841757406,-1.203051129959837,4.950311577426675,-0.7961766293712293,-1.1625885531113607,-2.877401613674091,-0.32098863364326347,-0.34400306227671384,2.0824446699667623
-145.0,-1.9395551672699476,0.90075549674056,2.8403106640104854,0.4691650059736565,-2.4535965300735914,1.8823321568605786,0.8379107302834867,0.3417146565923671,3.682459750286134,6.506107566825959,3.016071628410648,2.7063958030537547
-144.0,-1.738196374183523,3.281173175544523,5.019369549728043,-0.7337765102002874,-3.356223490546563,4.161070226497524,0.18991737683951915,0.05786267727570371,5.405835436010318,7.467433970812905,5.329182885071769,3.6652221440946127
-143.0,-1.1774252964956993,0.1962624563007188,1.3736877527964222,0.5380653053077753,-1.245480491748238,0.7957618517374957,2.927732641710584,-2.4308307637510715,-0.4350424063188152,0.5100962104001834,-0.11218322322691465,-0.09586190493336133
-142.0,0.8744183981639124,-1.1905207972191811,-2.0649391953830762,0.13534782478673657,1.5056430062001989,-1.6951045440979249,-1.3590597469780779,0.3988607458354674,-0.19199885227536262,0.16478357323577963,-0.7073081324638821,-0.9551012813109757
-141.0,-5.603883471056543,-6.211649170225392,-0.6077656991688325,5.890392268962782,-2.537668086156188,-3.3972828882359787,2.258124852418387,2.9576156357950913,-0.1477103351722226,-1.0400465097928153,0.42529347178181104,-0.8428337710161551
-140.0,1.4996191911778158,-3.4781215987597482,-4.977740789937563,0.9724431285010726,3.1995292091315086,-4.213719246745932,0.06437813503661438,1.5721600276590328,-0.353423820001009,-5.32225004997506,-3.101896420515977,0.6116310865560415
-139.0,4.677325029372814,-1.4581486093029343,-6.135473638675776,-1.6309279955091378,5.366287070335307,-3.7795733188338314,0.053128056896776445,0.7428926568181925,-0.8437170601041011,-3.4313809866215252,-2.6409993825885847,-1.417150616148166
-138.0,0.837927388278177,2.314259631348607,1.4763322430704098,-1.5271836149015152,-0.28075560276202194,1.9171251286341036,-2.231737185137465,-1.7900018602533665,-0.8986182725543784,1.5956627454420507,-2.0575459739251523,-3.5188853288214776
-137.0,-3.742699694187425,4.27416529641707,8.01686499060451,-0.30575592966106324,-5.838764221611699,6.094615924148805,1.8857143186594842,0.005626852175292463,-1.6311110285619912,2.2272645251941268,7.128004348412891,1.8569512080294412
-136.0,-1.4613652604522853,0.902127138977419,2.363492399429738,0.3092095942635178,-1.8655343745716455,1.6674991656923956,-0.9826676447535873,-2.747111285731585,1.1469528863914613,2.1563662042009764,3.4879559112005563,1.940334149720935
-135.0,1.6446367198357805,2.2002734404685222,0.5556367206327826,-1.8985875845568765,0.5202961148095231,1.3406543723585385,-0.6978672082545923,-2.574887891295932,3.6933900359185903,1.7263262385937452,0.8884343064350835,2.786949097795125
-134.0,3.05162484583543,-1.0578680724628857,-4.109492918298275,-1.0526917117782344,3.5626610083090586,-2.5364839883158536,-0.8771566753494731,0.4052839762555557,-3.179305797336787,-2.14913464292726,-4.199900304157734,-0.22681849265699472
-133.0,-1.9408283527397578,-5.87078970743787,-3.9299613546980776,3.9326931189725247,0.9783188197071866,-4.927974804939275,0.009402549283586803,3.130751746374076,-0.7617916008080192,-2.333587877670647,-6.110568353077981,-2.4033835094990774
-132.0,-3.0573186862435247,2.712444789019664,5.769763475263192,0.206964081862697,-4.434687869794319,4.215160763503271,1.6718855963025434,3.565357835272793,0.646074245586366,-2.9199157169367074,-0.7336571972210995,-1.3309339265780444
-131.0,4.791730504811589,5.833599260883721,1.0418687560721014,-5.347692121096818,1.8428659900055164,3.4897240088658807,-1.8439768427701348,0.4395386377696777,1.0636413158537925,3.0957073928799375,1.4329908181179518,0.8222804591086859
-130.0,1.0444642606110914,-5.465795947418936,-6.510260208030078,2.1838109367097953,3.80999986128723,-6.017913721183975,2.344444826769858,-2.3687431075152308,-1.4956037696620794,3.207454172229181,1.3335092357732534,-0.590967849712207
-129.0,-7.262850527325171,-4.024274976593017,3.238575550732138,5.70022905756071,-5.231090341835291,-0.34890858456122165,1.1782746518211542,0.2832656004121492,1.7125082818563617,2.53354923296274,6.309799125750088,1.9721269906301966
-128.0,4.278227499218698,3.8802347310449647,-0.3979927681737033,-4.101543425436191,2.34959065443641,1.7005070998995182,-0.7259379568492079,-5.568498871440468,2.1413502977480285,-3.2552052519792483,0.3547821775184392,-3.1052716298684984
-127.0,-0.5168689002832185,2.1778535542172897,2.694722454500562,-0.8584358370131698,-1.5954569818128523,2.390336332801758,-1.2056754886623609,2.3855364211189745,-1.1040828866813506,-0.9141726821145346,-0.48154015497204306,3.62061587158866
-126.0,2.5117437105304457,1.3803696092030011,-1.1313741013274,-1.905309079521731,1.8375365173336549,0.1540225349749973,-1.5975709760636534,3.088646356657032,0.24727992667699505,0.1874148891027707,-1.7097329176821767,-1.5518593067879654
-125.0,-0.9199645177779154,-5.699025920607969,-4.779061402830043,3.2592306555386164,1.8769151750568416,-5.209385163854764,0.5664957227155578,1.113323814847337,-3.502386337729016,-2.357885978216593,-5.662322592578237,-1.2219341268745565
-124.0,-3.888525975616163,0.2853560503307655,4.173882025946922,1.8185910719749732,-3.9938127612229875,2.263272139034984,1.9917275209808674,-3.116161614727144,-1.186685895700562,-0.7794331771692263,0.1679681313377901,2.0038425183709307
-123.0,-2.4104398300400405,0.4420562657297861,2.8524960957698196,0.9934561562461153,-2.663657178675153,1.609228935002192,0.5669975593752771,0.0544687425308662,1.7652456163038075,0.8089985889341941,0.6896598044300984,0.9645515930794641
-122.0,3.388700164966631,4.36917831769696,0.9804781527303421,-3.871652924415258,1.1768502371210834,2.644996776023343,-3.6886051945703198,-0.10897851291564015,-0.029032097906059207,2.3921260945876606,2.965943216548424,0.5184703709563421
-121.0,4.951053009976464,1.5905165029728865,-3.3605365070035513,-3.2593103664217304,4.207398274098598,-0.8290252707464283,0.18769898785741845,0.3733331393992097,1.5259799137089392,2.108455343349128,2.8922036235284105,-1.1507758231177134
-120.0,1.4783282558357627,-5.082845454073552,-6.561173709909282,1.8226674255802868,3.9887857730560823,-5.840766988820853,4.0060423432573495,0.62793325969325,-1.2703639157323419,-1.969509921560908,-0.736333747981345,-3.8296489417275734
-119.0,-0.7958763769878139,-2.0676778639411078,-1.2718014869532668,1.384300391960391,0.2798290062299491,-1.6883365993091022,0.8804132314385207,-1.4969659503524086,-0.06246661910018074,-2.6178039354763665,-4.7333972866686596,-1.3335101500659223
-118.0,-3.562030380600843,2.0916375424093365,5.653667923010195,0.7759781432365507,-4.650591836565283,3.851063274772782,-3.2892111865610847,1.5494432869948926,2.5537655541439817,-1.1404058207798364,-1.7364343612146544,0.7926736984876295
-117.0,-2.508179910927894,0.3534547350087126,2.861634645936611,1.044889788824698,-2.6527685445297293,1.581810132555854,-4.1609550369510835,1.4778934213813093,1.207714492351481,3.7971015189992245,3.045907605762145,4.211885210145407
-116.0,0.2839054100719096,4.1802340070046355,3.8963285969327206,-2.2642164391519417,-1.8534133569981517,4.088529982689954,3.3891998026658037,-1.587812899873134,-0.22064718494651417,4.518513518205459,3.1151549748505984,1.7539414683361796
-115.0,1.4917485119438183,-2.766825627060708,-4.258574139004535,0.6799666481929714,2.90975472863642,-3.4618941795195006,0.9663319389987536,0.44311484527232736,-2.8204824415607717,-3.3336772033074595,0.24635550172953535,2.060718435486053
-114.0,-1.7226360590740857,-1.7574330448728315,-0.03479698579875734,1.6971783864099708,-0.8033384350166151,-0.9197295635281195,3.140636334663075,0.3647553186722834,-1.4893978068601894,-2.435359959566574,-0.5458366387329574,-3.1600485280669193
-113.0,0.7718866522044654,0.2655073095871183,-0.5063793426173571,-0.488975590425183,0.6082983637022281,-0.13720707134958876,-1.33731533172698,-2.8573281916970554,-0.5734662305260203,-2.01296978475113,-2.2743476614192533,-2.647103795194249
-112.0,-1.9750534902169,-1.0655644219624991,0.9094890682543948,1.5464386162569719,-1.4664544438048284,-0.08785085332835996,-0.22828930682624865,-0.5908733533523473,0.511064167016644,1.7901236664270286,1.938609799364324,0.2248843987705924
-111.0,2.202508626434775,3.051383664960327,0.8488750385255686,-2.600918871296847,0.6567879563810531,1.944829480854878,-2.7947291526585287,2.94125640929963,2.2118077495210207,0.12681680960244246,-2.0379953412535423,-2.3538242340422784
-110.0,4.447208211086181,2.013264064305447,-2.4339441467806844,-3.2801523348276533,3.499895171136346,-0.21539934655201687,-2.0920125466961776,1.8195414722770722,0.19926897516889763,-0.06694410809438212,-1.8414587534463118,3.255332502337184
-109.0,3.1015945702651138,-0.7737280451897806,-3.8753226154548286,-1.1309444494386018,3.4659988378984785,-2.334238234327313,2.39374088026942,-1.9941149151306943,-0.38356789606460584,0.870340829825665,-0.1585934788801075,-0.9560825679464484
-108.0,-5.922159501063831,-7.088346196215087,-1.1661866951511946,6.463351887460467,-2.4062369934285552,-4.067170257687467,2.7036635767164996,-1.8229612037581961,-0.26112472751284815,1.2365777630275976,2.415489097179788,0.6574217437487125
-107.0,-2.7670941944377843,2.4025728474251333,5.16966704186294,0.1429894525503408,-3.9248689148004052,3.7558030554714223,-0.43931558884011035,1.753038439194265,0.874006728580127,0.5803265283774024,3.3690498879865225,4.565283034903459
-106.0,-1.162616411729012,0.041873572182815844,1.2044899839117966,0.6012981639332801,-1.2250635869215114,0.5806329775999752,-1.2522261966435497,0.11233795000414243,-0.2098870327407416,-3.178772014654438,-1.0204204169336943,-3.006636620007557
-105.0,3.7965623524924514,0.8319912555725112,-2.9645710969200025,-2.272371838441594,3.414058481287136,-1.0405502884179336,2.0071068736281488,-1.6750971423151564,-3.0259113272903124,-3.389217321182133,-4.41224767679565,-3.5683039386992226
-104.0,-2.2779507012136806,1.6424804758757308,3.920431177089335,0.28214349443162945,-3.144462351646155,2.8005624953311545,0.33015769014714985,2.073892155168413,1.8461304255469078,1.7483998274911152,-1.9510870970010126,-1.65781651863013
-103.0,0.6216474477140452,2.1867773344791837,1.565129886765078,-1.3592347541577905,-0.43435943674690236,1.893540269006727,-2.9803782906998517,-0.9331427378255993,1.9046677282144597,5.672470257311794,0.8573479665514825,1.7442980595436006
-102.0,3.401974669729763,0.7191430859980381,-2.682831583731769,-2.0921732712786296,3.0865507638836913,-1.0392589759066686,-3.455234365235325,0.9350618250236453,-0.08793867414536827,2.2612415078528523,4.144626208048672,1.75062173645561
-101.0,0.3212752405256908,-4.3402133924445945,-4.661488632970321,1.9798985163263156,2.4643180556097457,-4.4715451534749056,0.8954981077466675,1.6694544825359992,-0.09772970640759843,0.21483558873838948,4.655553164030618,5.412644116155675
-100.0,-1.8104505830847062,1.3258746560180734,3.136325239102762,0.21429767216056428,-2.494599353973137,2.270568535330274,2.8695825707145923,-3.6119321234407273,-1.6035679673008132,-4.37354651233779,0.34279790523044995,-2.1510176475181244
-99.0,-0.9910001001260591,4.178220245158985,5.169220345285036,-1.5419127259347944,-3.0990636283421766,4.644236965498005,3.2480177520386864,-0.21489406478456097,-0.28889971976285733,-4.21741046627204,-1.4693747401397756,1.2278631810460843
-98.0,2.1779582215980513,-2.962774539440475,-5.140732761038516,0.4441815982028391,3.6384194109157812,-4.074268623134625,-3.057656099737005,-0.016555684376483804,-1.9951947204552483,-1.4962687619248667,-7.191265016452425,-4.147840413964486
-97.0,1.020874434576335,-3.7452952922935703,-4.766169726869887,1.3340050549824607,2.945921180545629,-4.275861643876804,-1.2768910358915848,0.5534616106196402,0.07111228920612594,-1.5473519318762703,-3.864748662321064,-6.284851336769908
-96.0,-3.3979802121282203,-1.8278122613539542,1.5701679507742918,2.581644125947266,-2.5175818917193817,-0.07304725489769992,2.8689382565071484,0.9217189161127239,1.942799978967739,5.428096250273677,-0.5208463432303116,3.1578309313605306
-95.0,-3.1852409479488153,1.9300705004040875,5.115311448352922,0.5913410709678135,-4.112038541998539,3.492132679858004,0.0559881249635316,-1.9616017077770436,0.6072647497980641,1.1454203569428194,3.373480218884237,1.604532508735144
-94.0,-1.1777112674385855,-1.0810802826580153,0.09663098478056176,1.1655967185729295,-0.6043860044692978,-0.4549335777408512,0.7623690729830547,4.609158299389323,4.024946361614953,3.9178592215474795,5.871674170225695,3.016191676380222
-93.0,-0.5946228689510942,2.4588753605166263,3.0534982294676887,-0.9021987748321939,-1.873247198097463,2.70254827037368,-1.7629538562728313,1.7021158047907134,2.1660457017484713,3.5116422081794925,5.770102980075901,3.5629431409200802
-92.0,4.734980098125638,0.43886766045108194,-4.2961124376746005,-2.6404003950410493,4.465485347749025,-1.9146434256955553,0.7898234077501014,-1.9543168747543636,-4.846432067243853,-4.143106990389223,-0.35695277585140994,-2.7375049125793773
-91.0,4.365863602592254,4.559215301207853,0.19335169861555812,-4.439087689327929,2.1162387588845117,2.3823845033977733,-3.028928945537729,-4.653711006083655,-6.256240740913819,-6.523511783651889,-8.5079904485059,-7.371535175768212
-90.0,0.1161114756088546,-1.1079319007933044,-1.224043376402185,0.5207282650202207,0.7031294800457664,-1.1629175589036909,-0.8678606012257262,-0.7180052973562323,1.679498575779582,-1.2150599848299501,-1.2520738631453172,0.6982010200425313
-89.0,-2.6953161148986413,-2.2666639259842403,0.42865218891440393,2.5097156054857654,-1.5247816352770074,-0.9136059296562797,1.6977361471614538,1.3023240021893638,2.52731081754476,1.7348993965907298,-1.7083624392030594,5.113072189853355
-88.0,0.2667086138618604,2.4649779529644094,2.1982693391025614,-1.4107800466742222,-1.003069099058953,2.3439263870364946,0.9386614138071918,1.60395946204209,1.0609359120115662,3.0100441387580075,2.9645996883354666,4.963895899419978
-87.0,1.2445655772366155,-6.232478594039904,-7.477044171276502,2.4538407988696793,4.326954234181053,-6.832898121669745,-0.5912205290986585,0.054627661302199204,2.044112328979736,0.4017909786833447,-0.32379655795266316,0.33912089657891453
-86.0,-1.5000165881876715,1.4824731608952235,2.9824897490829088,0.051068366897071726,-2.2729304629323748,2.185332442225809,0.43809173347698316,-2.6862126920507876,-4.7068618939266855,-1.7290703092674886,2.8654629724670375,-5.05335463771249
-85.0,-0.20448875454903792,4.795056608486855,4.999545363035901,-2.3292887961637305,-2.553816397995722,4.8577553171972525,-0.1973649525682194,0.8365398519969675,0.7625125989558497,-3.4826710928285776,-1.8519862659086157,-4.371392551538811
-84.0,1.4214150910838408,-0.39769939168072943,-1.8191144827645638,-0.4652935926964269,1.6691854101477968,-1.0653029470959057,-1.6241257872710935,3.8216971912269004,-0.21494645767396403,2.085265205380064,-1.7273376998786267,-4.534887103533063
-83.0,-4.994558007513028,-4.766534043783265,0.22802396372976202,4.850291671529931,-2.640188790200373,-2.226583425065126,3.0165805991840875,2.9691800494688256,4.157834384764541,4.909936811816247,3.0425118731286336,4.967069758590585
-82.0,-0.6169639765609689,-2.945293179966095,-2.3283292034051324,1.8321266781494612,0.828263405112108,-2.677434067859581,0.11515771793139282,-1.4712653654963246,1.4842126550550683,3.232613984107383,0.5528635878947564,5.185552982767174
-81.0,-4.247830607834596,-3.957370100572212,0.29046050726238115,4.077944829336421,-2.294483022418402,-1.8030455685852067,5.604951021426721,-2.5712101833943715,-1.1319463937476653,-1.2150596540334253,0.7759443045931484,0.6155809118342708
-80.0,1.4233974517717067,2.021831335448686,0.5984338836769835,-1.7438248946914767,0.4684364509110478,1.2525087719706152,-1.6547279987087016,-2.4508631149896623,-0.5733640841660281,-3.187061919398046,0.6939562927447647,1.1003141172151574
-79.0,6.913130773165351,5.174930823604093,-1.73819994956123,-6.061663424403434,4.305495821794464,1.730812360030086,-6.587075827741179,-2.2071499456471253,-3.5245425872869465,-2.3419531739440904,-0.5960226303686766,-2.153813981668378
-78.0,6.283121576705973,11.95269614236203,5.6695745656561165,-9.131882725071904,0.28859041190687096,8.817855982928913,-5.748152474751617,-1.232528133932437,-4.4441737154751095,-4.293418565056501,-6.146696085942349,-4.397348458648842
-77.0,2.0984244154658978,3.2337864562263894,1.1353620407605693,-2.59766264077876,0.5423730158744388,2.190367860560298,-0.7976615856340445,3.1869073409388373,3.763995073017873,-1.4693798642197176,-1.3818745257073786,-1.1040693533733874
-76.0,-6.725999313396524,-4.989046618307878,1.7369526950887262,5.850443285220075,-4.251995560265518,-1.6157870432790697,6.129351554261801,3.5848904825623453,-0.5670060801887438,2.8654487272072866,0.8490493499573193,4.078232444854379
-75.0,-6.327409135425848,-8.849582639337457,-2.5221735039115343,7.583219875068551,-1.929432741092288,-5.666854705403742,3.8418901290833487,1.1984435477763644,3.475358173741899,4.160740292994331,5.832220774827672,3.4695554654829195
-74.0,-0.07930754002188412,-1.532691939109922,-1.453384399088004,0.7998551077670628,0.6503318635063953,-1.463557188431254,1.7566621724960934,-1.2335927472238573,1.7181649096626925,5.3086284556317,5.006868922996003,1.764625881023251
-73.0,2.1886980099629643,-6.840369115017344,-9.029067124980305,2.3152601928152046,5.6386274034356685,-7.975079265282611,0.9071040909068957,-1.848237649835875,1.3304316381933572,-0.5411731940514426,-5.121859712218183,-5.51745862879475
-72.0,1.3281883387824942,-5.503484337842126,-6.8316726766246525,2.0691550996373334,4.0969782413500315,-6.203205469065579,-1.3407040352636572,1.0450654349388648,-2.7404261627251376,-4.027462457142029,-3.684242810720799,-8.237562930173501
-71.0,3.5554630878196987,2.521505736895443,-1.0339573509242923,-3.0671401234343927,2.3008212740058895,0.7077822499355103,-3.4340654596002396,-0.5220874711061017,-3.124364912492558,-2.6327714781157368,-4.049444545524077,-2.7911242018041613
-70.0,1.0821128700325058,16.108912660239923,15.026799790207392,-8.555802665351298,-6.973794871728797,15.606246612737044,-1.6303166985553235,-0.7429159042067164,-0.06993969451342696,-3.2054342799039626,3.6655427080878997,9.637253975406535
-69.0,-5.66858885383827,5.739536819214566,11.408125673052838,-0.004375179846694444,-8.543326571131164,8.606365093511561,-0.04434764968234739,-0.573093182477485,2.289985021545287,3.2143878576692635,8.024443299540316,9.333010070411069
-68.0,-3.637484468928969,-3.1541422988858754,0.48334217004313107,3.4212443443512055,-2.065135964464598,-1.3074373040610219,-1.4078017201254898,-0.5968485565877578,1.6862216912799872,2.2444318017780156,0.8723843109516047,2.1821935638602836
-67.0,1.2007180846299979,-4.971202791587129,-6.1719208762170945,1.8292341995556203,3.6846530303120195,-5.623665078970764,4.272908433092102,1.6416124154984628,0.9108222211446987,5.160765143992122,-0.030439477109099222,-1.3744680240711622
-66.0,6.77110724881799,-2.4145456482857233,-9.185652897103719,-2.156036085295235,7.981335983659655,-5.770876737797105,0.4201504528379467,-1.3349407162866946,-3.021890062632036,-3.2259378726104684,-6.880677217210607,-9.232339492173399
-65.0,0.7901108072786944,0.1893950492274259,-0.6007157580512992,-0.5455162423587963,0.7033991779505611,-0.24938365903445892,-2.3672329142605655,0.8505715576309918,-3.27941464125018,-5.962683817884808,-4.7582949136367265,-5.691958379197197
-64.0,-0.40214848495572064,2.3522277012380344,2.754376186193702,-0.9506548048196872,-1.5656134341781232,2.595751775886669,-1.398863324601488,-0.05369677251961469,-1.6856513160836681,-3.56784127354374,-3.0065238780233594,-4.433142129548074
-63.0,-5.091509556120097,-1.1994709042496603,3.8920386518703975,3.171847829893675,-4.553793199252623,1.3169280270774348,0.994236048916496,-0.936605450666845,3.1327385205287275,1.4918375584311983,3.7758813706464114,4.5970974572203165
-62.0,-0.17236466259456718,-3.7568105291774345,-3.5844458665828975,1.9937002640155679,1.7265917560682753,-3.6168584047894243,2.575133022382334,2.849021376025548,1.4040844540540944,5.119727051439783,4.64405142768921,5.050653305138601
-61.0,-1.2096115689749514,-3.248945729323274,-2.039334160348328,2.183390690504264,0.4395360931387533,-2.668842163484533,1.1591098342450827,0.9316011865400233,6.232541862316003,4.55243078859713,4.302169035704374,7.547823121510956
-60.0,3.1416462955088846,2.3870427208940033,-0.7546035746148593,-2.805440241031973,1.9775924401119003,0.787284218793656,0.30465456574078864,-1.3298439289361812,-0.3374836799145795,2.646816386214703,2.2396133214092346,-0.08358681238197274
-59.0,1.4698114604726098,2.0436577597095718,0.5738462992370073,-1.713450011282187,0.4039949225171495,1.2721103098678115,-0.8312164771503727,-0.24269296447346367,-1.7424277840276599,-2.180835575917229,-1.8319957621138538,-3.6616937619848615
-58.0,-0.4421521797961323,-0.22995936843476228,0.21219281136142465,0.38524485514591555,-0.2872983054026371,0.024365026598514472,-2.6244566410871903,-1.8622601110821564,-5.951997211342372,-5.7095472633660895,-6.471633257663555,-6.72506411794175
-57.0,0.6812278359200259,3.570491826488826,2.889263990568838,-2.1502045303408073,-1.1388137256971094,3.255950608111161,-0.5847730430543647,-2.053530814831519,-2.116952916904678,-3.191564490220532,-3.4439862145171305,1.256308720243167
-56.0,0.609685138198692,0.9126129167691299,0.30292777857045294,-0.7821157687962346,0.12107322956303523,0.6306336834121806,-0.3781077420094649,2.5297299736374983,1.9227181627132404,-0.9730327577768465,4.024988634886682,1.8672336902151552
-55.0,-1.7546205048530936,3.6943449938116295,5.4489654986646885,-0.9901796786297039,-3.5544546186185118,4.517366363306883,-1.116526750987635,1.0466869937218086,0.29006533994938466,2.9463859507444434,1.6545031495218125,2.49524489225778
-54.0,-3.6506654163558183,-3.9513385238767196,-0.30067310752097476,3.7783655146577124,-1.706646861857889,-2.0960607534107822,1.5811412233623123,-0.39662566876020544,2.8507736810392434,2.3115949143267818,-0.13298317305284257,0.0006044757909745568
-53.0,-0.2798986881450156,-3.0587442318820046,-2.7788455437370607,1.7205994103522155,1.2957891492341493,-2.881848524206852,2.237525841883883,-1.017577882004626,2.9648540383016098,1.6878575465214878,0.5149951347607753,-1.4474765257347346
-52.0,6.862575650333286,0.12583034097281987,-6.736745309360484,-3.4494317310610985,6.766247867243649,-3.3417535649059067,-1.3816061547095295,0.5763363195891917,-2.598896786230094,-0.6834480718225824,-0.3301214754787615,-1.5129310486057066
-51.0,-0.28161165616719464,-3.8883394478478017,-3.606727791680586,2.043726748115944,1.7066814160958268,-3.7824183481979157,2.196786101440874,2.104885651869788,0.1775273208520367,1.5323629520234525,-2.1747234778627593,2.166571624210079
-50.0,-6.620328113422285,0.6321986008566671,7.252526714278966,2.945655539600622,-6.972802271832148,3.9823061768082533,2.066654234565487,-1.1300870072583717,0.5534386807043599,-2.5930074921152295,1.1308608530625561,-5.075114168787421
-49.0,-0.35638424128212676,2.500078959782895,2.85646320106501,-1.0476296464266073,-1.6453362937867761,2.6308351691526135,-1.7704498918226443,-0.6335321890143698,-3.034544484034977,-0.25064224927816525,-0.21068546716686543,1.2576217454597742
-48.0,4.261670281302308,3.818421666296384,-0.44324861500595336,-4.019920245154592,2.3889971176684766,1.70787569224463,-4.130171162857791,-1.3011723415858403,-0.39393053732303085,-3.347874598387839,0.7926063095105697,5.6901055694542935
-47.0,1.197198260591103,-0.476455912843885,-1.6736541734350001,-0.3414530981323711,1.4682238627601616,-1.0649774166040578,-0.5264295753808292,1.9225869159422442,0.03639184453810973,2.8617072481665846,1.2951198239476682,1.3798374064486323
-46.0,-0.031767070476970916,-3.5109270988315906,-3.4791600283545963,1.713593932985642,1.6739966997895102,-3.4913751786231373,0.5976886289809249,-0.5096832959890625,-0.9855522149363394,0.5366206735381246,1.5493440006280292,-3.9234472581753144
-45.0,-0.3483871475757552,-0.8622198897476759,-0.5138327421718488,0.6313827624599977,0.10836098167319258,-0.6852439437254034,0.2126107660557373,-2.3579334846619964,2.465308783485638,-1.1150832697446222,-2.124669702563374,0.18350350530641912
-44.0,-0.5076684979698173,4.236877596028142,4.744546093998019,-1.8314832487358477,-2.603379144101765,4.497967423834283,2.317027450135722,1.3675389603842605,3.1149492766317115,2.291364687093869,-1.5091351466793776,-1.3699304222580893
-43.0,-0.6757428783904362,0.7668606894799177,1.4426035678703575,-0.08388182722247449,-1.1175828187281562,1.119804342801744,0.2881164391247093,2.079797463245689,1.5421134586879557,0.2070881486212871,-0.9868587045555934,-1.5096661979844161
-42.0,0.6364614406125916,-0.4149584347804056,-1.0514198753930375,-0.06476196852718832,0.8623546664328141,-0.7101149751894829,0.9025414556020326,-2.1084384894105233,-2.9365398584357867,-0.3908802001698708,0.12604439533512612,1.1112113547714344
-41.0,0.8494351464069942,-1.309679577440453,-2.1591147238474844,0.19942872070542095,1.5211033999357897,-1.7849926733739772,-1.1966933035751521,1.1515829141205067,-3.675344731052732,1.2777789654743135,-0.48904763836901566,0.4874281560229293
-40.0,-4.734571482585588,-5.374813192109797,-0.6402417095242314,5.021708935300827,-2.0317783599529715,-3.0577716148791954,0.4833633499122585,2.227076140279476,0.019921969284661944,-2.4777294386200523,0.4169553967880559,0.028996760211467576
-39.0,-1.6698115573970918,-0.9807463444607714,0.6890652129363137,1.3648605943857062,-1.1655732617002266,-0.1214784505642661,0.11686129765229492,-1.6323022358687522,0.6029961756204627,-2.2188343515312625,2.8837092606043235,1.92539164264255
-38.0,5.136225882242249,2.281953442062757,-2.8542724401794706,-3.756569748730486,3.9287122384783384,-0.2683231189626858,-1.6000319852153237,-1.6608428622463112,1.0413510152195906,1.1087502589043194,2.8618104238590525,1.9033935705512754
-37.0,3.437045215589678,4.157547729424065,0.7205025138344163,-3.7739219960806123,1.3690581218887052,2.450949725697293,-1.1505630220092244,0.12771320249658602,2.6505753438530752,-0.21164309795551917,-1.0464935558581647,0.5838307501596489
-36.0,-2.843762426665209,0.011357317026860603,2.855119743692082,1.4345422525857585,-2.8390628696497977,1.4424307132834033,-0.9839657862722957,-0.1934385278051612,-0.47091148865346066,1.9488661959032338,-3.6114650053987005,-4.318451653915136
-35.0,-2.3502737735332446,-0.3658901487229968,1.9843836248102469,1.3757305054308127,-2.1554223680823905,0.8200200160733309,3.062012827607221,-0.42699725390334703,-3.996997163587194,-2.5455822665218544,-4.551007213812038,-3.877117204527838
-34.0,4.469711814973026,4.12921822947569,-0.3404935854973594,-4.278111219012345,2.421029616499687,1.910445298191124,-0.6722112721328466,-1.4246606152203127,-1.89345036403307,1.76756419066382,0.36052912057033915,-0.40088928236790133
-33.0,-4.22730429126066,4.056277250123229,8.283581541383866,0.03497188903688586,-6.233154885210217,6.114454844378225,1.3525628120496673,4.818357691210777,9.016971319050544,6.460489014516662,7.825589191203739,8.022167107506894
-32.0,-0.9382188555184643,-3.409175012462199,-2.47095615694374,2.131212967228846,0.7177722927094601,-2.909906693153413,-1.657016961035659,1.2371546748812017,0.724554542104237,-1.3775990029253524,3.2499694554229395,3.248870444065439
-31.0,0.9537438159597806,-11.93355282309613,-12.887296639055899,5.533472703740245,6.880104748165735,-12.454060033887341,-0.461088307624941,-2.04978844036024,-4.0197295256365955,-3.758224572187232,-0.9537561334735769,-3.795884897404995
-30.0,1.5162185533759054,-5.313853172705091,-6.83007172608096,1.9474096830377083,4.218799130572815,-6.034335281650295,1.5912869854474376,-3.811584406033237,-5.661416384703966,-4.743083463406487,-6.549591884847047,-6.8093360282693585
-29.0,3.2403884561259066,7.576212990988042,4.335824534862169,-5.436604771625001,-0.4965726815005487,5.915530877897271,-0.5629273691560165,0.11620183248075411,0.39381357586861965,-1.3856737845067044,-3.0803191005845076,2.053523407685526
-28.0,-2.485549229208008,5.77400308723845,8.25955231644647,-1.6740014269628247,-5.397149320779183,7.054974426063558,1.1387967249748523,-0.6629027623194313,0.4347333270794257,0.7939605834982353,-1.5469119696622802,0.9690384819292831
-27.0,-0.517363446572432,-2.621925146098718,-2.104561699526296,1.5357192688125578,0.7693724800873243,-2.324658768628632,-0.8753338626478786,2.238868806197412,1.215447371657274,2.2855505199075723,1.3902691282509705,-1.495820204952963
-26.0,-4.173712988617929,-2.5067284921185555,1.6669844964993552,3.379496072800468,-2.946197261852256,-0.4585418095537994,1.774720134666668,3.1808440835377816,3.625630998051158,2.5699903142529896,1.4311585780651237,1.634016023588485
-25.0,-0.5237923334802652,2.9474192936795567,3.4712116271598332,-1.1780284239518828,-2.025481444100933,3.1732727045515157,-0.18872311404259784,3.587496645429126,3.3200455099808304,5.409283335390799,5.0770288580202365,1.8629635430510774
-24.0,9.950888862153477,1.8154531195396888,-8.135435742613755,-5.853709185192103,9.09316765794798,-3.1139778238055653,-3.5383875725851945,-2.4724105287916016,-2.094784345853852,-2.9956694150873413,1.9841483863542246,-0.6448030135057542
-23.0,-0.33991562569771316,3.307300471181005,3.6472160968787444,-1.5356134465414109,-1.9415566396916315,3.447818002616551,-2.589416365802209,-3.727235639889657,-1.1772242308157421,-1.034137375428894,1.8974966157971995,3.855781252225331
-22.0,-9.541075961107019,5.360667116517929,14.901743077624976,2.0374459694314275,-12.243219207562577,10.183083838171079,1.7789370678978385,-3.0358810606870446,-0.29179567528866945,-2.216134881745471,0.44495679280563394,2.6633370286560005
-21.0,3.4212080036760097,-3.677386832428465,-7.098594836104406,0.15500392514128514,5.244693635833466,-5.413553685366417,-0.8387183347806237,-3.1090867781939506,-4.498118336952071,-1.9982472584258764,-7.799489744523487,-7.334191981301853
-20.0,1.3424686085436757,-3.364456067111568,-4.7069246756551575,1.0404447587775465,3.015648244799179,-4.061311952167211,3.6265492740523135,3.708001528596178,0.4242742637124559,2.775199957943718,-1.0531496088517303,-1.0994338820748557
-19.0,-2.815859494999608,-6.71590692983982,-3.9000474348401237,4.798974913210742,0.5367402527968488,-5.334549776309138,3.786368046360084,3.792556140107402,4.605737897036396,2.722987311334198,0.7182678822181539,2.700869412980241
-18.0,-2.7758883492366575,-3.849742222259047,-1.0738538730223262,3.2708332867982284,-0.8562421564341245,-2.4105404822415553,0.2035249204606382,0.9424614954196495,-0.696479542109802,-1.2723883113297425,0.11015826709929322,-0.7768489777026006
-17.0,-1.9846299467349708,-2.78890535179756,-0.8042754050626229,2.4258076172387915,-0.5986716817146455,-1.824072451773962,-1.3332771463820605,-2.2302574555892125,-1.4051511825242953,-5.262254943237539,-0.04824832224358144,-3.1137241828436384
-16.0,7.116608173948098,8.1453351014879,1.0287269275397461,-7.6710533379536425,3.0299845125182814,4.639518915705833,-4.301225981920488,0.8063014887839507,-1.9629460674071832,-1.9555414276241614,-1.5292414691295768,-3.013650177398521
-15.0,11.28415763240994,4.271993168741238,-7.012164463668853,-7.821580225462673,9.206891495774775,-1.3946174066054002,-1.3986424325055387,2.5623389946103208,1.6602458558486266,1.6558188836833159,3.416653239487316,4.690860942834381
-14.0,-2.257911328543394,-2.4789423942914572,-0.22103106574821796,2.3979045894077355,-1.043889390701696,-1.373837104959959,1.9947370627681764,-0.8883989319679497,-1.1448077847975617,3.2730504310645245,0.15196287437407374,2.626833275365666
-13.0,-10.005857432634699,-1.1168673971252023,8.888990035509341,5.584283394183982,-9.398472791532043,3.9387524882040554,1.2819857911170338,-2.5043878891975377,2.9938810778553644,2.9633107116190276,1.3410346625182972,2.264523582948579
-12.0,-6.289546178131893,4.008461668863131,10.29800784699487,1.1578609003698945,-8.327087510065082,7.120767250718635,-1.5442664163934054,-3.4767638178269076,1.2391891924032536,0.8756553840963817,-1.1145674995282682,-0.5527412417573725
-11.0,4.235634248360258,2.003215499986223,-2.232418748374129,-3.1054594077967375,3.197648124774422,-0.1577222317610687,-1.6226017033197344,-0.17626396885388473,-3.1464877801740117,-1.4660593056178686,-0.2785696262320785,-3.5107107295532467
-10.0,8.02976618532701,-4.224958623175684,-12.254724808502653,-1.9677224012076198,10.10324587578242,-8.217535668750491,1.2254233289501522,4.739795977771543,-0.25154971747258204,-3.361665852269498,-1.4746578921092872,-3.513173176618412
-9.0,0.9939097364363549,1.935826262488769,0.9419165260526299,-1.4492042749315552,0.06407903426069783,1.448134930227817,-0.1989831554856708,5.972342826579452,1.4933109861305287,1.3150898738510541,-0.39541275720106484,1.928342840181008
-8.0,-5.280943929005096,2.81189095451714,8.09283488352262,1.2547577185496002,-6.648985760836682,5.452377131339488,1.4114324679237225,-3.7836279797698396,2.0196939219443566,0.3337721105709597,0.07397267458151391,1.6628526927969172
-7.0,-6.185774169984132,-0.5077277894967507,5.678046380487764,3.3732555373453628,-5.892828418105892,2.582677979274205,2.3948831866218483,-9.414335736483828,-4.913661997107098,-2.389721973191272,1.8854319159511124,4.506234088950114
-6.0,-5.012052932712965,-5.206067406934505,-0.19401447422140716,5.064062354822921,-2.447283400956458,-2.6968816765184487,0.5346900072430824,-0.7949514016892789,0.06780717732552133,2.1888382182688266,1.2272173908275186,0.13625223218287352
-5.0,2.1635708303538843,-4.955022812212081,-7.118593642566243,1.3581724999668006,4.602678613408736,-6.02068109733509,-1.235534981729581,4.31266184637469,4.926057205043005,4.3102638419380765,3.512919501468695,-1.4950764724951893
-4.0,9.606153827059233,-1.8444612435790284,-11.450615070638687,-3.832841575074302,10.565496211966861,-6.614096914754832,1.1003524581441577,9.120467132176017,3.8508956929088107,-0.15555384563433883,0.4999002451975154,-2.815233774357584
-3.0,4.359454710297491,3.2079493340151806,-1.1515053762828238,-3.7304861611640523,2.70700570998987,1.000153692329106,1.0747341248914657,6.032234032238955,0.1055258943604267,-1.4898581834805316,-2.6007351174257765,-3.710535065948153
-2.0,-3.3402922496325087,7.099754974140174,10.440047223772279,-1.9027024964432453,-6.8694339729881095,8.754450474990115,-5.418495332466551,-11.284094430275376,-9.090659111138919,-6.516535744998234,-6.796721532359667,2.145793046954047
-1.0,-2.3453473179234017,0.780685744085547,3.1260330620089496,0.758489064393219,-2.7251389635907772,1.9426996292272367,-1.3654999227999571,-7.716186833234993,-5.700687853043209,-2.6178236961129246,-3.6567557450768517,-0.8089172518489809
0.0,-2.3016389955566043,1.2705204870858542,3.5721594826429612,0.4874821872958186,-2.934643451523007,2.4068632844303393,-0.09698602669852335,-2.9372000376451526,0.6969226476296997,2.339309038188812,2.0335392143216175,4.281375635776419
1.0,2.671738458610462,-0.6410951038555119,-3.312833562465361,-1.0496887140024138,2.9903161731185577,-2.001989226965218,-0.2176280730715936,3.28521851069152,6.152408492144371,8.892807392288482,9.707241260323496,5.6271747918140935
2.0,9.992787085768514,-3.1402088829399024,-13.132995968708045,-3.3879501574711615,11.561920715772875,-8.096337422326057,-3.534998533087679,4.98452851457189,0.9865867773119712,-1.9451025273337628,0.1117995273516339,-4.91461271408159
3.0,7.910168019638053,-5.4120367753222185,-13.32220479496036,-1.2141472149736556,10.621237442372879,-9.338828104624165,0.3072319753557222,5.250135568775453,-0.058668129753985276,-5.311843960057271,-7.041755351274144,-9.349268527471676
4.0,-6.544363173215528,-2.7329196933385154,3.8114434798765773,4.674114036005829,-5.1632788214559975,0.560621606027869,6.522737730027694,6.058791133060667,0.7306321795384467,-4.404473801761398,-5.858837332063209,-4.602333880930827
5.0,-18.963532220663705,-4.703294456249557,14.26023776441365,11.794344480987021,-16.586372915406333,4.720960438815405,8.494590836209476,-3.566971557345825,-4.012225459190381,-2.6770958688729367,-3.0246911732174517,2.129841974900179
6.0,-20.62910184294365,4.815210055788468,25.444311898732018,7.873914593489062,-23.079935282782838,15.157484570455189,7.423322282539577,-6.7105212795466045,4.483492136394153,3.987684011167067,6.4377127283968,8.7911506560369
7.0,-3.9579111147476818,10.871952691114787,14.829863805862589,-3.405937197400163,-9.42929499190997,12.811156151631195,-0.3584231865347015,-1.0309110554870182,7.613145995899435,11.585488158152279,10.742796542699464,5.231927884894626
8.0,19.653518476518617,12.186104681724247,-7.467413794794126,-15.944931567286506,13.530693094576948,2.4115983931860505,-13.573257429657913,0.3584512243935154,5.684476813568642,12.856841696387717,10.976782402773143,5.54611506977863
9.0,16.817033185151093,-10.140740564633836,-26.957773749784845,-3.3645325806256485,21.940847091294163,-18.563663314736456,-11.694287300932103,-3.6004412895804707,-9.816370682647888,-7.708583045057253,-6.339371440300579,-4.273951577731915
10.0,9.978464284731036,2.511836545291188,-7.466627739439918,-6.276181147047495,8.78040872139353,-2.483708489468871,-5.268281295606871,-4.0359368999198475,-6.478703546036994,-4.762301933569026,2.9986715521985516,5.991508687403694
11.0,3.3520813627750603,6.139739548710327,2.7876581859351024,-4.704699689074497,0.2659649422282637,4.4595718753843805,-0.21855355186708392,5.160388893300403,0.9375975349791865,-0.24858344745422212,-0.27308827816335324,2.7738247529989106
12.0,-2.369038953914858,-15.150518522362951,-12.781479568448162,8.794386043375145,5.193915993726432,-13.974375215015424,14.829147890127212,8.085199740522267,-5.364228192028547,-14.56220303569163,-22.79968971070047,-19.174905370425115
13.0,-1.3445378957246827,-17.932662598632767,-16.588124702908146,9.667682444521194,7.611127126490709,-17.27846585102415,6.6952304173662025,4.764225048868854,-3.2373115632981886,-10.95885716519762,-16.53635603296429,-16.0288104666447
14.0,-6.7015362498174404,-1.733980527507307,4.9675557223102,4.163858988940811,-5.847163858377073,1.6645451772047795,-6.142835008069955,-9.371883292453996,-3.763275140577457,0.8967618929339948,2.7211310178349697,1.022457768585915
15.0,-10.840911674592107,20.935211566315832,31.776123240907953,-5.02566326424383,-21.326743201253052,26.311361812000502,-1.5868325235406227,-1.79127650517171,16.553291992297236,19.909173863934726,24.829201540595037,19.589643819582566
16.0,-10.895160743568969,4.790541969466492,15.685702713035177,2.9921919070820224,-13.316484059309754,10.26153331999979,5.598982142708884,3.9757787154638424,8.173136838664846,10.048613945328782,12.105843485096836,6.690350040939618
17.0,0.33420593444115365,-3.1858074640795415,-3.520013398521151,1.4423667207218887,1.972215144096137,-3.3364098535851667,4.426303183289622,-0.8420880050939853,-6.210331315160053,-6.493669346766627,-4.323169720585476,-2.6150044061546325
18.0,5.352899954402992,-7.201784489570963,-12.554684443974173,0.9406869333434367,8.993987362923805,-9.863891415288986,-2.2650513840227986,-2.80018393934804,-8.553517092575445,-11.863919523209173,-10.779485530385276,-8.943801128326514
19.0,-0.49623605001948334,2.4579208013447404,2.9541568513643455,-0.9620090884200341,-1.7645630581459653,2.6436349768929057,-0.14514195979331657,-0.6089457002882347,1.2305595423189422,3.7964809055677415,-3.032344457128392,3.083573822187406
20.0,1.2573849420448617,2.328116745565639,1.0707318035217828,-1.7676964287796695,0.13587152430970129,1.720427336249431,-5.962820376262208,-1.81682837057911,5.220944136326727,8.414205846353003,5.4794571289030705,7.486537173829017
21.0,9.11747191676222,5.609036618544112,-3.508435298216991,-7.407248553818761,6.282422661150381,1.0766532755754383,-4.980129212059344,3.7018319734004526,3.44603592375877,5.461077503945494,5.07031373955101,2.028058183017495
22.0,10.654381853080793,9.424375807305873,-1.2300060457740418,-10.071275967014792,5.9177863355163955,4.127661781635214,-7.087413631660091,5.118769710008953,1.2304805006742519,-0.35696155081466396,4.894845018326946,-0.9665061675420359
23.0,1.0570874840167583,-2.6834275547518818,-3.7405150387684927,0.8727037967789224,2.3791406350523454,-3.2586948174404906,1.0026062102609663,-5.657303532821127,-8.155626576747888,-7.9625513157701135,-7.154655603799204,-6.623281466334911
24.0,-4.914624941223167,-12.540334161300395,-7.625709220077675,8.719283438519096,1.4169737128255198,-10.131062950496322,2.584678447435927,-5.4238383947271664,-9.543033228679814,-11.035419248294641,-10.174420951134598,-4.903973038380911
25.0,-7.799547003206532,-8.566101001736143,-0.7665539985302778,8.181674386713174,-3.533977988172758,-4.638832234428312,8.791803538038394,-1.0670896251499944,1.6423641903416533,-5.518112782783609,-4.89197971932252,-2.024053656786797
26.0,-6.260197591552566,-6.740249210844737,-0.48005161929301465,6.500266866471745,-2.909587119181733,-3.585845714830715,13.142590276508983,7.490643818156187,4.949378791966757,4.931810069776496,3.9360748580695173,-0.5698879490843307
27.0,-4.343531949746658,7.102576693379559,11.446108643125388,-1.384986993989537,-7.9172082490548465,9.297561314734647,-1.3517871358044387,2.48536500263839,5.662811948608571,8.200338771878224,9.453555538251459,9.607828899668393
28.0,2.1596759978977573,2.5837638161341454,0.42408781823578146,-2.388728670926557,0.9214560402610097,1.4507796272722988,-4.9120313536541875,1.7499395102513053,2.995136434359876,5.622031208649649,3.5446352532713554,1.2874305157741448
29.0,7.140902706007363,9.08379142761022,1.9428887216027713,-8.144674313779046,2.5719982536383905,5.544876817386981,-4.321628129606046,4.000149367228053,2.4914757098802154,4.462863824972019,-0.2585147549668436,-1.82049666998196
30.0,8.847444320291743,7.909998748652681,-0.9374455716385159,-8.348019213906158,4.943019578919744,3.5259983112270277,-8.601980141381015,-1.8619622182200588,-4.5967637366014555,-3.5589738249783776,-1.2116926239615147,-1.9284294280230614
31.0,3.944592154262146,3.3167367839870283,-0.6278553702740384,-3.612579610029947,2.257101405047962,1.31359432623758,-8.321193293248811,-6.490005390905944,-4.737484084376383,-5.521602189716965,-3.890672466075023,-0.466663894529011
32.0,-7.8842981020592315,-9.448109042677052,-1.5638109406168972,8.677305102207061,-3.190689701754817,-5.531061453156841,6.078903463144005,-5.246544062605056,0.8370709766968676,-0.43641375246771474,-1.020829572712858,1.2703360630804639
33.0,-11.948825644388155,-8.726235079645122,3.222590564743266,10.348099471334653,-7.6180148737189155,-2.775361229760363,11.781502371264619,-2.223305873997117,-0.6189944643955232,-0.19383035667501947,-1.0489537762756245,-0.5580350459301483
34.0,-4.019306551112069,-9.077777935565061,-5.058471384453632,6.56409670435639,0.5641010768671504,-7.0160052556266335,4.044515393464812,1.402983639954123,0.1804636262865965,-3.9560142716026085,-4.939426148143395,-4.797200741398373
35.0,7.877698315253877,3.686209616790503,-4.191488698464147,-5.83668389588359,6.077991583187196,-0.2861377700248253,-4.73300147981947,5.366025262773832,-0.6943305934898805,1.1734481221100939,-0.10779828454698304,1.4351670157993224
36.0,9.223675027841022,8.397087100076948,-0.8265879277646557,-8.855367002664272,4.990262120643559,3.821706051979718,-4.605326146240004,5.288662759397593,4.425797684180631,4.535702141010158,9.483567398609834,6.789767088938617
37.0,2.6487692026731064,5.989502207275445,3.3407330046022543,-4.27600461160129,-0.3783899049631887,4.614305542817699,-3.806410404577977,-2.3142079396807027,-2.4944751025595493,-0.16270666823674107,5.66873761314357,0.5449877851719238
38.0,-0.0338133434610115,4.183461420194637,4.217274763655874,-2.023634710772973,-2.0749097164087966,4.221974713111905,-1.9325099946403528,-5.0647359643378635,-3.4579404498795623,-2.8712030708136105,-0.8411792806145422,-1.52399652091212
39.0,-5.049003221976304,-5.096104117091765,-0.04710089511515125,5.051304697462329,-2.523546847703969,-2.5530723575111196,4.7081141043464925,-1.0931584844044988,1.064335429553275,1.410657721147274,-5.172822781300828,-0.9686376393240952
40.0,-12.788423251358564,-2.5940493331441683,10.194373918214543,7.674351696939576,-11.508200742691457,3.8188043069967197,6.22933124398332,3.478304368713898,4.899993339942948,2.6237832861255006,-0.9731606089937541,-1.5395010899091144
41.0,-2.828828124169357,-3.227386861453674,-0.39855873728422075,3.013617679818545,-1.2270859866819648,-1.7920889306698462,2.6876812525341016,1.6667182618292762,2.5266624812477074,0.3445861483177708,-5.671585804305333,-2.588200650900183
42.0,6.3736279922403005,-6.10505170583248,-12.478679698072632,-0.14814330377363416,9.495478397808517,-9.346800211278282,1.6155994197047225,1.6402667096392567,-2.139944564613742,-0.13044764147285154,-3.7946648153326095,-3.9039874361460276
43.0,5.033977475688406,-0.7612822047544234,-5.795259680442519,-2.0721554881517594,5.404049429740574,-3.3306024245645456,-3.7893040157995648,0.45123154580079794,-1.5200047864057635,-2.5284737378886186,2.2700199773810863,2.233316800152201
44.0,11.368323150581878,6.901207344666966,-4.467115805914826,-9.150833840272178,7.901461260847589,1.245639820822701,-6.586117167745657,-3.2325221776650594,-5.525999977589362,-3.944583337433512,7.004579356448925,4.392712899290581
45.0,2.4223462552347845,5.71857097073086,3.2962247154959523,-4.088269727336767,-0.46323528758204047,4.538393115165803,-6.857210616197361,-1.3718654776557297,-1.7770764982336038,-1.7534123114036115,2.2277011486782112,1.0403424742162861
46.0,-2.1751747396305148,5.6555138207789435,7.830688560409148,-1.7592841583982315,-5.041906854314134,6.777413397362501,-1.1357177213594558,-2.1848391502212188,5.062440115728254,4.448763207112927,-0.5018925952725124,3.49200620452635
47.0,-10.198966435075207,-3.8828756906979276,6.316090744376943,7.0217249250024745,-8.23001022555762,1.1763912211400767,9.355125933187345,4.026965256153931,7.912088735340753,6.285524449890174,2.7391609118313016,0.5608314029935416
48.0,-5.249258148159508,-9.594186557824687,-4.344928409665366,7.483122167695817,-0.4329577033629022,-6.926862774674664,4.301210152924473,-2.761595227906885,-4.318535016776956,-2.6180411817961056,-4.939408277169931,-8.610224731126287
49.0,-4.419217808370176,-4.085595911028439,0.3336218973417231,4.239083191882356,-2.3589251741601545,-1.9094913061362182,3.725580740034699,3.0085650483933337,-0.38675026028305426,0.9217636716078332,-1.5166441761180574,1.850062379897465
50.0,2.357165038207541,3.4889727188392397,1.1318076806317938,-2.930704875889574,0.6357030914028279,2.2764349660108802,-3.208783212166263,1.5952588906314282,-3.3196238551887958,-0.1881413414830322,2.5256756348371083,3.793276147551106
51.0,2.696921477915418,-1.279541887136395,-3.9764633650516483,-0.7102972421124774,3.291963078599588,-2.587199661559016,-3.3973527333872946,-2.6017247141792748,-1.7826115867754122,-6.305235515850956,-0.4448252432786844,-0.5078507873362906
52.0,5.796829079683875,10.15207630298811,4.355247223304367,-7.97150522553985,0.7675890134304852,7.208795853432818,-3.6338277879601897,-2.0023682842264674,-0.5730188313136866,-0.9095743527482676,-3.0828316857143894,-2.177946272188005
53.0,1.981675186577612,1.2539604026809896,-0.7277147838965021,-1.6135810489302038,1.3329345249990858,0.28871500196560973,-1.6739655433904552,0.5818365616694812,2.665814503193082,1.4222531802972644,-3.007671065514186,-3.9560136445071636
54.0,3.3173153472443433,1.7581790089297495,-1.5591363383144914,-2.536690589011084,2.420528147871069,0.11736155462875575,1.5195046760173452,-0.3907235702701902,2.3832349218070426,3.647354425097146,2.978993769404388,0.2504539240230985
55.0,-1.4020515292348987,-3.2354608079420153,-1.8334092787070548,2.3120202121393856,0.1944578267510335,-2.522177523556716,4.241376474631515,2.6286167391010684,1.5344355171542836,2.208150660576359,4.269936414128663,6.8210606650968515
56.0,-4.508664649718229,-7.326895192149313,-2.818230542431085,5.89978818780695,-0.8763859515692165,-5.062770025429452,1.2575138449486358,0.5710476800627602,-2.5361045564024067,-2.6950209330244257,0.37543653816141376,-3.4290969773531117
57.0,-2.8514108685517625,-5.88364093494871,-3.0322300663970396,4.337093117401457,0.1249418669293525,-4.525998505471589,1.037269916124533,-1.9310843506332134,-2.868748330587544,-2.7872897437204127,-3.3292296854483774,-3.234461901757913
58.0,-0.8397279874891757,-1.610505299952874,-0.7707773124638606,1.2625919017648184,-0.01191640337036648,-1.1759689139676661,-2.9376032274315014,-0.12935475379853223,1.03003397553071,0.11152443899046838,-0.905474375571198,1.8916987996583017
59.0,2.6684443861976908,10.788122683297395,8.119678297099533,-6.697682601808581,-2.7105331056488082,9.475028389536932,-1.259310577148371,1.5496869874466164,0.6628053647603324,3.1895909496543595,1.499554537395717,6.007838957254842
60.0,1.5414577234078284,2.4757912200945817,0.9343334966866026,-1.979797968440689,0.31714828307687415,1.734125291864932,-1.7490330476075762,-0.3796056439671647,1.8497466742809032,-0.517120623115241,-1.4390850516528761,1.019113519244597
61.0,-2.196422667717785,2.383613245900973,4.580035913618686,-0.14059263632085583,-3.3709006191443724,3.4401402459623167,3.2133261340303774,1.050982664704518,0.3334252152492267,3.5770336111014,5.023441853435739,1.0671944898303836
62.0,-0.9513009387110157,1.5065012608738388,2.4578021995848776,-0.3185548615492413,-1.7592665926023596,2.0255873281642827,-1.5475033064938104,-0.7516804799486521,2.3113240951029503,-0.7524644579450684,3.0234091026626055,-1.9471656128214723
63.0,2.119733084134463,-0.0709525939049454,-2.1906856780393213,-0.9795029085331441,2.107539990892833,-1.1630050308299116,2.3928602906359986,-2.7023884394547397,-3.6537828900558433,-3.0697429619591845,-5.79456846692593,-10.027623258108443
64.0,-1.6462384084531139,-9.478205461516044,-7.83196705306281,5.534586842899583,3.129406671738931,-8.688418980429976,0.28231150246603,1.4176834914066991,-0.20334101988792885,-2.0344394375949886,-2.622626941263925,-1.677159791483675
65.0,2.146474677671134,-6.469509343838897,-8.615984021509915,2.2166027991314965,5.4208604905409725,-7.502852685438729,-1.931563394724218,0.36170031610314046,-4.236520949112779,-2.1435575189644456,-2.844465251272484,2.6537198252013563
66.0,0.9587590811466852,3.799023418536922,2.8402643373903036,-2.4015367253991666,-0.9790087083135783,3.350560833936469,-0.5813473855435016,0.5281484162001355,3.0584832531691077,2.5042379225774463,2.6092233200754444,5.333198537475596
67.0,2.242530772211439,6.008693826481543,3.766163054270109,-4.1500724966765645,-0.7220859305603067,4.828953566195931,-2.467736649129658,-2.5966740084154574,0.5597235356329513,-0.8632627614017523,0.25993985717972756,1.8386425280695193
68.0,-2.5724043160823866,0.949687437610637,3.522091753692977,0.7831968910536617,-3.088020455374645,2.2461980994825583,1.7308914006315341,-0.73199951863988,-0.4478877470789906,0.7187066801980064,0.8610616810058755,-1.8799232538624486
69.0,-3.4860252650554586,-0.22699570228842525,3.2590295627669477,1.9030419977966595,-3.336824171652321,1.519479423303546,4.486743122022035,3.958492859764334,2.4901960172799704,5.4627682557295945,5.8327603311865905,1.896246331713412
70.0,1.7161961507614174,3.3356384518791944,1.6194423011176973,-2.561010986516834,0.002785693569985259,2.4792431147294973,-2.4120243615505172,-0.735044781885321,-0.2554481287924002,-0.604898305975659,-2.1543296862182735,-1.05143194159893
71.0,-0.8202884951539782,-5.750866841691746,-4.93057834653782,3.328369289529345,2.085553147868442,-5.334835777651265,1.24667335533961,4.48017998899584,1.3695545249995391,0.28444122320883725,-1.7242912561940589,-2.75326219789701
72.0,0.4026435722551782,-1.2081855496016045,-1.610829121856801,0.4463643179667589,1.034120295997969,-1.394181813702144,-2.6702661197168958,-2.0148471942268076,-2.8860757321780133,-4.48685544596645,-2.0438880977170504,2.4752318137136498
73.0,0.910664221920023,0.031996467355963176,-0.878667754564046,-0.50541367860754,0.8398992809666044,-0.39555427193172,-0.35855079124176226,-3.4313479776101077,-0.3626067175330574,-2.032180688140913,-0.5190192386454224,1.3112713095858222
74.0,0.7945298640909949,6.5731390981312,5.778609234040255,-3.718278213180574,-2.4718198880771016,6.137138589284064,-0.21866709269005813,-2.4158352257679905,-0.6142043219624628,1.9052076795549788,0.7537340116743041,-2.0556834112374625
75.0,-4.526796439988442,-1.7051858221892795,2.8216106177992195,3.078721987775624,-3.657819067947673,0.5282088154312792,4.0192040436802134,0.6041031408206641,4.819818410873619,4.436993643570133,4.804849673068842,1.913482138987477
76.0,2.540596948317174,-2.9961648554620255,-5.536761803779142,0.26426515793076477,4.051823237787464,-4.214769071345308,-3.4000152915319153,0.6404650159651661,-2.1156794198739215,-3.7656106744778213,-2.236373838271233,-4.254445030692689
77.0,6.434220106168458,-0.24453938936202801,-6.678759495530468,-3.0639877460847225,6.489260232258592,-3.492120153312067,1.0056603875108325,0.023659500656245003,-3.451420904750836,-2.146003509591283,-2.4745867704263693,-2.8197139958923914
78.0,-0.44619995221325226,-0.9031562714868829,-0.45695631927365277,0.6226162392277652,0.018069262966918576,-0.7190392190667321,-1.0074111050928412,2.7544458169523063,-2.3930517758755308,-1.7860056214695754,-6.285496555506849,-1.3904028513864346
79.0,-5.84058565405054,0.4233428842091148,6.26392853825963,2.734301159871736,-6.034712766246589,3.372427419676372,0.35127285212056325,1.7813722320305647,0.8522360386042092,1.7095833481561522,3.3598944811133626,4.711029972514178
80.0,-2.842684292987974,0.20787642497826375,3.050560717966237,1.3457567353005944,-2.920531072760146,1.6476182945917455,0.3598793194168414,-1.845393426173826,1.0681781424588406,3.8109110419671373,3.5131040558660427,6.106497257396492
81.0,3.4786541892402782,2.447668179838924,-1.0309860094013428,-2.9293667652823476,2.2918900543454184,0.7192860037152209,-0.713003146429245,-0.6853240065602779,6.4753275156589325,3.714219957223358,5.612248375688168,5.0583280700013145
82.0,5.0099254539594416,-2.244736806337375,-7.254662260296804,-1.4213092985801112,6.1016691956609375,-4.742404520261121,0.005756059841401651,0.12768089057455034,3.5381253122559464,-1.3303077192506003,0.14268856995728907,-7.361170258119447
83.0,-4.155763957480163,-3.0575144920031385,1.0982494654770356,3.572856894369043,-2.6491001726281964,-0.9729163869299289,0.7421535252724334,0.34315408077191334,-2.3370168568553638,-0.290390184070382,-2.017060107930027,-3.232762758295683
84.0,-2.829475530736905,3.1959357980929592,6.0254113288298665,-0.2146308275154818,-4.445236654934678,4.618164661116882,4.548910368941967,1.5834928857789219,-3.923036271406564,0.08329515726080516,0.2201546933420011,-1.5059703928133104
85.0,-0.8901122511804151,2.5571085846950465,3.447220835875467,-0.7861911847547711,-2.1863954946959483,2.931388815601139,0.3123666301227439,-1.1997540195747245,-2.292050188005749,-2.4044330893542614,-2.685246371722823,1.6527169945547193
86.0,3.287873753308928,2.5014708486681054,-0.7864029046408275,-2.9273650031243723,2.0169148015733858,0.8650872967213195,-5.96470775461474,-2.958334830444528,-4.380161580062731,-7.056064664274557,-8.801753105146817,-4.078633888743809
87.0,-4.7455623495667645,0.3606160960006727,5.106178445567416,2.237515555041372,-4.869932254430034,2.7404072423789962,-4.457169491595099,-3.3549293724558638,-0.6994808995823567,-1.0704452960516133,-3.744074414705148,1.014858525558241
88.0,1.6055176813259797,-2.336121459447643,-3.9416391407736397,0.4103277613714553,2.828777811426229,-3.130810505161124,0.08520772612881644,-0.5635721912362688,-0.09872063277267562,2.6932060514173197,5.601530752288484,3.990464787077287
89.0,5.223042880425704,-6.114189855634246,-11.337232736059931,0.4125035678728082,8.258127725929432,-8.713323332876916,4.33035780194693,6.177257986622567,7.93432729728893,2.1196532400545505,6.324404138703919,3.1513399785840734
90.0,7.4024546285657244,-2.36942895423103,-9.771883582796704,-2.549394946717361,8.56778416710324,-6.050146636029609,3.6886928670761367,1.848641269433302,4.933894629782777,4.684854091406426,8.57277553739603,1.444129975058372
91.0,0.5198846144582625,1.941687623509074,1.4218030090508766,-1.2651710499406439,-0.4686688614010879,1.7130947023847027,0.339941012603564,2.097217752284911,-2.423914705440208,4.4733996161898055,2.970147002366401,-2.0823221019855165
92.0,-12.358580458610723,2.150377665899147,14.50895812450991,5.1446119355226125,-13.4524730617972,8.29339064718611,2.1985435939821203,1.2134798488957157,-1.275930593332426,0.7914190171538833,-4.21391615141088,-1.1764385625076563
93.0,-2.662046174572546,4.653017308265694,7.315063482838231,-0.9610665847735973,-5.011473036151102,5.956354230836048,-5.731067665547595,-4.6156755087153325,-4.600067092702895,-6.321596625912116,-12.03842184858319,-6.189018791359625
94.0,1.1165274065525992,-0.219165275056048,-1.3356926816086787,-0.5006513547775171,1.2752868399807356,-0.801077835628369,-0.1396189910916692,-3.2478719679081416,-0.6335735343394355,-5.9358629254883954,-7.504670757679917,-1.5879161945151403
95.0,1.572783817507941,0.437077743600142,-1.1357060739078475,-0.986424813531819,1.3959766576945851,-0.2951523060136005,-1.81707905861742,0.3917921734406691,1.1490623919573113,1.2077514575705894,5.585172954141608,5.422426940536348
96.0,-0.7724359528970726,-1.5100496299524655,-0.7376136770553958,1.151691796544524,-0.06083580861773541,-1.1530694323008082,2.2390642975498682,-0.27488019778079253,0.6924078288646907,5.114465015647177,8.911264980376323,6.147284550819774
97.0,1.1148513837332308,-0.13292542916049377,-1.2477768128936768,-0.4877099881455378,1.1339687064507764,-0.725587776890281,-0.6896134319346813,-1.0121944025260214,-0.014433852609057163,-1.0782954113542353,2.93804388361737,0.302946992353073
98.0,4.278748795503265,0.48243938238988915,-3.7963094131132986,-2.3832255315265662,4.0682213243039715,-1.6183172942711732,0.06618882937481035,2.129615514030916,1.6274928857376258,-2.5081932465694905,-1.4084497763211434,-1.741672354066275
99.0,0.419394828662917,-1.9408106688868403,-2.3602054975497087,0.7539151996783202,1.4227750621672275,-2.114171406348924,1.8149708689658812,2.4526164869172797,-0.021603654573393083,0.9829777637992665,-2.6624709403560534,-3.5901042266093732
100.0,0.17821961933086994,-3.8382821724138325,-4.01650179174467,1.8213667822888815,2.134423018016205,-3.8907710403102094,2.4859792674567913,3.446984194589599,0.19832854879011486,3.1240058175973284,-3.789433047416368,-5.703174388081173
101.0,-2.293744285961328,-2.912117808100722,-0.6183735221393842,2.595470653594071,-0.8753169822839366,-1.8059771707820909,-0.3135190604800402,-2.5218890423129494,-1.762139564318101,-1.93933413087459,-3.375255053684335,-1.920650747174743
102.0,-1.9707721284582849,1.56578341136929,3.5365555398275674,0.20012603303845045,-2.7889972896624653,2.511018733218539,-2.641963740013643,-3.4778842675650905,-0.11306259068727453,-2.087701178664171,-1.5347690662947664,1.9712409514524034
103.0,4.312089460114062,8.521698994048176,4.209609533934113,-6.409888385455122,0.015674905460632882,6.324032758842608,-4.566308424200107,-1.3171262355307638,-3.038663859823623,-0.2234188053258186,4.7974467145799995,3.0843717683537206
104.0,0.2513060220346548,4.299586196824212,4.0482801747895625,-2.255312847489544,-1.8574696043543661,4.207697214907241,-2.112384604423429,-1.203620477895249,0.15448901608609467,1.566438399001687,8.425795108712762,7.2603724147298845
105.0,-3.6175461372792723,-1.0762876680549631,2.5412584692243234,2.3822194093977123,-3.0408228786933713,0.7623636726854413,5.755988046136029,3.7101961880852166,5.715337953613597,2.7432966377887626,3.720094092546038,5.710132810965137
106.0,-6.364258588241512,-7.406916305226345,-1.0426577169848297,6.856709014495945,-2.7017379673465154,-4.197577728593353,5.697835844141756,2.1582338731155586,1.9874249742813772,1.3091989884167234,-5.964944465653681,-5.454999321671881
107.0,1.7604640216655802,-4.462716968466882,-6.223180990132471,1.3334331406630797,4.031926933078281,-5.394771306030412,-1.5848098732577094,0.465053214369638,-0.522792777615819,-2.526130228141495,-7.154295343709121,-5.7834274712808735
108.0,4.561318822727428,3.01439136048487,-1.5469274622425653,-3.7996551876891393,3.021147274524033,0.7628550535809824,-0.5719363261433995,-2.5107723035433294,-3.5667102010610283,-1.0464522163305126,0.7185467748365832,-1.3116983579967192
109.0,2.867220926078593,3.3289236088701055,0.4617026827915156,-3.1095570399322434,1.1779545447105817,1.9281802255413256,-2.7452886590539993,-0.5418098417109551,-0.7024787851318623,0.14745040192753955,0.5206833707706169,1.1437637411162043
110.0,0.9677732206997001,2.785390873926865,1.817617653227201,-1.8919135280413355,-0.3622006007428513,2.259479247095589,-3.0036178936234514,0.4893144377176317,-1.1012707564426705,-1.2264860619983418,3.542498176736991,-0.2782372769715
111.0,0.07062968077160625,-1.0583377894164054,-1.1289674701879742,0.5517427701499573,0.5906403100168995,-1.1329535652877907,-2.420627822524758,-0.8346518094260691,-1.2830509668103616,-2.3648768464274377,-2.316210108967463,-4.4897810223026
112.0,-2.291315921428656,-3.77639474881758,-1.4850788273889133,3.008279680047239,-0.4097976828496882,-2.590222430939404,2.1420952720810744,-3.196840119315193,-0.571901031903427,0.4827717014895588,-1.1357476565950861,1.707080363878745
113.0,-0.6321194912213315,-0.9937342200704943,-0.3616147288491861,0.8637789087692522,-0.14548050083333508,-0.716210264825871,3.2936487497025273,3.399971302833479,3.0564264027631687,3.876034175258384,0.002068353559026681,2.5710397641868026
114.0,-1.830409893495494,-0.23414787671007856,1.5962620167853867,1.004687163671421,-1.7331734722177006,0.7203386700663981,4.251514419183325,2.606987271779097,3.706604313673079,1.7825564167527084,0.7627748930099809,1.4678519994999735
115.0,-2.0178648315507974,-0.08493329670979854,1.9329315348409855,1.0258530622340885,-2.0090234329448484,0.9623072176234989,-0.7671966901057217,-0.2836325170915397,-0.25557350211049945,0.2895602259283028,0.9289384630551085,2.3369967262447746
116.0,-0.40598716086941894,-0.9334153016605515,-0.5274281407911126,0.6465400875784215,0.09125708004257416,-0.7718098798255353,-1.0118997466888795,0.07779126593201646,-1.507294285208355,-3.3681720102272097,0.4280962155209572,1.364333970757788
117.0,5.3857299540310954,3.3248302845168487,-2.060899669514211,-4.29825136896721,3.742239542679583,0.6680289652728012,-2.9503679430563654,-0.4586455214783327,-1.6711665094020258,-0.9199504889011054,4.959193607469573,2.6078977797855893
118.0,0.3253111037548475,2.744183623894391,2.4188725201395656,-1.5567625776997351,-1.0336663481791688,2.5368355942593066,-3.034405876238502,-3.1708436145282626,-0.8208490044090393,1.0322592059534372,1.178888174288035,-2.598889439474915
119.0,-1.19879400028773,2.125897534909379,3.3246915351971063,-0.4877771638398811,-2.2477615299842886,2.678061077488888,0.7490054450136201,0.7053373230290065,0.2513970361005088,2.6702786716916593,-3.741320305995342,-5.5931986113271295
120.0,-0.7961379998948374,-0.48524550233780467,0.3108924975570115,0.691464163169168,-0.5332484364010014,-0.057912893575500946,1.4904203823800015,1.036964938106371,-0.22771570941201508,-1.8943673891605368,-4.868148690184194,-4.363584421495069
121.0,2.3470417087590056,-2.0860155314398456,-4.433057240198849,-0.16299283909740359,3.340573425267057,-3.2312011329286987,-0.6508415925614266,-2.5590204883953924,0.4990984063060367,-2.846656220396415,-3.548294055275016,1.015971720390238
122.0,-1.8926733429920952,-1.9724510702516795,-0.0797777272595468,1.8958180348715024,-0.9471164647340697,-0.9968633716455555,3.0057566082295506,1.734173854604598,-0.40338826869108446,1.2463296993732982,1.4991247351115897,4.115095718978904
123.0,-1.1552704451016658,-3.8087415748512474,-2.65347112974952,2.5208514457221787,0.7937761449027265,-3.1995581850187067,0.09320579294034559,0.19310120460602775,0.5441515905580543,0.4210229417691204,1.506047133645707,-0.14828881335972488
124.0,-6.266650852767873,-1.4162785534796931,4.850372299288228,3.8786353922951973,-5.5887566028612055,1.6723123856693551,1.5462605458491567,2.6021108348306257,2.524674181840811,0.8279224949852796,4.068216700997332,1.7366486242853183
125.0,6.054468876517751,2.682146699496595,-3.3723221770211635,-4.410422766736383,4.763725035086012,-0.3882862204944879,-2.3382984759483634,0.620606035621805,-1.3413407128741817,0.8874485568211641,0.9316571327030001,2.4480292392093395
126.0,3.0369912957816414,5.819452112762153,2.782460816980469,-4.3919824228302,0.10012859792320389,4.258261251525148,-1.9956879106429908,-1.181436899606982,-0.36986710546543466,-0.40739439893842877,1.6762341074481846,0.6534639407237466
127.0,0.85300023699945,-2.0990502172597196,-2.952050454259217,0.5790415314864035,1.8775762014331114,-2.488895044996167,0.6165839682641243,-1.4805127099969644,-0.6187948029116185,1.5379471620980345,-0.6768449516687864,-2.4461736585980014
128.0,2.4192920661719337,-4.164615374583064,-6.583907440755063,0.904044906835518,4.559331246990568,-5.335223219124881,0.43112097182725106,-1.1611988135253073,-1.3818882322739268,-3.532909379635512,-3.1399264511912732,-3.3279508374399986
129.0,-2.173956763058295,-0.13692561034634088,2.037031152711913,1.1027944025122267,-2.120916639220907,0.9943346437855258,-0.3025964656233965,0.07209868820157594,1.2152404206314504,1.9959520147255752,-2.0686538307972686,1.7928721090600828
130.0,-5.39558373297146,-0.16216373357427738,5.233419999397167,2.7987457383355756,-5.323623092923365,2.5088709566176974,2.629038261026221,1.0558313200801734,-0.11268092589757744,-0.7675117048090776,1.3166210621172074,0.39711412505431465
131.0,-0.8346287817107645,4.066309725046344,4.900938506757132,-1.601632602509484,-2.8713621063774384,4.465166303160949,-2.56401758769821,-0.8437994220134203,2.3226924938435847,-0.7422775244422959,1.6652152726161016,0.1245508437593881
132.0,-1.3759326040372664,4.428295880862733,5.804228484900063,-1.515620559680746,-3.590271347207079,5.104128576519036,0.09276538531968043,-0.17021813631854282,-2.220851460080229,-0.8295928844381009,-2.2730729636540437,-2.3856684447811007
133.0,2.3410913786088496,0.8330604118304418,-1.5080309667783138,-1.577359881730279,1.9248137735563258,-0.34741383933237047,-1.2783135778409305,1.7586439660672828,-0.8694931316546755,0.4760339159346631,-0.1023458741185234,0.21863378340367062
134.0,0.34237235947145006,-3.9542686570873493,-4.296641016558706,1.8174852590302923,2.317393010095405,-4.138184632399325,2.8657755169999017,1.2107662292797041,1.2899470880451742,1.949331020311315,-0.38601105094173666,0.7478749358694861
135.0,5.159937309445873,-1.825979507803432,-6.985916817249237,-1.730584329768337,6.066696948624046,-4.347092396831783,-0.9530697351202795,-1.6807922511374036,1.6933445527984945,3.219339157156898,4.411226017685928,4.651344511396933
136.0,1.0888166777819879,-4.55724045648669,-5.646057134268645,1.753559334808821,3.356997852181601,-5.131148550015821,0.20262082223296005,1.5072707446980838,-1.5790330101693213,-2.1608625329617537,-0.24453333854106196,-0.42944200010642763
137.0,-8.349713449809059,-1.0897499837927884,7.259963466016236,4.742791718955989,-7.817919914419506,3.0461995848928565,2.6892125642329834,-2.2366281549833857,-0.6524356824902943,-1.7853710578992832,-0.4169983224880249,-1.3570081046739846
138.0,3.8392938201299653,1.38655731590538,-2.4527365042246716,-2.5873704087919216,3.2115661856704643,-0.49978761858808185,-3.9329310701968274,-0.06094799789061511,0.577935191884559,-3.7048934133158484,-3.2912040591082943,-4.202533192783845
139.0,4.559574224077582,1.708365047467789,-2.8512091766098857,-3.1861178338976295,3.694337923422909,-0.5397964310611081,-2.538418306155204,-0.1562202500242194,-1.5833254072241223,1.578255198390299,-0.12342874427235917,-2.4094256314438436
140.0,-2.878179480105582,3.5603310684787104,6.438510548584223,-0.31452061882858784,-4.66650727996546,4.956246403365234,2.4351272535252164,-1.833495412898631,0.056005929513617936,2.6823930825472404,-0.5568097226787715,1.7611317153353576
141.0,-2.730156756969759,2.644788635946092,5.374945392915852,-0.00973921717458115,-4.05928850440186,4.05430652553307,0.8819387017006369,2.7072586846819355,0.5390595439050586,-0.2437305227375779,1.851572569140992,3.76288414006228
142.0,-1.9883388816236949,0.5583510821416628,2.546689963765401,0.7420846150107343,-2.2762720467323163,1.5300010213657087,3.463643732013224,0.7641504419145972,2.086646707040698,2.710041059837951,1.2302113066116243,3.594888637039051
143.0,0.8673075354810378,-3.256093977315487,-4.123401512796448,1.224129404127954,2.4802624012116405,-3.7002437839960165,-0.9226205950544122,1.1493024218357326,1.1569721285157906,0.5004898740285199,-0.3412735327489286,-1.1799987755247685
144.0,1.2131527539042923,-3.236235627743695,-4.449388381647909,1.0458683576841659,2.8061864481315064,-3.8437289729588207,-2.9035447672050423,1.2737724307520073,-0.040062963873544744,-4.021058853833252,1.1595188760970685,-0.9030384951723915
145.0,1.6020774131632347,-2.5517468903150258,-4.153824303478205,0.4360201756998052,2.9199324113334466,-3.348582382330157,-1.2365162588377339,-3.828512203634078,-2.300592903757859,-2.241606270555639,-1.5137212089805312,-1.253029538585064
146.0,0.18075069226331886,-0.12200817578031731,-0.3027588680436102,-0.06310265686008204,0.27290440716886133,-0.20847387824840968,2.124167251414163,-1.4301583263072313,-0.04938536042020658,-0.3906517761187085,-0.20613635615191117,-2.6095695114703243
147.0,0.711566923623985,1.6608769804946328,0.9493100568706412,-1.1380800648732547,-0.17421392534292435,1.3035042935258268,-1.1112881948729814,0.03758738675114204,-2.8502619950972465,0.42720397989630227,-1.2223469456872633,-2.291251380942846
148.0,0.28268253467546367,8.698522505040886,8.415839970365377,-4.520700950259928,-4.04657097762244,8.546104201500555,-1.5112150596607994,1.067912438275821,-0.42873813323341226,2.8772339926890833,-0.8607004682662026,0.7556796889081955
149.0,-2.454685490715528,4.145462186570143,6.600147677285617,-0.8771681762018044,-4.506478245414836,5.350110670129313,0.4315792989374919,1.102531139890817,3.883042816289474,4.46402588525301,5.9539257859061285,6.68447058294864
150.0,1.7686965916648354,-6.464971797062992,-8.233668388727903,2.392534936848844,5.026251350278521,-7.30501270681653,1.5981205908731477,-0.7639399644184928,0.13161259226481836,-0.015493664544087071,-1.726909743857068,-2.5431734872593363
151.0,-0.473868667199139,-7.652832951232711,-7.178964284033625,4.027092620337594,3.304452938205776,-7.381826187583933,1.3474022211248766,1.2258134827343523,-0.9597571131144882,-5.702919120049941,-4.2609155416521185,-3.9147932686986278
152.0,-4.467253617759154,-1.388950918429026,3.0783026993301217,2.9703884601491266,-3.8155008514568203,0.7923045691735244,1.78537996039148,1.9647551067557336,2.329008988719664,-0.7522240045335695,-0.6669041411775973,2.105733206087433
153.0,3.3479563423835903,0.35135888379381774,-2.99659745858973,-1.8059452340015545,3.2124245767331088,-1.3008996127342014,-0.2385207649179692,-2.705475164347742,0.498101386442806,-0.8920800233484678,-1.1412330045195505,2.3752519933524434
154.0,0.9010105717469683,-1.559445057811329,-2.4604556295582487,0.29604497336240043,1.7235145626748505,-2.068358967338903,-2.315593274021846,-3.0389350906991917,-6.1818441630131,0.39222271680874166,-1.9886442309664796,-2.80792901239691
155.0,0.4789694067561845,4.412080188977597,3.9331107822214513,-2.478111308405712,-1.7615195399403394,4.195017066504104,-0.57785491620655,4.045882372644629,2.014035220497433,1.7725995430438655,6.346861522484304,4.584725054318875
156.0,0.2604134536357239,6.417405292073826,6.156991838438122,-3.3735288532031973,-2.981688541189341,6.315143667998442,-1.5192122514404829,1.964428310199389,5.131055441674402,4.922026911511193,7.83119465549049,2.305051792152557
157.0,-4.9247310177491075,3.322633877061236,8.247364894810346,0.8402512398793618,-6.539514757735422,5.821388882463159,0.152305785313118,-2.3053073333984435,0.005738665190196945,1.2910592212340526,1.9735581863013487,-3.7938611664417214
158.0,-1.6408429794713293,-1.46388004064281,0.1769629388285492,1.5846315508878277,-0.9395108660780822,-0.6756581718380572,2.3217504641185305,1.6935050809951364,-2.955192483292509,-2.4672109618542146,-4.787548100316866,-1.4354840087207172
159.0,7.266640079678531,-1.6748986057167983,-8.94153868539524,-2.8496626570838517,8.154048388813612,-5.330235862847301,-1.4326738341532663,-4.168015962083198,-2.692246267040573,-7.381912923493968,-8.194052364483882,-2.450344734934284
160.0,4.523420897932135,-3.4028315305402317,-7.9262524284722655,-0.5413257063823287,6.197314284870515,-5.678085488268561,-1.1505002196060863,-1.3761764274640003,-1.3165182310713075,-0.973000559621608,-5.516980292241142,-4.116619844988531
161.0,-1.8350454104767273,-5.637398185354529,-3.8023527748777237,3.7517063165985767,0.9557841364977828,-4.728020594154426,0.7187835733067773,0.1273391893842276,-1.00878429795024,0.8414700789461081,-1.056463335556154,0.6703061862540913
162.0,-2.2407132692113496,-2.4938836302840115,-0.253170361072633,2.382112572795587,-0.9458173193709026,-1.3014661256464697,1.6272776588400395,0.0866739189764838,2.9263815848764025,1.9592563430315562,4.008367266410845,3.3073721950149517
163.0,-5.977648194454158,4.273041673695163,10.250689868149307,0.8687178505956425,-8.150891168136189,7.252299657119086,0.7077150322661706,3.9711431972967497,3.122648312085847,3.9820577892727784,7.844772229593536,5.13953221258081
164.0,-0.2963129909468485,3.882865652673492,4.179178643620291,-1.8527240724060057,-2.204210519372805,4.014415074333133,-1.7654597305659991,2.6483529334667875,1.3946852785852955,2.7029176993240878,2.061303399914606,-0.4887161182247044
165.0,5.340483624421494,0.6736739027724656,-4.6668097216490905,-2.9844208200916134,4.948749112677561,-2.0233765630032394,2.706099599208205,-0.45369905142104916,0.6162445688312577,1.080075502197428,0.6897069498763728,0.24900897775435818
166.0,-2.265014327335705,-4.475243012760434,-2.2102286854247724,3.317627222355602,-0.01231048269964985,-3.3808578254446062,0.3464916900328332,0.2928281150698925,-1.7071064948143326,-1.4229153432327495,-3.260274584316993,0.7057219653033975
167.0,0.22200701426966996,-0.706771177733361,-0.9287781920030551,0.2727426720363872,0.5848953526355996,-0.7867160846194204,-2.2652186950560775,-1.7898210276578472,-2.126021437312875,-5.358269197145098,-3.25882563800371,1.3258540636200666
168.0,2.3092737236692056,5.700082709093735,3.3908089854245267,-3.9694135153910883,-0.5319776944312433,4.571521494398578,-0.9091911949735989,-3.4441362420117123,-0.5281325793159208,-2.894330395210088,-0.6746703541392987,-4.89535882217688
169.0,-4.242116163439327,5.276328404788068,9.518444568227435,-0.47651341947665116,-6.866969300026456,7.424802227175482,-1.6520121160403143,-2.814418384221052,-2.2021204561147343,1.0738854186780613,0.7582772383131351,-2.045230459085154
170.0,-1.4777067880721664,0.0714778585235063,1.5491846465957253,0.6694905495423273,-1.491616049854987,0.7664804589663178,0.942326344616247,0.6185564425769876,0.8127696899105957,1.560410816794339,2.6409015328721974,-1.3187542866577175
171.0,3.562740405840264,-9.544698379942485,-13.107438785782717,2.9594542227547116,8.288159538698945,-11.279743171655374,0.177558570722413,2.6804175389847122,0.25406860688161026,0.973529794395263,-1.547092135453798,0.020476938558491586
172.0,5.3294539009782325,-2.733586185625753,-8.063040086603975,-1.3310356330369837,6.736561191500941,-5.418929826201579,1.2641486091646656,3.0371470754628467,2.8989992584272475,1.9005695270459628,-0.8806032369956256,0.31900658129605564
173.0,-0.3077466027464617,2.337659313600538,2.6454059163470145,-0.974731380575468,-1.510361195692023,2.479348876284538,1.0867474113441369,1.9111580884601236,1.1789595614319826,3.0615890776232106,1.3813097460788557,4.567063604489416
174.0,-3.594023943038905,-0.3814873163478348,3.2125366266910937,2.019762391335983,-3.4371263969444863,1.4056913226763874,0.7540505297447165,-0.7750249493019865,0.21592664467662248,-1.3604537008513609,-0.6986432944419486,2.3373214645037703
175.0,1.1038207710670473,0.16451391305909668,-0.9393068580079094,-0.690012814995221,1.0626060959583414,-0.4017460399750057,0.0805007561538838,-2.065436650399234,-2.1724898211486185,-5.144369307759633,-2.6745978675914754,-1.612655300877964
176.0,-6.149546801881296,2.0698788646543806,8.219425666535699,2.054905311236395,-7.22756942620987,5.12022880787767,-1.7470165373783515,0.03181980484271385,0.02053683630597125,0.6024868966227195,3.640378477685635,0.8401099393866511
177.0,-3.5253690691122768,5.434933370011642,8.96030243912396,-0.9445239461665299,-6.2113741429347264,7.2391108174282675,-2.807371384445088,-4.368512353141971,-0.6701717359780194,0.2748637373199293,1.3194534582662893,-0.9348209478342238
178.0,4.826722222935286,-2.2124105864853685,-7.03913280942061,-1.2978662581471732,5.963283654037998,-4.5966907319382235,0.8037325001933056,0.681413410137347,-2.6106492485457924,2.1606336734384515,0.747956143891979,-2.797886899977591
179.0,5.371804809782668,1.506284365930853,-3.865520443851808,-3.4272309852008203,4.65137562737843,-1.1600520990086725,2.6815944377260363,1.9874658949207995,1.1504304444685542,0.4818124663911856,-4.319673610342452,-3.8425607584830126
180.0,2.9540025597518738,-2.9317419355782595,-5.8857444953301545,0.005344831499574543,4.378378160707932,-4.4733734141735635,-2.4412920799773348,1.7122801576162126,2.35418663156475,-0.3701498389412319,-0.5234533744240322,1.9799954449630859
181.0,-1.2866143057964985,-4.831435732989068,-3.544821427192644,3.0017823226978835,1.0921230327930238,-4.175482366911558,0.7615595787854275,0.7390257943208647,0.6049608539683782,-1.4469105294820324,-0.10260263775495032,0.9002314254780881
182.0,-0.05380662511151202,-3.348236532616564,-3.2944299075051484,1.726521020619373,1.664528495171411,-3.307112944531519,2.3125257262017924,-0.6175379654392561,0.7815540541386122,-2.1760829381145093,1.4365717656825792,1.7020052457049697
183.0,-6.160671079842072,4.31204674612716,10.47271782596909,0.8735153135405938,-8.351784274345862,7.4099866237567085,-0.1865033027422529,-0.7483362094195892,-1.797712853629521,2.442464071634034,1.7920172303774775,4.054309297773381
184.0,-1.6100400066994958,5.919828214184207,7.529868220883601,-2.125569473389376,-4.608101398237917,6.667748104737691,-0.28247639373022804,-0.03769014282765337,-1.201321133812968,1.000798787647149,1.417868683962924,-0.6607001889500341
185.0,0.15203492126215212,-2.165784681483098,-2.3178196027452547,1.03742468414293,1.271537890516261,-2.216275681184867,0.06020016543997042,-0.501962342786368,1.5163947636631077,-0.028994382538244712,-0.4305925055910853,-3.3897004821335592
186.0,-1.376790955012613,0.7739354975374253,2.1507264525501535,0.33379929751633386,-1.7303338453951818,1.4910868211134691,-1.267310464684126,0.718328753100147,1.1971378042220786,1.4719465991618255,0.16073212455236396,-0.3553335610741639
187.0,1.8298056212173452,-0.23976276852901132,-2.0695683897461734,-0.8388739558011085,1.9817146877411331,-1.202334160028986,-1.556006802927092,-1.8318046177711536,-3.349431205647752,-2.5492658459390243,-4.717275703878505,-2.2682737474006034
188.0,5.3091456186824635,-2.4514617401556245,-7.760607358837894,-1.4699879799026019,6.488323189928901,-5.0737462542781575,0.783253739147926,2.986615533596974,2.49299107318455,1.535727375499542,-1.05597555999775,1.3333514143295446
189.0,4.042535774841333,0.8624532426399363,-3.1800825322012702,-2.412838911729349,3.6441161514359997,-1.1266966852260563,1.0209041522339026,-1.5004912115176765,-1.558855613916703,-2.5775777837577745,-2.4093984213475057,0.21944628021989154
190.0,-0.21783819362746892,1.4443677055328852,1.6622058991603583,-0.5730021302193394,-0.9861008693205568,1.5049029675464645,-1.8587253148606955,-0.24988078657848145,-0.4544031533111883,-1.404501537423846,3.8751116437431854,4.113238248153792
191.0,-5.17449891477111,-1.1726952572978957,4.001803657473136,3.133787671818942,-4.6355289684815775,1.441695703975144,-0.03543858351758648,-1.8001058006649626,0.878586279972352,2.3379047591167685,5.975639490524119,0.03378367962496709
192.0,-5.284754890540386,-3.3873963131405147,1.8973585773997539,4.293006529384784,-3.56150229630191,-0.8006494689272431,4.325818599945239,0.7582276153432378,0.8062142837570059,1.3598515750344338,3.592008834060052,-1.1737523658309428
193.0,-0.5495454161105946,0.12020053984897894,0.669745955959459,0.2456692993595042,-0.5811687755850152,0.41452470605848835,0.43717513008359377,2.96680444279366,1.902948755878711,1.884773460045233,0.9135178355598162,-0.3245282666638275
194.0,4.382708223158028,5.487548599493031,1.1048403763349197,-4.909370287422352,1.6680664732641277,3.3140964396320727,-3.2473151545620564,-0.4847647937669932,-1.8148869977597197,-0.44633629102338657,-8.465556990432148,-2.379323477400577
195.0,0.6896873626806874,-2.284189662060545,-2.973877024741249,0.8181175865131298,1.86333446429941,-2.609788662156283,-2.1537960025509904,-1.1254338389670955,-1.8787691026138091,-1.4765073943620393,-7.271599235294966,-4.729323602442359
196.0,1.9243250231190765,-0.8835547706646709,-2.807879793783764,-0.5821528793697867,2.3221523517419005,-1.8219568329366014,3.833091034658081,1.1076979459004213,1.0341083590482696,-2.647675096023319,-0.35574105430254077,1.8217732901754593
197.0,3.304192888798757,1.8642910957863343,-1.4399017930124671,-2.569797221505407,2.3309480623165983,0.16407755200506213,-2.498944122733434,-1.1448035061514608,-0.35935811069507967,-2.1423750500028405,3.5906137535774025,2.360648364242331
198.0,-6.048960359859014,1.0694282916453468,7.118388651504374,2.5030918215719864,-6.623000706119054,4.053516146079512,0.40748533381097096,-1.5169583833374087,0.8439929165590789,2.104477089265802,5.101813451957681,3.8073009899150807
199.0,-5.806432638892332,-3.153610954242712,2.6528216846496795,4.493523242099012,-4.189303398021198,-0.20518620290949996,1.5450051153661462,0.10393893941634191,0.5223524413610117,0.8268721145541398,4.080052549497296,1.4931987336465145
