Time(ms),I,II,III,aVR,aVL,aVF,V1,V2,V3,V4,V5,V6
-200.0,5.084329940556348,4.146711868090915,-0.9376180724653153,-4.643454935102058,3.0463600038528744,1.5903277130676172,5.322640735625245,4.02668821860043,-1.5886068642789501,4.3774983599015185,3.8252702080052927,4.156997434849325
-199.0,1.897444391513404,-0.7472288010041765,-2.644673192517575,-0.5293222975587191,2.2202633893062718,-1.7102876980405746,2.8493082132587797,-0.44182891261594204,2.389484085056959,4.879021305552465,5.240416650236366,4.577598809825718
-198.0,-5.099035732665811,-1.3213577510929408,3.7776779815729107,3.171231877025278,-4.415227052727615,1.2107371939324336,1.7735618485500428,-0.6783528989114176,5.4400937928625535,0.35480196182654566,-2.8810458959475413,-1.901767678013694
-197.0,-3.9680172262491884,-3.9726805241412535,-0.004663297891891349,4.004469958659781,-1.9603613735810377,-1.93334124956408,-1.2200652541458958,-1.5976897760677211,2.875614407344618,-3.076240254382769,-5.436842993900872,-9.983930762735882
-196.0,-3.5503056662055745,-7.414883506700364,-3.864577840494549,5.512518630458091,0.10057005950321907,-5.671160434573863,-6.030538549934239,-0.4948656880804808,-4.053168221645535,-8.54748985648931,-6.384574452152471,-7.206370997904795
-195.0,7.815160983986514,2.3282015342595965,-5.486959449726784,-5.122658965769727,6.67600676061563,-1.6193085274417887,-3.0539903843052936,2.4462338471762743,-3.8654035322841307,-0.0109036859211038,2.414954180334815,3.011799427047851
-194.0,4.142299241843957,9.132801240874727,4.990501999030581,-6.609947119065036,-0.39547152017222387,7.0931918773680644,-1.696401971839442,1.6835519625263042,1.1476168570571408,6.299933967833052,4.539059878832785,8.078064211695688
-193.0,-8.230043915808169,1.7137475694570181,9.943791485264837,3.2082378918530368,-9.133391370739949,5.855570576140283,-2.2076458059544466,-3.0716826668113946,-1.0362296588504383,4.699575263030319,4.6404667680155445,6.837279101893182
-192.0,-8.343421802049633,-1.3915128539049708,6.951908948144313,4.898028248232305,-7.612595120956158,2.805244336417897,8.215349714186797,1.8738741093989795,6.184629632442702,4.1424754453391355,6.041571946895409,4.369618639239263
-191.0,1.6822446867799807,-10.321595562686776,-12.003840249466963,4.3513134507469475,6.800699678640285,-11.215762902767128,5.692296040682537,-2.8380911492946925,1.1633345559961992,-6.045794784866585,-7.986473731611583,-10.567701807687097
-190.0,4.290941114470059,-1.0030988833729149,-5.294039997843054,-1.6129713001355714,4.828404776692254,-3.1210534430451906,1.399999574894537,0.967885397078825,-1.904307996183362,-5.317843983212112,-9.414527751170683,-7.330646610192158
-189.0,1.5557733828208833,-1.3732479968314146,-2.9290213796521436,-0.14218715438396767,2.2758606471637743,-2.200764526398352,-5.300442443161322,-5.21129964264226,-8.676570182482642,-6.351706858395777,-6.2056493023855825,-3.044942482996192
-188.0,3.2868091027875357,9.52175118142714,6.234942078639892,-6.460403018313317,-1.5235522046037047,7.907923246409408,-5.069691074535631,3.2060776858892934,-1.3503663140573345,2.456018624553976,8.639373934329688,7.824367832171394
-187.0,7.071279980549701,0.7439692489673106,-6.327310731582092,-3.890561573470459,6.72335339656482,-2.763096557077541,0.13236800585272324,7.294372477384283,1.540777902172444,7.087620950880946,10.096469224978222,4.866311027534763
-186.0,0.43171204834938215,1.6534597814578496,1.2217477331085858,-1.0287789432644108,-0.4545128213761639,1.3851959849004039,4.580431501129876,-0.995417617550574,5.232977636639766,4.685245244121769,4.669236987417985,0.7920138286896079
-185.0,-7.164365641275941,1.7650550731233428,8.929420714399207,2.715058820664391,-8.030131746187815,5.3706432504641315,-2.254252994710078,-2.0305948502987183,7.294151089918422,-0.2869859902001397,-2.9633684767656536,1.6432761252547667
-184.0,-9.621826252426569,-5.274460381890964,4.347365870535461,7.471101077494545,-6.966231645820658,-0.4432210506868657,1.6202278730641568,-5.325326472615423,-2.392791078493809,-3.7051082921398137,-8.93437370464919,-6.431256647434358
-183.0,-2.5860964943169478,-7.200168464102844,-4.614071969785896,4.928445081626981,1.0388587555999615,-5.889581316496105,-3.1980820620713666,-0.17391580824920982,-1.9518427144951,-2.8577601243482906,-6.21136161917892,-5.4269830341220775
-182.0,9.575043792015657,5.481160476932329,-4.0938833150831755,-7.5576484506644075,6.869933799075685,0.630221341358578,-0.24375913757838685,6.291496716092311,-0.835042158051106,-0.11886892411554983,4.886690798210438,5.003233041748858
-181.0,11.06189259585206,8.459238340215645,-2.6026542556362515,-9.77891327700803,6.801294799756504,2.9422351013135213,2.410238845589409,-2.2150762499874133,-1.9427770639039212,1.7287060230479152,3.070664594708271,4.134146266358733
-180.0,-1.675162495211497,-7.140163996026536,-5.465001500815035,4.394282399565761,1.8747909280048907,-6.2889833603793805,1.2137139377276076,-1.0487600251175306,-5.503579403428782,-2.175226143132223,-1.350220941936767,-2.5872500208563673
-179.0,-5.6923803062795715,-2.5670318478532517,3.1253484584261804,4.1136488276442424,-4.422273154834349,0.29359100775519487,0.5655318893194439,0.08381111944744657,-1.5651502821967005,1.722704055707385,4.6181092893259175,-0.42327468333728274
-178.0,-8.970071189519315,0.20921405490679046,9.179285244425895,4.355366505582161,-9.086663018303945,4.710573119064974,0.7146120161511296,-0.33407482375017394,3.82664736624251,0.9658712120608884,-0.7395542577609027,-3.9579506846622965
-177.0,-11.39166339369804,-5.16138719625122,6.2302761974467895,8.318449174268189,-8.82613355468489,0.47455006125227595,-0.08795243053676205,3.455458825563667,8.178965238575234,0.5559774903530748,-1.0818448697054668,4.784710567568469
-176.0,5.854045295415181,4.170300085656682,-1.683745209758476,-4.9802659928998185,3.8267853995997774,1.2647030242143842,-0.38897931020982923,0.9027246864017314,2.0121662770623883,2.194011839056181,-4.474055696594311,-0.5264691271693078
-175.0,14.553807527763299,9.692719441180865,-4.861088086582523,-12.17454368582616,9.680869649110063,2.4392358548292377,-4.971090231307524,-4.0830991664559715,-3.3190380409436746,-2.5762961966685154,1.4330743487023536,0.9928836947621626
-174.0,2.483232734163421,1.667587737248088,-0.8156449969154433,-2.0449436198961726,1.6977830756518868,0.45036530156828786,-0.47378392199122255,-3.0089129074882,-6.112637908533243,-2.6557993531139346,3.019203433194652,2.3754953901592475
-173.0,2.2116557965003447,0.4097618154335436,-1.8018939810669088,-1.2705458013093647,1.975206479572457,-0.7505415193534586,1.3295599564813099,-1.3745818619911092,0.0008426519643354169,2.4691284861409413,0.43257166504488387,1.362651195460241
-172.0,-3.263523194015844,-11.444708643216599,-8.181185449200791,7.328842105082441,2.4284326404042362,-9.789364255898114,3.3187889251761553,6.156455960505225,4.456967406348497,1.525967003743888,0.8418176051186353,-2.281310864333274
-171.0,-2.6970437411282786,-9.048317827628413,-6.351274086499985,5.859918023972535,1.877995515186019,-7.7550506736902705,0.38152456883368036,0.8431023822291399,-4.122891622003297,-5.0797989936047125,-5.024917496888898,-10.421166366728615
-170.0,-0.10165626264450278,3.8885294931623324,3.990185755807145,-1.898768346590213,-2.0709149033299794,3.964893258878244,-0.4025937033014446,-0.7077925269852365,-0.33131922542523223,0.17396673262157153,-1.1677345790469142,-1.951520684684191
-169.0,2.0271195864604037,12.829930168548136,10.802810582088142,-7.43420301924813,-4.410186644958315,11.84725626128596,-2.0750437137106976,-0.7846492866918154,0.884907310156742,0.12449203430409894,0.9962822604830167,8.330658769728604
-168.0,-6.998735245772228,-3.689570772628235,3.3091644731442997,5.33012954607194,-5.173798266032831,-0.15056891547319662,1.503139619324195,0.8484819329787574,-0.5073082767010403,2.1105559203402375,-0.34944649548679596,2.222830884012365
-167.0,-1.8779939472052267,0.6946707955232437,2.5726647427285823,0.5635910124577993,-2.163566784585898,1.605350092596142,-3.693764359265851,-2.7686178247103186,-0.04425177236032696,0.9192661324693625,2.3853105940619663,2.7004473814505614
-166.0,-1.602217419429968,1.4694568134495456,3.0716742328794893,0.10129883341877942,-2.350147068520916,2.2526601336046177,3.541114953483876,1.9845323005692814,8.89649925962621,3.839749333068437,5.390433031102986,3.294229069881161
-165.0,7.394501823433167,-1.2769552031732188,-8.671457026606634,-3.0370577008934676,8.024622885224975,-4.984712652571612,0.5483747464793455,-2.624074730361324,-0.3753366265292617,-1.3526261293211617,-3.6421942625162465,-6.612244858169874
-164.0,1.132998613415432,1.5423690313181178,0.4093704179022106,-1.3235063713285522,0.3588475257742312,0.9678977333442633,0.17357080221050195,2.8464091619651457,-4.29632338443503,2.348461602953388,4.283989365099989,0.8358378497084558
-163.0,-3.2482836081838196,-2.188412647562395,1.0598709606209749,2.7316748536437268,-2.1521948385358876,-0.5750611243234349,2.764460722955435,-0.13384187769483635,-2.728207056651054,-4.013547620132007,-1.4998969738521266,0.31617948876665825
-162.0,1.4046410931847029,-7.3460490474602365,-8.750690140645197,2.9099787926108798,5.0824788856084515,-7.987676946888783,-5.794485907341568,-4.628650000143258,-5.525465580205988,-9.175416584518333,-10.646528630129925,-7.600169966888794
-161.0,2.8037714808477174,-0.9461667145290646,-3.749938195376694,-0.9031609391247317,3.281395805552245,-2.3759188417041033,1.9403490852536058,2.033038085240635,1.1318124732557662,2.013877247998316,-2.344525948091148,-2.5086410357839513
-160.0,2.834498466324893,3.7721294431059436,0.9376309767813349,-3.2702151948167337,0.9487209631497961,2.3170220710619693,0.8899828138449034,6.563645687497038,3.06386743211772,5.924286591754725,5.436164435868877,9.34953488260462
-159.0,-4.050601911621615,5.596883077792613,9.647484989414504,-0.8139888960449417,-6.856898178733099,7.6551771394395045,-4.8971468382087675,-3.985525870393957,2.857356563088716,1.9593763460621334,7.227398627779788,5.251785666747519
-158.0,-9.576413894731688,2.2184465711206713,11.794860465852507,3.639112174723723,-10.704378985988088,7.035563257977953,2.8050618269369254,0.8231412191477114,4.129776323662446,2.6934312867935573,2.4021988512368995,1.3948948602267803
-157.0,1.063639360630729,-2.663533595131989,-3.7271729557626374,0.8363860524396057,2.365051324498114,-3.24465145327821,1.2432695414081554,1.052104377000631,-0.9849278043055687,0.45722821423528015,-2.4960952212608025,-5.778509845639544
-156.0,6.078313823402123,0.495735110921,-5.5825787124811015,-3.254755030374161,5.868799785804241,-2.509069999654762,3.0215229112598307,-2.596777366992729,-0.28948972680896795,-3.1242681010777877,-2.6401299450324722,-1.9013595901066411
-155.0,1.3707575939360583,-3.6698006482742622,-5.040558242210297,1.099376626526242,3.2372615181042015,-4.391598382546816,-0.0034890676087713235,-2.5191389104212343,-5.163756900043446,-5.951147935294885,-1.5049999251098432,-2.324517819535696
-154.0,3.3402307499281934,-0.7670331516637683,-4.107263901591983,-1.2592033259070614,3.7523452208967045,-2.3857879060214957,-4.5899645267172025,-2.2606687828032324,-3.461961610264762,-1.5183320500864,-3.9024679722816247,-1.224176291730957
-153.0,-1.5955356188386913,0.7647679264947618,2.3603035453333323,0.4450515006057685,-2.028231910632165,1.5428569832859407,1.241463347436882,4.716160411008521,1.8485363703640294,5.718093629886829,3.033804793620811,3.2470974231449032
-152.0,0.8958396537972471,4.433185126410216,3.5373454726128597,-2.7080021331060578,-1.2912347998133358,3.9697954284269095,-1.3020787882196316,2.793582325184642,3.3948907880311134,4.71680494945599,4.640827124891748,2.2594530190881987
-151.0,0.8704989369943315,3.5676188752102984,2.697119938215825,-2.1760833131642214,-0.9615014056634084,3.1161654325921737,-1.9533494224242287,-2.161557872669926,1.7430952019763883,-4.453738820832529,-4.377669878191979,0.22273288524318158
-150.0,2.2667466872982835,-5.725770760543029,-7.992517447841324,1.7018321343051643,5.082292597294268,-6.802546752029476,3.5841725043036714,0.6878155482383161,0.5328289545068516,-1.6037241680668994,-2.980266488769928,-5.441922715530979
-149.0,-7.911734811838101,-10.727343858339124,-2.815609046501043,9.298664795039679,-2.5149423687301247,-6.803724644197195,2.2044180746584283,-3.9810353336243756,-4.20664943801081,-2.934684724705075,-1.2105547343275713,-2.49389521711203
-148.0,-8.295302861701487,-3.5051024357085203,4.7902004259929925,5.883737995059656,-6.505576850897369,0.5983233033511997,-1.8720760477992517,-0.8724485342085488,-1.9562606472694801,-2.279246505298121,0.31383528394252647,1.8628076192452296
-147.0,-0.562030394788529,7.92806361144004,8.49009400622864,-3.619095763218137,-4.481718301180452,8.23272866010756,2.00449014806666,2.15071036278194,-0.4049162499506631,7.315306526906861,7.141263491830626,6.7506996383108735
-146.0,9.138337361829443,11.351639414774242,2.2133020529449885,-10.260749600200391,3.4376320539690424,6.799258853921868,-2.919968734678988,3.784635460872183,5.802989732472012,5.411299148107517,6.717637857853321,8.04825352800043
-145.0,1.1713679669282238,2.1263559595075465,0.9549879925795631,-1.6675905302841603,0.09292027143938775,1.556516189968276,0.8510311426311961,1.7324399742827576,1.9334999030781788,-1.368611106657897,-1.3575550993689516,-4.23212828194565
-144.0,7.232963971259505,4.817844495446561,-2.415119475812775,-6.0484892554734175,4.815611782232612,1.2223912349513075,-1.3163792825298088,2.735047822794206,-0.35396390304541736,0.13315791453157289,-2.726829053191349,-1.89830194242743
-143.0,0.4573794825122439,-7.873921268424608,-8.3313007509369,3.7588002047929487,4.387704255533853,-8.150607535724838,1.842337006310335,-2.883537129304521,0.27121808781340206,-4.007936466326467,-5.348168676552597,-6.064156647521413
-142.0,-9.048569433838088,-10.566102651325277,-1.5175332174873946,9.773635834578997,-3.776115912418429,-5.99963128353021,-1.1390873234748322,-5.029279738777288,-1.9675591444886398,-5.518436553477327,-3.930555370958314,-5.801383174239632
-141.0,-1.6521869638554252,-1.5552538954829664,0.09693306837213722,1.643114829416274,-0.8937246878407614,-0.7556761413410609,-1.141004136595801,-7.622739706727064,-2.369445519323429,-1.0981915936474462,-0.8815509774648977,1.9364697467638092
-140.0,2.2438547038113317,3.3688188643329537,1.1249641605213592,-2.8515806096490306,0.6084366022884318,2.226702896264342,0.17238172286142847,0.940448628838908,-4.611036386574163,3.253612798204943,-0.7099477602390779,1.4526311977947641
-139.0,3.36319517463306,1.1199950763513555,-2.2432000982817355,-2.214291246506536,2.763854227580959,-0.5800686073940287,1.3262238074430854,6.0972689375456195,0.430583500925094,2.0805305352711714,0.21473003650230926,1.7347007103344576
-138.0,-0.2186956099559636,4.512273611155971,4.730969221112078,-2.125829163193302,-2.4416204647934476,4.679725296204733,-2.176831771623001,3.0751174594297987,1.358826074365239,1.7769911561477882,8.465308188439138,7.491226145376613
-137.0,-2.245170763217718,0.12443578809996048,2.3696065513179425,0.996739604981177,-2.276095931237033,1.2221633125254132,4.1443302230054915,5.253538346197793,6.051726586803503,-0.729177586850208,3.7613650918557964,2.032982713746529
-136.0,-1.1209054916117795,-3.4610061578670632,-2.3401006662549926,2.3018923341460926,0.5636252830604658,-2.9293680894248824,1.9212543259391328,-4.709140099384253,-0.6421371245525531,-1.2912751924101462,-0.6367740731846725,-5.61943919586287
-135.0,-1.9539006824840357,-6.144925203673241,-4.19102452118896,4.059167626547196,1.154004492158555,-5.119848437619896,-0.9569227741507949,0.9938904971551774,-0.7185596033459567,-0.4486468328680322,-7.9308270010200275,-6.098378991731937
-134.0,-3.726761070067247,3.325867668260528,7.052628738327866,0.21300515071587323,-5.431834345028681,5.159819857360416,-4.27054020703284,-3.023673607119727,0.19106704611019232,2.224928100506971,-1.3276800427809463,-0.010825712802996712
-133.0,5.565410106926894,13.02976624083063,7.464356133903646,-9.278230441358875,-0.915268886768549,10.300102629283609,-0.5614056049754652,-1.7817190891246315,0.8772114459436371,1.238123854215792,3.187507244431095,4.027050166302946
-132.0,4.116176507307289,-4.302391706890715,-8.418568214198224,0.12204620619953266,6.216196472751902,-6.381576612946194,-1.692431973401707,-2.0000029764231204,-2.9039355376647866,-1.7974974881953214,1.8872644283859472,3.2960273417158694
-131.0,2.1032833753601476,-1.0856800931976927,-3.1889634685580517,-0.5483562459149058,2.6639530998003726,-2.155040912417046,1.6030448542373805,4.678473688365672,2.0265394361522637,1.6699549622220409,1.0663975953307632,1.1766378186715023
-130.0,0.803243843172254,2.228578873671321,1.4253350304989443,-1.5467271879637496,-0.3034869409309908,1.8096521166483046,0.7091043408472888,0.11307985893801864,-2.7386410110199626,0.3728112681984383,3.613654566340847,4.247592765066486
-129.0,-8.160296452866955,-6.090282837951308,2.070013614915639,7.100252052772603,-5.1151265609555985,-2.03060196354185,3.6271080390101784,0.5782840549828179,-0.9549023006164228,-5.284045101533569,-5.371571708735576,-7.02249127441109
-128.0,-2.3756961821600426,-0.523760896387353,1.8519352857727767,1.5059672975193026,-2.115683773244811,0.7163384629280747,-3.427639944256441,-2.0342334883780193,3.3322917123411884,0.47493838974268887,-7.491766668560903,-7.417326193345998
-127.0,1.3939116763929449,-5.856232041943973,-7.250143718336839,2.2085770846340456,4.325438091405164,-6.586916102765862,4.076826596377649,-2.4599807277847088,-2.4374820402159463,-4.481010358954048,-4.819404934976685,-9.309401012919905
-126.0,4.137715106599724,-7.156591793002706,-11.29430689960238,1.5639716743528242,7.731457803248602,-9.186911652376663,1.4467960646839282,1.674902380827434,-1.466575674065604,2.0094949186599593,5.074667606084393,10.903562497391238
-125.0,4.925410562529517,4.845924032447536,-0.07948653008196027,-4.912153426363681,2.5342845416141566,2.338791853221,-4.33217169221001,1.9395473076369212,0.6349508240255751,2.023757654688506,3.554382427269837,6.804802503631828
-124.0,-6.015996155484021,8.532674563019084,14.54867071850313,-1.2870901340928866,-10.31227252401059,11.573699140217162,-1.378850784000425,2.702394726266172,4.261917846728773,5.155259373738361,6.4551215381016664,2.5792647234131385
-123.0,-0.80486223811154,11.388453644657796,12.19331588276938,-5.322384192602379,-6.515447190448736,11.825193418374141,-0.6605232765619022,2.2561276014763023,4.744132203691645,6.438170806070881,13.639119704225001,7.775371987208895
-122.0,-1.1019459609757,9.428571242756034,10.530517203731698,-4.116299737108072,-5.82530862657331,9.93788218464135,-2.2240819699445193,-5.524152227911962,-0.5263209550211019,0.8500989353882362,-1.4429077152469936,-0.7199665095793868
-121.0,0.21592735564308818,-11.417615502449058,-11.633542858092238,5.6474234968500365,5.915725845123292,-11.564289110728797,3.199662328934068,-3.660869127241055,-8.977977509339608,-7.959363823070224,-15.236768941431063,-11.395645147524169
-120.0,3.7946225462236693,-9.478640666456197,-13.27326321267998,2.8098498381731822,8.519051518558383,-11.333849034403677,-0.2426562206720395,0.13361536078394654,-2.469273456327436,-6.21478730396559,-7.963310380196288,-7.741808547787523
-119.0,-0.1364809859137086,-13.537436945270581,-13.400955959356995,6.804841073870544,6.687114292604349,-13.505228824890036,3.2040953813447066,0.07977817293038433,0.04059582650210536,-5.442950764405579,-3.8837035225221586,-7.591433787683783
-118.0,-0.8907103729474043,-1.2828207976730965,-0.3921104247257299,1.054470686056503,-0.2818953751842592,-0.795727975419692,2.06631543517483,3.426853271089856,1.9935933804874058,6.661704060009479,1.9835917205173184,8.454752213638525
-117.0,-0.3750152586974932,13.991198700432834,14.366213959130455,-6.76192905665046,-7.330167529123698,14.21790995919924,-2.5236738957858282,2.5994029806348,4.2023416862122795,0.16976224402577156,0.821850995838953,7.649878122876576
-116.0,-1.0852919498491524,4.081344561181155,5.166636511030465,-1.4519345705143656,-3.1655672846440908,4.580505072517657,-1.6442458814047591,-0.027060419362116672,2.940769553905441,2.3718618059346532,8.102960234956218,2.9753969644018943
-115.0,-1.2043669416987703,0.7554820711795758,1.959849012878446,0.1922315741854823,-1.5400456351143181,1.309254410119097,-0.05450288413840032,2.172690867806205,1.4883609949020393,5.514380376580644,8.512643449992684,0.9480159916898843
-114.0,1.9143701704534395,2.8026147975402833,0.8882446270868307,-2.3896486375443984,0.48200575199750384,1.8707491856466256,-2.8709919494449854,-5.54385031708574,-1.6703139050848401,-2.536132825913165,-0.8499213128225396,-2.8228395285989603
-113.0,-1.5466427636015054,-4.425503063779153,-2.8788603001777546,2.956449053176505,0.6411889921274202,-3.630656909984472,4.31084527947128,-0.595636598701478,-5.47938316220245,0.7058353084869827,0.5826008026716805,2.8646746756512695
-112.0,2.415711537665581,-1.7107291170297936,-4.126440654695487,-0.30172512208018487,3.3293395367306284,-2.8982697289300865,-7.311561839669121,-3.6352316096734403,-4.2649120562197655,-4.119996264003478,-4.550815761630231,-3.490718549152296
-111.0,1.2717140260639577,2.7816193783858028,1.5099053523217876,-1.9748650895367361,-0.13842888760100758,2.089591517963529,2.2852170978968918,0.5288976099042373,1.028548699093442,2.9020134686025587,-2.324643697719865,-0.83894194200525
-110.0,-4.457266967239736,0.6302481745251445,5.087515141764897,1.8859600571461954,-4.794328858792717,2.887231190806829,4.321707098921016,5.85400319021682,6.462397126164578,-0.7572809719611118,-6.336510915907246,-3.2989074156303326
-109.0,-1.9227193654557833,-12.30529250764907,-10.382573142193172,7.083250672517001,4.202439467253294,-11.307258478092336,6.016179971262181,2.92579632504689,1.561308646594489,-5.761362319192357,-5.152818464965986,-8.549450539017638
-108.0,3.886405709551656,-3.44316919111053,-7.3295749006620206,-0.2584373641597222,5.652659349348331,-5.419355388297937,1.770667196211794,2.377644436969278,-0.8490383141106077,-0.16820576524598385,2.9054246338755343,3.5101766602757345
-107.0,-0.9396595107068239,5.645933746916269,6.585593257623239,-2.3191723905508645,-3.8019958229436988,6.090434538761133,-2.265475685934316,-1.9209583475249268,0.9877560306197113,2.462674477651116,7.662540151846285,7.521353146288935
-106.0,5.806196585461412,13.169917375384308,7.36372078992297,-9.461849213545944,-0.74146666539516,10.324430604126894,-10.311214432535783,-11.327298065179686,-5.521447131647178,0.24352833552193642,3.2992266677157653,5.925498037865213
-105.0,6.149799448360802,12.02184685102841,5.87204740266764,-9.143279140116404,0.17794865667301396,8.925302240180756,-3.9652478202542323,0.36415857239686744,0.611655942713655,6.410109831745317,4.29829341377837,6.089761560802346
-104.0,-10.452701620593844,-9.286002990247468,1.1666986303463585,9.890781682971845,-5.844628522110342,-4.0864902554994575,-0.8827109028822187,0.6236124383298145,-2.4091703731850447,2.597073010416164,0.14758877479739985,-3.927386453058544
-103.0,-4.3115750976038,-14.569351709505892,-10.257776611902157,9.467932891829319,2.9437844863807756,-12.44891455178064,1.6113826084599996,2.6504588134931573,0.17814109882036877,-4.286108746221646,-7.841778620119982,-11.038386112227382
-102.0,0.4060767446352833,-4.657529160902643,-5.06360590553797,2.164088281557788,2.7882562194694613,-4.826643001990505,10.28353627073853,11.64209739701476,6.378809549124069,-3.338628887902754,-3.5971953351792174,-4.041234778298514
-101.0,-0.5649400219005163,-0.8854956036719588,-0.32055558177144716,0.6977184460873977,-0.14707183263655388,-0.5770169836064034,7.4455582507700315,-1.0092836514421348,4.775758562964503,-5.78540783122655,0.19652749871163078,-1.2440292318000106
-100.0,0.17281093167031747,8.67572262776542,8.50291169609512,-4.440683010676395,-4.193524836602943,8.6107201716028,-0.8978162271960293,-3.992635289152444,-3.098696485295883,4.4617796296043295,0.20756002916656546,6.445168166698831
-99.0,5.108916404263732,11.429294372784174,6.320377968520468,-8.279652706000686,-0.6407378223320763,8.895381039862762,-7.0627407049466795,-4.674959392546541,-3.1306645319705093,3.2759839860089555,1.9776745287148667,3.5536068747782528
-98.0,2.4466858629851838,-0.032147056579611366,-2.4788329195648213,-1.2189251112743325,2.4993763067306496,-1.3115369888102073,-9.482101676612825,-7.156832268155799,-5.793000706563101,-0.8185700205269306,0.5704730829159184,0.3562004115831261
-97.0,-1.6544606584844246,-9.317321842376089,-7.662861183891711,5.46666607272862,3.0356821451325775,-8.54220099586184,3.182840722914924,2.8245333431597417,0.9137481378807424,-0.13764098235148747,-0.8817556383156668,0.3697601780748132
-96.0,-4.1298207401779,-7.1285051736519875,-2.9986844334741334,5.6772293948010635,-0.5355467735989015,-5.032319116700843,2.9560817757954903,4.650825501293839,0.915720375526761,-0.3780716133255937,2.8128713015211675,-2.2815032814474545
-95.0,2.554004549310809,1.978840884384609,-0.5751636649261815,-2.3087777537540823,1.5181489438460845,0.737749134607014,1.047505271575686,3.4878533640190814,0.9802815059453442,-1.1651278615900253,1.4675564558704604,1.3874821095802463
-94.0,4.495096573518404,3.3272427845812764,-1.1678537889369887,-3.8831733811987714,2.8683956346570088,1.1197442256164434,1.0271949186852614,2.2501626051859267,4.536886736933246,1.3683622866697136,3.8363578070314217,1.4360750961423776
-93.0,-1.8542903608790329,1.434636273010461,3.288926633889675,0.2348328712965313,-2.608721179550185,2.326233122618997,-0.3222706453968498,-4.163366782358725,0.466802648400487,-2.4745796894750893,-7.192474485098129,-6.800530796953313
-92.0,-3.393626933927323,6.9403236896486975,10.333950623576165,-1.7457554311963577,-6.89803209725941,8.603353192470061,-3.169114971154424,-0.98923883684363,-1.726796592572418,3.8613366897363237,-2.481768366283471,1.3151676875776983
-91.0,-2.3737324775789834,-6.956507384169761,-4.582774906590754,4.620482832437549,1.1490876505052339,-5.803091148000193,3.0239769540238703,0.7942230356906714,-1.5375477021764585,-0.6074705229537133,-0.39094572789965776,0.6951846228036909
-90.0,-2.0097997619881496,-0.8299237456374398,1.1798760163506499,1.3830434665047453,-1.6315157831451599,0.21957533218277225,1.3476731096746144,-5.062359110802904,-1.8702459532960067,-0.8129787083158517,-1.9941663891465402,0.929583158071303
-89.0,-0.08584364589781077,8.27518579426172,8.361029440159431,-4.046157512812112,-4.185230311789145,8.361520117091644,-2.798665481576595,-0.8348363191531492,2.886170494035376,1.8454886706669675,5.414516252717404,3.5630692122003498
-88.0,3.1568497851399293,-2.841231181590883,-5.99808096673094,-0.18428077762164974,4.612008617271512,-4.4563954523981355,0.03130484389564403,7.427166385294617,2.7278861896651634,1.5969417629567908,8.389301252723333,3.1791350728149403
-87.0,9.37059027263273,-3.7489045072409812,-13.119494779873815,-2.836650780317413,11.198871966047072,-8.393995355485476,1.6234204806219361,3.8699138510994624,-1.3818287080476408,-1.9532027948890196,-2.639382032157094,-3.1135249020276197
-86.0,-4.844732413732581,-9.2560038652929,-4.411271451560379,7.101696369883787,-0.2620168803461862,-6.874796389083868,-0.07527140841078539,-3.634089517438362,-4.960649598060042,-7.330280476105729,-9.718186891702832,-8.827672330369198
-85.0,-2.9485324875714127,2.243934566184924,5.1924670537563475,0.3223820331821714,-4.032668941923944,3.673491212451117,2.553426107367792,-2.653816367105455,1.4900796704408672,-0.12421813801118553,0.10289821436938595,3.0766715860498084
-84.0,1.3535777372332674,1.4074489482321708,0.05387121099894143,-1.3337098086105654,0.6954524191308589,0.7606847551367237,-3.2402362232879596,-2.409930739488722,-1.9916825832755645,4.103421945193859,-0.1361973439853259,0.028989303007474654
-83.0,-3.311587679198383,7.5415115548171485,10.853099234015584,-2.147631030157351,-7.105304911391541,9.223844354929025,-3.3003834426509937,0.4799320039042112,3.461299046466557,3.1274680564066575,2.8443943140063483,0.5614746662607898
-82.0,-3.9592343726913213,4.211164641349773,8.170399014041154,-0.15789166927402398,-6.076980754498476,6.215454286859396,-1.163780439204408,0.9048107748366226,0.4475183987418414,3.301124979880398,2.9436497976014033,5.033583720046895
-81.0,10.548155498252914,-0.6261273742183904,-11.174282872471274,-4.912465387313595,10.858231885324205,-5.953801854982201,-2.405965563415793,-3.1558109927669142,-2.4818141244095124,-3.891859945736047,0.5752943325579634,4.664475002733807
-80.0,0.741637465657937,-4.245005707402498,-4.986643173060413,1.7232149752438486,2.866685224602775,-4.587704924277911,9.620972022256998,5.156388011628023,1.1750609861239099,-1.2429257504984776,2.637158049104681,-3.6714586458994236
-79.0,-3.534086139518558,-2.872274061756356,0.6618120777621872,3.2539601355513095,-2.094768462608454,-1.150865184862484,4.663752845800019,3.665137720065886,4.933970901769206,-2.4735637876432914,-4.519701497541389,-7.586540572764089
-78.0,-5.2660410488194165,1.2626269922810125,6.528668041100387,1.9718648191257555,-5.898572202648635,3.934822710416327,-1.0782194879813027,1.0433898931733994,0.8270909731369513,4.711506414215281,0.15893052011008457,3.637853785112842
-77.0,-0.057386351358781784,-7.173262449829465,-7.115876098470753,3.580686344191162,3.519631034629004,-7.099625965530867,-5.490594215375848,-3.4585847022407767,-3.9803777526245065,2.8118344739329943,-1.780608490467416,-1.1588114266711396
-76.0,-0.08186144023496722,0.42641440753026494,0.5082758477651503,-0.1354365205335104,-0.3150957468094946,0.4375490759236653,-3.6405191992993875,-3.827696769582772,-3.9189590005494654,-2.9229368875367125,-5.550264528340329,-3.4908847225808763
-75.0,5.977614931790675,5.642117926931662,-0.33549700485906564,-5.8600044384210035,3.2052863731134726,2.624689977979289,-1.2635723047808072,-4.175647938675735,-4.514679191779813,-6.142632473689144,0.7727334082627442,1.5347221411688037
-74.0,-0.9327509438554267,5.734347086561742,6.667098030417151,-2.3791927118837326,-3.8372599806820262,6.170304706361562,0.00266306555565321,1.9391406484680793,5.2064966080915,-1.716758717629534,5.5502422817573605,2.873104604078339
-73.0,-2.500471230339001,6.476205728006811,8.976676958345807,-1.9700159037223304,-5.700327763368211,7.771038279710174,3.226298101007359,0.8910202132817667,3.8415919960193294,4.307825847305469,6.483913185507191,7.903512584570792
-72.0,3.000301455902689,-4.401818391243706,-7.402119847146399,0.7191344603562857,5.1619941990028675,-5.939923059063995,0.7687864718914872,7.5136831680806,4.77815865299115,3.8885007975012025,5.149706854475918,0.48850455669625914
-71.0,0.5359425428142855,-8.496743781922468,-9.032686324736733,4.003107530150242,4.82867738393013,-8.725876552899358,-1.1622647356915425,0.39383614085313745,-3.0663414283485735,0.08462873765058365,-11.247711175032492,-7.287722600618939
-70.0,-0.3752206074930764,-3.424034295681383,-3.048813688188245,1.849911801321325,1.3089031354870246,-3.1966179602472824,5.534963907319683,-0.8368088738772322,-2.4374576312158576,2.568900008862582,-1.3738766890562868,-2.8265641483750064
-69.0,-5.584705117533815,-2.2174771463226213,3.3672279712112476,3.9360808121616504,-4.498055137314393,0.5395926898864127,-0.8561821482963243,-3.937310207897841,-3.3973851303773115,0.39817923254239496,-5.361529192050559,-2.1454474140615916
-68.0,1.730165843011251,-6.026800480007799,-7.756966323019067,2.1082429908528675,4.803120091323961,-6.922233826413649,-2.2152274956620523,-1.066562849706504,-2.1356799544962657,-8.592938753235691,-1.2587667125702455,-2.731443768184353
-67.0,1.9061202914887923,3.738307832023196,1.8321875405342978,-2.861514841867452,0.016258223685709977,2.837870472075755,-3.0033979844456065,-1.87307204250748,-0.5070148485441056,-3.663218380078933,5.108731606342822,2.8109128484864185
-66.0,3.2368328712993346,21.341186619539098,18.1043537482396,-12.25093228271063,-7.4606613188782624,19.698446258267527,1.040978420531855,0.11487220096262063,4.56400593140921,3.914379564894989,7.499314616213274,5.750350464167919
-65.0,-1.6464622871435344,1.5778440784840004,3.2243063656273687,0.07051264041478333,-2.472003322367463,2.375376351602771,-3.8020198926546933,-1.8509119835053816,-0.19749676917237347,0.7245231319243743,-1.5731913163429834,1.7888647838085974
-64.0,-0.8005398919277167,1.4921516812453943,2.2926915731729984,-0.3891342183230736,-1.5153922047442894,1.8626517165707333,2.2577855892713483,4.264121430884765,6.14920335776591,7.949016618218554,3.2609113548696067,5.430426400418452
-63.0,-3.915219708598614,-5.617660794640008,-1.702441086041396,4.8028947912501705,-1.0845074183630636,-3.6163598641460757,0.6191397287861521,3.929350617140014,1.7032951900743472,2.368748776617349,-0.15604191431096448,-1.460395085306233
-62.0,0.3401015022864844,-15.924555888757467,-16.264657391043862,7.831063667980908,8.31865821494759,-16.055647203391644,5.217221835803618,3.8432520633384564,-3.043365144796164,-4.720997385333264,-5.51144176951663,-6.427831674079763
-61.0,-3.180216951638235,-13.773355538500834,-10.593138586862459,8.439275890680733,3.7217046082641416,-12.225948378758803,1.8213481566776,-4.105774421098011,-4.834632670983961,-6.146333477642472,-8.774320595689396,-8.650373422708064
-60.0,5.0276357850382265,9.30375765971192,4.276121874673832,-7.202177188082284,0.31510600111545717,6.825147248222354,0.8175306364102813,-0.17683474800121024,-2.375833043519373,-1.2379790892955955,2.857962662650083,1.2885205281352565
-59.0,5.264910800563079,5.0648084013059265,-0.20010239925705608,-5.202326502173479,2.7555922316903825,2.3892740569845876,-11.359643970204845,-11.887614682003939,-6.439427002299648,-2.3818296782989186,1.9898806806362082,4.120905398784825
-58.0,4.875107901565174,8.514578656300516,3.639470754735357,-6.656121472336886,0.6459108102277733,6.113092467800832,-3.2840461907598364,0.5926659469104667,0.8804385663660796,1.3006788454994234,3.40085059527465,1.6810421616867388
-57.0,-4.202573646864153,8.342626081276714,12.545199728140844,-2.034265501604673,-8.421268815724215,10.400150007067062,5.593158090843643,5.175322474351397,9.253613770500227,8.197112601625545,1.906631012079146,3.2723336601411437
-56.0,-6.159249029435462,4.552251170399309,10.711500199834713,0.8370721861519688,-8.403349814357773,7.6633706928171215,6.312751172888002,9.037868665280099,9.447769285987873,7.037819906935617,3.0164988624017415,0.39283388482108617
-55.0,-4.99703522897217,-11.338305815275065,-6.341270586302945,8.121677416272627,0.6235982380242993,-8.814305123004107,-1.4440305515902754,-2.526872270163396,-2.7644383882103005,-3.3057639288125436,-3.947764558688588,0.15103313803557772
-54.0,-3.8694024498312607,-5.049101539239787,-1.1796990894085564,4.413735916645171,-1.3178117236442244,-3.175333518072585,-0.7911013073732192,0.08096854424620725,-2.0283082499293403,-5.201812546587924,-1.5786375280609313,-2.30374474400377
-53.0,9.748898667743767,-1.5617713338940122,-11.310670001637781,-4.059063746330418,10.553713080316756,-6.425971578982104,1.2363084917364833,-2.136645813322449,-5.348251474779748,-4.40312453847354,0.7473824706883141,-1.802431027559966
-52.0,4.565368898024604,-5.795683944481622,-10.361052842506204,0.6510558134158948,7.485456503865398,-8.073335396890599,-2.3183606548632736,-3.7290458056399345,-8.825471392578745,-6.060786092256884,-1.98392072230667,-0.6748298168760585
-51.0,4.215652901612101,5.4371616314128275,1.2215087298007425,-4.868383635770926,1.4411680102340325,3.333566166323645,-2.4874660441794436,-0.9502487403081181,1.8118366157308845,3.926508926592654,1.7951509476351009,0.3310061833796496
-50.0,-5.293132667209365,1.110709294477378,6.403841961686719,2.1277993459512152,-5.822474120606753,3.766181969903448,0.1855332829155265,2.359779892361985,6.4847666531236365,5.253070833410593,0.11773082271437235,1.9513824375037758
-49.0,-9.287900717454011,-5.572321529796888,3.7155791876570463,7.386446632427223,-6.548948208591035,-0.9098296908421419,3.8654804868363306,3.9417273780009885,4.16329187952199,2.678260185331828,-1.407052606748044,0.7611792062859389
-48.0,-3.4697726244264793,1.640619272176822,5.110391896603204,0.9470287211277677,-4.251298879708012,3.4065185351862404,-1.374374019638407,-3.522052505495459,-2.7753858456119707,0.14204232559985286,-2.615908848090347,-3.253915919403236
-47.0,9.04630954162556,19.835110888653258,10.78880134702762,-14.490144885059529,-0.8246176348147527,15.276456110912434,-6.531208405564654,-1.7426025073692684,0.43543870933392387,2.7112015867671935,6.445981524489901,6.238338931077367
-46.0,4.391540391756642,3.7992534805965796,-0.5922869111601137,-4.068885522745693,2.4667617304667213,1.5771114769996917,4.898848436575385,2.8813869850642844,3.740403337709447,-3.2224445866784825,3.125562004993868,-1.0483934524458807
-45.0,-0.7601408065854107,-16.198294659381343,-15.438153852795965,8.503890374343781,7.318480676052788,-15.840131985532011,3.917085039035967,-1.4160131202151887,-5.152074688005871,-5.536439874484341,-5.627327658094989,-5.119773252233825
-44.0,1.2966160327319507,-4.470578265983733,-5.767194298715705,1.6108385402585967,3.512777875201322,-5.1407055391079854,3.234318446346112,1.7306444417560645,-1.9015422826009591,-0.7001506790817515,-1.9713412557255316,-4.047560995198363
-43.0,-2.296689531168689,-8.994566440527977,-6.697876909359277,5.590355139100542,2.1797608683996117,-7.791802836765692,-2.700447993023161,-1.334405799233537,0.565736323222547,3.0291519489019807,-3.130139325791531,2.6672022916796063
-42.0,-7.962695831604308,1.0177224029800342,8.980418234584377,3.4950995215422704,-8.41737291503244,5.050633080957055,-5.920344913519919,0.5113550592699108,0.33510508567654923,1.2141784972858523,2.3877923042542406,2.2995394891298293
-41.0,3.678530053364673,9.829897426295126,6.151367372930515,-6.733652575582435,-1.2652556340449097,7.961939939869436,1.6775701985480702,1.2918778476460622,4.00794495250849,0.41829591372756747,6.059356329891006,3.521244739427315
-40.0,4.592346728835387,1.9768256013500363,-2.6155211274852928,-3.3460187487379023,3.650229129816136,-0.3475877133759804,1.5308217959732224,-0.4458682315069877,-3.085692334757576,-3.1569078466852245,-2.7824420576846167,-2.189824486464607
-39.0,-4.2606421478143375,4.606475927324043,8.867118075138432,-0.1591767718498538,-6.5988868229832445,6.710583688614156,-0.35822488746059755,1.4219763375686423,1.0324804379958668,2.5330053991125467,1.4296864850880358,3.3279080620999775
-38.0,2.4787973426879977,2.541483627590016,0.06268628490203909,-2.498863401663214,1.249931661879439,1.3572710852577599,-7.032655334738404,-5.48713638760355,-4.598976041091227,-1.1629020882600765,-1.2307373688477947,0.2485638254464824
-37.0,-0.7622146178722129,-0.5831048408709236,0.1791097770012613,0.6839869090494531,-0.5094778508116191,-0.2233985258128734,-1.126632471212866,-2.0974088404133653,0.789551903210671,2.675791883938972,-1.4544196055370913,-3.2358080303533296
-36.0,0.18980573357972957,-4.923757682816525,-5.113563416396341,2.3815055374771563,2.6103007577516255,-5.039365532825428,11.29591940765419,9.197684391509814,7.329098224220581,2.9186818085713604,3.3371323650334235,2.220417614000681
-35.0,0.16145941371294126,-8.756971074547648,-8.918430488260691,4.318113684115794,4.574180264883122,-8.781052529308102,7.790349701926104,-2.9174235255571546,-1.3018129511485528,-2.6973479328888286,-3.3627077549745796,-6.066931170991897
-34.0,1.072842716902154,-3.0459394272565774,-4.118782144158805,0.9350487151681888,2.627030874192135,-3.608008672504002,-8.979378052585531,-3.1448313793467575,-3.3340402664846973,-4.315615911707854,-3.552961569376873,-5.051041371583469
-33.0,2.0028835678943233,2.7566264531604805,0.753742885266103,-2.3465386274398328,0.5750505193620392,1.724511155495643,-2.984101316310945,2.167619615494428,-1.2551696612788918,-0.6511180547637068,1.227110880681116,3.45831627789023
-32.0,-9.645983219763158,-1.7012638933329138,7.944719326430195,5.631491540922145,-8.766426552836862,3.0858941549271464,0.5454849646603037,-0.83426486340867,-0.8067293236104496,-2.411707428585344,-1.3789987881589887,3.659047187034637
-31.0,3.8707468237971194,13.720032307835874,9.849285484038727,-8.758613365979436,-2.9589348859180333,11.8238807343198,-2.7644801245337813,1.7467337097811753,4.509157658257792,6.571349140546252,6.8957685841736645,7.9043959116800995
-30.0,-1.5730492979582065,0.42634960575358427,1.9993989037118212,0.5287780106414313,-1.832181566578209,1.250981251961571,1.9912579842669853,-1.0502009880799505,-0.38143839290231263,1.3786075173509924,2.68852636417848,-0.00746371832235182
-29.0,7.013069759977227,8.638647294299215,1.6255775343221062,-7.795608440305891,2.7289078727802383,5.171643254970218,1.8051322251184043,2.0686387409410636,1.0087903868692754,2.872672046365856,1.144344743208103,-3.44153738633944
-28.0,6.9110854593220274,-5.5322538160106305,-12.443339275332452,-0.6625966160098635,9.634728482947583,-9.024338093412515,-2.8452421870174023,-0.347870013841366,-1.163668508620705,-2.160158780516964,-3.2155053770506687,-4.484982071056575
-27.0,-7.971263022758606,-10.697832531555612,-2.726569508796728,9.281276869184518,-2.587017496914921,-6.746664834304693,3.978319033531317,-5.738137326759284,-5.524435834630685,-5.825584948042227,-7.977728914456922,-3.4786376891264137
-26.0,-7.106403267017673,-12.220426862460332,-5.114023595442486,9.690485258814821,-1.042708974576699,-8.701567973201959,-2.9548672045779627,0.6359548041085419,-0.08943911026862672,-3.7774359911973185,-3.004671300021155,-2.7074399974281613
-25.0,5.821940880826166,-0.311772789114821,-6.133713669941057,-2.7236717570973283,6.005320542587366,-3.180251433521528,-0.3494868382056582,4.770969093025215,1.9311121393941793,1.961510246646133,2.0373903017961505,3.1679796987872963
-24.0,0.33063490051380806,7.5243037893935485,7.193668888879342,-3.9688634209284257,-3.409469157347316,7.319989222282704,6.2216751831740895,5.204233507896499,2.648149535994774,2.926398259890898,4.819483605725301,4.595757592233417
-23.0,-3.4575314068605376,11.662373758699289,15.119905165559237,-4.059251876254433,-9.271776124816217,13.429108275403292,-6.694879158089485,-3.808400864503392,2.0297081179612713,6.296503650897331,5.915883462877052,4.368223884253474
-22.0,-0.05139837920863341,6.941237586264628,6.992635965472823,-3.476488711804513,-3.587617114591723,7.00538770582054,-0.9106186775470964,-2.940300284023504,0.8011082145864077,2.0524533675939653,2.0517054894704403,3.2171927957420134
-21.0,2.8624996767578557,-0.2731426621152462,-3.135642338873211,-1.3249640284094921,3.010568184814592,-1.7418698480685828,3.232358810293449,-3.653667335937985,1.073202441464687,-1.5567001366277586,-0.6629762271279975,-1.0314467102714757
-20.0,-5.9972214674535795,-10.34651173559654,-4.349290268142726,8.219150430820905,-0.811404203583868,-7.302740135861225,4.673465962190082,-2.3841812968882254,-1.448275370493894,-3.066617364175751,-2.797202509956412,-3.4355990706223354
-19.0,1.7590834817875207,-8.73105839216181,-10.49014187394876,3.4523169349334037,6.141067181160815,-9.641245768386069,-4.494640022423273,-2.8850128763698217,-8.840504604823238,-8.555797871519223,-9.479697803402706,-9.741069442995586
-18.0,7.396858003741188,-3.3464420790820917,-10.743300082822554,-2.0600103137665755,9.092682245833492,-7.075249995127898,-4.820042555343895,4.323113021954777,-6.2443329997334445,-6.653452586314492,-6.924526343662798,-5.148406122364705
-17.0,5.313386536785329,12.090223356801069,6.7768368200163644,-8.656056492001643,-0.7807165569418659,9.400192542404998,-0.495735686318175,12.724584450900188,9.912152549735534,9.506348688788906,10.150997147327582,5.502175093321409
-16.0,0.6174842563551872,7.767361790893595,7.149877534538463,-4.14126737716366,-3.229862950026268,7.498801182807036,5.842777539210908,10.726146867952354,13.209107795695928,8.828579124440028,6.8183934804083615,6.432790885197636
-15.0,-2.0931376535860426,-7.585712225427036,-5.492574571841498,4.819764770799129,1.6619116208185618,-6.50442902000009,1.4470503673837671,-6.220871771609675,-2.480354824157284,0.8886907435089659,-3.8596566684375304,-0.8418365091274618
-14.0,-18.36858819885353,-18.255276587310107,0.11331161154254032,18.30009083450717,-9.198042201388404,-9.118491845710757,5.357861615691882,-9.696627124024186,-5.360639033115935,-4.101810266366826,-2.84785800953374,-3.4612600799559243
-13.0,1.5960152862824994,-4.278361301569808,-5.87437658785304,1.3337920481688652,3.698970176177159,-5.045069541756099,-5.236494407316776,-18.14434206785042,-16.16786900087539,-9.174214089990198,-3.55882273505564,-1.7615385393878227
-12.0,0.8841889434530998,8.753459653958231,7.869270710504905,-4.827619781577221,-3.5303053717938173,8.346603589315137,-4.319449736025964,-6.629940131309457,-1.5598400237046945,-3.0627425170332625,2.9871913517080704,5.6467332662918714
-11.0,7.967073670030667,39.42925316869025,31.462179498659957,-23.71495110144031,-11.70763810290104,35.409200212763444,-4.834410042199829,13.854453419316028,19.02148965288197,17.82891100390091,16.58712913117966,18.376213515773067
-10.0,10.489838744248958,25.99029679213353,15.500458047885429,-18.2699348971958,-2.464680087598939,20.71736409448807,1.4642053430120283,14.04069981075671,10.869665477360755,11.81496139957806,12.128421405677333,10.34235878363569
-9.0,-11.8653418890088,-19.269672179951357,-7.404330290941854,15.601402855985818,-2.2658023887026078,-13.356686843961569,3.985741802082034,2.466884664219492,-0.7486069647337477,-5.679821800036122,-10.663506645840332,-13.640873115459094
-8.0,2.3261153489937225,-25.336915328908727,-27.663030677902203,11.526079310591236,15.04204380286023,-26.434149477406876,-4.32667933671538,-0.5101872139446497,-6.540053423232222,-6.386800824205123,-10.089261034016705,-12.930679906697561
-7.0,5.300253658503344,-31.40373855402315,-36.70399221252675,13.063784934597962,20.974291081525887,-34.0625641855167,-5.76573854220446,-9.624418505140401,-12.315573173231035,-11.924047350018364,-16.37884772210087,-17.09088050349893
-6.0,-7.010478186365606,-41.64716579119836,-34.6366876048331,24.337808236069545,13.78640303143673,-38.14944330136796,14.792769436198313,5.3733881431030435,-14.762690967776983,-20.150777771716793,-23.1361225494555,-25.686322939288715
-5.0,-2.3375776720094397,-9.244809269952079,-6.907231597942635,5.801776322920044,2.2561058258577704,-8.085378589872228,25.443448539244965,6.145175947212734,0.8439123279226561,-11.516382565017034,-11.318871150327778,-11.483154814770506
-4.0,2.951438111962852,41.80601384922681,38.85457573726412,-22.442823172431105,-17.90616800648565,40.31676790855214,-5.981541750965826,-2.3308396490588725,11.745207818710345,17.434150310565652,25.758769866368265,27.80671822635953
-3.0,8.193347970712864,60.32084240762243,52.127494436909956,-34.23824987873523,-22.00596411721521,56.205511275341394,-25.12569047752717,-8.584608907613536,10.506695925259635,28.43741573551487,40.90006829548574,51.174257257537775
-2.0,6.1371192974124575,46.10512469586088,39.968005398448724,-26.099529660236577,-16.87996029262963,43.09229668572033,-21.711849612407754,-10.882947318691537,6.739269533091962,23.0282937308935,27.673516748440797,33.18995697722539
-1.0,-14.168981012144036,-22.605654918501905,-8.436673906357626,18.331119228737073,-2.832341635695867,-15.54622764997228,-1.3161589121191763,-7.338132626350358,-10.13842129887352,-13.32198228126144,-19.28875860242514,-24.000392236105874
0.0,-11.815287193558639,-35.01987837522285,-23.204591181663915,23.44001846165662,5.6511104289081,-29.136227472419804,14.925210031781791,7.585345543657758,0.5107894944497309,-13.243843485174992,-21.331686061747785,-26.518071578319976
1.0,2.7152788438635405,-21.334894953317033,-24.050173797180467,9.332197075857298,13.421488117447815,-22.633880960446657,11.988291221149414,3.3962455092032764,2.0739419630146143,-9.22999649704236,-14.117138248868262,-16.65398664563479
2.0,-7.348496581788167,-23.418908928986315,-16.07041234719838,15.406938720012594,4.324929021683538,-19.759386195977612,15.507517058130142,16.372047778711412,3.3293380238595045,-11.825518532806651,-17.771650021072823,-27.13856809035246
3.0,4.949640060436396,2.2012127801114545,-2.7484272803254477,-3.550404883032556,3.815478313596236,-0.2834681159885939,9.663864905960484,21.26718644212743,10.299990788988248,12.125990965644544,5.662627819507371,0.3542519626462486
4.0,17.969786651789196,21.60835828698415,3.6385716351943618,-19.84071943596065,7.210401666143908,12.616079258052675,-17.848664808563015,0.9267201472561357,-1.2791729172897819,18.73190881962225,23.689358912725528,29.081345385763974
5.0,16.946726153752284,9.851478220043184,-7.0952479337095316,-13.449162708729794,12.062025450209141,1.3697896242561036,-27.473502627456558,-23.8150995066647,-17.920980931335148,-3.425846121042447,8.499955080085915,19.694978304416313
6.0,7.5912821805555275,-8.42465922551751,-16.015941406073154,0.4460809670119641,11.759389369655317,-12.232699536206953,-3.4627272648968184,-21.380484207393962,-19.536062768274775,-19.934906847943452,-8.824835451430346,0.8152080227948417
7.0,-9.539935244359505,-4.763236113098647,4.776699131260807,7.180965830742269,-7.210122415339987,-0.01138561185328335,8.328474590023847,-9.590550769839842,-5.472144024091135,-9.127145470707541,-8.594470486077554,-2.1182764936586693
8.0,-36.677641067545565,2.466849374059721,39.14449044160545,17.1345050072918,-37.89027257824665,20.860999318841905,17.11716149573797,-1.4171328157070349,11.175979645810365,-1.50225149740655,-5.0562325780778234,-11.123199426123318
9.0,-25.137268272839346,-8.680173340560483,16.457094932279176,16.858931068566662,-20.778459782115107,3.8618654608621856,16.89442309263351,7.890952618156247,9.912298912625994,-4.623304527064419,-11.206659428528368,-23.56904043225963
10.0,7.483012173965378,0.5950089306301504,-6.888003243334818,-4.009920598940434,7.208048331209227,-3.0947807877162403,-0.7371708568478414,16.791515624844422,7.084599644648913,7.091432038835919,1.1576366108555631,-3.66701553264053
11.0,39.605257254772845,19.464899165411943,-20.140358089360532,-29.58430905103144,29.90517183421061,-0.3632095294962281,-21.894351073318273,24.300923581453794,13.959261892340898,29.05448488755596,25.758801117492897,21.929041113377604
12.0,21.86890752840896,26.61416149241339,4.745253964004641,-24.211266880053415,8.529450725692072,15.656042899465529,-6.2561989098331505,18.959948341264198,19.14844211547511,32.840917382479766,30.81533107805754,29.68230635685056
13.0,4.955444039793049,5.219768125671644,0.2643240858785383,-5.056223455968986,2.3281754179417415,2.718495654742383,-4.633530992807584,-17.475075226894052,-6.939541481536177,-4.218514161992356,-4.187483263509787,-0.6592212196228235
14.0,-28.30072223852979,-16.7410466451558,11.559675593373642,22.475015936799977,-19.935138928707296,-2.5385146451829677,7.8280174527625785,-25.382657436574533,-15.979701696728458,-27.368646361223853,-19.874810326837242,-13.086031586495263
15.0,-13.347366389079822,-30.931282436492946,-17.583916047413695,22.174040067523,2.120459142721825,-24.29080642906764,0.1318954374183594,-23.438456444711363,-22.916252544198493,-32.21235001610745,-28.276277494276737,-20.473865343380634
16.0,-2.067496437189858,-22.67199010221739,-20.60449366502806,12.327792670226277,9.271161582261978,-21.60227187235691,6.1716780350831675,-0.8090482760332307,-17.12459736720961,-22.246602016017185,-18.231564329380824,-17.104284911870902
17.0,-5.553506418324146,-5.444276586222829,0.10922983210116222,5.537938666621521,-2.834585664787095,-2.721189947615783,8.580888264059949,13.948305433956907,3.126138600007189,6.72723539301472,5.424314165783553,-0.9130109828365045
18.0,8.099212452164508,12.44531105212413,4.346098599960076,-10.309658034859146,1.8627149032018284,8.410849580652314,-4.626823037602101,7.729008874589248,10.833509578702413,18.319209727972066,15.287297630534352,13.534964911509675
19.0,4.4874955236763565,24.12652987523336,19.639034351557747,-14.263489052082576,-7.523831921294358,21.891276002713454,0.45565022306130554,8.999346110569842,19.589930018189367,23.04465157674418,19.291165460508402,18.552528394286178
20.0,11.191495888657471,16.215477477681958,5.023981589025139,-13.737012994818718,3.044209189448657,10.626597326866152,0.5600802911730103,6.885972581545895,12.306483530160968,12.431013260420603,10.369877719605809,10.239598401624239
21.0,3.899227562847214,6.507803660985372,2.608576098138398,-5.1574745534130635,0.6743069146146112,4.568998846878051,-13.861710402047681,-6.779712719175892,-3.1792334744609523,-5.878129789933794,-2.269952714858796,-3.915611248213507
22.0,-4.324161169786564,1.5254143944313054,5.849575564217814,1.3662972154799862,-5.142679322668897,3.7069237497949574,-3.8898918269821676,-7.305103887115064,-5.489699091486349,-7.7402702069023155,-6.285699232605678,-5.870564472856932
23.0,-8.244537349521364,-14.906683788075263,-6.662146438554202,11.541033391966124,-0.7692792226761239,-10.832497217580297,1.3650477810315604,-3.346592702947844,-9.094138879930679,-7.8206939773917306,-11.01667697856238,-10.985631292975473
24.0,0.3336268724843716,-5.908185957463161,-6.241812829948035,2.8293432628509176,3.3134839892656665,-6.033025904467511,9.330039955395062,4.329532244873974,-2.60232136190327,-3.447116852615718,-3.449762398572158,-1.940925671841926
25.0,-1.927855954951474,-10.604802990650603,-8.676947035699602,6.227784589724155,3.407842522570225,-9.668498495004181,8.56614994563477,2.8920979598799743,-0.5272991839596077,-0.9105816268711795,0.8684755154678214,4.718734199754514
26.0,-5.08927453016449,-5.806904633905112,-0.7176301037409969,5.487500940895767,-2.222034524960402,-3.284124075820295,7.474217893613369,7.218859384849342,5.636954336062527,7.075238336114216,4.697285641873531,3.990271657179118
27.0,8.177022331761556,4.843613204853975,-3.3334091269078465,-6.470253029373495,5.727773443207071,0.7355927995870715,-7.09157702287642,-4.2317863029940295,-3.077054413695058,-2.453313406709027,-1.457250500696857,-7.8536628714443495
28.0,3.663556745920767,-4.196691249988394,-7.8602479959091385,0.22980296587904103,5.741081284931249,-5.969443870199088,-9.221520596540834,-7.667727877641917,-4.073725660779218,-4.827057142809636,-3.7963293875823765,-3.881612029422514
29.0,-2.371945609642453,7.433732837970843,9.80567844761361,-2.5649966020245425,-6.027139273556875,8.598282732451686,-7.754582220701098,-6.125398547751117,4.370802756088992,1.1612249009905935,1.3714972813534025,3.352917914975147
30.0,2.111394643782556,14.870347305053723,12.758952661271515,-8.522098944178845,-5.3397539880571845,13.869465910911016,-0.02538761855314764,3.119038300610718,4.403328536985034,3.659366021210313,7.426334782294175,8.92945941595855
31.0,0.2347281861764095,9.647393795734903,9.412665609558696,-4.89082990638426,-4.605589892324687,9.502834280091811,-0.3761560636535918,1.3974863518399618,-1.3642659325191775,1.6736355122418511,0.4245799148963152,2.8550089166642287
32.0,-12.333897532228526,-8.727887312706287,3.6060102195223496,10.58326791964489,-7.987828274365491,-2.592364526522001,11.85597379497559,9.368911143118243,2.6784546980151616,5.244813195578429,2.5164806195766407,1.127224038010493
33.0,1.125543545313568,-11.500395509946575,-12.625939055260147,5.1619976732174635,6.935770302610195,-12.099719214912536,0.2557328922787736,-3.362412808378724,-4.143426367392178,-3.3354497475095246,-5.615742614429275,-4.740726431499578
34.0,5.832371208651016,-4.180697210518532,-10.013068419169606,-0.8523006296479565,7.904170662199263,-7.059981307552651,0.26358066813750947,-0.667263899451606,-3.5975789950834307,-2.5137600940755673,-2.829400064536323,-3.212112893290396
35.0,1.3238150114596992,-1.8454959172801306,-3.169310928740014,0.23084905120790267,2.22931300804406,-2.474735395894105,0.8638187912188233,-0.013019411249560076,-1.6414280372514738,-4.261182715416826,-0.08896798869134503,-3.3753635448723593
36.0,12.30071600159409,8.601903269661069,-3.6988127319332307,-10.408379419258372,7.984623240339738,2.4034941691304725,-1.3457819119213517,-3.6252857749893335,4.50459359097915,-0.24991248666811527,-0.9738042783270004,-0.5480170555320372
37.0,-13.663711815922184,-7.955011549886955,5.70870026603499,10.766386095080055,-9.699040563209055,-1.0915795058197744,3.9155258744780213,2.5438239649202052,2.3715790533720758,0.05914679222491198,-2.3188454111529095,-2.2128084595322903
38.0,3.268950554163559,8.287724313279401,5.018773759115703,-5.749647877062232,-0.8073292715617999,6.688199919056904,-5.34526719608326,4.68362226120741,2.4556959008079393,4.46456190440216,5.028072966855331,6.826994359431064
39.0,1.18002898258618,2.1518881420401623,0.9718591594539427,-1.6430386536183472,0.09294014112788895,1.5227670467326773,-3.197040079053814,0.4879679224216351,-1.493645089864621,1.037663421262923,3.2605037610472567,3.58437678784887
40.0,-11.250011600593613,-8.083105900417205,3.166905700176534,9.685643725346397,-7.222165945907664,-2.4927548193383435,-3.438165796885119,-6.522493397450715,-5.82467954202481,-0.7308497903379529,-2.782539455141439,-5.1459257931095514
41.0,4.44584281707801,8.371632647480947,3.9257898304031262,-6.47042020158268,0.24074498408394085,6.1956613823834825,-5.543353244760169,-6.412813545257206,0.3922754550295049,1.1970714148161183,3.277246457253384,0.8344935043620738
42.0,0.16317531925118378,-1.766397392827296,-1.929572712078276,0.8178880540148046,1.0190451413391735,-1.879239955608494,10.810985398769041,3.484718958236242,2.625846124246073,2.386771647046799,0.245956830178527,4.054592044308604
43.0,10.654647726243995,-3.4596055411530555,-14.114253267396952,-3.5814408007853293,12.426948151796338,-8.74109991118135,0.33504337784034366,2.5524856729293806,-4.352938186760932,-7.659124352958389,-6.580183031488463,-2.3665938827076305
44.0,2.4447906037365223,2.2579758867550175,-0.18681471698151864,-2.335224853335133,1.2719597809765846,0.9996252780907238,-2.272279524609349,-1.8244733328628047,-0.6631465478021704,-4.287516598670988,-0.6950611801974587,-1.4991158107820652
45.0,-11.326907374989826,5.482827449517753,16.80973482450745,2.8599611353952366,-14.0377033133067,11.107258600485373,5.710876029829298,5.1957645863698305,6.757956704060588,4.647588445121259,2.756914425968435,2.2369820438608854
46.0,-0.4187015053750751,3.822335205849858,4.24103671122477,-1.6836189737574554,-2.2993922682868604,4.0697260809910905,4.226319302667649,7.821002187534491,7.252433805385321,8.409637265486614,6.683163637365623,1.5501649475092583
47.0,4.962299777895667,1.6025892899636718,-3.3597104879321362,-3.261000391844984,4.194753101944855,-0.8398918884776299,3.6573857871620437,1.873635204064022,3.201224767619228,5.977640053432278,1.2208756180637046,-0.3207516156247926
48.0,-10.869292874882877,-27.09366574974716,-16.22437287486437,19.0082791283914,2.6371562158509345,-21.69617332219282,-9.78913852675042,-10.03177099359172,-10.879681253985613,-10.300836713435022,-11.518270584915491,-8.264393173530125
49.0,-0.8745307568950211,-10.740723845809416,-9.866193088914397,5.762849946049891,4.458926485301495,-10.257714995547762,-8.118941795760223,-8.571816299743498,-9.64560984624556,-8.969876219139282,-4.2560860498196735,-5.430425330401863
50.0,5.191739063934787,6.57032445259291,1.3785853886581672,-5.839112532150539,1.8701821285378812,3.9450740789328105,-1.6580270774333252,-4.248159625506485,-5.734155864438337,-4.501208354131155,-0.7705032917027612,1.009133198514023
51.0,9.739380226466173,21.67155256655567,11.932172340089556,-15.73510565171227,-1.057041188810083,16.773917067258886,3.7896276942941416,2.182157697951414,4.046052138154077,3.681848381164,6.029949224368212,6.539551035890394
52.0,2.4959484494525634,11.710460835091624,9.214512385639104,-7.127971243566653,-3.3257930245888025,10.43288201504977,1.9570126794962488,11.634439981551314,10.855211956880163,9.808177215176384,6.176432754907075,8.051081071059986
53.0,-6.4944038162446125,-2.5384601411860572,3.9559436750585917,4.571802596862674,-5.199182517500474,0.753269437192726,4.560963706736969,4.9557725783885855,7.121790227767422,3.9492628830959386,2.272820101154711,0.5054970680881588
54.0,-3.550325562842006,7.536483522573026,11.086809085415034,-2.0190440829052747,-7.379217127799081,9.349541660496255,-0.004108312501778233,0.777781805386252,5.307087772191302,9.320651728541735,7.857091802153263,7.120243548100821
55.0,9.017359401907179,-4.782201232917862,-13.799560634825056,-2.149809952665319,11.419267211999482,-9.339128490733923,-1.6038993011634828,-4.7263935649323185,-6.3756293196925515,-5.664113438475418,-3.387490755375132,-3.5021795468555057
56.0,6.2846213199308805,-5.791428782842412,-12.076050102773353,-0.20900950245169891,9.185213394551534,-8.910228296126645,-3.507082073468422,-6.068571061810205,-7.637866436815838,-7.63653705902326,-6.2588450529398045,-6.881013202159268
57.0,-14.586064551929937,-17.529181902983204,-2.943117351053358,16.085153025264624,-5.820562744042827,-10.218284471763571,2.920288443828557,-3.041981082160653,-8.887108005306594,-8.813893036605418,-9.133001265149163,-8.959510641800094
58.0,-17.833697819882904,-17.52559247866371,0.30810534121911903,17.619043497992628,-9.071596202940778,-8.67313740546069,4.410333833457992,-0.07558602840698914,-0.9804843213669647,-5.01621686359764,-9.575264704274218,-7.818865574516802
59.0,-0.6053585317717056,5.5351688683673625,6.140527400139043,-2.4537014766244196,-3.3727809991408404,5.8515206443639975,2.9630579459897493,8.639280342798873,10.084840334151629,4.305544999115941,5.159826420678902,6.008926395479444
60.0,15.968358407022437,16.414663895751914,0.4463054887295055,-16.18342164359637,7.764238873762661,8.446746318332583,-6.43152549532728,1.9621655813004333,4.981273344197416,8.342033586926632,7.8160579596587185,6.342691218845486
61.0,8.49420672552867,16.20560487474522,7.71139814921661,-12.340436093542445,0.39924661653394855,11.980526727435848,-1.4834604752099865,-0.8162972800012271,3.337416902009422,7.888293966722546,10.685640662012354,9.190970101962407
62.0,1.5247807865107195,-2.1087361986445963,-3.6335169851552473,0.30698147752321425,2.5923815876374325,-2.841040654573556,-2.7535274219274872,-3.278353122186365,-5.2013270623501215,-2.1614911670307704,-0.8532515955073574,-2.8448265410862943
63.0,3.53107660677862,-2.8122889651708616,-6.343365571949453,-0.33602520569072114,4.8770552534441025,-4.617678051158773,-1.8704987582824042,-5.062698625649449,-6.493071205885648,-5.122031389651097,-4.679073580243509,-4.508142264099515
64.0,2.20598520964942,3.692512540161405,1.4865273305119873,-2.995318031641692,0.3830448613350496,2.557506255965181,0.6032515563344107,-1.8538887374311204,-0.14201292886296146,-1.8997698104098193,-0.24208719301632664,4.4288741397328035
65.0,-7.389390152143486,-4.854868238990886,2.5345219131525787,6.084546528736227,-4.934824476161659,-1.1866843547930435,0.44610280945377134,2.0995508449093703,-1.0872260532658018,-1.6056661471844849,-4.013722867484005,-4.0893473635059
66.0,-10.365882869945057,-11.717534668729687,-1.3516517987846846,11.089441810367132,-4.477145803429908,-6.479917589832713,3.460507704701746,5.63809733511183,2.9745203472948925,0.5919583272363274,-2.987008588640635,-2.3180691522170225
67.0,1.056706691674819,-3.250553933942295,-4.307260625617191,1.0703056984706514,2.6352116208968837,-3.725076399653192,3.2637902244280625,1.6965089910364162,2.9103961776470992,0.5133562185339604,1.0495792125982715,-0.5999970127844678
68.0,-4.034780086183806,5.030927876050795,9.065707962234502,-0.44333529904304214,-6.595425748524346,7.019389165870839,5.358001698076299,3.197136820250913,7.377546891454672,4.797211328321229,6.3600000635925715,3.757526538109101
69.0,1.1847638371843798,1.335115971898927,0.1503521347144552,-1.2825170079116397,0.5526111954131783,0.7071518172165114,-0.5689131505994365,-1.3155292261169578,-4.001387320053887,-1.5797530067882515,0.041111417599890565,1.3143558066277352
70.0,2.5625860143704604,3.183076261665083,0.6204902472945899,-2.894541560749038,1.009195819693483,1.8581018821132562,-0.7246668986472602,-3.7062795644788804,-2.747988570840357,-1.773063342049262,-4.875314056493965,-5.104662565312477
71.0,11.753870441533298,3.553957429310822,-8.19991301222246,-7.67483444880146,9.940152263242272,-2.295511638410139,-14.350588490641298,-7.355643979198468,-7.272774682583524,-3.6089718640338413,-1.9304048437085934,0.3370486477625525
72.0,-4.975734073856589,-5.873614375239686,-0.8978803013830179,5.483543730166543,-1.9924790052824832,-3.36316018897755,-0.7881960559578616,-0.8395776128120294,-2.540879205952612,0.5907493539581861,0.20563730439721994,-2.234410078715315
73.0,-4.876391467509244,1.7620513642725433,6.638442831781916,1.5386571744417021,-5.785946228799153,4.222338720592676,6.961113307426535,4.61600128334865,9.296643626280236,2.044300338556776,3.6831705420385776,5.725721509791792
74.0,6.403636843299798,16.517131929657438,10.113495086357773,-11.477440354471867,-1.8818287900748463,13.341651055444506,-0.3351009580612767,3.6786166684163084,5.748517885377357,10.33610987372313,10.294801468151318,9.345769140507842
75.0,7.319023428109023,-0.4592211946821996,-7.7782446227911715,-3.4459239473750047,7.598875976275567,-4.163257211109352,-2.545821407751194,-1.4043850862514256,0.02428466774127669,-2.8999160363686514,-1.8972499368284281,-4.783492535281122
76.0,-6.9218073474774755,-14.714196879929412,-7.792389532451941,10.88070874148651,0.4017453076474873,-11.288347961672761,9.058985620861378,4.204290838227985,-7.779402428164213,-4.146092782287783,-6.537953222270164,-6.0690335468953345
77.0,-14.784954029120312,-24.36161718019747,-9.576663151077163,19.555668345469858,-2.6452565163449573,-16.916596309470354,0.08070679285726623,-4.14520563190368,-6.216019688625228,-12.185099876021349,-10.314425189182506,-6.797402670032035
78.0,-2.340593016133215,5.172174582411952,7.5127675985451825,-1.436586889138896,-4.897386673101519,6.322865863430478,-2.3675851967627723,-3.1788961882511364,0.9159520900584459,-0.3651644643859431,-4.277142662767056,-0.24512171280968786
79.0,19.69321134091553,18.59771772086949,-1.0954936200460548,-19.170362624571645,10.416468876771459,8.73517919999309,-2.066953214661785,6.397700742862003,5.53145906632722,8.510212841251073,9.83348253351504,5.2997328542285045
80.0,7.434931298418351,11.547256352629207,4.112325054210804,-9.519592233082017,1.678774884923481,7.814865205425165,-4.250185698535378,0.17152771657895116,5.508985375487789,7.636788864660831,7.552535395122794,6.8647850229912475
81.0,-16.687304993067475,-3.694913034196574,12.992391958870845,10.239965609261096,-14.824225022413417,4.7118272647111725,5.837491525083671,-4.3310074840939015,-0.33410932523505465,-1.1379823757855316,-0.6553843028117541,-0.8135072497238482
82.0,-12.81140955702293,-8.967134247232492,3.8442753097904294,10.940106269673405,-8.390824420467126,-2.578409674108538,2.9223145450162606,-2.497411510941851,-0.79809137752569,-3.7011619023979447,-0.8186093146630662,-1.34944726266894
83.0,15.521201016567929,0.932343598983373,-14.588857417584528,-8.249406401908317,15.071591689266103,-6.846083785343232,-9.058815136762652,1.5347591225981836,-4.214726919996396,0.7990620416259633,-1.0523302676921398,-5.281070239581112
84.0,2.3903911901803854,-1.1601320160348148,-3.5505232062151304,-0.6305929302406256,2.9872753969257104,-2.372781710603708,3.078083758889345,2.277299252943634,-2.5718796915311524,-2.454299920427914,-2.0359490334141777,0.33522286973435467
85.0,11.086294674900852,8.923671502096234,-2.16262317280452,-10.013563704852963,6.64049553206486,3.3649855003746376,-3.481004633775229,-1.0401244447502376,0.40073708428670596,1.1003799019300282,-0.017442245091072284,1.6992657398456452
86.0,-16.97089051187437,-9.633265408015918,7.337625103858553,13.298092561681969,-12.218374484038307,-1.081411179949169,3.6980592515633974,-2.2232528809652274,-0.025913057003577822,-2.2606985341932804,-3.212331899088761,0.7864237777047536
87.0,-0.8595501937562142,-6.196275972554467,-5.336725778798199,3.5252236411505047,2.2523940497486836,-5.775334762926496,2.354520459996756,0.583806393232555,1.871040023101911,-2.4939126684413635,-2.7487043065211623,-2.6284875936368386
88.0,5.300568507313845,8.674048207004413,3.3734796996905922,-6.991686764224421,0.9785832650515072,6.017192721248007,-2.41232799933849,5.9092054652877595,4.8606792889616575,5.5557222231418875,6.696061130391561,8.082785225620903
89.0,-2.3178810155684912,3.5841721466635352,5.902053162231989,-0.640785134460734,-4.090610029502082,4.735947845350559,4.591632927080159,1.9915322989857238,1.966054895423699,2.2684192931918803,4.9472006135884135,-0.49015631237501633
90.0,4.683692741786732,-1.1097422762625433,-5.793435018049291,-1.7976181221205625,5.2652301806945365,-3.463119552372522,-1.4280775281112572,-3.4017378828079736,-4.712361886484092,-3.5713294480984423,-2.8464887148714,-3.9639392142243
91.0,-3.019053075687541,-3.600669913470764,-0.5816168377832001,3.3766072113259087,-1.2619145875330817,-2.110440796666363,1.946752731954146,-3.4829589637839584,-2.6553172162529672,-0.6472450739661497,-2.281981279817924,-3.1922783767293614
92.0,-2.6011048748776178,-5.422189715918252,-2.821084841040599,4.0001937272802595,0.15371711282921147,-4.150380568649259,-4.3076003568859695,-3.800191816752398,-4.275185723418009,-3.015750313276815,-6.52004672938041,-6.5357005749324095
93.0,-0.311262888179467,3.722433178774839,4.033696066954323,-1.7155489595969282,-2.2022958710807057,3.9194177645182076,-3.9221352019367495,-0.41624761840075863,1.9332502950259234,3.4166692730449846,2.019244064122305,4.302609086970439
94.0,-6.441315787363496,-1.1391797167349227,5.302136070628594,3.7809995963553344,-5.900529053127582,2.1171705308678193,0.3079081272911446,5.747615242030569,3.4450882609098867,3.2147627114760082,3.2810551125733287,4.532461216077764
95.0,7.926902953386097,1.6108945568640611,-6.316008396522051,-4.7797791058366474,7.089869775006111,-2.318515851140289,7.512540693014627,5.674398995906447,2.32486821155946,-1.5155397231315102,3.773616718866289,4.213745730521082
96.0,8.494311323690606,7.885229560851695,-0.6090817628389233,-8.205271175123958,4.594178772763242,3.5952772043898777,-5.719856085151147,-4.931691426040078,4.881252591484666,-0.09176826122414239,2.814769966062873,2.449496344544497
97.0,-3.92881811788046,2.184171809873434,6.112989927753864,0.849820029590028,-4.982434993456705,4.109830873285027,3.5290042256825647,1.7065294739323498,-1.982888417045439,0.3373631155460929,-2.092895808262549,-0.9608590365755602
98.0,-0.5995618589895213,-8.724058467730075,-8.124496608740579,4.7102323939768285,3.7209440538638328,-8.458418046572442,-3.368069858641578,-8.12154663056724,-9.909959121228413,-6.71362677464063,-8.396129988075693,-9.644983884001407
99.0,4.072616759024678,1.8072160424840038,-2.2654007165407073,-2.898322230183039,3.2085024456066433,-0.18041808289539274,-2.9324417052706035,-0.7821660512350648,-2.3674067923311393,3.2175367840176143,-0.976885377365591,-4.174616777111284
100.0,-5.030009060420431,-1.2351297685954539,3.7948792918249348,3.0909743498322735,-4.4468466021057695,1.3315114578901346,2.3925759598752143,2.282030881905145,5.576936304389774,0.9633068624218922,2.701047782309016,4.983603799011091
101.0,-6.945342355109359,1.2537433122162456,8.199085667325592,2.8027701396350984,-7.522652151363326,4.7009267459098885,6.490187581855043,8.264994808967767,5.531129961416654,5.280185660363465,4.376206042057676,5.518228969893423
102.0,0.2248514214692494,-3.911953776660284,-4.1368051981295455,1.8806910766078202,2.154529965580416,-4.049633930896565,0.9427926364764017,3.9689949611719757,2.683207178322608,-0.34088727095412175,2.6923215657344297,1.6295627011536418
103.0,2.7178319443469157,1.3213200241654854,-1.396511920181415,-1.978899228030677,2.0293324956307197,-0.06380556172499133,2.0378393386050826,-1.1342755220662644,-2.454869399998578,-5.6137603448196325,-2.312681483832927,-3.8504639546573256
104.0,-1.7744115596769765,-4.273178541604703,-2.498766981927652,2.9902900066228866,0.3276744390022417,-3.335008636490158,-6.207851041699186,-6.209221347572901,-4.514807366278848,-2.8743817824099507,-4.346867185731229,-3.040718426091692
105.0,2.197381678883628,-0.5280552840576294,-2.7254369629411936,-0.8637304968181538,2.494852010384098,-1.6559172147296986,-6.426646057637096,-7.778192598349927,-4.1912564449355205,3.18001038294275,1.6021443079892923,2.1876752424893477
106.0,3.967616290464656,8.356825994443554,4.389209703978932,-6.187975961254356,-0.19008551961353337,6.343330592223418,1.2848992640684753,-1.2751410605776918,-0.4809864233765806,3.3495206293552022,3.5539483606466407,4.796659709237697
107.0,-12.376715540340227,-6.306314575979702,6.07040096436056,9.395934615620881,-9.214955229327092,-0.06846785143149026,2.4386484136447786,2.2535026617393425,1.0468226669176537,-0.8450736829306058,-6.503267117883781,-5.517856394108938
108.0,12.810111846880865,3.9968185277595154,-8.81329331912131,-8.350140088748248,10.81085273830987,-2.3582083286381392,-0.42321827445351,3.5057711084461287,5.3804075401464795,-2.735145125090633,0.44276591546100974,-1.2205402460987986
109.0,14.241907418217492,9.63523522255603,-4.606672195661425,-11.968106755114224,9.417710682296793,2.4846326230278772,1.375242131764083,7.207920074998155,1.5288019554206809,2.0521105241220536,5.49040621974779,0.3550761902848014
110.0,-15.544405948476378,-6.436322320085594,9.10808362839082,10.95367457059654,-12.334691967789732,1.3021943645276925,2.2743263959172704,0.7313107575463262,-0.4816004540520369,-1.9075860164480787,0.8357235143368684,2.637975571103621
111.0,-3.4045782813921246,-2.4467473745531643,0.9578309068389137,2.879731647166312,-2.188134431728837,-0.7860279022256479,4.060541510078229,-0.35878263642683195,1.5284835496231821,1.5064568639923253,-2.8524767228756294,0.4616995261571364
112.0,4.616610440421122,7.318398429773261,2.701787989352079,-5.943884398473936,0.954631467990994,5.036379280133016,-2.452958254218463,-5.63849097302335,0.10334608013290725,1.539552642689963,1.216629730806687,0.013966576237452899
113.0,-7.821592633854413,-3.2095754739090827,4.6120171599452835,5.5328341043977485,-6.213646263660861,0.715932059102428,-5.869792048276145,-5.386083248343447,-5.4211417438722815,-0.6598532355180788,-4.788159576522474,0.07784863593833616
114.0,-0.347170438265052,-12.86051941383693,-12.513348975571837,6.619888187636776,6.09306541749495,-12.681456321389838,0.7105054119415501,1.9020436936521747,-0.33785309986829715,-0.6444010359470564,0.3568113097821304,-2.2708406669441783
115.0,-1.1970416113508282,-6.2100338487470275,-5.01299223739612,3.7242997321402007,1.924674694862806,-5.6103236159145045,1.2315817782532674,5.092410498891496,0.4132196372516961,0.11421810662713949,4.504669282104712,1.6246916036711139
116.0,10.95696153760515,9.70711503469121,-1.2498465029139045,-10.301935948521482,6.125832710449147,4.231744946948195,4.489505165412975,6.168737467769526,2.41601299001815,1.0676836361050859,3.5676431058562805,2.9336098585333543
117.0,0.043622715079830066,4.0116177384755565,3.967995023395671,-2.0652279230184263,-2.014276712138065,4.00056718158158,-2.912732265817281,-3.182828021117786,-3.3658377737809175,-4.45700531593015,-2.405811551673662,-4.28298096187407
118.0,1.279359529447909,5.973287763801588,4.693928234353495,-3.6545246659125614,-1.7564294564238907,5.3557207473755755,-0.00023905700474183278,-8.76415393314759,0.5676198543403619,-1.078278372996626,-5.730855255218094,-3.1877510271021583
119.0,-1.264913942238888,1.4598390511004737,2.7247529933391688,-0.12026940056315905,-1.9626463482579322,2.047842815386454,-3.0895896241409764,-3.6161660054782923,-0.027090104932999237,2.102288296790024,-2.0788890076485,1.8896426582510368
120.0,-11.64681735648552,-6.796645357958999,4.850171998526343,9.199704704329948,-8.212984114769446,-1.007456606291427,-0.784850905097108,2.923305920909854,1.4462589447495415,5.083175528936269,4.782875070935379,3.831673358410983
121.0,-6.138449714700775,1.8942817991099568,8.032731513810676,2.176052985394791,-7.045539499557734,5.014402699845542,0.7156836892544812,4.702060778711396,3.1326972540556928,-0.3307304758640619,0.23122076478686338,-0.5729864530441886
122.0,13.299678522870945,-3.143562369578355,-16.44324089244917,-5.028460299697638,14.83781399892505,-9.819452894932947,-0.014142616915886363,-0.41941266296952984,-0.7889276945414789,-5.883532677136451,-2.7499859082439384,-3.612297994216652
123.0,4.991399265478999,-3.4488227834180027,-8.44022204889676,-0.8046738290170757,6.685966478866344,-5.894132935952793,2.8849253709180473,5.422575797471453,-0.08470365838686722,0.9873126260604779,3.7183725004676744,3.3985850156232944
124.0,5.671499163029181,3.992541070968618,-1.6789580920603449,-4.868508400774001,3.724615681947611,1.1233146475321574,9.69321250501588,5.363112600465878,1.7291525626565964,4.118428402801367,4.731646808692489,1.6396922814998967
125.0,-0.7370402421763238,3.8489143015441774,4.585954543720559,-1.515456303755775,-2.695078784410171,4.177856442607098,-6.142837720076015,-4.6614441390486245,-3.4483763639402207,1.3930692053099227,-1.5799213202653872,2.049086621890973
126.0,-12.10695776989391,2.0333627784781187,14.140320548371971,4.99775585336854,-13.166054432447549,8.120900668146819,-7.000080036609232,-8.065702621371962,-0.22477086199815122,0.9407477032217799,-0.25478073520233924,-1.3119048417952919
127.0,-5.843040596316418,-7.795560061945012,-1.9525194656287352,6.858769701949943,-1.9206024724775483,-4.842428920639822,-5.533642025454858,-6.333722155690721,-6.260280492589441,-6.089602725140143,-5.4083036868648815,-6.682043967958526
128.0,-5.84610440152462,-2.1424067681998764,3.703697633324608,3.954871248045854,-4.761750159871315,0.7346426652776687,9.380443774557019,6.2851821213523476,3.709009741620791,-0.45834115153565946,-3.3111908054029673,-0.378831928888931
129.0,6.721795306944781,7.590096618256821,0.8683013113119465,-7.116749585652313,2.931840923124388,4.266536871350181,4.2543194186625275,8.544771234419784,9.00391694988679,7.1772711173250885,6.145135705766993,4.638114451615455
130.0,12.239189710833706,-5.759735792031147,-17.998925502864896,-3.2794943272535173,15.121995961228484,-11.913865174901208,1.0694913726070112,-0.9042987180279001,-3.2345200545787076,-9.067452916449152,-4.141222798922165,-4.253226446962556
131.0,0.4037451002711876,-9.503676111905458,-9.907421212176626,4.5888863869168315,5.163094895204276,-9.65404583222839,-1.8871620070704995,-6.944107291179633,-6.978112011058001,-7.101614727191082,-6.310939091685657,-5.387218438099505
132.0,5.125470338046383,16.26145394875126,11.135983610704937,-10.732923276825415,-2.987460645781668,13.677149771267663,-8.714041174155325,-3.356537651265926,3.9823916206310526,8.703030587868318,12.06023224295853,14.060348641485344
133.0,0.03054091520673749,4.001471477471477,3.9709305622648046,-1.9756729889890017,-2.017635475305304,3.9672155151240256,-6.870255502646042,-5.809668645402969,-5.516601615569311,3.3873602649216172,-2.3069095862993954,-0.7919231148950354
134.0,-0.6769299675323355,3.2965566640334507,3.9734866315658097,-1.346388986884925,-2.2802814072981987,3.6151262327627456,4.278125775081124,8.9431229129823,2.4756613610131284,3.032806676410677,2.839599543833579,-1.3514054639630582
135.0,-4.390385306041416,-6.299232474558468,-1.908847168517056,5.389574716811318,-1.2636654372609564,-4.127506395364617,1.2681056514517879,3.0237524737883836,1.6467425010025922,-1.867999239042743,-3.863933470933684,-8.052785577426263
136.0,-13.718989511730818,-12.31344859581964,1.4055409159111678,12.98539612187338,-7.578576362448418,-5.40325492154451,3.6416686192009253,7.58884189069031,1.7491004019147889,-1.1717044321537464,0.28319161233836443,2.3481886349882357
137.0,-11.509151470829396,-3.9194209035595033,7.589730567269864,7.686961669556249,-9.563626485166147,1.8819240147751781,8.839106866832156,3.584230973594134,7.612653154893044,4.369172680037173,7.025295143139793,8.127662621745035
138.0,-5.178825669905038,3.4169446191000215,8.59577028900501,0.935980330911576,-6.902605680117665,5.97207114860973,13.05405340114987,-2.211021769047956,2.440592411124132,-1.2906017224911976,0.30109264986430867,1.7412272291601423
139.0,10.745406521222115,8.121606826965749,-2.623799694256434,-9.453702760156018,6.7454598473409595,2.7139681759970182,-1.8513066926911845,-9.880193500818038,-7.115907759664808,-3.3999491025883604,-7.299239752161388,-3.4230670908783227
140.0,7.6389498348087574,2.874833929068746,-4.764115905740071,-5.27394244050059,6.1809596716855015,-0.9004428824256779,-15.71043917525066,-6.53910481901624,-4.822508817051474,-0.5747249834063943,-2.3380078647681777,-5.009601189500498
141.0,17.14836413262987,3.208515990732077,-13.939848141897809,-10.193090640123746,15.599749068834285,-5.39957583505434,-13.347776355436487,-1.2998152101140512,-3.7923056377977513,-2.2840057651353445,-2.218510317035619,-4.493580380515531
142.0,23.580922075229516,5.098623720178051,-18.48229835505149,-14.274522737185169,21.00519980087051,-6.725386083607605,-6.317233219050671,3.8794269632599,0.23934932657438823,-2.2630966860725428,2.390151436594132,1.1253576406364167
143.0,1.474281379266801,-5.240224522372149,-6.714505901639001,1.8688194469327049,4.06253181505215,-5.932302744416311,7.753286998396694,2.2120062647126453,1.337662212812343,-1.290347281808343,-3.4605906973338896,-1.8872471820373087
144.0,-16.594743729458493,-10.542620880172667,6.052122849285713,13.55171836982431,-11.363721408469036,-2.200881057847745,4.97496384181262,1.3470235980882999,-2.9020331735521765,-1.510687805389003,1.6245574385058739,1.8350262262844699
145.0,-22.963711469236543,-4.699923255632202,18.263788213604194,13.810096762707083,-20.58623032983572,6.746228707751107,7.581093686685349,-2.837125765587576,2.820280270876334,4.453804714659045,4.716402743286967,8.61308578269702
146.0,-23.379543948057808,-2.5543189296321267,20.82522501842557,12.939540863519184,-22.08654091203298,9.09772679989516,0.7837526732115592,1.9217072209064703,4.837306506039342,7.515979710770742,2.8909407731302705,-0.26905269780671315
147.0,-7.297620952704509,3.4256660197881663,10.723286972492653,1.9824193936426644,-9.004538021772435,7.112885783181603,1.3321282994721426,-2.423933610214461,2.2927059027249688,0.35640040277718743,-0.5018442137068175,-4.010858605381645
148.0,9.701036546524088,18.21353685375643,8.512500307232404,-13.992130619801188,0.5942913390474001,13.319889352531561,4.96814616047271,14.641664586360688,8.816095170429522,6.918906152403979,6.149541537213371,9.304870540937346
149.0,14.149068674879254,-3.2724635398409223,-17.421532214720074,-5.3938259344226065,15.784824595822219,-10.313721072154085,-6.401273599700835,3.1092805504222567,-4.582331714723259,-6.5747725867258096,-3.2775070959501957,-4.386157379685558
150.0,29.351334589454325,-4.28660212601381,-33.63793671546805,-12.484963506412573,31.49915175548489,-18.930367623516183,-8.618889738142762,-9.564039228326537,-8.706098359803917,-10.775764033246503,-10.75904404453246,-8.77003271449795
151.0,23.571481021858652,-2.6849182501890154,-26.25639927204763,-10.471429549600998,24.927859598152338,-14.517753311364842,-2.4150458884195416,-7.063115989826662,-8.175596710088541,-5.7241446148638175,-5.781581908491064,-4.033454522828865
152.0,-16.988947700521784,4.213911594116584,21.202859294638255,6.360361375466229,-19.148793239608963,12.740651931264257,11.242054935977631,0.7683167928900971,8.122362119839135,8.1120312413715,9.521678010683033,7.533309847723632
153.0,-45.91696558353974,-2.800202052086883,43.11676353145262,24.328652687584793,-44.47870070486936,20.11271580926119,3.881023413029424,-1.3369283062313715,4.284334871304092,9.470073457329306,7.207440733836846,5.559594768948589
154.0,-15.11039661026902,-8.052852253756305,7.057544356512405,11.545502966738171,-11.113939519468577,-0.4638215399411969,-1.1960136994911905,-6.066296280061023,-1.9012513737150218,-1.0624043614095937,-1.9459294405659486,-2.4335232878035704
155.0,15.967673591967571,-1.637289214355846,-17.6049628063237,-7.129867448281628,16.842392699515607,-9.587293779762334,-12.083494777560519,-1.990351243146304,-3.7580034147992585,-5.86112467953307,-3.787596372539845,-4.565441887340225
156.0,29.514685795899197,8.636094064026084,-20.878591731873296,-19.04521110985358,25.176917156502142,-6.166810390304976,-2.0739074893341694,13.243553482387306,-1.1583222253386183,-2.956096788546333,-2.267464666399541,-1.6876374727005181
157.0,31.67543609923184,6.467544990676827,-25.20789110855501,-19.041566688371937,28.4203724234945,-9.41655197460665,0.28288695828463184,3.8749939095647052,-1.2294680428070333,-4.884633873043023,-4.222215740196424,0.22230657196465214
158.0,1.83314144185257,4.017577891974483,2.1844364501220994,-2.9686183001347084,-0.202221708740705,3.133198391306435,-0.015184231989575636,-0.7736077228286398,0.10118502441780386,2.2316112460682493,1.4510308794698243,2.8196532144602324
159.0,-40.471920462809386,-12.885803969941954,27.58611649286769,26.72442359530232,-33.98410434151229,7.383546598626066,7.526115882787302,-2.7367851413072786,5.847273917614125,4.256514489253149,1.8725735279567204,-0.8490732834735648
160.0,-33.462641724023186,0.7137745130986408,34.176416237122005,16.352729370058235,-33.86037087681126,17.48122254019723,5.811472049829248,3.0896205288912983,8.945360521793075,13.147285834765476,12.124091130680904,9.427526835470639
161.0,-15.69798661738428,0.7804630780625019,16.4784496954467,7.446248629695539,-16.055016696933492,8.590454754817273,2.3030988601571685,-2.5873262048617054,0.9051769894143198,1.5084673901419996,-0.44609690531862434,-2.0105864176822075
162.0,10.789387030311318,-8.403444684291795,-19.19283171460353,-1.201563307799944,15.02308247664573,-13.833810065791482,0.6731863618454154,-1.9667193608963616,-7.502841361123044,-9.222000612852309,-7.004020522657568,-9.265358044749087
163.0,34.93875444955875,-1.5271404276734488,-36.46589487723281,-16.716934790104965,35.65775652527,-18.951453663010682,-5.024616197000522,-4.207723505773666,-8.553794014467655,-8.919586915879236,-5.361477106506662,-1.0869818072325952
164.0,24.02314214010502,7.5619452188539,-16.461196921251737,-15.811665385343574,20.28085955136741,-4.483011573780921,-3.061855185089926,0.6484034182996716,-0.9659114428748587,-3.758353030098835,-0.7931882849309524,2.7832065579717216
165.0,10.547820226408312,13.380004345296458,2.8321841188877244,-11.914944588473317,3.822860023450019,8.07188124136723,-1.4478791708390908,-0.781504150142808,1.1952746378580403,2.605078823538247,5.997016229116412,9.406440979868895
166.0,-18.052133592856116,-1.2532825167889419,16.798851076067173,9.61318113907047,-17.456362293453523,7.816523974416263,-3.59828748745934,1.1175185766226847,3.9566642648903807,7.306952939143656,-2.290623265507598,-5.691006636904674
167.0,-3.089275211362315,-1.8352438585239712,1.2540313528387639,2.4958045866831577,-2.1217120430749414,-0.24650231293170322,-9.008791253469349,-3.0423845689128193,-2.9779864702962806,0.07706932861815474,-2.5589984223290516,-7.895755835738034
168.0,-17.737854315262524,-2.9277450299708594,14.810109285292365,10.366445475889954,-16.303014253500947,5.908561998040415,1.5060237064994788,4.332023504385713,5.6290118456940395,3.6602082855345404,3.541889162925073,2.800972210767025
169.0,0.6636247042271517,2.9588423739855116,2.295217669759012,-1.8506505474770396,-0.7682160448687547,2.5977171392035627,12.600760043370576,6.7415699450744535,5.886904004468884,0.43496722225759443,1.6154274575621896,2.153064382858656
170.0,-4.9009251575146004,-12.206077259391671,-7.305152101876733,8.523432592060153,1.1676616220490157,-9.702642949235265,8.519099255866594,4.643177978162254,-2.269311012879746,-3.040214594462495,1.250503048700424,3.59504556029602
171.0,-4.354994550382899,-12.259555411449812,-7.904560861067019,8.365973938375015,1.7368520023802698,-10.105301829063878,2.3095343078735135,-6.06635900356839,-6.08995995246746,-6.530430484239618,-5.497184243498207,-2.8694611466331614
172.0,7.424376413709043,2.3295047860745686,-5.0948716276348325,-4.889459276626301,6.297680974697669,-1.4052543988956065,-5.221567626187722,-4.666713097988589,-5.73326653653144,-3.471599102404544,-2.5926987659798764,-3.5652497550081206
173.0,4.335620190757572,10.283206207865682,5.947586017107634,-7.319270955439817,-0.7693342128896559,8.091490347601257,-6.551837037698546,-3.0862142806872983,0.4954068778931444,3.893537800636143,3.777838484362834,3.4713985252020105
174.0,1.8582671833829743,14.561060390600385,12.7027932072169,-8.222568934235898,-5.464246029854703,13.683999078535342,-4.845341165915881,-1.0534727299305922,9.26730112698425,9.620561605505806,5.641619845498723,5.9277594007368
175.0,-0.9166848569666204,1.9179086761758697,2.8345935331422174,-0.5211687460918162,-1.837482129716619,2.3462918335380225,-0.9707271653133853,2.6824829689865863,3.410709533843755,1.1256993046020698,1.1124939282543613,-3.388098940811017
176.0,-4.6068318525351515,-9.531662843073963,-4.924830990538643,7.039218532375875,0.1206712357125761,-7.18247132182826,5.77946973253588,0.05881988077451705,-3.3507314175472027,-3.1946108166330083,-3.4895921344350653,0.17073860292715803
177.0,3.0110225262120447,1.0802124459604032,-1.9308100802511943,-2.0047110796009298,2.435528905334943,-0.46075029114077903,2.6016413682845783,3.4449969198700376,-3.190099465628503,-3.795563457673964,-2.6298834779604916,-2.828479496136083
178.0,18.48448195157603,0.0836351658596266,-18.40084678571595,-9.246552246897759,18.48976747831158,-9.117481898343035,-2.436278288512115,0.5360317160855437,-3.6864815148038295,-3.9076562380421205,-2.896314639948201,-3.140352252568234
179.0,6.233740441197116,-3.2300563258270465,-9.463796767023899,-1.4624930782902377,7.821879479819044,-6.386851039249156,-4.5136546353759215,-2.3668753737294295,-1.93198262582395,0.8506058145989099,-2.4258847779797947,-0.5598826304563498
180.0,-9.60582852800473,1.304029325426519,10.909857853431152,4.117118888102551,-10.200326753423452,6.064390120813501,-0.8382320266693097,-0.16849173191643108,4.4103571139571045,5.365293834110147,6.56443177888919,4.55893125017296
181.0,-21.1207723960267,-8.234399806682243,12.88637258934417,14.65014625240643,-17.0190114456841,2.3594497637328105,10.108169442729354,0.25176474923800407,2.32715235288193,-1.3904159164291023,1.2856842854506305,-0.9409386406146494
182.0,-4.998766443375603,-4.7020707931033785,0.2966956502719391,4.8267666050603255,-2.658532087509718,-2.1715328035883124,-0.3991691740538066,-1.0660797517668326,-0.8120660464898555,-2.125361821462657,-1.6859151281366151,1.3933833069637742
183.0,-9.062039746808688,-0.7825542469997468,8.279485499808839,4.897692590949084,-8.679405552337077,3.7782315521960097,-0.18820670764290615,2.7191230758709635,-0.7136848946778548,-2.2293339634376332,-2.134457243705301,-4.670452036386689
184.0,14.560329788641539,15.026029739902192,0.46569995126089614,-14.745199797440824,7.0376375290467905,7.696641554011472,-2.437473216994043,5.334938193421058,5.187493331097145,6.486166335276672,4.357262455861216,6.72023112462518
185.0,19.54105635027985,11.040545442995064,-8.500510907284456,-15.253116239848268,14.007164958138562,1.2216923647830518,-2.841426149579532,-0.8106967374703782,0.5832860506978298,1.4279182997205528,1.9854476469053322,3.9509710606128086
186.0,5.411648829285792,-2.189033600519835,-7.600682429805458,-1.6647675319229336,6.486876134578585,-4.862533827059004,-6.860545621261958,-12.806493855057571,-11.813383701167323,-8.943929439098982,-7.592531024530908,-6.384195676503585
187.0,-14.394337262585516,-9.171412548187693,5.222924714397741,11.796009341240314,-9.75507254531358,-1.939303607946214,7.060545603984494,-0.4061145752730271,1.820380778317313,1.8008188285860758,-0.1507048295943263,-2.6506768885100644
188.0,-1.2257176718311191,-1.7748773262564477,-0.5491596544255533,1.5036933303423625,-0.2897442095758842,-1.1242996922667507,1.0140907259629601,2.3404246539913984,5.235025512595088,6.752926262984361,4.391917982195085,1.5880105281328343
189.0,-11.054275883169737,-8.608667525610596,2.44560835755897,9.82924218429234,-6.783973737758794,-3.120390643535967,2.6147845565221246,7.401674655156704,4.131128631862658,2.7667419385112844,0.9232278185622423,-0.8902545744541198
190.0,2.2735395117024426,-1.5161303283532064,-3.789669840055647,-0.3814703238491619,2.9946968600602504,-2.6908086198268135,0.04827446751919107,4.408094593513098,-3.1223655135066672,-2.943767979643929,0.1160225542755875,-1.1690619648493943
191.0,1.41214513737346,4.439022679510801,3.0268775421374388,-2.9236901662053474,-0.8465020457977145,3.694771922317852,1.3007141508256548,-3.2453004687730758,-1.2043955060193583,-3.3282995596095124,-2.4075907072650113,1.026462121494543
192.0,14.146982720097549,6.998424622529168,-7.148558097568328,-10.561727640152156,10.685939165915002,-0.035328493432408514,-4.979970184035739,-1.8823007305768171,-1.739934559924341,-5.814966319825195,-0.6852373611482239,4.153348399193948
193.0,-6.8328139244194706,-6.436840735950241,0.39597318846930407,6.657831966477577,-3.5763562151756045,-2.9812698922805048,-3.547091688237548,-8.26807019254473,-6.106071401464138,-6.718615706169731,-6.283326150293271,-5.187948908152021
194.0,5.620720030148728,11.656051392256275,6.035331362107813,-8.680975260214082,-0.2463355942990344,8.884816770634606,1.6823044592496315,2.294465690886132,5.4026427514272815,10.886096090939937,5.372919364291615,4.046428111960422
195.0,3.4521537521524155,10.242570419198147,6.7904166670459905,-6.877389525956136,-1.6258933132353075,8.476757055044857,5.579754922102625,6.535596884988692,8.912506763573175,8.605470256304125,9.877604178490722,3.6818032371932343
196.0,-8.87322713575576,-14.278581669597928,-5.405354533842056,11.635301141020195,-1.764712650901151,-9.883045696000739,-3.7756025629685763,-0.6600574728579329,-5.319330458004403,-1.4966510474640806,-5.103684276769593,-4.964051185817824
197.0,-12.603286575397755,-9.266074986301344,3.3372115890961576,10.923333499475564,-7.996159021578877,-2.930245827379048,2.216051110052286,4.097905659276445,1.388354648381103,-0.6455676789817494,-0.13847188892121987,0.3456840758493547
198.0,0.19691360258370594,-9.802433154139958,-9.999346756724119,4.7963860114937775,5.154766975310869,-9.951078335569552,-1.5919045320480414,-7.0019089532824985,-6.684566691604126,-10.109041229279612,-8.067575159589586,-3.438396289613329
199.0,4.011462003155563,5.0743257812038385,1.062863778047749,-4.547402621491736,1.4539710587706198,3.090476120056821,0.8253248553272594,-3.647703086151124,-1.006054357544829,-0.20889150393333455,0.1063633546748548,-0.006175583025027409
