Time(ms),I,II,III,aVR,aVL,aVF,V1,V2,V3,V4,V5,V6
-200.0,1.9258353332160667,2.4662549868706884,0.5404196536546003,-2.1443222366065644,0.7266069955533364,1.5384117048656896,-0.6389030407323631,-1.577075741604695,-3.901903879923633,2.6806253783972727,-0.28162413481611814,2.079811574214177
-199.0,-2.9482138780902276,-3.498362226310501,-0.5501483482202937,3.191700664425536,-1.2305924871148235,-1.9917081900427929,-1.6349278369554652,0.7730743674849315,1.015342913156687,-2.1947107697240336,-2.5514489897251904,-3.551576711884273
-198.0,0.055642803048302714,-2.456968501417956,-2.5126113044662683,1.1600105345680451,1.2651463408934658,-2.4502124448562395,-0.14278010777019834,0.6942304956104854,-2.297394110994512,-3.634433138519549,2.079425969736133,-0.9928029166069435
-197.0,-1.009666423692859,3.942391565919741,4.952057989612599,-1.4397118910857927,-2.9911024786001077,4.40853100258296,1.3539199369856945,0.007318765932207871,0.9298112951187203,0.6313638746372081,2.113149865833765,1.5579137027954904
-196.0,-1.1389237082564883,0.3495129755734361,1.4884366838299186,0.4104685233194786,-1.3210200166497845,0.887074951573599,1.0250468647164912,-0.44001208277931203,0.5051943849107077,0.33681626006710785,-3.0702954781528073,-1.8572648764198851
-195.0,0.2341278783107138,-1.8152215174695356,-2.0493493957802693,0.7988260319392664,1.131044948744917,-1.9581428070084064,-0.4440063969654039,-0.1510389963850617,-0.629201505647024,0.7509347608012555,-1.3101193357477905,0.6430376807600422
-194.0,2.8442670434463184,1.1479547197240336,-1.696312323722304,-1.9900201092628398,2.329745203914552,-0.21711775758750873,0.7584381434098527,-0.08385419024707116,1.4366964762900334,0.46565891411499305,0.36523789614246055,-0.9343209744573746
-193.0,-0.1192240535727791,0.34447613662471716,0.4637001901975022,-0.1029437669551132,-0.3227280341191592,0.38479140533166023,-2.293243035856091,-0.13043605750900794,-0.7441500936207501,-1.3873849504090745,0.13187037379179087,1.3474363674492216
-192.0,-0.6427122901003633,-2.869442965601916,-2.226730675501527,1.6955029872080338,0.8263186547460553,-2.5657657509552982,-1.1112748744857386,-0.5325150660192691,0.1407286988988551,0.8139752698143983,2.4370457999570387,1.3401613498905456
-191.0,-1.7604376791764627,1.3744856279288382,3.1349233071053373,0.22270064941668177,-2.5044097081499013,2.239102983989597,3.167420127051097,3.1638878656861675,1.111009565210088,2.6160823051265454,2.2182398618503445,2.8901564356095935
-190.0,-1.526146209459734,-1.6468059304233884,-0.12065972096364108,1.6285133186786727,-0.6902939970146482,-0.8173371016709691,2.30173178836992,-1.768575041058193,0.08473244901099647,-2.4965850649335413,-2.182980212431742,-3.450014561144345
-189.0,2.5370206351770523,0.5219462572573952,-2.015074377919661,-1.5553390406092107,2.283056789627315,-0.7548751208513479,-5.1895261135111115,-0.322261918625497,-4.101076681870236,-3.4230871870206343,-3.0007381037498972,-3.037940641934996
-188.0,2.055743960726502,2.8930966515827437,0.8373526908562389,-2.492514998583277,0.6156547181022638,1.8602169706130767,0.47594330837620524,-1.0633923279515995,2.3484703317325843,2.244452956134907,-0.6332857975420931,0.2375370536183301
-187.0,-0.7955960878576361,2.389737817460273,3.1853339053179175,-0.8111567093531835,-1.979799203219422,2.7829280183956793,2.2440248497429454,0.2791078314659036,2.366186571280172,4.4311218206009,2.6939317254893607,3.519681080471335
-186.0,1.5269850307811472,0.5631698023139323,-0.9638152284671997,-1.0584607306453402,1.2639674987347342,-0.2092623667285426,0.731565186778445,1.1333252766232131,-1.415716370531827,-1.4692877730740572,1.5172221583917707,-2.110608901917444
-185.0,-2.0940775949631494,-1.5007416458646514,0.59333594909851,1.8614208732397737,-1.3940084001199764,-0.4722434050665908,-1.5179286486944816,-1.3186898210899467,-1.151876657242233,-1.0296660998350964,-0.7530137801757169,2.6673739236500613
-184.0,-3.229881316766191,-7.301505848559853,-4.071624531793657,5.2490049349737005,0.4593289204003258,-5.718738414960431,-1.2922503808342545,0.6893304373549872,1.734199447185178,-0.906773841820281,-2.089205423345092,-2.1890836570606984
-183.0,0.5071982686029892,-2.307845833695249,-2.8150441022982235,0.8822024010473619,1.6295084547325873,-2.52977655153194,0.8748122696902083,0.10346177590079186,-2.498627539282362,-0.7579236788671752,0.8118942518431906,0.9045724335841397
-182.0,3.9376481162501977,4.140183554780157,0.2025354385299829,-4.057499673204642,1.842531892740024,2.1901882023184385,-0.4180396655858451,-0.7432465284483967,0.6880063912043808,-1.8856919475282599,-1.359273168090136,-1.8460442506856642
-181.0,2.2005088377160815,4.228477727945573,2.0279688902295008,-3.1540344058472725,0.1443721247147196,3.1390131896311537,1.0636571733731723,0.0634939229385929,0.16338890995543187,0.4460236544349558,-1.5920757018661407,-2.5620515392574053
-180.0,-3.9032690134754477,0.6323562331128096,4.535625246588246,1.6175491858343345,-4.237739479478018,2.5927446057938783,-0.473859280324078,1.1593506689567803,1.3066947863972158,2.285364926296773,4.170422061388493,4.493549675411421
-179.0,-5.257779379368466,-0.39334347048386586,4.864435908884579,2.8074021242422535,-5.0789512968280315,2.247698127921035,0.27192432003775874,1.3675177943560748,-0.3225777752912319,0.5076794766294972,0.2913920987264482,2.25683787051672
-178.0,2.7611058574849916,2.283238763177142,-0.47786709430786645,-2.5415752212473253,1.6787778876984865,0.8430508207063834,2.213201640080961,0.5221208628462322,1.0099329097396978,3.623902567729549,5.309318021151106,1.1133200887826105
-177.0,1.4549511155309678,-3.1383187136983546,-4.593269829229335,0.8203143198400491,3.0006696521598397,-3.838454336921046,-2.4178886058205036,-4.241447005044715,-2.235563860802419,-0.8096956550297074,-5.317961366765578,-3.7199945969000523
-176.0,3.6585522361213503,-2.356461993691571,-6.015014229812911,-0.5955958058599172,4.806926294604603,-4.22959484947236,0.48853636968615133,3.179780164145078,2.242307075965439,-2.000382116700814,-2.2143567106609243,-0.4247400261874492
-175.0,2.151017426834317,0.7532950250970423,-1.3977224017372523,-1.4765794233062814,1.7362300829388042,-0.28158751531218673,-0.2687881834715125,0.13364617778256488,-0.1425580263022479,-2.163969603785624,-1.482708228815884,-0.46957506113966985
-174.0,-4.6850966590798455,-1.9178520897862132,2.767244569293664,3.355779505111567,-3.6944284411875423,0.46887757132845587,-0.1996628097276718,-4.340496836846519,-3.257678899627084,-3.643988583952366,-1.4660663195304058,-2.1604661651386645
-173.0,-0.8244647870194899,-1.1318388584629193,-0.3073740714434079,0.9544409373079048,-0.2346531923867481,-0.7525357785042941,-1.4596766904052747,-0.7058569959008981,-1.024570794340649,1.6920441515092612,0.22024213488454858,-2.154425167609849
-172.0,0.42640956913443495,3.480687937002845,3.054278367868405,-1.9764454871673098,-1.2956097624442302,3.2350227116982486,2.4221835868837154,3.207512331943542,4.059718958408852,3.4290814971343564,5.943008718309976,4.9144534068296615
-171.0,1.117668137299077,4.576217919154102,3.4585497818549884,-2.869405137578208,-1.1549549835167385,3.985323969938806,-2.630420613795887,0.04893186932792615,-0.22602440192513895,-0.41845835169981793,-0.5306783855604005,2.1937682776043705
-170.0,-0.6383853934651058,-1.9607488383608342,-1.3223634448957768,1.277275397803131,0.27826246259053167,-1.5933849446279336,1.7781868286393956,3.3102389326354897,0.343246117119997,1.1917813027294262,0.6519823143596656,1.1986673929082754
-169.0,-1.9782647315831396,-2.7102533198515597,-0.7319885882684518,2.4011734607763695,-0.606897052785152,-1.6697186256021521,-0.48652339911794673,-1.4100912174511882,-1.480499627446481,0.7425602511420606,-1.558033120696334,-1.876944408063323
-168.0,-1.4559917229098667,-0.38725826409210296,1.0687334588177702,0.9009360575013773,-1.243738453542242,0.31811746931729434,2.384291958700489,0.1383286676417942,0.2160340172999583,-1.722262502574197,0.2118207544232531,-1.4101775779476817
-167.0,1.5139383900854144,0.8658247533222707,-0.6481136367631162,-1.1303274570322746,1.0243538978524183,0.09129952947552544,-0.1270891359588141,-1.2071990476084031,0.09470107227290864,0.016563871427291765,-2.1960311835672797,-0.22518721241136408
-166.0,4.194749004932481,-1.0109176097263246,-5.205666614658773,-1.6105100054091204,4.726954033703478,-3.1219724365197465,-2.743776914350634,-0.9125482866189637,-0.47703351234937547,-0.012862521125325599,-2.162210871961165,-2.2626387903839684
-165.0,0.44023722328096526,-1.419023533034496,-1.8592607563154278,0.46889426645397364,1.1822962825905814,-1.651297315256282,-0.11196661452534173,-1.9264322401186253,-1.776003391223698,-3.06250531578297,3.002164639011256,0.38624025728117295
-164.0,-1.5420910068698412,1.4213946418569625,2.9634856487268206,0.034390623775670565,-2.2140363270509953,2.179128387156893,0.9542019455547067,-0.1564634553952272,3.092333819716794,1.4562566172604423,1.028931390794666,1.4946005426345754
-163.0,0.8405675678414666,2.646817844177486,1.8062502763360222,-1.7783260080818828,-0.5176234003138329,2.2886260173731436,0.7205426477557947,1.0157857717806706,0.9515164864574863,1.9544247417786214,1.216027209913324,2.404425445606446
-162.0,-3.7009443973300886,-0.3080656240314186,3.3928787732986465,2.038620500012589,-3.5790048483625774,1.521162507914509,-0.21561695147534288,3.7424329946517836,0.7947264689632649,-0.07067404631843488,-1.0115921924315001,-0.6038130877402557
-161.0,-2.7734048629781185,-1.0970395024295483,1.676365360548523,1.9608329901078188,-2.257727639820492,0.2635753818948515,0.6723703415777182,0.9974042788292403,-1.2725049942813262,1.4504510273325215,1.1283318644397478,0.5409603833017387
-160.0,4.611311383693277,2.5065802981676484,-2.1047310855256622,-3.5376836107862824,3.399989408627576,0.24924221513707695,-0.9533495150042323,-1.8714428168066914,-1.4694355543181914,0.638442751400303,-2.9942287189607972,-0.407770872865702
-159.0,-0.17811141343682513,-1.5574922054648583,-1.3793807920280479,0.8116061620822519,0.6368625232331062,-1.5022438541660963,0.2668515756290554,-0.9776662374332332,-0.39173660708963254,-3.127772006270141,0.20501261305499474,-2.5402245345725354
-158.0,-1.4343444648663501,-3.8180328335357308,-2.3836883686693735,2.6554592473184253,0.42666714544672435,-3.1368483244642533,-2.4920188948754136,-3.611577096443833,-5.19471096750853,-4.071910486468985,-2.9697103853704037,-3.740576798912527
-157.0,2.7839353092120986,-3.6471454355894863,-6.43108074480156,0.4711669478217264,4.635141791311839,-4.997340516859667,1.1970910287947762,0.4565171128804555,1.3757414299278474,0.8423673425542368,0.48039531335208174,1.9746398004522119
-156.0,-0.173099343817385,3.606236202655645,3.779335546473068,-1.7447905745053904,-2.0264561646602015,3.7344956646435787,0.6956281371292601,1.3188224194126323,7.146829522672428,4.134031488385734,5.110383119439325,5.170891947650354
-155.0,0.8907226818691003,4.926287416279507,4.0355647344104435,-2.9281153534232174,-1.5383722509424422,4.444247790081041,1.09133010936624,2.738071337435231,1.2409109416636444,1.7244809492636617,1.423175555109432,0.4334542713915077
-154.0,-2.088701612553382,0.8475497967675385,2.936251409320947,0.605036602544951,-2.4688227316253917,1.8554576098388949,-0.8007165577503207,2.248285250873722,-1.1368194340529394,0.4134330171584677,-0.0848051856381058,-1.2514727832629213
-153.0,-1.7161113842024598,-1.2281906222891985,0.4879207619132624,1.4554272583611285,-1.1253233480639366,-0.3280185880003912,-0.2491869262024595,-0.5065461118546388,-2.643097628353199,-1.6741268154012332,-3.0763012002303607,-1.9454496331352034
-152.0,-1.0648637774872491,0.5568615653688856,1.621725342856112,0.310367871927718,-1.355380573029997,1.0521967775881005,2.1656898638081015,-3.0875590434291627,-1.5068621109371054,-1.1787044890031804,-1.1876771367465002,2.362959479137098
-151.0,3.6727585980053474,-1.9312601535657632,-5.604018751571143,-0.9015212798662113,4.634162085187852,-3.7261641434711166,-0.35607846888561695,-1.268088856832385,0.23791213803464495,1.4531520187326756,-0.6052983050462204,-3.1964193164042025
-150.0,1.9099436218260284,-0.5175089901720018,-2.4274526119980546,-0.6574012645847536,2.1670576566582125,-1.5089471941527681,-1.87324900527083,-1.2334400131989556,1.8860877292441056,-2.974201187201842,1.2674746251994926,0.14671179538516244
-149.0,-3.964113557457973,-2.562726010322509,1.4013875471354549,3.215092426241065,-2.687456734443541,-0.5360640281212605,-0.8047784671863344,1.5532238562195766,-1.7189855374264336,0.5762264566192448,0.23280872376018635,0.10719281769237715
-148.0,-0.5141858575500265,-2.5649301232606807,-2.050744265710653,1.563168785987219,0.7561393097522875,-2.3380336321210184,-1.143381824477033,-1.3156537337069119,-1.4414828961790107,-0.42919049626758854,-1.8196549956287575,0.4285997020325821
-147.0,-1.5765414301167948,2.0403378407255683,3.6168792708423783,-0.21342948944740076,-2.6181456714729507,2.803587919189982,2.5153067314185096,2.107193741382131,2.9637896773908263,2.0669274093599452,3.0294114702540513,1.1530465858175092
-146.0,3.3454646044524563,5.8690578153382615,2.5235932108858243,-4.592641778302253,0.45995717463962893,4.2555800833894395,0.37310189618126843,4.179383010142674,1.7035330190522044,0.4261524329603652,1.2667765237841655,1.0858946317495342
-145.0,1.4599563956856079,0.48015629994382847,-0.9798000957417519,-1.0371623690879628,1.2638724024520582,-0.2646454568755363,-0.8051230135408196,-1.7582144788202672,-2.1007153692269322,-0.5568534182692361,-2.4007968846658794,-2.4085478716864257
-144.0,1.2310980071654964,-1.9437502448899548,-3.1748482520554346,0.3658071990024374,2.167488618184685,-2.5715444356956487,-0.41817418489101177,-1.5358131577937921,-1.7309672443886603,-0.7095388720733177,-0.6499058243690683,0.7391540333648203
-143.0,-1.6116693604002001,-0.7450653757774369,0.866603984622762,1.186913422068655,-1.2712974121068727,0.04812196303898353,1.2960334597608136,-3.260139266951794,0.04220837089869167,1.0097674664334215,-0.5434070784133138,-0.2582995801619587
-142.0,-0.831398046201024,-3.1172954771608956,-2.285897430959888,1.9837881055998972,0.7013519921193125,-2.7178122128129103,-0.5298868917291916,0.7031276152536654,1.3446310300761877,-1.8386800369289957,1.8366259835613792,-2.0877458613257014
-141.0,0.5932158787483204,1.6458486208469605,1.052632742098622,-1.1071076589559474,-0.1691436084581331,1.4056823386462225,0.5239216690676607,1.160147844963718,0.7157077355038979,1.0866106872890273,-0.49916815029268624,4.628994308823799
-140.0,-2.9660537128785824,2.843161116077744,5.809214828956318,0.07845195871854693,-4.398227222114656,4.296582623245442,1.4005811181089904,1.8536691220096468,2.7801308616905764,3.061147400267933,1.9621233514661056,0.5375654458682444
-139.0,-1.1478881302365873,-0.40427809548573346,0.7436100347508496,0.7980749462920163,-0.9503810365234076,0.13321592686937533,-4.256210458470454,1.0172858060717997,-2.6710330635925024,-4.246805120589098,-3.0235199606278265,-2.5655715432230073
-138.0,1.9786872828407316,-3.221183402925351,-5.19987068576608,0.568527883752541,3.587684647873911,-4.173049753267385,0.7018322211819632,-1.0699930507723807,-1.4083807892830702,1.227113600357879,0.335475609827824,-0.8951521401454987
-137.0,1.2083617057882765,0.7801333063958217,-0.4282283993924385,-1.044644897034935,0.8159882685679432,0.2116826072145126,0.7081166828127704,-0.6477552370142445,-1.012120532385193,-0.4771498309658068,0.13446067859784533,-1.2972813142217658
-136.0,-0.7985369429033908,0.11225291543148797,0.9107898583348997,0.37238110192998575,-0.8615566374625037,0.4700391712071399,1.9590593275805528,-2.4162806167337085,0.025109176663207278,0.4926239795487777,3.2502931516400286,3.3518207353837584
-135.0,1.3149068242555693,-0.6166879284506389,-1.9315947527061863,-0.31926878924731866,1.6085684370234095,-1.3115516088935346,-0.8482248051978023,-1.2575404800301624,1.0938026438353616,0.014542580872957345,-4.027902218068389,-2.5621095631418784
-134.0,-1.4953112675894686,-1.0981648733935057,0.39714639419597286,1.3282149912867727,-0.8918000584810101,-0.30416099149376513,1.9210657400319455,3.2448755598435026,0.8208291554143284,-0.4930955316202343,0.5417905089164123,-1.842037489663281
-133.0,3.5270639774395316,3.570244039153813,0.043180061714281015,-3.5925242695616086,1.7078844640378397,1.8568599451542265,-3.7546137982032954,0.1273757809338647,-0.33256505274757675,0.07865785212143073,0.014587957374897723,4.105671335164165
-132.0,1.5310787881711143,0.46090929650892254,-1.0701694916621978,-0.9561518327113967,1.2585116442473396,-0.3328139478794506,-0.7408306822267832,1.3151659418228436,-0.2919811822511049,0.7765308264024264,-0.026757685281021765,-1.4904878585258416
-131.0,-1.6349701459778854,2.755645218659581,4.390615364637458,-0.5936982054590312,-2.9811475300931134,3.540551191591593,0.18540672078274456,-0.6194394872604188,2.241719299469425,0.9365312590551278,2.032685261179901,4.000262848601006
-130.0,-6.525312843363787,-2.0038027227497732,4.521510120614011,4.236071862532826,-5.493141007885589,1.2171624643336765,3.787021353046897,2.2177260856230805,1.1986503135741635,0.031126859043869137,-0.600860806895907,-0.06999326745733392
-129.0,1.6082383199405414,-3.1261123870731864,-4.734350707013723,0.8123561172316554,3.2032693517546216,-3.9050372441844283,0.10899648256208816,-1.8450167835269982,-2.7780121178779953,-0.8928982733262264,0.32579403027009834,-3.702465423790736
-128.0,0.42397582207977935,-5.861206313697874,-6.285182135777645,2.6941663775702134,3.3110983064252526,-6.059241866478932,-0.5472966598598533,-2.5200243065222336,-3.188589333287812,-4.544245986172991,-4.320343922162359,-6.332777166793055
-127.0,0.6961612879871772,4.425504151439229,3.7293428634520573,-2.5866965545579066,-1.5570178430107064,4.084390528272923,-0.017511121540674912,-2.5954414295452444,2.7952858365130164,3.57322953018976,4.645860208726449,4.648517196974511
-126.0,1.1604737468110815,3.4980373055691985,2.337563558758115,-2.279719260343267,-0.5487967549692849,2.9245911128820317,-0.8522973753067846,2.732516824908284,0.35431240990464297,2.389952269841513,2.002227511659388,5.237277903226338
-125.0,1.14391875658089,1.4238720113076044,0.27995325472671007,-1.317864662218239,0.3923628405806566,0.8658555950273579,-1.670970389071647,2.8356648819139796,-0.46014939509601605,0.7733341942344405,-2.2941576580115486,-1.5821398455165527
-124.0,-0.47412504782485154,-0.642859226279962,-0.16873417845511574,0.5976201833181609,-0.11562709838740598,-0.3790723623378076,-2.793673322336743,-0.8552968574349209,-1.1517201408190343,-2.638572967057672,-2.5828848043997494,-0.03439711461990036
-123.0,2.427163381242888,-0.3977505336127236,-2.8249139148556104,-1.0604586126679743,2.6608675109911397,-1.648230482462042,1.6067713024819659,-0.9123107581541567,0.436521947871085,-0.6754317418269598,0.18475992271071195,-1.7052022006079672
-122.0,0.5730366173770467,-0.3430049174381115,-0.9160415348151514,-0.08822768650071158,0.6996619237274064,-0.652626115189396,3.5727910093486095,0.28521904058304265,1.2366613534035353,0.972471629383181,1.9221830619564089,-0.6220558971549791
-121.0,-4.1527757988882525,-4.132433313910292,0.02034248497797006,4.163615573069451,-2.1298613478929154,-2.0695281413259075,0.623009670860297,-0.5015914369582134,1.4080124488365287,-1.2745429739796528,-1.9569445425868575,-1.5880108756078182
-120.0,-3.961203794537559,-5.246119013897882,-1.2849152193603235,4.5413027783505715,-1.297905416487497,-3.2748137414211436,0.23416114612985128,-0.7696845404439241,-0.5690818333719903,-2.1398720447180084,-1.8245885240878175,-2.730045996487583
-119.0,0.7248851860031535,4.411581573887949,3.68669638788478,-2.5544075276263434,-1.4328677669306704,4.117704324503893,-0.18568670263547624,1.8933555463546126,-1.7360370501831974,1.4231430288699731,2.260362872390897,4.260666586415352
-118.0,4.244726881586358,7.582336045446159,3.3376091638597845,-5.899403909169177,0.4323653643529798,5.445299152099867,-1.6052811167997263,0.6781545022740747,2.870464859670725,4.485420409701772,4.846641189947964,5.3582798313269215
-117.0,1.9175702760676896,3.0874628728952445,1.1698925968275362,-2.484907230580652,0.36171186406264344,2.107852949691327,-2.6743225852261734,-0.5840092942102493,-2.5610887439056294,0.38623824181745103,-2.7791036201880974,-2.798253227061044
-116.0,-1.2330636745134553,-4.146161807255565,-2.9130981327421175,2.7133480608536575,0.8340868317844462,-3.5563743994081998,0.013776265164039847,-2.3524691335135084,-1.9675539271068851,-1.786378976891683,-0.780613169054012,-0.14740558174357044
-115.0,-1.5637477295363638,-3.9474455484814763,-2.3836978189451155,2.707959287835582,0.4055348762983728,-3.117751984041195,0.5923298857791646,0.10816308576015077,-1.7384981090827858,-2.177037418574979,0.711244875810903,-1.7120483132783613
-114.0,1.2941112703082611,-0.7214677898943638,-2.0155790602026227,-0.2484145940739917,1.646567936548486,-1.401068648793228,3.8951930821481926,1.3187778474418028,3.744635346224473,-0.2987516994706001,-0.31743432432579977,-1.2424612514185591
-113.0,-0.09662224845022893,2.8130146756951198,2.909636924145363,-1.3944529341699954,-1.5198003482055498,2.9084778907387836,0.5352888899812327,2.292343333240625,4.016869473341986,1.91207106529388,1.908246716970198,2.2889040356303743
-112.0,-0.6077026431657124,-1.0073560705658835,-0.3996534274001483,0.7727844772027834,-0.053052076375891266,-0.7324216838875939,-0.18476319378750627,-1.2729637369832552,0.04915500526753136,-0.9478662940037401,-4.434440746516269,-2.7972850382043024
-111.0,-3.1282060755888357,-1.5829033345500028,1.5453027410388556,2.398073251882268,-2.376081629248051,-0.044659784804127356,-2.365340674103595,-1.5024596597346982,-2.6770991788189993,-0.4107685130065304,0.45716876409638574,0.07315282940335277
-110.0,2.887653026326789,-0.7954901514925512,-3.683143177819324,-1.0072604923062225,3.314834457595457,-2.184405939574506,-3.6042209136950767,-1.332277586276709,-4.200344657387918,-0.1548537626201551,-0.48923517485427986,1.179892062243463
-109.0,1.1116560958451323,-2.406945168469353,-3.5186012643144817,0.6028714868727447,2.3374060786688107,-2.9866125154473155,0.006018954726924042,-0.3437289389646856,-1.048364018725482,-2.682355355614572,-1.9132951733258352,-1.8884002686461627
-108.0,0.7894063948773111,4.473771510337468,3.6843651154601456,-2.6026132072909274,-1.507907686583697,4.0530013734039985,4.108536147811388,2.2077557991399863,3.3757358109314133,4.134686992833215,4.4682238021363485,2.5722784581252096
-107.0,-1.053846563822546,3.953438055238661,5.007284619061186,-1.5039703758362708,-3.0133727497635987,4.450471547249122,2.810788579873746,1.984711206380571,2.210833877791919,0.33929116140394333,-0.5425892279882469,1.209738958596345
-106.0,-0.38126156801186417,-1.2501119172239625,-0.8688503492121207,0.8369269446030556,0.2618193716724633,-1.0148810102749737,-0.493410127403096,-1.3392209218929967,-0.9177758582687949,0.4430208222310121,1.4429214253736797,-0.9795618833717258
-105.0,-2.9825513665407586,-1.1711769068698599,1.8113744596708856,2.0959056970344965,-2.3772377748810345,0.3610689246032213,-3.8469152396855693,0.1674533760289988,0.49125582314810373,-1.242627046569706,1.2872274129250343,2.501433266785655
-104.0,0.8716239063948859,1.643780094570217,0.7721561881753317,-1.2401421912962254,-0.007800361615103016,1.1675713038321271,-3.0879124479713216,-0.5802917632574086,0.5407379361946527,1.4107686697121415,-1.4223906077393926,-1.5351605487628812
-103.0,-0.9500382550694169,-1.721376185488746,-0.7713379304193095,1.3516815217081684,-0.06768364504592195,-1.2101009950866413,4.70535520217375,0.8375851806269429,0.8361403349094312,-0.1784669254294861,-0.002281317716119391,0.15676916396857998
-102.0,5.04343842924255,-2.128364218029715,-7.1718026472722425,-1.522829857206642,6.128291874441076,-4.695180122067248,1.3644110676071206,0.09149199357287274,-1.2409287917465794,-0.05673778018924114,-0.8472196087266712,-1.741381750344317
-101.0,0.08481306199311822,-5.656374742249134,-5.741187804242239,2.795506266881906,2.9313305931911144,-5.6691206909384295,-3.732218504316913,-4.360654481303253,-5.9964826696495015,-4.89178639352235,-3.2983812397241197,-3.25563613338289
-100.0,-0.4218398448326098,3.590757309371911,4.012597154204512,-1.579058255450915,-2.2807170308490603,3.7470868434241993,0.4742040738647242,-0.4092772192476468,-0.3677057812859972,-1.0152319016015348,-1.778973592428395,-1.5837275972972606
-99.0,-4.206980102729901,3.8715830566363185,8.078563159366194,0.1696001782959614,-6.1303017982025,5.993113605924074,2.4396688434712086,3.632426880127863,5.970663402020687,4.4384560284509895,5.528017782146081,4.834765422538926
-98.0,1.8753127027527512,1.8216268690177335,-0.05368583373505054,-1.8475893189356019,0.9756988810645644,0.8968964745468773,-0.9668093282868444,0.5158550274409428,1.4611719630087276,0.29216219101035845,-1.9947334593535495,0.2685378994431007
-97.0,2.629528153614192,0.20209578575059073,-2.4274323678636507,-1.4123565907003846,2.540888178641893,-1.102158696219373,2.3202416030868287,2.083422295788285,0.4488216186312932,2.2444850277068418,0.3609488110144624,2.4107510819080926
-96.0,-1.474116810988511,-2.3093723220270967,-0.8352555110386255,1.9013229042109212,-0.30304242804624504,-1.5604617922803992,-4.027340917598817,-0.45996658406582547,-1.2704007354760996,-1.540648811352726,0.938761911087177,-1.9870823945277862
-95.0,-3.5548128756197217,-1.485543140944231,2.069269734675474,2.537987913758794,-2.789419136476378,0.30886240236345874,2.420230589966229,-2.025798424599939,-0.7398450052571273,0.27470472655378353,3.486763456446951,2.0865692732230685
-94.0,-0.8716575210023891,0.39255277726757076,1.2642102982699819,0.26521274020859575,-1.116610617172504,0.7747188782565304,-0.8819476180529566,-0.41392498253892773,-1.6182025323165412,-0.4249024714755184,-1.324440588096444,-1.5634485985882134
-93.0,3.719564632060154,-2.8737752024668426,-6.5933398345269625,-0.47118799319849913,5.115451034935591,-4.69873653949018,-0.7751129536426857,0.15937822573826632,-1.1810825645323269,-2.456874322734712,-3.676828515860964,-2.5694435827527906
-92.0,1.53851334935858,5.579363841697347,4.040850492338779,-3.60726526019294,-1.2060282053012883,4.776361269382859,-0.680410333279197,-1.2610419750026634,0.9032416475175306,1.9064102523102753,2.3761152508785806,2.1176890075456707
-91.0,0.37625872632509205,1.2895407284404223,0.9132820021153281,-0.8074359250192111,-0.29503367472780356,1.0774847024107856,-1.2556058971993223,-1.400517771942775,0.6762192221628458,-0.7313008518382038,-2.3856523152059355,0.3104518326981819
-90.0,-1.3668366149430287,-3.3845687191245295,-2.017732104181518,2.392926851804387,0.3845209957198907,-2.6373902541341794,3.170118880443661,3.2847571337648676,1.1841075597906963,-0.6226931831873617,-0.22116078201698836,-1.8014728720519915
-89.0,-0.174146368301769,-0.33665920826966045,-0.16251283996790686,0.2638196594372716,-0.019217988454205137,-0.25706964100632984,1.69476327725755,1.2785891453983182,2.1880484447460047,-0.026370511030330418,-2.7390655636160446,-2.0084053717619286
-88.0,-3.271837643813372,-2.54157474931605,0.7302628944973186,2.908492863313943,-2.009620054275441,-0.907897662937027,0.03545521911984628,-0.3414279064612855,-3.334774476242875,2.019912127355582,3.205795747710266,0.8599927859281693
-87.0,2.920824872717907,3.0203368166500217,0.09951194393212703,-2.971375853908938,1.4043350865335384,1.559616589226098,-2.147580300427521,-2.0764591772072203,0.2532734757117615,0.9797687746805691,4.3599501614769665,4.627918951618072
-86.0,0.3746800777652797,-3.1445465825993537,-3.519226660364622,1.3861331636899519,1.9394338483075932,-3.334389501967395,-0.9691072615858703,0.12023196606086217,-0.40548199758321274,-2.0462384405130996,-0.46433917360452437,-2.9679987598260236
-85.0,1.6743733659731157,1.0148257891230212,-0.6595475768500932,-1.3376091112273716,1.1546725126443977,0.16878163631884224,0.08343131621976974,-0.1086795882579209,-0.8909099454433826,-1.295906038799147,-3.7799405102667794,-0.9263089550006594
-84.0,-2.8995165642514076,0.8325304832090781,3.732047047460463,1.0484260132355165,-3.335669512384243,2.264060147810845,0.8988934719166957,-0.1471493943795166,-1.236980718118354,-0.6980752269145213,-3.31854773761591,0.9900396218114272
-83.0,-2.217998818180545,4.5043669254996,6.722365743680101,-1.19874270404399,-4.420419020383668,5.5849963922643,-1.7103278444424563,1.3514955896158554,4.111174726390094,2.960607441990014,2.059460211701431,0.8002197609464463
-82.0,3.07949419062411,0.5232679355008627,-2.556226255123282,-1.7710083309009663,2.8584819376158865,-0.9742716883806435,1.5577311771255076,0.9922866128559049,2.332087470435415,-0.4542277474926055,4.966137317936875,1.634998338039821
-81.0,0.8674550834211577,-0.2040479744003097,-1.0715030578214824,-0.37458858510348464,0.9233973484478102,-0.5995030286534418,0.9512614763332634,-0.5396285297597935,0.6738231247102554,2.4379673984391608,1.319120223029945,1.2444150433161203
-80.0,-2.4267443549884335,-2.3133665597966537,0.1133777951917998,2.4098045044958942,-1.3219644759868592,-1.13924866707293,-0.8784767351228201,-2.245454912328571,-4.190761349140406,1.487929675060938,0.01448762019639338,-1.1199764346348262
-79.0,1.2883390058433055,-3.734801927517773,-5.023140933361041,1.2656378745422359,3.1796381939919245,-4.3338661681184325,0.6981396408286864,0.5097260288770049,-4.33607986718172,-3.666256887994475,-4.20337592408506,-4.099277818039689
-78.0,2.225157854548315,-0.8913571031151042,-3.116514957663385,-0.7015236074765525,2.6951424170762346,-2.0296785031182476,-1.1102472636663454,1.3490172166595005,1.9954079821052648,-4.9289114243926955,-4.151804797720138,-0.9688050598725431
-77.0,1.0848436292733645,0.7934609371289362,-0.29138269214440504,-0.9729266632695622,0.7161387385902173,0.23297872169854728,-1.2046737350271264,-2.9678866999863955,-2.225197635441345,-1.774675601433588,-1.0847922684659024,-1.1832032466128357
-76.0,-3.024892063862561,-2.95954924830982,0.0653428155527479,3.0371553943162204,-1.5896226440520995,-1.4596293729559104,0.8736633791509408,0.3199921526754018,3.7840172154685767,3.421951348822759,1.568482934826032,-0.2037194184113134
-75.0,-4.502933285150446,1.2078616356050844,5.710794920755527,1.6129130298494325,-5.065413279311676,3.4494884083433606,1.5849533460423195,1.3281948402203743,3.1908396577061384,3.044331141473199,3.570196389467029,4.924095473370239
-74.0,2.6331847029050524,4.2062540846512215,1.5730693817461634,-3.3767662244635965,0.49915802435762746,2.880186391982895,2.2358637146492732,1.9769129104772876,0.9794069165591002,2.9803984161452575,0.4409909772593261,2.9770577893769232
-73.0,1.2603794734241984,8.344241593003613,7.083862119579409,-4.83897555082982,-2.9385416688499526,7.782531956079582,-1.8373641745213387,4.18622025901413,-2.6772187355713295,0.3358995549200934,4.429109829921339,1.236120850968089
-72.0,-0.5616541959640546,-1.3520627679530937,-0.7904085719890419,0.9204288546854591,0.16740727974874708,-1.0824649896228355,-0.40372486534041574,-0.907432805034561,2.331534624126044,2.390208303471208,1.8195220290091356,-0.29674800077871055
-71.0,1.98732491812281,-1.8236112207193895,-3.810936138842205,-0.037570010007559884,2.8717193333272304,-2.829351955356684,-2.596664682614105,-5.076483187591026,-1.565144405795662,-2.8244093093161995,-3.2973936220748685,-5.111467715555329
-70.0,1.9481062989778322,-1.7088965299513466,-3.657002828929178,-0.07153373528334783,2.771755385711324,-2.696244632060803,-1.2819510968596284,-2.2002049467237694,-1.6164499837627755,-4.5281109335313605,-3.269031679325684,-2.020280068910481
-69.0,0.30132700196031986,-6.452167109028357,-6.753494110988671,3.0496726934302103,3.5717661412952824,-6.61854436171941,-0.02363363581375849,-1.8521113857573668,-2.477670826222483,-3.7806624616058206,-3.4774668874729677,0.047626938877647795
-68.0,-0.23343032257728485,-4.162405668531003,-3.928975345953708,2.176991151918978,1.8108985086428337,-3.986916429429613,0.3542998098582537,0.30172894903020486,-2.695610450693902,-2.060305978987241,-2.1833156386516417,-0.33800373098477027
-67.0,-3.4119994290074556,-3.3802985112119575,0.03170091779549537,3.378611054219825,-1.6807422436062394,-1.7003591726178235,4.14296135328604,3.3043042336810498,1.2665056693610475,1.618295238507931,-0.6279701067691105,-0.18454306043221536
-66.0,-6.129234550140225,5.092601359821124,11.221835909961344,0.5019045850534647,-8.633888909888622,8.12419838879611,4.4041178292761805,3.363872234538189,3.797112958802871,7.9105225517,6.216594229129293,3.7987503081504586
-65.0,-0.29320246751345813,3.293202460102178,3.5864049276156313,-1.4389000972982702,-1.9762385212090403,3.4007461808690493,-2.894523898847467,-1.6378342108452477,1.6839714273525908,0.7411995983236883,1.9367823213575455,-0.30376274204486586
-64.0,6.911931733600293,4.918802035390248,-1.9931296982100783,-5.9361203096012165,4.415649358196321,1.4995064278449721,-2.276893853809709,0.9468767470791191,-0.6105499604344631,-0.9939668686427101,-0.4375674176037583,1.136178989664023
-63.0,2.7632283384327927,2.7563250698251696,-0.0069032686076729854,-2.784704799578809,1.3461033635703494,1.4127894364347413,-1.7764891044457372,0.07797633214731192,-0.06452792474151087,-2.4588450892922777,-0.8452627725988235,-2.1320167770609686
-62.0,1.5802693359580187,0.7935655283374439,-0.7867038076206208,-1.137510039798788,1.220138345045541,0.04715024095882514,-2.2427159492483355,0.9566601895933047,2.063088588140988,2.2862236229020136,2.084204530526055,0.7734216893819507
-61.0,-0.24779317017073854,-0.9197276819485709,-0.6719345117778572,0.5504971637922003,0.2459058092030293,-0.8230755911415217,0.3702712485950739,-3.174930222450555,-0.27837377337655134,1.634950607226687,-0.6929655607533818,0.022252244185118064
-60.0,-5.167313699872075,-0.511054129029862,4.65625957084224,2.803063025195571,-4.8790175180143915,2.0520219968636204,1.2832368734018411,-1.2549789760475027,-1.3419648837498006,-1.3382727743304437,-0.8751892271332689,1.2588872551554273
-59.0,-2.6844719996702446,-4.602812695434707,-1.9183406957644062,3.6847999704543355,-0.42751891938461184,-3.278646543244421,3.1851454398440264,1.0866499159690621,0.12751673014037213,-1.1969253029579412,0.5086886130455159,3.2525768545283764
-58.0,3.045083361704509,-0.8432927982318197,-3.8883761599362647,-1.0598574681039619,3.4264299046981685,-2.386938427029898,1.7993478032322248,0.02980791651125403,-3.2916146018432975,-1.3912564252714652,0.44814054742306153,-2.3674121474858723
-57.0,1.0170324930418417,-5.569711362750522,-6.58674385579231,2.2394276127564186,3.846461961547945,-6.1070042025540685,-3.153256478252204,-1.8688621832571908,-2.987158031329314,-4.815429158497697,-3.6341882929566602,-4.7590174432892915
-56.0,-0.2949461266492357,-2.746439844955311,-2.4514937183060423,1.4848208220098464,1.0510428027002932,-2.5585093703540838,1.4981365131911375,2.373137031798575,1.4477588933188013,-2.152700203467395,-4.639799943737541,-2.2230991599307055
-55.0,-0.987269332174898,-0.22042119762802614,0.766848134546879,0.6473579418185449,-0.8192681071449066,0.30573696944513373,-2.775154878419949,-0.6576042106308486,1.6308758877837646,3.706739194585851,0.474062747983759,-1.220990120082782
-54.0,1.9049723448304507,8.131177370178452,6.226205025347994,-5.053461461396143,-2.1776036079719354,7.2074583104680325,-0.1412291039157083,1.2815214341700023,3.3489372771196333,4.947996973381134,5.490254626956062,4.472745482064394
-53.0,0.37125302181521824,8.340216977213501,7.968963955398257,-4.313385672215372,-3.815506538753774,8.105845882264335,1.837275802743351,2.3948730808725323,2.414728496502008,5.864802589921309,5.238897096303264,6.9511575485219534
-52.0,-2.221175352578136,-1.7942292393729247,0.4269461132051724,1.969516849920491,-1.3445152881062183,-0.6484268090164313,-1.9567433230427744,-0.38014773551129477,-2.875386978387611,-3.165086891244429,-2.7488115053884705,-4.392969908670018
-51.0,-1.6886565430214455,-0.7886239631708127,0.900032579850601,1.2767587978829158,-1.3220517570899168,0.019179861810516174,1.6871268227102665,-4.037825210892303,-1.3986015713420765,-3.34913758005459,-1.0655975218214973,-1.6146961788839769
-50.0,1.9148714948588939,-4.545418257446466,-6.460289752305385,1.27155406736731,4.229692746334471,-5.532886814883618,-0.31446505784087175,-1.5030593941261843,-1.7874495794124439,-2.9781452412006666,-3.5016138919587227,-3.35886872520675
-49.0,4.591687409901279,-2.822790951883214,-7.414478361784504,-0.8532407233086667,6.036831136654635,-5.065600038460614,-2.0364773098904303,1.0757888042770563,1.6416783272767579,-0.7312538302830673,0.7397501996685842,2.596073443602189
-48.0,-4.137997805586813,-0.07128610398803836,4.0667117015987655,2.1311476681625217,-4.153235016659173,1.9735156885807497,1.870268042864427,2.5898982586335024,0.11527267603138272,2.641710365442238,1.1071309850231625,2.008309137221183
-47.0,0.18304699235223043,1.9635825216907525,1.7805355293385094,-1.1311875097870885,-0.7732807637827372,1.8468858890163677,-0.23846034463261423,-0.154011540227172,1.6283177593713019,1.3985117576308137,1.671031490292283,3.5082625675502
-46.0,-2.5801942135873213,2.9757090607768766,5.555903274364198,-0.18320836623430414,-4.041656629870942,4.3167411253839205,3.630430614273463,0.7634837711940152,1.2212691160107134,-0.5228563199086047,1.50994050289078,-0.5191557031947889
-45.0,0.6520844705244013,-1.6417260172767651,-2.2938104878011467,0.5029454363693051,1.423806561199025,-1.9990374609878119,0.17037398586917163,-0.037004539760380734,-3.6832546917018645,1.0573790718025804,0.32808551505005856,-0.37520040286780054
-44.0,2.923631956343528,2.249557761414838,-0.6740741949286635,-2.584085388018471,1.8324977983798072,0.8314598063153356,-2.348840019168635,-0.08597771680933847,0.17538807017071423,-2.17921361348189,-1.408045155113987,-6.958394225220194
-43.0,1.316171326004738,-3.788776324811667,-5.1049476508164,1.234981560717351,3.1689702483118447,-4.485895320759573,-2.6182646373101024,-1.596052600712839,2.262983596684619,0.3137304985194298,-2.9633471440368546,0.37567600466262707
-42.0,-2.1112968327208783,-4.4873953808158635,-2.3760985480949977,3.2967504468502593,0.17176565651262843,-3.396390540759515,0.11878490700394395,-0.37036045464148626,-1.6423521203793434,1.7293017433844957,-2.937328531205591,-1.8922369121499905
-41.0,1.5971107318035112,0.20615881862616003,-1.390951913177392,-0.9025982665785441,1.4554348708395155,-0.6403889329975843,-1.4544088402292445,-0.4151255521541031,-2.2237535400332624,-5.105855740905318,-1.1785322220259782,1.459608777960233
-40.0,-2.832103792338551,2.5027752964182177,5.33487908875674,0.16806308074220477,-4.04351346790442,3.945468676428528,-1.0483380036441234,-1.3545546558164627,-0.7852862921444778,1.1870787632276427,2.1703822916581923,2.2788072780054254
-39.0,-0.6596041920590517,2.2906441993767075,2.9502483914357565,-0.805712502798879,-1.844158058364695,2.5660557458745146,3.615877409686915,1.1904161943737863,1.834646346935423,-0.11492112692743867,1.8722902094177702,2.1724286183476633
-38.0,0.6148474074260781,5.052178919927801,4.437331512501735,-2.8162731584832565,-1.8719466737006145,4.770214956239315,3.555366909582378,2.2811687755179495,4.845759367507188,4.607466283008027,6.893851417547603,4.9080803828432344
-37.0,1.965560166487976,2.5883273323281433,0.6227671658401814,-2.331064909924682,0.6319965367918117,1.6364493820634503,-0.34070528691157853,1.5970397498997486,-0.2762331762395387,2.7747204742498774,0.8999990888505547,-1.9158361893906353
-36.0,0.9979975092583312,0.23439670923545894,-0.76360080002287,-0.5850299064418457,0.9199091470076708,-0.2243038194266217,-1.92349890356508,-0.6963208853186333,-0.16533256057170997,0.049449033634996975,-2.5851078375009364,-1.724382963035991
-35.0,-3.3712852189655047,-4.742892240466588,-1.3716070215010734,4.014791895934829,-0.9622870729827513,-3.084342027260162,0.18290518379225662,0.015609173755454786,-0.25754265735357873,-2.688110673471357,-2.6651239044966992,-1.1921663385285841
-34.0,-0.41138252688509835,-5.471555127916584,-5.060172601031479,2.981844010804694,2.2793403636970058,-5.282712055424559,-1.8798068053655932,-3.0393103007867643,-4.641633365947814,-2.3777309974660517,-2.2918245643272197,-1.9522362044474988
-33.0,1.4985534453410487,-7.425037521090058,-8.923590966431078,3.0060820417134804,5.1596052843662665,-8.185101422235327,-0.2061703935135777,-0.53542783437682,-1.6025583059511799,-5.266950071358685,-2.670901952687932,-2.290414305973972
-32.0,0.6385843372432494,-0.6695088497479542,-1.3080931869911767,-0.01969275681803162,0.9926231220018931,-0.9996123346531753,-1.290173472614505,-1.8120580876770183,-0.43984238522010966,-1.0243797520969382,-1.4210171510993987,-1.6462906668545885
-31.0,-2.045442505778117,4.936932897888954,6.982375403667086,-1.4821679200727016,-4.502084373671972,5.942679862424101,1.4011019269562288,2.600568871253592,0.42680021972121296,2.197920345351752,1.3810416325722725,0.8773269502618819
-30.0,4.7459257664702905,9.722261151236681,4.97633538476637,-7.195129167294063,-0.10774507045978421,7.400529081875113,1.0978117632910656,2.497692353435815,3.684055238774056,5.420208318447665,3.1587139841908396,2.687741247262097
-29.0,-0.31542135258844606,2.668405036431528,2.9838263890199332,-1.2213342711658037,-1.6415014239877368,2.78658276216657,0.5151753455188758,1.6488770405217805,3.3355616951404627,3.4636319740031043,2.202219489252655,2.4947180786846523
-28.0,-2.603513789585479,1.3269106436414075,3.930424433226869,0.6662978915012678,-3.2527145805891724,2.657528258869198,1.7322696456375852,-0.3312744346376475,1.2828235672640882,0.060165126877558706,2.0243356266619594,4.053114359109715
-27.0,-1.1997651369725688,-1.6941710208771394,-0.49440588390455553,1.469196849411357,-0.32815386327973184,-1.0716600906353388,-0.2789934094840707,-2.276292860054753,0.718846570574874,-0.9781954206691593,1.191911191768767,0.19198374680662145
-26.0,1.9330368199792547,-6.147949678536925,-8.080986498516138,2.124905452490612,4.964517339741195,-7.171453866742148,-3.153799956265519,-2.5059809445553065,-6.344531024377709,-3.8067651267848577,-4.407565997458657,-3.6235607308142317
-25.0,-1.4261427427961928,-4.984726090247832,-3.5585833474516004,3.14088518899289,1.0338110818979578,-4.245543480473834,-3.270593064451825,-0.9916581642744209,-1.7250315466897672,-1.5796664856671137,-0.43800546909432336,-2.1529649447673
-24.0,0.2690890093194506,5.173541557840353,4.904452548520917,-2.708545114226257,-2.2654100201220158,5.073260224697038,-0.3507663059791035,-1.434572616111378,-4.241707345577424,-0.48946236535954313,1.228203080858584,-4.472222898616306
-23.0,-1.2172191909745353,0.17865177829328727,1.3958709692678033,0.5325462305167472,-1.33245964022429,0.752473962957723,3.716320216054014,2.4820172117093597,5.76290592891048,3.3610190306402457,1.7769442765086285,4.1591743679694115
-22.0,0.20641099972473798,-0.5643832343482154,-0.7707942340730092,0.19456918927097688,0.4581623871537718,-0.6936716874139208,2.5588664635945717,2.0500848953480504,3.183311301759616,-0.1144370788707878,-4.737636590913814,1.874671161330059
-21.0,1.2284565279875936,-6.529557717901836,-7.758014245889481,2.6699300936312094,4.533423888004963,-7.08561194914363,1.7908797827275673,3.326891074487952,0.383505467270993,-4.033494217190038,-4.606925862587245,-2.4521885064288846
-20.0,-0.11957598999336083,0.17529020773043963,0.29486619772377654,-0.08251038106745501,-0.17661330930036412,0.21549335189559704,2.82527115802278,2.9961567751308547,-2.2280629414166255,-1.081301724023796,3.7470690514073355,0.0877339523606353
-19.0,0.9397041273338708,-0.4947764002920578,-1.4344805276259005,-0.1932942638356253,1.1300510058108273,-0.9878198740900521,-1.5305502100044306,-2.4077318876082354,-0.20508960190556502,1.4667551056349373,-1.0425379427797576,-1.1353522015688942
-18.0,-0.20751344308955377,8.15391399215944,8.361427435249068,-4.017749573269915,-4.269331216553322,8.227500680003834,-4.144926174897501,-2.7577112139427937,0.5865748408751877,1.4983894600516185,2.044035307675934,-0.9246519673477192
-17.0,0.36972155034257026,8.470098540081718,8.10037698973926,-4.380948995832539,-3.853554556639245,8.325700452804186,-7.891161554690987,-8.603377773230932,-4.208802436523785,1.3672534299579606,1.2616062456750357,1.3539440331057468
-16.0,-1.038987206706149,-3.17632610305281,-2.137338896346532,2.150887396712954,0.5608086632844942,-2.6230348818624494,-1.2728288696822756,-5.981316781882018,-0.41252793611258465,4.45845848345811,5.578451677940977,3.9484521875112577
-15.0,3.355433043343102,4.0806119442621505,0.7251789009191514,-3.7500983806404133,1.3291478676096433,2.3549044671958725,2.601849104122788,7.834195549887669,5.017029974861974,0.4162817030158382,2.744543824237579,2.3193259804438213
-14.0,-3.111715336658618,-4.457006803436305,-1.3452914667776343,3.7545225535762934,-0.9441028628787338,-2.8686332792375504,5.309397364536411,13.671150776939472,8.762262497373863,3.472249770451056,0.272523530967117,1.9581337361512914
-13.0,-2.2158222853676115,-14.948376404689615,-12.732554119322025,8.5530645880144,5.280483237892432,-13.88022309443008,6.903043732050156,7.860241183797767,-3.0639524211744256,-6.8941043289675985,-8.522944951361914,-3.1286727650451804
-12.0,3.034869971459919,-6.447721593387576,-9.482591564847532,1.7555193033156025,6.284849368270231,-7.916205690822038,-4.372826194209594,-8.547246376559404,-12.188534653012361,-11.066080460520462,-6.908829852395741,-7.096830175020017
-11.0,1.3783334905102174,5.0495069078060135,3.6711734172958073,-3.1667585027857115,-1.1955844318990438,4.34190391772344,4.620041076012466,-6.331302909586075,2.1294596093494915,0.4506886950019924,-0.35359417781029734,0.04491493931055679
-10.0,-2.5936882821930416,15.35840976678517,17.952098048978314,-6.417120215375371,-10.240424998576296,16.64715800867476,1.8988637946356004,-6.941042065847794,1.5207570186044714,10.125114352777253,7.441414739275875,2.1378389012111025
-9.0,-3.132578168790726,7.144844325378086,10.27742249416903,-2.0452073522234264,-6.670283406062133,8.710161618336922,-2.9270003102122577,-6.164269635729443,-2.171332387027335,2.6087163447792356,3.037217351691884,2.5159330037911856
-8.0,-4.314918657609156,0.9231488190172437,5.238067476626659,1.7304934626290658,-4.819063772357674,3.0821077647751194,-10.826993032266271,-2.994795510457223,2.5830145550493855,-0.9649967577064649,2.982951598432863,2.4348792081871653
-7.0,3.2496466121058605,-11.428852849859378,-14.67849946196505,4.040510844604332,9.000790820343136,-13.054725360488465,-5.640033326971354,9.123179365901326,4.269416353703382,-0.9795937687713052,-2.081390789072921,1.3203542806846973
-6.0,9.464044376590227,-12.698627038038882,-22.16267141462913,1.6432983465596727,15.771084238808298,-17.4385551828428,-4.4398420807901,5.807401363252485,-5.892931559639226,-8.309549843451295,-9.90923874540451,-8.068925805816248
-5.0,5.093601423695825,-1.8621368929678797,-6.955738316664022,-1.5910666997137608,5.9819726558261195,-4.426505695334615,16.21217361435756,19.252794333165138,6.381304113192034,1.3752180122360333,-1.7551931718936182,-4.69040357063983
-4.0,-4.177702397688231,1.0328987770771463,5.210601174764882,1.5983326179193087,-4.657826196664763,3.1722475066768285,7.005118562797555,0.030865816602425156,-0.5115144695860894,0.5209036957703536,0.6986415779757523,-0.7527408722401248
-3.0,-3.026297971948402,2.1963074306000197,5.222605402547955,0.3653930056669857,-4.086536454511126,3.670994820255941,8.225126963944735,-1.2945364731095996,2.7929174618312964,1.055160986014207,-3.3831593921703886,-3.336055875648423
-2.0,-3.461572298506277,12.053330365352444,15.51490266385853,-4.262948933076786,-9.447627646924593,13.815477304574728,-8.72862524841738,-19.394849727389495,-3.8649046141424415,9.446434419498067,11.385007446415482,11.532726024494595
-1.0,-6.065533740209556,19.627798789211248,25.693332529421095,-6.824162910697058,-15.914943124402278,22.684326043390808,-20.400219694535995,-31.368383201597055,-7.612413071342993,9.844442940608008,18.06788445492663,20.389409517766985
0.0,-1.4036581522505385,8.653961458666744,10.05761961091807,-3.58876671186855,-5.765169481824696,9.294109386353465,-3.5348611804053114,0.27306190525233376,4.514353572241476,5.149266330440013,9.33693931159582,8.24438965955197
1.0,0.9258338454434015,-12.367145638311587,-13.292979483753996,5.67650351325688,7.073107372276399,-12.819155323205704,4.195573748316812,12.020905644227746,-1.5042132853289087,-13.961058255184442,-12.213395531067922,-12.042660775791163
2.0,9.039000216416271,-21.470339071783382,-30.509339288199072,6.246545012329433,19.8121698023642,-25.98447653282974,-0.6104367071568593,17.69402001112335,-4.886063274301451,-18.833832922750002,-18.720278382773216,-17.98988319437437
3.0,3.069783716481721,-19.470381127806483,-22.540164844288483,8.226639095992955,12.837104978101365,-21.004171707727004,32.520395177109584,34.33387393904076,9.105548986913053,-8.038515486418873,-15.801684146136285,-16.199379721077662
4.0,1.224367547771135,-8.497382824417725,-9.72175037218967,3.5800867459508265,5.42105500757459,-9.110437272073856,18.05774798318466,24.183780844025982,12.56180272060291,2.0084565573683753,-10.630280719262098,-9.063852055568491
5.0,0.3397574666578036,8.73788669023618,8.39812922357755,-4.518818879408156,-4.0055872821234155,8.5683561119409,-23.311103905920767,-31.592571932526717,-11.975881293127063,3.564707083835428,8.322798063882598,9.592039997301567
6.0,-7.603640807574188,12.156626941293537,19.760267748866806,-2.256455140014128,-13.658329174888035,15.963556406489765,-14.714736796614398,-32.318039690028655,-9.325779935239222,8.019123693993063,9.67736811393392,11.224504307702562
7.0,-1.5332787938239485,19.727747296950113,21.26102609077389,-9.074779179741398,-11.370510176527368,20.50733132768675,-16.717376402929165,-19.49775469440318,6.00592275075013,18.307043407230324,20.801279333074696,16.807652766430795
8.0,2.1662638169869908,18.962103497070515,16.795839680084075,-10.616257292821524,-7.362030771390922,17.90156751776192,0.10333564345776125,0.8767383929457218,4.2007425812071055,12.382520995001627,13.546690589417357,7.626380856324916
9.0,1.9039071981980207,-6.5668781193634,-8.470785317560063,2.363292526084032,5.1452496699318555,-7.565231774266589,3.6355067694003704,5.0444900736859495,-4.622586968739415,-5.090915178675979,-1.1617732871660964,-5.281381952242858
10.0,-0.4953646044334399,-15.49796209150314,-15.002597487069114,7.954923816987288,7.294320891049169,-15.288491298357226,4.915770244261586,17.948554476501428,-0.9065075169979893,-15.71171653800574,-15.722554485279495,-10.083445619695004
11.0,1.4331039142265491,-8.337302385571503,-9.770406299798237,3.4938697979500404,5.644619183891348,-9.007916873458555,8.019939854806452,19.688088307856354,5.93494939736712,-7.40244766682256,-9.609961817935654,-4.929184668706926
12.0,-10.846412921238365,-0.8531879647047287,9.993224956532902,5.816991054984651,-10.455544928173985,4.617923570503171,9.496772233168826,-4.926228903883068,2.0932358946932412,0.24210672329278715,4.650812899575275,5.714369762683432
13.0,-14.903625007302937,3.918634987953163,18.82225999525564,5.542127122243295,-16.899980991796728,11.338053571843872,5.636170851715303,-13.926641967106377,-4.17069998616576,-0.24605492973383836,4.706965977481318,6.84078203114932
14.0,4.781200969278999,-7.840541037917921,-12.621742007197035,1.5039939877638888,8.741403433732298,-10.26810863230633,1.471102978843415,-7.5167026599609725,-11.045945374143482,-8.344738249765067,-10.436753515341604,-6.630342502593681
15.0,27.839763043644282,-17.271075294445126,-45.11083833808909,-5.306572862407514,36.43538867189095,-31.15560729852941,-7.310829922333216,11.50653693963103,1.9638549920591508,-8.741083428522455,-15.587861878187299,-16.32108693347618
16.0,28.05170916246233,-7.580747512895271,-35.63245667535695,-10.25405624610282,31.88131207943946,-21.656502371548964,-18.159129160143472,8.063058396575109,-8.943632850153332,-6.398611340507759,-11.641753150596717,-16.10882675185336
17.0,4.427755171545349,20.662664319324463,16.234909147779344,-12.48117739335817,-5.8624880186377055,18.47312044120239,-11.154584813520316,5.891625937688252,12.877046212996266,22.2856378755247,14.893536890328814,7.753116125315146
18.0,-36.47154012499191,31.355949967742966,67.82749009273473,2.5467436130164978,-52.18480691315753,49.615167636736494,6.21816748076657,-8.4690721935401,18.823255073280023,31.728513939847666,29.136406306944195,21.954573786682428
19.0,-39.67509757749754,9.935080771331043,49.61017834882834,14.861588171662545,-44.67659277900928,29.799404558899134,17.046425303838404,-11.200365372951502,4.592658301636481,9.614719677269914,16.63910517908471,17.70445645970978
20.0,-3.307168031309825,6.356356642565704,9.663524673874974,-1.5324890690763002,-6.4416686652309885,7.9647313504775035,7.02276382585692,-1.6323574917230417,2.9739548848309547,-2.3521325615930984,5.306569612484085,14.647526878345525
21.0,28.557436005447414,-29.309353881716333,-57.866789887163954,0.3656025548908737,43.172862587377764,-43.546198052921426,3.2543326115858093,21.916895844266083,1.1429021443032177,-20.618148371284693,-24.40507973824569,-21.772958376111326
22.0,28.202008343566362,-15.444796698982596,-43.64680504254875,-6.39472734471121,35.95726140136874,-29.575020614546705,-10.499678484574822,-6.4530883285952765,-18.569772611123742,-20.248893316527273,-12.185257302185999,-8.837370759763141
23.0,-0.28103452489549596,7.977916601407674,8.258951126303714,-3.7944884940632475,-4.323273920514726,8.094423382990552,-10.904807294459003,-29.963239076434572,-27.374313039278817,-14.241109457708648,-3.808355256097652,-2.007470628484276
24.0,-13.484407450156132,-22.27674775309507,-8.792340302938527,17.845202114508126,-2.326346229538734,-15.556507801656043,3.7415896908314634,-4.904660371855433,-15.656646689630925,-16.725318044483437,-19.631626525832175,-20.84399601266392
25.0,-9.830314430292697,-11.350239941979593,-1.5199255116866301,10.622592196412159,-4.137553776091184,-6.379014795774273,9.929114760138745,14.918811423679637,8.207741131262782,4.388664158785691,-4.654999938723224,-10.4097276189194
26.0,-0.8369490318851298,19.889623126448,20.726572158333227,-9.582696710331987,-10.761388057494123,20.283000797543,0.772071681993904,14.761952789197816,23.817938591241713,27.314953793632597,19.332805610065783,16.660606427984817
27.0,1.4146161204602201,17.56319930438292,16.14858318392269,-9.473749350684152,-7.339664277624278,16.906538791007577,-12.090608957716134,6.046662593114757,15.113950544367803,19.961754047570018,22.226219448997387,23.30189296763916
28.0,2.332652825339272,9.275446036766489,6.942793211426995,-5.792294150896355,-2.34738345787009,8.078120235198835,0.030947924514233005,0.14169945896810532,7.25575914864924,10.235684501231695,13.266745679889915,15.175169717365526
29.0,-2.039357026917106,1.5921597361684494,3.6315167630852985,0.23607144483678777,-2.8692411968514193,2.5782796901884577,4.946110927181647,1.9883987808812735,6.002961518194575,-1.8539456205488367,-3.7612673653808937,-3.9574069274888544
30.0,3.3068189683818416,6.23464074196307,2.9278217735810466,-4.7542286088289725,0.2398303420504443,4.624178720663651,-0.5246463514108051,-9.94568753903505,-5.3130834703282614,-8.602421427437843,-9.613639264522396,-8.539961151362533
31.0,2.2458619519630783,-3.579881682989946,-5.825743634953097,0.6891059648808922,4.008201164899717,-4.740554094964999,4.026227318910197,-9.033749931412418,-12.586386173672018,-9.902917244354104,-11.768557563209257,-12.254111998911075
32.0,4.302889852799626,-21.9966731453923,-26.29956299819186,8.795368015815358,15.26982596215569,-24.108600926360744,3.826255950581493,2.5622613529174236,-11.496158570159523,-14.198497591200104,-14.342953204066514,-16.645547124864407
33.0,-0.6290078334500314,-16.830161236764347,-16.20115340331417,8.681272377564945,7.826194118470379,-16.55564516734063,-3.894029464285931,-0.6380890638557433,-10.299263353938093,-10.150566914331078,-5.793280747940431,-3.538456002331211
34.0,-9.771666692962768,-3.02220320001622,6.749463492946649,6.428389538567489,-8.229210315006886,1.902715844536412,-1.9774371089244989,4.147563465104813,1.9535673696009779,3.542781516973223,6.362419821095964,7.244219502122852
35.0,-3.197224977616096,11.0312039671024,14.228428944718468,-3.885819862462509,-8.7685744762613,12.591828081288739,-1.5808658942715512,-1.4227177819529473,8.093382431927747,12.326348137147136,12.890159122260371,11.280519498962835
36.0,9.741994563656654,19.141441661781588,9.399447098124831,-14.410627627433879,0.18782976404398255,14.314331011531081,-6.01357741275598,1.3168706411820257,10.565805833688108,9.520879058599004,9.678590715322997,14.085689739296367
37.0,4.440631944595134,9.974010036707186,5.5333780921120255,-7.253434215531372,-0.5336147842415295,7.723254605303568,3.2943650001502323,3.046777935236129,6.9334940749747185,8.3823664444815,5.77999577223472,-0.5589942765038263
38.0,-1.315655628185675,-1.4829076503016827,-0.16725202211610135,1.3571624498982784,-0.5626420375702441,-0.8502194962262735,3.0886397008211386,1.913814718866857,-0.7112642530234381,-3.3338028469574903,-4.385185431100405,-7.091964311321194
39.0,-6.08459522744948,-7.638438995457667,-1.5538437680082564,6.904546501883659,-2.253058601134538,-4.5370476405604325,3.313481291399601,1.3376121576813167,-2.732555654408916,-1.720797810715748,-6.609359656724328,-3.6829726989606772
40.0,-5.0760493523287735,-7.996817682996076,-2.920768330667176,6.587254612853492,-1.1421927593061665,-5.4737011211485775,6.432864709304861,0.8768032094201423,-3.937570835428409,-4.370815940893224,-4.259692764304545,-0.40770231109214894
41.0,-1.8858907082402494,-7.814586340335671,-5.928695632095209,4.829648276813574,2.038027011055093,-6.883546900794289,-2.2433340011142766,-4.470626446527671,-2.0551568114614716,-7.345825511527045,-2.123833988868589,-0.8414616832488546
42.0,3.4092148281625256,3.2308471337404967,-0.17836769442188594,-3.335885876862311,1.8133112137575154,1.5147318566039907,-6.606010797321545,-9.554114473608935,-7.653679965350155,-6.156215372198804,-3.105909396914666,-1.805500340000207
43.0,6.970282503994271,6.672278448840422,-0.29800405515392203,-6.836588575508288,3.657378657747611,3.1729752604200065,-5.761903854737204,-1.5157625624400923,-1.4102789578242034,1.4374123380221544,2.5821994509020465,-0.8014157029647746
44.0,3.4862276317443253,2.038664253337045,-1.4475633784075614,-2.7816041079378966,2.416418391471136,0.35452996698113015,1.4642446428899443,7.130295625902986,4.545689386858778,3.1693251458221563,2.178342975427518,-0.603477914131665
45.0,0.6714384163454681,3.448480510243301,2.777042093897555,-2.0859275202554057,-1.017818326507392,3.0850530749758645,-2.9535980278451293,-1.5805740090573162,1.2602962449377912,9.061729210226565,5.154958716277524,4.449277034329575
46.0,-6.886775348914059,-3.0292048119351853,3.8575705369787516,5.003583289340964,-5.407587154514913,0.377262405169112,4.405676602718728,4.475273360754363,5.460983904941944,3.8658875023800228,2.137679286902731,3.9721076435300384
47.0,-4.704463101718996,-6.557401939551477,-1.8529388378323577,5.671618004679441,-1.3729890957439217,-4.1724770627538454,5.612880606196032,2.4074429845212766,-0.4739557266966665,-3.5601809833377533,-1.6193352056163124,-2.0859450266827837
48.0,0.9335352103644445,-2.0673715269836253,-3.0009067373477993,0.5278718940633942,1.9506792992871307,-2.5090600496293654,1.131397722593718,0.07387320467645009,-0.22995554652938477,-4.584569706986237,-5.2803622963486125,-3.3396576392336286
49.0,2.2491618757768235,-0.2692059841349015,-2.5183678599114425,-0.9472818757324488,2.3752458278232584,-1.4522879310900565,2.2673371726067875,3.4406453171913274,1.8839494986133212,-0.6707553091469247,-2.3007180495570783,-2.946326310176494
50.0,0.4932940552125147,0.9459593199758425,0.4526652647635059,-0.7501105603276625,0.017076670610242317,0.7182882792129005,-0.15007307262350295,0.036519800892396925,1.0185770341552982,-0.7659732490633622,-0.10810720526633677,-0.6603178162555143
51.0,3.5044604141706817,7.529071691348398,4.024611277177744,-5.541236851732466,-0.2615657314639247,5.798125945989789,-9.619235415645361,-10.857648095157273,-7.737580253718512,-0.46963799432153125,-1.1345575479766408,1.8464192623972062
52.0,2.970354944080487,2.9897695293431403,0.01941458526253559,-3.0001088768777,1.4722320256852184,1.530921201335432,-3.446174948328809,-3.1421132356834116,-4.001605676445623,-1.1380218685748873,5.037962013736832,3.0212448507685896
53.0,-2.882762022020372,-2.626181089203116,0.25658093281706745,2.8146647831392313,-1.5772857667798128,-1.2310116983350645,3.44200246413768,0.9558923234620029,1.5864651694126644,2.121564280614989,2.574119537341142,1.2775989240472754
54.0,-5.434008892885169,1.7810673161854678,7.21507620907048,1.805985333765922,-6.337777738360231,4.536148160304018,1.8091935904089333,3.916155156276085,3.5284515234917824,4.711208445539211,3.431414515201476,4.8533421519244575
55.0,1.353616329837803,-2.4527717689403916,-3.806388098778286,0.5239990755826507,2.640049018414844,-3.1668490193406966,2.806766893586288,3.1179397302883776,2.25879140408033,-1.7406118395592693,-1.9371919093942014,-2.295282183446785
56.0,-2.6448671429991215,-4.393273016785317,-1.7484058737862105,3.56475299331536,-0.4713090465440426,-3.1074143883344405,3.664791553208766,4.7748482782461785,6.034469451318982,0.5215324677689891,-4.752316344936783,-3.9114919775298693
57.0,1.7652730795289362,-0.3956623344132577,-2.160935413942156,-0.7266805270417473,1.937012817336894,-1.2377171877526942,0.5397119624170381,-1.9032299662604286,-2.5235612027516776,-1.0864835612517094,-0.9948452523959146,-3.159069533988819
58.0,1.6406352665908868,-3.226238614902081,-4.866873881492942,0.8207651819704618,3.304499628932028,-4.008771286660689,-5.625068956101654,-3.946296941046583,-5.891333338744496,0.11760333022075353,-0.9567774192400873,-1.3061564102993626
59.0,4.693167503448586,3.6301563853843226,-1.0630111180642545,-4.141473391356463,2.848861405639364,1.2397789028014623,-3.3249480384741066,-0.12463678349664598,-0.3136425491662922,-1.5557512877656245,0.026408402268269016,-1.260497878708704
60.0,0.9430687613112196,2.3800106410749033,1.4369418797636895,-1.7255644083812969,-0.2768477007418153,1.9413511427446366,-0.47197719168698304,-1.7395910490239295,0.9016138540899346,0.081085697062099,3.3264767793978813,5.128694405224388
61.0,-3.5549410118939226,3.419864747879385,6.974805759773329,0.08009206375071076,-5.294652090713412,5.150320681926404,3.0530391202445433,1.7019918102351734,0.42182702145617046,-1.7054365765481692,0.34130074095304197,1.4704669435948108
62.0,-2.1931706241658233,-4.29519965164004,-2.1020290274741784,3.2583831179718876,0.004823289438750322,-3.1673982920420833,3.5577532004644823,3.693472765224034,2.9194629486084835,0.04780665015636887,-1.6267020932604699,0.9846053621911484
63.0,1.7828430479280923,3.1749551224397727,1.3921120745117284,-2.4595363765631935,0.24862269285253502,2.3142325139200164,0.8770347329379478,-2.194048028182074,-3.5270794483688923,-0.23019934698238687,-2.3237059425685067,0.06396952546383816
64.0,-3.6702821740240736,-5.2268198967912785,-1.5565377227671968,4.475251243437034,-1.0786564801982177,-3.440848370532597,-3.4052265598379075,-2.4319261512847348,-1.0272277319069731,-1.89360911814692,2.0608048581587584,-2.0848386693211727
65.0,-1.2565396002793432,-0.9045680045205842,0.35197159575871284,1.035787741574926,-0.8227342313251734,-0.24867838751819793,0.33707957946584566,-1.4949971974374023,1.1753505590860258,6.792288460002028,1.7997274645479415,-2.6285599832727615
66.0,0.7684916765411287,6.586241606348567,5.817749929807372,-3.638590512228853,-2.541474005341393,6.148437168568697,-1.0857500729539233,0.12886407454377838,0.7645762008337416,3.0045348994377763,3.6634802876835773,3.6905448240312775
67.0,2.6153164894861893,-0.8427741516084177,-3.4580906410946355,-0.925663165510894,3.0192929832382296,-2.12717757126841,-4.154135305213134,1.7214293725450653,-0.924126245313506,-1.3751743137346883,-2.7757365463700343,-0.5923237403094461
68.0,0.02271464716288918,-2.694223321346829,-2.7169379685096824,1.2924974620036382,1.3502270415116249,-2.682607529276919,2.804251868767162,1.699945033335809,2.24860579241554,-4.735568273580495,-3.654787010627592,-4.132400780369363
69.0,3.8207692883022566,-0.7845240260139839,-4.605293314316145,-1.4895013035680158,4.269756747051939,-2.6697640231750976,4.246535563136214,0.29955731093078275,0.6927721987851488,-2.52556631232307,-0.417254152987244,2.673469511698484
70.0,4.019305052499238,0.1978537714687234,-3.8214512810304373,-2.087244929671562,3.8971067479447026,-1.8607842787557065,-1.4042888764322412,-1.9376956995858212,-1.1318289946380997,-3.033659180940994,0.02129364689194224,0.7389904971180482
71.0,0.5135111113611845,3.625388839776741,3.1118777284155765,-2.0530869448710383,-1.2431249405714868,3.404580140871997,3.726122767684746,5.755510831148601,2.612053154341214,5.426576345644488,1.0394813142630674,2.119641103439743
72.0,-6.2511290795028644,-0.5951785453327889,5.655950534170035,3.4387210042948344,-5.974275930473882,2.4938444325983937,-0.30372444653963143,-0.8989474490015738,-0.5639290975728669,2.9869490317508243,3.364487885051195,1.8178047601181555
73.0,-10.41280724252442,-5.275828421411042,5.136978821113308,7.784937234610597,-7.79352749852112,-0.022476491389666897,-4.486367197063412,-4.833451055993309,-3.983695189841343,1.7931266666873262,-0.7983377665395046,-4.545407881014637
74.0,0.1297342995125046,-1.2127729206354037,-1.3425072201479713,0.5682717372399981,0.7184872264080777,-1.307440259060069,-2.984306122971385,-2.7300981505831774,-4.511010979206635,-4.117368913493513,-1.168795514805489,-3.9854259967374164
75.0,3.858948300717484,3.4201475065992746,-0.4388007941182075,-3.6038754791598198,2.130594801327441,1.4596917836658432,-0.7247530148623986,3.794389787296708,4.751857174530529,-0.058964955783943784,-1.6667949372797655,2.5352598910996194
76.0,8.110525908408132,5.547042407881555,-2.563483500526516,-6.863855420337339,5.316804345065256,1.5356621084169801,1.2718800557495125,-0.5600431858678646,1.1917662473630508,-1.8503969604316466,1.512727644829951,1.6681469042873536
77.0,2.145040798429009,0.37967212742821577,-1.7653686710007102,-1.2925195146453672,2.011442251331171,-0.7330705351003362,4.397336592603895,-0.38211403708137603,0.2984044947057516,-2.250833488528122,-0.7009136940451338,1.3311883863390492
78.0,-3.10876103028519,-4.0833473968020755,-0.9745863665168535,3.645111091290963,-1.0128888069110848,-2.4957060502476733,0.19821501309071943,-2.0877493568857517,-0.8495576196431927,1.2843714933410975,0.7933774907453093,1.2053750062090196
79.0,-0.06485762380359739,-2.593295179072597,-2.5284375552690452,1.2952506760310591,1.2054340505824999,-2.531416976434609,-0.7597290993964096,2.489015795056349,3.0932696007998732,4.480581361701496,1.4637006945463245,1.5474157620523168
80.0,-3.371189752528009,-2.047609727827963,1.3235800246999851,2.7466236987610637,-2.3758960299404905,-0.4128536945360193,1.2842556164218346,1.7787712739501387,-2.9680652631390974,4.520562768897001,-0.9413378220108584,-1.3283083686127646
81.0,-1.3193641651251853,0.39326057371744116,1.7126247388425866,0.412252673654673,-1.5474659586773951,1.0817660046039015,-2.659999479238903,-1.1468449009722328,3.4031457653079373,-2.4891008087373807,-1.194640574792138,-4.41721754608075
82.0,0.1375764580826777,2.0871859424599957,1.9496094843773204,-1.0927553257435207,-0.9409518116845561,1.9714879002354226,-1.3115664893600099,0.8093902501295356,-4.559316468689958,-4.601775695649522,-3.4602300737863945,-4.583886505907506
83.0,0.9011968399713095,-0.5243067286129037,-1.4255035685841875,-0.17372748358455908,1.2042702790197803,-0.9386390231908008,0.06658627825886332,1.7647440894073831,-0.8667713801410619,-3.378151075960579,1.1793584805994737,0.9423671761109396
84.0,4.704065574023379,5.255499793395747,0.5514342193724,-4.964766927761629,2.1160849147798664,2.944676671279082,1.5723557915448287,-1.801219389506363,1.5932512161549963,-1.0538145201320557,2.509832023460833,4.529042291376426
85.0,2.45194682425743,1.9991168636299639,-0.4528299606274693,-2.28317028179753,1.4931602871402918,0.7401719687586071,-0.015788790162803212,-1.8124147609584678,0.9822430013536856,4.019300123809996,1.9663458912168035,5.779340288098946
86.0,-3.2797727584106564,-0.30736165047907216,2.972411107931556,1.8256864501679808,-3.161666345815891,1.303143225321397,1.4886088205718204,-1.179883208890633,0.33786756358445524,2.638761573272647,3.610249504494627,3.2361254673013153
87.0,-3.947831066755972,-4.8877443906049765,-0.9399133238490285,4.463499846145514,-1.5372536139463862,-2.9406622186926223,-0.5478016989276177,-0.04221075691891141,0.13623574405840622,3.4712496894345066,-2.2139277979947933,-2.4406300282812317
88.0,-3.983074836375653,-4.955773194380481,-0.9726983580048484,4.4492102216003175,-1.5377284294419922,-2.9103649857636564,-1.7954869486578706,1.0839952590475113,-1.5704156401893425,-3.2197194392908033,-5.21162828030767,-6.730644707772493
89.0,0.6660256649939975,2.4550440176959474,1.789018352701955,-1.5722481701851163,-0.5165553526652114,2.0990730712042964,0.9256578085694132,2.6737192097529756,1.5581778359950391,0.45812972517350903,1.3905863681333024,-2.2840844502417275
90.0,3.3989600793059482,0.18806540685345086,-3.2108946724524805,-1.803713164884597,3.2684230203962574,-1.45358328322078,-0.8904535572419225,-1.9027311636745947,-0.2431364869807015,-3.0233057374182684,-2.661535379203287,-3.63734621784981
91.0,4.6012604519550235,1.4709753947859283,-3.130285057169061,-3.052599930764607,3.905177152793147,-0.8489217812081351,-1.1285693442143698,0.5060918342052008,-0.055962393135114696,-2.079953051185764,0.42931221824129095,3.0495558825829985
92.0,-0.014556951546385921,-1.2500779864060725,-1.235521034859643,0.6031972397753358,0.6481952497445043,-1.2617121659398505,4.404758992454988,0.29561866867716147,-0.23377153762885974,-0.05335380542067614,2.9779810542766243,3.787910891099976
93.0,0.19411400129613288,3.5382435840508006,3.3441295827546913,-1.8322926239625246,-1.6157874834051087,3.420638903372347,-2.971613518166447,-0.06548286685133783,-1.3497666366907162,1.3080413728785685,-0.10986827466851645,2.6932829766505098
94.0,0.11137346295487993,3.616265670691191,3.504892207736307,-1.8448381933336047,-1.7351827588684283,3.536509260831415,0.2435165483057925,0.14960547964870713,-0.13613444239444816,4.12677997896317,2.715578190037989,4.635091587807125
95.0,-7.490125556879965,-2.992790227208327,4.497335329671605,5.2496652209223065,-5.949319194735495,0.8025760152013115,3.220949705691205,-1.4376641963285073,2.950760013116786,2.480428800183303,0.19686484310715602,-3.414822662373676
96.0,-0.17975142438341551,-3.7413392934567007,-3.5615878690733425,1.9637507862540429,1.6616731714243342,-3.683587653343864,-2.606889557635111,0.9192442539029729,-1.3288032905726268,-5.861175374817844,-2.5256960854979242,-3.9641363841245116
97.0,5.045889101118024,-1.4194926765713027,-6.465381777689364,-1.8094989747577335,5.810290568577689,-3.897424922335639,-2.2248129432650736,-1.2447230283418649,-1.8832556150956834,-2.6153371224051964,-3.0942625872167495,-3.8269075375516004
98.0,-2.1107032634837677,-1.6724745208065566,0.4382287426772371,1.8995765614416436,-1.2943967111217383,-0.6498605236268751,2.2177812971935467,1.3671314455202692,1.1913184941223016,1.863175103414454,-0.4734666308555209,1.4390857311871745
99.0,-0.752290396924787,3.204120793090606,3.9564111900154737,-1.2907625613238085,-2.37196139480665,3.6293946419290117,-1.4937838610233571,-0.7532454870266483,2.4257784747276503,0.38010228832447507,2.2306188208641338,0.012377541361349234
100.0,6.0110690614448234,3.805697773773026,-2.2053712876716944,-4.888620715265075,4.090743607542253,0.7744875175515424,0.7126300195808133,-1.0010693717303267,-2.4120927413797855,3.8410936839508434,3.2697883136418318,2.820775216255536
101.0,-0.6249320725371161,3.022201123271736,3.647133195808924,-1.1737391686161627,-2.155235622157971,3.3123042137145937,-0.482489616309965,1.3901146832687452,-0.40400221684720017,0.6206077318122492,0.9817974690672955,3.1323508144376673
102.0,-1.736503566475652,-1.8964632249190125,-0.1599596584433569,1.767280875501846,-0.7315332660583589,-1.048886763230643,0.3976905580919824,0.5029253052364868,1.522946455914295,1.5159832671024482,-1.3010589240441792,-0.2002056895831843
103.0,-2.4862239311139636,-3.642769474967536,-1.1565455438536074,3.0988120471996368,-0.6900162701213772,-2.420492685216377,0.8640426970323078,-0.24199237362932396,0.24251815448125547,-2.4868810346653563,-1.7936854050218929,-1.1641590391602594
104.0,-1.1596141578661499,-2.1870440546506726,-1.0274298967845956,1.7127609903800245,-0.015849270766455092,-1.5510070252713886,0.48216971096111383,0.716518802795843,-0.40123793815245,-6.5078102667175255,-3.002605999897124,-3.0598964229626997
105.0,-0.13951159242954247,-0.727870662260887,-0.5883590698313885,0.3992412903180129,0.19196853412834658,-0.6047754285883983,1.7979308977470054,1.0517818439485203,-1.7103637254174802,-0.795967280692969,0.9320391219972259,-0.14421758938849472
106.0,-0.7328285728880957,-1.7410893344655587,-1.0082607615774721,1.2845227578048637,0.09993069365483037,-1.4042533815276326,-2.2359323958422763,-2.8828256547579407,-1.4771105245769576,-0.022903772128034405,-0.9749051654128715,-1.3562731373325818
107.0,1.4623114374839237,1.4259259198148004,-0.03638551766908206,-1.475115723466942,0.7831120578875588,0.6594181304855986,-0.16229497846898133,0.5438320354087202,1.10061722864938,6.0547122496045,0.8499804429892326,0.7046875327531268
108.0,4.625852861971894,6.586889998686666,1.9610371367148332,-5.640905431352672,1.3574018971512194,4.231189202430054,-1.3220944139450768,0.33382194876403626,3.001685746079004,4.376532819053118,5.711242007668665,3.729593944150257
109.0,-0.15903966494701272,0.6645564681121332,0.823596133059194,-0.29369313461267454,-0.5540985566842836,0.7716731892495257,-1.3097842417524161,-2.4663836245958004,0.7924390948841025,-1.5703245360778038,-0.44155997685649373,-0.9200153140798295
110.0,2.424659591405891,0.09058466120229103,-2.334074930203599,-1.2267236154678056,2.3882177872147277,-1.10212792098462,1.028899852308248,2.5478262099771314,-1.3644012198689675,-3.782033997238888,-2.2019392808222245,-0.24159172744064866
111.0,-6.592806782959675,-3.491505208055817,3.1013015749038058,5.06857755331099,-4.840972708300708,-0.18160789581547876,1.6827016047685999,0.3003247248397396,-1.6102944716899303,-2.4611982740684035,-2.0687546523858815,0.07059360528898784
112.0,-3.499589291535472,-1.200583746289063,2.2990055452463425,2.3767116500629437,-2.889788469296721,0.5593604427848208,2.4645847133332865,1.387424510188978,1.5552223424847362,1.622483317505826,0.2726459468938136,1.0136405089277571
113.0,0.8448116642275987,-0.9440811595814511,-1.7888928238091113,0.08162730451079891,1.3363274614027962,-1.3568026325483482,1.0759600841290826,0.16506964172136218,-1.5302651101820681,0.9017812156345457,0.784866866469441,1.2032287276082918
114.0,1.4894422712481559,-1.9581596291276238,-3.4476019003757807,0.19668132492782386,2.5028379852070803,-2.7700741553809523,-3.9847429031172155,-2.7235767597547937,-0.14798216908976392,0.7375668495105249,-0.5351887987904178,-4.1618553035838755
115.0,4.521946319161644,0.6427224786487751,-3.8792238405128194,-2.609852143010528,4.17244136987895,-1.6032439440802335,-3.6066834308519766,-2.538129554773854,-2.0877360733401105,0.37920798168493863,-3.4463536111652404,-6.092945446980354
116.0,4.309929625188072,4.469086217220153,0.1591565920321485,-4.408394534365957,2.060814156311664,2.3334999279431536,1.807567809754297,1.8434689055218323,3.977277355565195,0.5413292835035884,3.828363129762691,4.940984898347626
117.0,-6.442235460445723,1.660051426957272,8.102286887403023,2.377708999033903,-7.279469290587288,4.905327460762453,1.3795356356090263,2.5471481993505933,1.5229284053832715,-0.8274600319337176,4.217500963655737,6.33451534000827
118.0,-0.40993960025616083,-0.7030447569753517,-0.2931051567192351,0.6239721857855515,-0.06602346714880847,-0.5479953525319763,-1.587854914430896,0.46670920958504114,-2.348573131481311,-4.751792697662044,-4.306308885342598,-1.15051139758567
119.0,1.617333153215269,-1.8638645683748023,-3.4811977215901777,0.11150079411324054,2.534438574065233,-2.639772392814553,4.1596620479565205,1.15541056784917,-0.8513932071710879,0.40776705176402595,0.5545235835891974,-0.3634395436426281
120.0,-1.1203397740932926,-1.6799323873978596,-0.5595926133046558,1.386551445997212,-0.306175935674187,-1.0845169327024946,2.0190062469851764,-1.2111479163604806,-0.5733123147791566,3.9299444425336203,-0.3848865115997487,-0.41466529539927655
121.0,-4.585760250520988,-1.6813995730135698,2.9043606775074062,3.118161013829549,-3.702834719913639,0.5684759528317183,-0.7998556721559827,-3.1412656687943956,1.6918239650272633,1.3130940248536276,-0.4941708549088121,-4.765175750030254
122.0,-0.7712172874224639,-1.2887018778974382,-0.5174845904749245,1.0137045641754923,-0.09171840132636855,-0.9476846131335478,-3.5919451004525653,-1.5312686594759544,-0.8998109319679938,1.4546002521293429,-0.3650556118474008,1.477325893088506
123.0,5.172885734265274,3.078636402534521,-2.094249331730657,-4.0626298832586984,3.6667896263266417,0.5231793363914898,-1.9649641205457344,2.263135359847066,-0.9997862413207761,-0.9156540729928594,-0.5496059141788375,-0.5131713166690026
124.0,3.599311828730669,4.845130112930417,1.2458182841998255,-4.23593403822007,1.1336847652478774,3.0726539642144766,-0.667847967656356,1.1393311186404542,3.2276209605826116,-3.275348874119074,2.059610628283555,0.6622410753288488
125.0,-0.7107575185538431,0.6041208952110402,1.314878413764942,0.0419961446824888,-1.051411388565607,0.9832592448549544,0.4408999847243384,1.4025730584842258,-0.7265978996382592,1.4923701736770756,0.9900021442816099,4.054510139354702
126.0,-1.3511185126524716,-4.051227787775987,-2.700109275123527,2.6917416534383922,0.7183716977381569,-3.4329555323630907,3.4946276900469577,-0.7587927369790342,-1.1293419623063115,-1.2574981319385656,-0.2812214910730978,-2.7459663541976727
127.0,0.6307347754728512,-2.172748330908342,-2.803483106381262,0.7622746245744607,1.6833302070380687,-2.467468206281934,0.7011310406062681,-0.8735028726095404,-1.215180611140023,-0.939051466768111,-0.9096964378732779,1.0848674742912636
128.0,-1.5678028716619608,2.514629566144742,4.082432437806579,-0.482719938683998,-2.8607363493646107,3.3199340495464695,-1.3378879616838861,0.4303560307235955,0.18983619681140285,0.6169069421206667,-1.24047651533496,0.14244049282569993
129.0,-2.892315716239121,-1.0107883444554162,1.8815273717835808,1.9408601415276536,-2.3473642547826143,0.38031665408873794,0.21855169854858736,-0.5038400320637456,0.3078098145561608,1.2280069252115098,-0.2766918216063398,-2.541962798484166
130.0,-3.048503546936596,-4.134815922395399,-1.0863123754588684,3.658135657774421,-0.9448173338280206,-2.583143895787476,1.476692749756526,-1.3611180781044063,0.8841711887507901,-1.2651879564737678,-2.0058042255862905,-1.563317952599919
131.0,3.4143387332491564,-3.2537380671970446,-6.668076800446197,-0.09404304385421347,4.997656516995377,-4.928591992446639,0.06286548168780554,-0.14499846510800818,0.12259172062310308,-0.5983430416870182,-0.8228373839444997,-1.6128642352224623
132.0,2.2951741042181393,8.127308103116842,5.832133998898773,-5.226529797466549,-1.7311724301783924,6.938850790467603,-2.744242330315264,2.299179734176074,-0.24294341301403177,2.873857563098728,5.300955590966108,5.458414002180297
133.0,2.4771216780093344,7.449773077116289,4.972651399107058,-4.980874170591706,-1.284187215481637,6.254580931809241,-2.41379462732768,3.2244811735990546,3.0207614722589193,5.1405785427337,4.818328886227454,4.827264760235565
134.0,1.218388244046263,0.22564349920685212,-0.9927447448393205,-0.7426329518032402,1.1544196982440005,-0.4143303801164877,1.3050874181504992,-2.9520925639414415,-0.738066665754478,-3.6314455977076303,-1.2556988536464107,-1.1538336483447629
135.0,-0.6959289172996039,-7.278839157806011,-6.582910240506364,4.041159870883011,2.919607776886669,-6.958547163631698,1.0431291651034273,-2.56879037436822,-4.169215001700207,-3.5602248610392615,-3.824447180182261,-4.868137801578638
136.0,-2.9307821689434053,-5.476088056161464,-2.545305887218047,4.173234368276013,-0.21302585671079255,-3.9581930831396392,1.575679543655053,-1.1163253707319731,-1.5444435298201615,-4.1505523875012855,-6.038482821780168,-5.770363081978508
137.0,-2.9302435389082424,0.6527350226748232,3.5829785615830483,1.1818443155578229,-3.276839466056239,2.091625710499109,-0.9002690312897148,0.5494779034155148,0.3957967166212598,0.5082439764272153,-1.9078912088240085,0.5691924355237625
138.0,-1.320304924447455,2.400312152233693,3.7206170766811284,-0.5804523862895696,-2.4653611640038835,3.033411405480432,2.593029440471309,3.3360432659373,4.298005144169755,5.26996552177645,6.878212296061463,8.934507193663771
139.0,2.985767477329585,0.559828630261868,-2.4259388470677266,-1.8162738449313105,2.676477312227398,-0.8824004883010073,-1.789596875325913,0.08926971396762373,0.8598491322383601,2.987806804283392,1.1177896705895933,-2.3645176754698745
140.0,-2.1136854926114155,1.8499601774038166,3.9636456700152407,0.16692576763652656,-3.074199716618295,2.877846788887397,-0.588725244324095,0.11781114157035011,-0.6797702657099569,-2.181634812267731,1.784014598874196,-1.4782431874083302
141.0,4.2283368637272805,0.6509714484684079,-3.5773654152588543,-2.4014232477626942,3.941393957319583,-1.4140204224649695,0.09832386679437566,0.051909249806989174,-2.802236632004019,0.46490581215090726,-0.30407988203310543,2.1290213977028323
142.0,0.18661098630743878,-1.1302865644444113,-1.3168975507518674,0.4374284442446741,0.7883998364749183,-1.2537042196385766,-0.5787286797370788,-1.7846100995286376,3.310983053000573,-1.0855675168471852,-1.9704669886881365,0.2160096072503102
143.0,-1.5348258763157436,-2.034940444674745,-0.5001145683590312,1.8366316220005416,-0.5583770031131434,-1.2981869732127864,-0.05944621358045171,0.19821548153255808,-0.7593578651760153,-2.5967668503302934,-2.6010597636984256,-3.0088513918272337
144.0,1.6757158009976507,0.6158702792077386,-1.0598455217899452,-1.166583951628136,1.4086730201798,-0.2529499224549182,-1.6485028091574172,-0.9384048756246126,-3.2940770030019992,-2.123679126606246,-0.1512619663664041,-2.4985312276495026
145.0,1.4313364653171323,-0.9749175649911086,-2.4062540303082693,-0.24646247521506975,1.8846391126184039,-1.6423083264923077,1.5272796036171938,0.08283718223918479,-0.21645301121886984,0.9227123915040412,0.5294008974331074,1.5036748762384646
146.0,-0.9113153847375743,2.6216874587565506,3.5330028434941307,-0.8759979253009794,-2.2535424626335407,3.1273701910745295,1.58375962845198,0.7305849136766781,0.632337243568857,4.135177193247248,0.43122792445995045,2.017351512583518
147.0,-4.027175679589936,3.1173628284938903,7.144538508083883,0.42676385725761706,-5.537413704760271,5.105205590140703,-1.3409970819952122,-0.5679567766851646,1.480027989659043,0.13584023301924386,1.9240390779269667,1.6492355375985972
148.0,0.7628220193348192,3.5704979596343094,2.807675940299583,-2.1260931706509116,-1.0531786776387748,3.166964171940546,0.08226536169792341,0.23414460097255385,0.5271636315971677,2.8303490171077215,4.3085080858887235,1.5231571464993152
149.0,-0.1863220428890417,-7.766495028137209,-7.580172985248085,4.007278698594227,3.6650987347365724,-7.6920305451014706,2.089453825997026,1.883914229881816,2.28707267688289,-1.5467407701593632,-4.3684206681539,-3.4488123062245766
150.0,-1.8803507067218308,-3.562634668485432,-1.6822839617635896,2.667168437697611,-0.05278064011320005,-2.6386040759501945,-0.07947033818108495,0.6433382204142253,0.26177484712503485,-0.3066965007949818,-1.7419740123217045,-0.2731261336744719
151.0,2.2483483772082677,-0.9116211464877462,-3.1599695236960543,-0.6454285633638286,2.7506637407341636,-1.9718567857395424,-1.9012279428344119,-0.07929597507878701,-1.7311357375484608,-4.574452929472257,-0.82883587751199,-2.07988098623565
152.0,4.342983660002207,2.625620597324052,-1.71736306267821,-3.4580408621666483,2.998716893193974,0.43931320871111634,-2.1209962171284773,-1.477790822256835,-1.424466972560527,-3.9937903039047264,-1.3121850352157671,2.3095755596646717
153.0,2.8342521136649257,1.81210089617514,-1.022151217489852,-2.2907573498187572,1.8969278912732506,0.3787385101964048,0.27028111302421753,-1.549175740338065,-3.2023912049098184,1.4518303997284903,3.049361289778731,-0.28824674069502243
154.0,-8.302530989277152,-2.604979317818361,5.69755167145873,5.413251892466086,-6.954248911277583,1.5271112066537924,2.880532150842283,-0.38486547678040695,0.21006425555578012,5.103522646030297,1.3739579266845103,1.061817517855025
155.0,-6.464075707498409,4.571256396351327,11.03533210384969,0.9082628843027343,-8.786806100834582,7.858369581437426,0.35143875959066473,-0.6259871195647834,1.2482105433473643,3.216291437043139,-0.3878397351995264,1.220044549824467
156.0,10.13900569077006,5.778579614413844,-4.360426076356199,-7.921141171240713,7.2065866725102214,0.6794859034351881,-3.2476287083230626,1.1623333940630254,2.607449913105404,0.16611940028652938,0.6620871306820771,-1.1962781694093945
157.0,4.202484997581498,-0.6241737867765891,-4.826658784358012,-1.8382334217624468,4.543978299366614,-2.761904002259887,2.3926915318356503,1.9770424529732549,2.329013175688578,-1.3625905514714531,-0.6707806211572203,-0.1817625236783073
158.0,-6.032488793322607,-7.3028805227055456,-1.270391729382879,6.68674172817834,-2.3558837002684747,-4.251501419351531,1.2029115566522623,1.127874462345653,0.8285307787879186,-1.726514932456399,-2.3677650682464515,-3.2732974351099138
159.0,-1.4246105980346457,-5.4552691074686,-4.030658509433919,3.4494287648273607,1.3275736557865914,-4.7142238788384,-0.11840538946169638,0.2058775488417487,-0.9697023633059833,-0.5607651170902375,-1.3088610917762584,1.8453983168997232
160.0,2.200438772482639,1.6650051665738732,-0.5354336059088114,-1.9280974653657408,1.3170764309143694,0.510093235451524,-2.002307302607691,-0.8325537342263252,-4.846154509596556,-3.2510835817581913,3.114557678999709,0.5488092752067899
161.0,2.4584580205847395,4.168573653535901,1.7101156329510507,-3.3067562205784737,0.40808991424264707,2.961218711692383,-1.4201068705528659,-3.29079321220702,-2.417881826531173,0.5735084644845183,0.16430604791667458,1.3232854513594006
162.0,-3.5685059368281453,1.2224716000460405,4.7909775368740295,1.1889689279237061,-4.1395817260433985,3.0293393243022644,1.2145789492626298,-0.8504944092691029,2.877450052927772,1.9264856078030828,0.17659101865195947,1.8846254165393999
163.0,-2.152472124274185,0.7684831625631103,2.920955286837233,0.7219187825097682,-2.571606711694991,1.7921767445012953,-0.15328827903858916,2.6574152836067184,2.7022966223514944,2.4913478372386866,0.5338120458514736,0.5329059706930361
164.0,-1.6948263469002294,-2.4878920352943807,-0.7930656883940799,2.057428222171542,-0.4865013234469866,-1.6084916873177098,2.7704845338240185,-1.5716482619454886,-1.9156034097425958,-1.6767095935599456,-1.7153149985889256,-7.260899671616497
165.0,2.6333987937653736,1.6736088682068027,-0.959789925558409,-2.175704950897358,1.7557322094313261,0.39560143028713435,0.016118880004950764,4.60288505952148,3.2751232220975286,2.9480967538479494,1.6852207449952858,3.338895645823723
166.0,6.579646450636357,0.3801056974726619,-6.199540753163551,-3.496403196820225,6.419597202233479,-2.943832191832605,-0.8905462246106388,-2.2991421484293713,-0.7634972264259412,-1.631550925572671,0.48169037208161314,2.3106338180433115
167.0,-0.5936113389879072,-1.2117249121046794,-0.6181135731167084,0.8849649383123459,0.0347744228233724,-0.9455790152900732,-2.782295265335752,0.32014898050621393,-1.3199342220858692,-4.277346368122478,-2.8667168397304037,-3.4067981889392103
168.0,-2.0973095044719328,-0.04435202218054424,2.052957482291326,1.1251807447238482,-2.056847147742786,1.0520934520997418,-0.09005777647109614,-2.183137029984628,-1.952021733395455,1.2879170173080279,-2.7905020383825807,-0.044182313309093446
169.0,-4.416589746144327,-0.8014413633867066,3.615148382757484,2.5750889927158633,-3.99721604747523,1.3714592653470898,-0.43305542718436013,-1.5236167785932455,-0.7357783921832364,1.827907342473187,2.2591475505808987,0.6349852346232102
170.0,-0.6625000124862401,-1.5678357673193057,-0.9053357548332113,1.1505709793748207,0.1444160537270136,-1.2011030475059563,1.160531792305056,0.7474187507661322,0.4302148933806671,-2.3751154680339077,1.2146100651144973,2.515471810973438
171.0,1.3194993887023703,1.266899160468606,-0.05260022823386179,-1.2648909713560557,0.6364901194790568,0.5542644257605363,2.4982547733996245,3.4589202923402076,1.2942894663118611,2.258093424066227,1.7824415343016486,-2.1853792218021746
172.0,1.026980644514345,-1.5231739344121824,-2.5501545789265423,0.1939191285539884,1.7445637864103776,-2.019829749917315,1.5809869307027937,0.29464180886701885,1.154912869726172,-0.7624807865246204,1.2256700012364017,2.179174799255414
173.0,1.6636881036028899,4.661187085635279,2.9974989820324414,-3.1383317406454467,-0.6288950609152735,3.840104183205925,0.39753465220851775,2.816285829319786,3.8858548578246586,3.7323458265095653,-0.7311342328783792,1.4854627998456214
174.0,4.929152511877947,5.804610263453259,0.8754577515754214,-5.419567844838758,1.986851826403295,3.3493770271703447,-0.8191790220211729,-3.077171802450623,-1.0681881451983934,2.30181730424105,-0.25510498180135466,-0.025585584904265067
175.0,-2.6587848368664684,-2.2118122267841716,0.44697261008241645,2.4645061266514197,-1.5148944752834852,-0.8693692657846033,-2.8388734170746464,-0.9528992231397455,-0.2945304911974822,-0.0489767813874184,0.48779579116987626,-1.1850252972241817
176.0,-2.6090103868389978,-7.795119866005222,-5.186109479166161,5.234177209136106,1.3257530204728822,-6.469624513024889,-5.914210330868682,-5.9439311925644605,-6.182342495671879,-9.481408655492404,-4.791881811629504,-4.382152660805407
177.0,-7.561715102666703,-5.546735881974852,2.0149792206918287,6.587552699675907,-4.829479241757173,-1.813357094371412,-0.31298842042060726,0.3352020896781245,-2.3070258889836093,-4.775428022752,0.6869692348402132,-1.1402631814334396
178.0,-2.410837884660879,0.6329086137651014,3.0437464984259113,0.8419371172512022,-2.687601729905452,1.8012586062278948,6.655451273296567,3.5664780318124567,0.6734194993798001,2.9792165475517356,0.7336221199106802,1.4168717710713339
179.0,5.617804627372526,2.786204643697187,-2.8315999836754004,-4.253732676695801,4.189123756444259,0.027598729638378283,1.652324276316139,2.5600501815965395,3.495173378132547,6.936507501221539,0.1503840070653477,0.6104801949437582
180.0,7.359131648799163,5.352964523769118,-2.0061671250300743,-6.335839386746212,4.651335025161753,1.6504025796915076,1.8458132283709117,2.4657119340084632,3.2889963080320306,1.7432121272687882,-0.2717925921241293,0.6988897418638507
181.0,4.406002304019733,5.387828038460505,0.9818257344407711,-4.883519584378282,1.7639191195265536,3.242037261082035,1.9254806251632557,-0.1414055208454803,2.0515412617923046,2.7097148896120817,3.0393051774027438,4.4995556831831856
182.0,0.3779262230489442,1.5636366768429029,1.1857104537939995,-0.9617038245209031,-0.426812017228139,1.3501906410778544,-2.995784176050107,-1.1988991935388242,-1.0206820472685438,-2.4577665433328884,1.8372358651237393,1.612504287183449
183.0,-5.083421906814451,-1.5122241993699723,3.571197707444548,3.306932092788024,-4.3470831350733095,0.9978195384363011,-3.9921649972082127,-2.614279820754858,-3.219921960656504,0.289374018696382,-3.2042816044593776,-3.4017100699198766
184.0,-6.574532385501028,-8.343546961096814,-1.769014575595727,7.4729631988620415,-2.341998731634142,-5.0196408721979395,-3.195806513434664,-4.269600621307793,-1.2181772624533607,-6.2766798106382735,-2.0054869650887626,-3.3781207534045965
185.0,-6.4872045251309345,-8.953053102529253,-2.465848577398296,7.7424988277720175,-2.0288388048393613,-5.763293321282901,-1.415158599193856,2.5235962011063036,-0.07160555964626258,-0.6938196296540782,0.7225976888339185,-1.4818472039577792
186.0,5.643185546531683,6.345465459849405,0.7022799133177395,-6.040852614329562,2.4496530337649167,3.5385129013100034,5.938076787039812,2.7561730793057646,1.3742578436290604,0.6091461170602885,3.508066688456799,3.095180156340142
187.0,5.879183983274937,5.0683692960050255,-0.8108146872699056,-5.511427401548563,3.318943817866655,2.137508226882009,1.642617495742599,1.6265683476648918,1.4050206322574053,2.5473319001901222,0.319353701000744,4.9808258009982085
188.0,0.15148078078627503,0.6287239961432998,0.4772432153570272,-0.34278076007682756,-0.1176279161655982,0.5622668629829739,3.38958909291828,-1.4985719133225524,-1.4011649493161775,3.5911035176034583,-2.8219624045796055,-5.128654753346137
189.0,1.240703898298475,0.1791613225365749,-1.0615425757618961,-0.7383403350949926,1.1089732434952717,-0.4244250692599463,-2.445899280687915,-1.4587196813649368,-2.207902430825011,-0.7060797228988065,-2.894750963000118,-1.7043605049740023
190.0,-1.4324147181690394,3.6938797351386286,5.126294453307659,-1.0800784112739357,-3.251398618259957,4.439737082135966,-3.30903012563293,0.41720363277598493,1.3735988188833184,-2.0286623538975066,2.9906946856503023,1.7418267514984518
191.0,-3.2708928356281093,-2.996775583054347,0.2741172525737321,3.1044795647359846,-1.7520882698601492,-1.3953102591152626,-1.6644183271611048,1.0543678267110248,0.08490925046429088,-2.3296767170723034,-1.4870750146244256,-2.0304919681447178
192.0,-2.7788971422283604,-6.113933305811691,-3.335036163583361,4.415562541965633,0.2927884799035261,-4.744940919169135,-0.7561119423693841,-1.3562071660199513,0.8230334610889036,-1.7270602540245994,-2.4868602557207384,-1.9597632047004883
193.0,3.469364309053048,-1.0426197686420449,-4.511984077695124,-1.166081126310619,3.923185447531212,-2.7891245550233483,1.8711302896495754,-0.09963800153526275,0.5908266581504196,1.1415160967060445,3.4013584012445675,3.312966205171436
194.0,1.5843383013998706,3.592235242394259,2.007896940994349,-2.6188425212429207,-0.20149145646200828,2.790118251085782,4.742257549374486,1.6421766903814308,0.9632281338052164,4.967847370609928,4.479533897896184,7.222214557173882
195.0,-0.9264909396191853,3.2156059514187403,4.142096891037897,-1.0940275125904075,-2.52229862625551,3.742637473937648,0.06097352047303328,-0.858614670502795,1.029604654166371,3.374590064867991,0.34712310260606016,-1.1397908010291817
196.0,2.9546223432388046,-0.5450752593911006,-3.499697602629869,-1.229940192765127,3.2435722698766387,-2.0478927074802105,-3.6056084510183073,-0.8003031526965114,-2.210869509070787,-3.5575740809264067,-2.159898024019434,-4.352286091215873
197.0,5.3408168484413086,5.011889895082463,-0.32892695335878214,-5.198784776994972,2.858033498533373,2.3022449008460493,-0.1809465302576434,1.8828128269385804,-0.8266007055926987,-1.6186990089811861,-2.2402485205276967,0.8140593553239643
198.0,-8.699147649323807,-4.467564360479295,4.231583288844588,6.5624187960627065,-6.51275651974845,-0.09268169508492002,-0.5106313148689342,-0.892460154545971,-1.0561606845424556,-2.317723421073955,-1.51530553853791,-3.5026413063400037
199.0,-4.116715013020005,-2.2280281028460482,1.8886869101739947,3.229940187414274,-2.9629063743617974,-0.15654750553937194,-2.2505410632089946,-0.31460632026477814,0.2097448112054932,0.4057917820767678,-1.2442135309964903,-3.2099387303490325
