Time(ms),I,II,III,aVR,aVL,aVF,V1,V2,V3,V4,V5,V6
-200.0,-1.1183383468477786,-5.4859972609426295,-4.3676589140949,3.331815433734117,1.6466896167376663,-4.887176901314275,7.464336338771169,7.410673405197553,7.945292968280978,0.4819549669498808,4.7770091337542855,-5.755453112074331
-199.0,-4.68756551201566,2.4353760596883123,7.122941571703834,1.1638479839985223,-5.8859661492358315,4.815252539213908,8.96221106247475,-15.564974818809656,-14.593152981512727,-16.463259783144775,0.5112673579858771,-1.0443185277581106
-198.0,-5.672950713226674,-7.400737416379169,-1.7277867031526635,6.503501411887346,-2.032874937687609,-4.5323239692604345,3.7993473446144517,-6.958300453166406,-15.986267698525506,-11.245623689769268,-4.188466146888917,-9.995922023760365
-197.0,8.19614730913292,-5.248348032812236,-13.444495341945256,-1.5027679659912891,10.839017449794387,-9.39796561213855,-9.322274867200543,-5.526148714050242,-15.415738271173618,-5.179742746063167,-21.234406598119484,-13.332535791494294
-196.0,6.504227800685442,-8.194772267960275,-14.699000068645722,0.8159794404687151,10.620974638721336,-11.503546000865107,-0.7839933432544284,-0.36098269883712697,3.6565699547689414,11.833708345248187,-8.644212512186021,7.596006896126573
-195.0,-0.9104332641213873,2.6976736853432257,3.6081069494646894,-0.8494676126350456,-2.2391886687826617,3.1703331777898196,6.983632215603817,9.307854227236948,24.265283673105852,14.003615966723853,3.970921804966361,13.176194596766445
-194.0,0.8742384525387012,10.011784046042285,9.137545593503674,-5.486057388938346,-4.189706062853012,9.589424499319376,5.623620571815018,19.55147155863411,18.053953849707653,18.90265698806094,11.448924135680322,0.4219717448925806
-193.0,1.1364522200713885,0.15595632806889537,-0.9804958920024607,-0.6193874273339128,1.0796284887759597,-0.3967397265195647,0.7805145288661504,1.4538338095392085,5.390574726702063,10.366473013163883,6.4017470647923,-9.480857720103582
-192.0,-8.663391423645702,-5.987582347126598,2.6758090765191174,7.345544688227834,-5.648200937560647,-1.635547735280368,-3.924899202866422,-8.64458937984015,-0.4238256477465028,-16.883689088485337,-4.435393835680063,2.7157345639231876
-191.0,4.116924992579497,7.694196485833773,3.577271493254298,-5.888680578851568,0.2911235326780699,5.664040852646791,-16.101139504609414,-20.855990036569153,-33.993359854626505,-53.50333545344813,-19.36239251836236,7.523946613741978
-190.0,-12.909612132134987,-4.236714186272171,8.672897945862834,8.590375532935347,-10.849364947952672,2.17659201588841,3.2239653325983406,0.43720317200567393,-22.457719082378752,-6.841321274318357,16.992852083106005,-2.4861297488741863
-189.0,-4.056210242895188,3.0895694900294277,7.145779732924617,0.42433933967552906,-5.5817024114736284,5.083435146121909,2.8636209196004585,5.907278378353479,8.076039643303474,23.2060780635289,20.67095645230929,-12.374077894672318
-188.0,12.260367102731974,4.007221076427809,-8.253146026304174,-8.110920170982482,10.27413037427935,-2.0749269259737693,4.4022576651599525,7.854224734856022,5.523471009124927,17.839666988973306,-7.50925283218684,8.923238023316461
-187.0,5.915809399805313,-11.829582515339482,-17.745391915144797,2.9034491935664795,11.845970815564996,-14.819043681378929,8.452900400656766,1.5140191785573291,22.73626174290249,15.217323505870285,-13.66247667506316,4.722771073923638
-186.0,3.460688563576438,7.973288163652529,4.512599600076076,-5.690237448967844,-0.5905889439479761,6.207185944094434,-8.154920995813235,-1.3652817599942835,28.92512781833929,13.90133982506798,-2.0164973735516503,1.1132465225935075
-185.0,1.402103815182758,-5.318197037422219,-6.720300852604967,1.9856140574983767,4.075825343745335,-5.981609186641602,5.626500328685464,2.095593143691676,-4.4612843631243315,-8.204976548999596,1.698620216201721,-3.9462863877300984
-184.0,2.000996988962406,-6.30757406477723,-8.30857105373961,2.1816148021880246,5.1724970414419555,-7.274444137147637,-5.98151190060024,-8.46138156433797,-25.24083607020154,-20.445546519627484,-3.0347172710938493,-5.976308277793385
-183.0,-7.846178078816955,-1.0507087650641962,6.795469313752797,4.398996564732084,-7.297269847733099,2.826329724888055,8.06700633381225,0.30100946522330263,-26.570017106521842,-16.07576524365416,-2.678189511254054,0.0017629191298604852
-182.0,-8.481368725895308,9.779400241297227,18.260768967192575,-0.6186647219469754,-13.339719483595712,14.055208324072566,2.4729728458994105,10.488850385509487,-3.1741035153163093,7.988263569376965,6.560931233934944,4.831134722403313
-181.0,-4.982961158807804,7.212317582312744,12.195278741120578,-1.1623432210113922,-8.628384815275975,9.743396390635457,-20.454624267452356,-1.670577156941052,27.16907966561228,13.94859488645963,7.896788480686119,-3.566779053402729
-180.0,-0.8164412659988265,-8.799066606327575,-7.982625340328752,4.838921945540128,3.550478793795607,-8.425774493706955,1.2184518440716303,-1.2431488420938686,11.735272584802217,-8.824042189111434,-10.938154120494051,-7.357322344613722
-179.0,10.579910676263856,9.246896957464937,-1.3330137187989584,-9.882887517456377,5.927702584999002,3.9237329867292394,7.932379721192379,-10.498811912601326,-18.15049171811667,-12.128490734148514,2.3347331672743614,4.536470211156063
-178.0,3.3080106404339347,3.376155126350284,0.0681444859162772,-3.391440730172233,1.6705618936832423,1.6870175478635394,-6.598464005533427,1.6014614918816679,-1.2468662149075034,18.765207532285174,13.852346659423269,15.71353894894067
-177.0,0.6483380921838968,-6.5736255056552135,-7.221963597839178,2.991062706167707,3.983579772740674,-6.859230735651988,14.975844594464938,0.47038015368945074,4.934808501045096,3.338585291140948,-1.1958189827578134,7.249347943654668
-176.0,7.282529409801066,-9.858632951789573,-17.141162361590688,1.2377929462435497,12.17731455311717,-13.467608488350463,-5.294884575556982,1.8068709163770333,6.050140785683669,-0.8614797532717162,-9.847245310720872,-4.812993337304611
-175.0,0.7318663849107638,-5.36389054168739,-6.095756926598184,2.3465133043053292,3.3741013238543034,-5.781357247326361,9.761864231764672,7.409918856282329,9.819547787193866,3.5717517818938367,-2.0610369184706903,-16.311725400506205
-174.0,-4.4652051279365645,1.3846643183299103,5.849869446266463,1.5751725113558506,-5.123448781031121,3.6424928916630708,-2.0191300793107705,0.8789432866185263,-7.973035246436698,-9.2707007228068,-11.355092064837295,-10.243111425541708
-173.0,-5.190536153413034,6.712702437088971,11.903238590502012,-0.7985329360308475,-8.595013366730253,9.33483269794484,-13.825254972574298,-1.5853477815347672,-17.34027861148508,-9.951393770531535,1.9492679454162811,-6.2450486805939684
-172.0,-12.402842064260135,0.501208390192593,12.904050454452733,5.99916639530231,-12.62379652853851,6.7337171914992275,-6.252295884304598,-1.8049538791372999,-0.7318742701944139,4.120155735393821,7.128590930681492,17.779391260647383
-171.0,-7.748980735930134,2.855203981726272,10.604184717656405,2.4222292755693107,-9.145134687780228,6.686648870559496,9.927259214217266,0.7409156074567642,6.622832982071591,3.985998665168009,6.336257345576417,8.438694698234759
-170.0,9.83253401208852,10.31444298830625,0.4819089762177291,-10.09560266901231,4.710596108293233,5.357731272654176,2.625305971640202,-2.359100861991205,10.17613307964402,6.65086086381314,0.642930393920218,8.884853743112807
-169.0,12.151547292161162,-7.150982667936358,-19.302529960097537,-2.5241383767209493,15.687884790448077,-13.189431654510756,-5.144226994029538,-10.830120796177077,-4.983677298790793,-4.665516086414274,-4.412766807814831,-6.181942619197636
-168.0,13.491883321654516,-3.2097358007543453,-16.701619122408893,-5.092072438206369,15.060707875253051,-10.001761194939691,9.247803484673003,2.376592961174187,-6.832123255401822,-0.7000814545374257,6.347394572401703,-7.464608382402777
-167.0,-10.744527782947488,-7.047824455039432,3.696703327908006,8.857698054446912,-7.255715798822129,-1.6499354989878325,-3.337155885594897,3.629935971528323,11.279085697718502,-1.3766227644901097,0.4991828507782343,-8.785117896932347
-166.0,0.6342808978021344,9.417115967477947,8.782835069675778,-4.994947065103363,-4.031687975922514,9.1181843664802,-10.068947478758325,12.978396615100113,-3.1298538892740355,-0.38129372870567657,-1.3437539975129353,-1.4612339427335561
-165.0,-7.850937921027052,-0.32115416881806014,7.529783752208981,4.108662255531941,-7.649802644947231,3.6165623016231976,3.4316593500150008,-2.5821766176178613,4.425439194280736,5.9089208669575175,-7.92256248202688,3.1166334391862494
-164.0,-3.6920786817404485,-0.13616305804922646,3.555915623691255,1.8530139329126878,-3.6639879629247734,1.7186205898583102,6.105639769815756,-0.20520773439160567,7.385533003135093,5.949975389134664,3.4704346193456495,9.937358933491415
-163.0,2.734925453822626,-7.103625198922744,-9.838550652745305,2.2011889630838635,6.324640930987631,-8.463329971218911,10.915971228934525,-3.1285449141926414,-12.919063799998732,-5.190263832661357,0.29230110301395734,2.8502870053049136
-162.0,3.5222814813505705,-7.74969871344403,-11.271980194794523,2.1339269113759567,7.356311469726741,-9.580808088178403,-14.51000958095271,-8.09727762700374,-30.061565087247875,-9.36121866706312,-2.4813526059383273,-7.7121635444303855
-161.0,-6.66057456527899,7.271079966865514,13.931654532144563,-0.2785244286519569,-10.257958819526024,10.61264927039403,4.49254188308739,5.492334827187087,7.927260286388625,-3.5516080743556544,0.043586147350126225,2.4718112025321406
-160.0,-4.935667307486537,9.792862000992312,14.728529308478869,-2.472924411455599,-9.873184924631962,12.275696616826343,2.658572663911489,3.674093649377929,30.2056570585113,3.3228188749001535,-0.9273235252189234,5.9761487874992465
-159.0,12.264321379849394,-3.1926320888294453,-15.456953468678856,-4.494888379046433,13.896403595948795,-9.304947406232003,-4.736824566028706,-9.721432880893161,7.576295565730664,1.7856007285413424,-1.56357791509725,-7.9382747206776765
-158.0,13.679146576371652,-0.9360254733528866,-14.615172049724583,-6.406013299637694,14.100753312200663,-7.75003302234925,-14.177608347274797,-4.481335375217849,-8.123679615366068,1.0594387420128584,-8.037123861407292,-18.0942563071704
-157.0,-7.660736010520001,11.753414340984348,19.414150351504325,-2.0816921746400494,-13.509486345518381,15.536599465917998,5.5668770906335965,9.17651403619627,3.136270997241937,12.564608057898992,14.836840687922079,12.707653621492609
-156.0,-8.667322974776424,-7.661974427626163,1.005348547150251,8.203172975622984,-4.812634291691765,-3.291267958223748,-0.7206524094412692,10.128058449519392,0.9256067842539615,1.4124075693728262,7.769441053344206,15.218286625738937
-155.0,-2.9012433729999936,-13.12320389007572,-10.221960517075718,8.04336712585013,3.6024792642926355,-11.709989614714253,12.907733400286869,2.8464332815464832,-21.427188348637962,-12.127160713980128,0.6331851619806081,-1.7881684109794502
-154.0,-10.885819787634148,0.2588646415468716,11.144684429181025,5.258163944413574,-10.994735946989886,5.66727720458919,7.767785344106394,-13.050723920895354,-12.35542620534768,-9.136924129560965,-1.9062564777609259,9.257346682920527
-153.0,7.710911929128317,3.1822137534218897,-4.528698175706425,-5.428872013704186,6.142825838332857,-0.6272080158595985,-0.4351774677825726,-9.952671227677365,7.534855133327813,12.724930365182205,-9.275270589728688,-23.882638715336125
-152.0,21.558358234075445,9.677892328790453,-11.880465905284963,-15.602393180445652,16.747233890603933,-1.0541475037114687,-5.295179648258829,20.165054820286038,21.696125930458074,-3.1921238410141157,-3.8424706125073103,-2.105295291585511
-151.0,0.008866281898097128,6.782136811088902,6.773270529190869,-3.3770117010141636,-3.427488237742824,6.746839589885289,-16.134633549518934,-12.91550103643214,-2.547852400659316,-7.994217621648678,-5.082272783703356,-0.6860033454937975
-150.0,-15.727545997267864,-14.380364622810767,1.3471813744571572,15.000980436883241,-8.499299422842693,-6.547004131047297,3.3529711132445277,-3.756591088620282,-23.239604250226634,-4.77206673576238,-0.5984205053617562,1.859274933668564
-149.0,-7.138493217560137,-3.0752348624156585,4.063258355144502,5.1431683884762345,-5.639590611624454,0.46366418980064517,2.607394385150936,2.485435142851561,5.836168275762273,15.562348411751042,13.723948895079646,16.6926412633261
-148.0,-2.711033385979875,-3.0867898264220575,-0.3757564404422089,2.8680889226395236,-1.2076735095353972,-1.6833387681969882,5.5477673214432155,18.67104390465255,32.61470476250239,11.847587454582065,-8.525568633158525,-9.423671792901862
-147.0,9.461106518885705,2.4013759166789628,-7.059730602206773,-5.873239547483356,8.294990990383365,-2.2824814187276115,2.1164434436687682,-1.673816548073062,13.44988527055975,-5.1547965075568145,3.5403760740200108,2.795816141904385
-146.0,1.01094814308955,11.960283158907473,10.949335015817894,-6.50044428956818,-4.940312372221572,11.42038499409029,0.8928380933027515,-7.852464721948464,-11.372029564281252,-3.7346726478487793,13.24289468160306,9.010397660001207
-145.0,7.313989342230346,2.374740968027605,-4.9392483742027355,-4.85930834259681,6.149704301662096,-1.3204816381702913,-8.513332557782867,-13.545755528274299,-29.15161888780564,-5.784924928473509,-8.898132763492672,-10.374890785294395
-144.0,-1.1982924734579181,-1.6690497806643807,-0.47075730720645215,1.4121305350718751,-0.42426528286297405,-1.0344977584522768,2.0965194895146486,-2.927445696360678,-25.916841567339667,-8.233751546245532,1.80515276120413,-2.8068830123335093
-143.0,-2.6356032033149224,-8.41083278924592,-5.775229585930967,5.4899657578551535,1.5846693462061565,-7.1420031247427795,-0.11887331764480968,7.11989839803251,-1.6250200772686494,-6.087149263975453,-1.4335654252413765,-2.0044917840291365
-142.0,1.8769403744602973,6.7997266305582675,4.922786256098039,-4.3067291327884325,-1.5100587085211563,5.8862627429102075,-4.266502243784068,7.899341842839728,22.56432769322475,7.535188616471862,-3.987523540615843,-2.4896655951540287
-141.0,-5.240051878066415,-6.195654428783593,-0.9556025507171255,5.736953615692184,-2.130261683843358,-3.5530850391558806,6.499447599372336,6.779044749894373,28.684047397200693,10.217533194379183,-3.665383614359026,7.135941758349998
-140.0,-7.561400344111421,0.3724896021477533,7.933889946259223,3.6054123120479495,-7.735802461676246,4.176524629015335,0.5412995985837064,-8.94986411400803,7.143261406482569,5.732565503328815,-3.975015037222861,7.16687950725057
-139.0,-3.104262613936067,-7.230837802248238,-4.1265751883121355,5.176099769392345,0.44490670373374375,-5.730016662946738,18.244214634124837,6.642001369423713,-6.54747608745337,1.1767149323957007,1.6319302195921408,-0.9850826162929831
-138.0,6.5620645366900625,0.7407195347946482,-5.821345001895365,-3.6400582999641795,6.206134642447094,-2.5062664921727413,-11.439721224198824,0.3152236348558761,-15.583220055023814,-10.331231736136445,2.5820787714951785,-8.727755359575152
-137.0,10.523832304840994,13.32767256882218,2.8038402639812543,-11.987244706379016,3.8785061345226146,8.02881941109094,-18.975466270008905,-10.908968896577932,-16.403074021265958,-6.442471492902731,5.596588883569643,-5.119380210184239
-136.0,0.050150190222749025,-4.129292127520268,-4.179442317742969,2.0632109042930313,2.140352417521802,-4.1050250368403205,2.1333769405102903,-0.7637686133859187,2.1037509809060992,3.108002855855481,4.067884287928541,-4.645347114665783
-135.0,1.845803776824419,-6.64179918495873,-8.487602961783121,2.4260973792856615,5.1237004077068935,-7.587836459790573,7.9674673821006,-2.770855082833169,8.100648821406772,1.5842091381358547,-5.319801363155923,-3.342432652806952
-134.0,1.1184148105121947,6.148856959192466,5.030442148680235,-3.683150144109244,-1.907767080608656,5.5711868731112535,-2.7944664636002505,-6.233905009307922,-6.401570138275048,-8.996637608954515,-9.675174755709325,11.247520271356521
-133.0,-18.002564881842048,3.6653830690816003,21.66794795092358,7.195534288710434,-19.852792027900755,12.651661519385474,4.399939369190172,12.77018817828048,1.3270998493796506,6.958981031942264,10.42159299979441,18.363692599141952
-132.0,-2.7209823611630295,2.9861476276409404,5.707129988803871,-0.11020202454538452,-4.220589495991426,4.334693165552065,1.6821217344835229,13.57914555310543,15.067835546440554,16.001165568242786,16.659407981316516,11.129812367971244
-131.0,10.470408903340076,5.367917627275636,-5.102491276064484,-7.980289769384381,7.786604943235305,0.20279807983699194,-2.117779676804723,4.1650951566786185,28.385581608096086,12.125407937556806,5.358261030037563,-3.264516300845122
-130.0,7.464361269418561,-11.065825556290669,-18.53018682570923,1.8157885059633818,12.998268006921965,-14.80338061840486,4.704014001522601,-9.800312045955305,-2.9015651414192316,-11.366829075356131,-13.54037799579647,-20.409711398343987
-129.0,-2.6145326784666008,-18.66421532201038,-16.049682643543747,10.655953133670558,6.713381839180504,-17.360303166873678,1.6457656520097748,-11.2083479684371,-24.337901588976692,-18.13818893004926,-27.697542969836423,-27.640276902480196
-128.0,-3.8847352095609393,-4.357199884605132,-0.47246467504422185,4.143794625411951,-1.7201836628073375,-2.41935147944767,-1.1342454040529266,-6.058980885381082,-36.59225682375248,-18.368808453149537,-18.92212632513574,-6.813208694749919
-127.0,0.9030347253275284,15.669958239742993,14.766923514415415,-8.253759686310831,-6.957907404036921,15.20798480764822,-14.071100563557946,-6.360330446432716,-23.275204364356377,-3.3695449395804946,14.3569952802446,27.365900500564194
-126.0,2.1892166615867192,21.494296642625706,19.30507998103895,-11.876741421293335,-8.515977475490727,20.378286382707653,7.782838734735148,16.27078558409897,33.03061622985562,23.6744430466925,31.18288813991105,24.20080559994482
-125.0,-7.5796559446935845,-9.18643329773914,-1.6067773530455316,8.357066569049355,-2.951507120338788,-5.432309484022113,-1.4657686913572314,7.585536258647482,26.20891474675699,14.661260162471192,14.172367772844543,-4.637565620832138
-124.0,-3.938033521788211,-7.054122332505846,-3.1160888107175984,5.474517043231906,-0.45649353839343987,-5.056463940748026,-2.20746737779343,-10.951787537765583,6.8238973702077175,-4.848981604054229,-6.8586357813855745,-17.186001809250357
-123.0,2.0403673222952667,5.611541135714003,3.571173813418813,-3.770010889438675,-0.7286195743302313,4.6092584939710175,2.9114050474007462,6.979639011146993,14.316101403567576,5.924153508929336,-10.094706008819806,-15.32368855024188
-122.0,8.599580379281786,-10.22861707076013,-18.828197450041813,0.785544286448554,13.679299540968843,-14.514766123164588,8.61876541094777,8.692189724450317,7.89362217523619,1.4224199344770814,-9.266174787273577,24.340873151739682
-121.0,14.039442265659142,1.4028341513015192,-12.636608114357582,-7.758960358481541,13.312368903805998,-5.60032798546513,-4.487834731164308,-6.773269798509988,-17.507839301433474,-13.22092999617624,-2.933537411065659,2.966051454472712
-120.0,3.3833821755843605,5.882481301456258,2.4990991258718704,-4.60057678323923,0.5032578535850991,4.2156882288904,-1.008001440613361,-5.481619841332782,-28.24269634375181,-5.266685994490071,7.220521390802354,2.639051966619575
-119.0,-18.736312259689324,2.2478285794449553,20.984140839134167,8.270963829664446,-19.872864954418993,11.57235770488209,-2.9687939478393917,-3.124356151124042,-16.58949643661813,4.680513538244168,7.010602590539132,-20.069438151733294
-118.0,-17.599658165176844,-11.22163049733045,6.378027667846261,14.436156148765262,-12.00082805266303,-2.4572362916175656,0.09327907344067343,-8.535297750211775,-13.44120264784761,-13.669827070552051,-21.32364546748064,-2.019336112660026
-117.0,-3.2475961063295262,-2.0311807153797345,1.2164153909497184,2.58924875916556,-2.2478470573477276,-0.3607013017609464,8.455377469316185,9.413569373803591,30.33206532509202,4.2346726521097935,-0.19545479651117503,12.63233527006172
-116.0,13.103028635670201,7.176847631677497,-5.92618100399271,-10.10541029902214,9.49149012237068,0.5911400058727474,-4.654232171120105,-1.5629471345334123,11.254603644645812,-2.4971846117668433,9.0916683003825,-3.2800453312078703
-115.0,16.962072099079325,16.3477378882846,-0.6143342107946781,-16.69257442967404,8.835214099235396,7.82648542495993,-1.1234951453207351,5.4978187820587525,2.4188043547319484,13.688177022553452,20.08526948460736,-3.352417264134406
-114.0,4.111477007354345,-12.67074834484602,-16.782225352200307,4.247033713605443,10.407485830437889,-14.694796715194155,-11.636053999987348,0.8464153667251484,6.814774578227389,9.416798952076453,-8.213918678137034,-1.6691252872783862
-113.0,-9.148733669842644,-5.994085830899122,3.154647838943596,7.619585909160614,-6.117167154436706,-1.392522272117911,-2.3519580622314407,5.075563800794415,16.92933490904529,3.2926190073190775,-11.369135571554484,11.459714187781167
-112.0,-4.745575347106071,1.5808339822719266,6.326409329377996,1.6287184895076519,-5.503055754421531,3.9804780733871876,13.677175608049254,2.973999099642892,5.577662116784781,-1.048774622161295,6.043852417879336,8.642607293711832
-111.0,-3.227751747830953,-4.83794932142341,-1.6101975735925071,3.9946941171488533,-0.8538327611686185,-3.1938189517155235,15.439453321208013,-6.5013535570205425,-21.635219069928464,-9.445610621942826,1.543283376011639,-8.04443128221313
-110.0,-1.3986361605472641,-0.43112795508998536,0.9675082054571784,0.867766584635274,-1.148218171535135,0.22440672020185204,-12.229410743901871,-15.756781180339981,-34.553475224441826,-17.680774490442122,-4.325506904714192,-12.987501758845678
-109.0,5.240430693944208,13.359787464698497,8.119356770754205,-9.279094723883322,-1.4838841178961424,10.69856459614446,-6.056036781583167,1.2824832442176453,-17.740406231838392,-2.6209219136766,1.3923887924428078,-1.0597451196117156
-108.0,0.39122810408589137,-1.5569974318410953,-1.9482255359270328,0.5937786534003986,1.2005698970801533,-1.7165396314169339,2.2763955981805353,3.5453784459231095,11.190994922910852,8.974598653460923,-6.948574171717598,0.193471447015936
-107.0,4.451099867802326,2.5483837370848126,-1.9027161307175018,-3.496238276394193,3.122732810067221,0.27346893205732486,-5.5767660165223045,10.567150159941157,31.800032742578527,11.292191855714112,2.3878149494260077,1.1523958813787383
-106.0,-3.03343132479934,-1.34335056585498,1.6900807589444167,2.1888202102156735,-2.3445431035679807,0.19275946374413255,1.6610405244507764,4.795069664060384,16.160798640467753,0.6338854100467479,6.965606356171301,9.19411244798132
-105.0,-15.119137809974323,-9.136089972207653,5.9830478377667,12.12966435176,-10.539724692288171,-1.5670152488509697,11.784849648810628,6.312821130996261,0.03332967130412534,1.5044294180030362,1.5717329852971162,3.802564422833413
-104.0,-3.7930195130424207,-6.0818509089610755,-2.2888313959186535,4.94480198404976,-0.7425472297635731,-4.181749114826874,5.10296689579702,-7.355759589779813,-1.471081007230759,1.230230543920141,-3.6283577654096537,-0.30065319880324726
-103.0,20.379999410103103,2.5368227901197544,-17.843176619983378,-11.444100709857477,19.12469465576406,-7.64857678684635,-15.414464756898475,-8.024467394878215,-4.586090483337395,-3.5334652705341334,-1.276175670166549,3.2586709866954884
-102.0,12.860342551068769,2.4227880886751523,-10.437554462393624,-7.6210662042497095,11.6705924389723,-3.9938998927427365,-21.119723209631676,-19.09474464419154,-25.359857407732484,-13.090817403286398,-5.763642972685887,-8.19369702290209
-101.0,-12.387436040188048,4.131148518728724,16.5185845589168,4.073619405787361,-14.49867917393492,10.353674827370122,19.214390858366386,-2.573957052312525,-6.934758430266024,0.01363912807059009,3.887314005861041,-11.083541554215234
-100.0,-1.8080486210884885,4.797605554373818,6.605654175462338,-1.5482448806118536,-4.162428684389879,5.670047352088035,10.909957155189323,23.628836474704347,6.095512460327055,0.9232802176277788,1.888091114913593,-4.486446481317844
-99.0,3.960405558000623,8.294927496912,4.3345219389114105,-6.102522380510589,-0.2129221732610791,6.3002270317570055,-3.656015816416563,14.82226272147989,20.67614322143536,7.955435165222508,0.3420121440458115,15.435051544419016
-98.0,-4.340392210137828,-1.7701167810373408,2.5702754291005068,3.081483428980192,-3.4771055423304733,0.39752463624454304,-1.759803739243916,-3.8831436799402486,10.644055626327592,23.314637717161865,13.481641509137265,8.355183361466306
-97.0,-12.655310428623398,-15.277504541475412,-2.622194112851999,13.996960570160276,-5.038221144796882,-8.947903794548163,6.016893293354914,-3.225698651063422,-11.708051103783765,-11.648949154561318,-10.264074262874313,-7.421168667050297
-96.0,-1.2082264082861163,-5.734334109761942,-4.526107701475812,3.5097497492004086,1.6354632216965577,-5.131398740419855,-4.881492365687992,-10.675463826545094,-6.7656216733681,-16.06006668148217,0.4724608576671039,-3.1448882833815968
-95.0,6.885727894894879,6.415981863200093,-0.4697460316947968,-6.681362444714676,3.731983787618231,2.963004297344984,-3.887903793679092,-4.3288947337915955,-7.27378771496409,-4.194374351446636,-9.250965797655159,-0.30067676636254625
-94.0,3.524128570677414,-1.061910477916801,-4.586039048594248,-1.2531586847002365,4.111034599842824,-2.845747479471217,1.1326678857686137,-1.364917992786542,-4.323495594798949,0.42236806599678944,-8.268257173523278,0.607326005173749
-93.0,6.938318457662774,4.854074965159484,-2.084243492503343,-5.914342319679615,4.492987763456388,1.4308119924783163,-4.35494828798808,0.5388424758244381,7.739668899820693,-2.5865074741757663,-5.745769074815458,-4.487150812359863
-92.0,1.1076874468203473,2.584171485495172,1.4764840386747728,-1.8666573406828917,-0.19732924962421983,2.068171479048564,1.901200334412964,2.788562227596067,-3.0363765569614767,9.856161337245855,24.06325108933812,9.554106677923116
-91.0,-0.9799594849568505,0.300976862185379,1.280936347142204,0.38858079857851924,-1.1402207568525737,0.7459723844149959,7.452817414548727,9.40313503590772,16.464086406675232,3.499210291639435,7.045387549372309,-2.3041411243171512
-90.0,-8.177937979308714,5.255605468475318,13.433543447784006,1.4183510033848195,-10.817248649062766,9.377694637729496,-3.423185535271175,8.028726235174261,16.08961697682684,11.288032865978371,11.213292827791795,1.9496760207506627
-89.0,0.6616052371497894,-8.193571645455055,-8.855176882604859,3.7879106219770526,4.739280224859296,-8.568649184969182,-8.73594215922787,-7.957546178815194,-7.707936624954482,-2.0397089418998924,-10.219023490023012,-3.52740299874499
-88.0,2.256010720133612,-11.572948732593924,-13.828959452727553,4.669076729481392,8.011243299368555,-12.74341514553544,10.451104437720439,-13.395198655081252,-9.851360615774862,-11.231963918537742,-23.54863157233141,-8.230134842358341
-87.0,-4.7865764326429465,5.460722124596467,10.247298557239422,-0.33240385842916087,-7.482828363925462,7.891432353471841,0.5823373994363545,2.0291067345686935,-21.427082061687962,-6.332555919654611,-3.318579421072526,5.6172237905509235
-86.0,0.2755971283161325,6.737873326665394,6.46227619834923,-3.50144104599884,-3.069927517730843,6.637268833332002,-9.227103766216281,0.1735881022578709,-14.358042877078312,-1.0547111284699877,7.099445286424606,4.775470961753957
-85.0,8.202916077314173,11.864818569431431,3.661902492117193,-10.021856919707194,2.2891248436702023,7.798555595978867,-1.3275914205969044,-0.212352385992836,-9.479831390576575,6.106791476946764,6.54002986582533,4.306095015731488
-84.0,4.498561887806151,-9.979118127788198,-14.477680015594416,2.684555192972585,9.509195093730321,-12.275910950463395,13.861328194245141,25.705713783828596,37.199175989334435,6.2932517168049555,1.535438044643075,-9.996485319711716
-83.0,-9.93806537099392,-3.9002411688364598,6.037824202157427,6.954994993374776,-8.036693280283272,1.0156555326356265,0.37676290939473844,-9.79384409976401,50.77862217966198,-1.2084966126047014,1.7472307815817159,-2.1295264569790646
-82.0,-3.797505398246884,-2.391579861284297,1.4059255369625903,3.063636523686959,-2.6374688245698747,-0.47344645835702104,5.346099842978918,-16.475472593186627,-15.397767767169928,-13.856298013459345,-5.820488369897326,0.49879525445479445
-81.0,0.25577968871303414,0.653128911031867,0.3973492223188676,-0.39769083288560303,-0.013880146789143621,0.5395076391786267,-18.444617610439288,-2.862252488354958,-33.704880630881306,3.5398848465131802,0.22915567065495734,6.999202464410271
-80.0,3.5098433778196845,-0.24621253834338178,-3.7560559161630236,-1.6495750209133815,3.622848186874707,-1.989058544186253,-5.178930582636642,1.5309137644644784,-27.82698076165147,4.522417379088186,3.2985154495082156,-1.1840263594038904
-79.0,4.943696932095428,3.789160912858097,-1.154536019237374,-4.385320229860002,3.0462117616134696,1.3311700630988106,3.801958315426046,10.891787384947502,-2.9289253384433387,2.1380817847485436,12.215729293970774,1.525521611900956
-78.0,-3.485804922922601,4.719996867341187,8.205801790263733,-0.6419691041180631,-5.847318049957809,6.48228521371456,9.112111223881135,-0.5410018264830709,27.213048665520162,8.088649165870965,6.272507411210137,8.071261730487219
-77.0,1.9501856713782968,-3.11324332298934,-5.063428994367683,0.6262750395964469,3.5009943326383297,-4.139913585105875,2.2473703293714795,-0.07992293353053315,12.404817715922329,1.9813952148273817,-15.282917896966163,-5.4298050158299205
-76.0,-4.08322722179082,-2.062221436244801,2.02100578554603,3.0289996918192656,-3.0664350483779743,0.014421147221738373,-3.309262921359164,-2.0576830275739866,-1.3705199749475447,-8.953181474501537,-21.17342952394474,-17.04881266212399
-75.0,2.4754721481151236,-2.176640891693477,-4.6521130398085315,-0.12194182132644293,3.5392131354704546,-3.4522533566594094,-0.5916908942650566,7.809262515729964,6.572281627664335,0.4030618188433035,6.493355842821066,5.724291380593395
-74.0,1.7429271696138353,-1.9669213936789187,-3.709848563292641,0.1362714734694177,2.771214691201678,-2.7949342600201286,2.003679126429997,-3.9779232270859133,-3.040682106421648,-5.646042210377715,5.3524386466848295,3.3277305319057535
-73.0,-3.261603162463189,3.378368459744765,6.63997162220808,-0.11074682305045291,-4.912373639015158,4.973141266441363,2.6927355636159547,-12.04445808108372,-14.184724076552925,-8.258230266134767,3.816587959131698,-1.8366533665305518
-72.0,-2.1433327014375685,0.9652624441144766,3.1085951455521355,0.6222609983266961,-2.669052782462494,1.997991597484075,-1.7436951829767977,3.261342287791839,-10.791888592158678,2.1337231622749773,5.381442379439021,6.74998382612688
-71.0,5.59663933921844,-0.37026661925558213,-5.966905958473978,-2.570390548144541,5.81773196305406,-3.132069411438704,-10.93131753146151,1.3808024349817116,-8.11916621463304,8.072385791742981,3.020213699310574,7.964323290546757
-70.0,0.6756638124395176,5.302793021306179,4.627129208866657,-3.0157015052372067,-2.016608467358861,4.999439736190659,-3.4914313133279955,0.1603740629052306,1.669428580860742,7.842944530205992,-4.513721386718798,-3.6970381646692463
-69.0,-7.280684073544576,-5.763135232944633,1.5175488405998785,6.502165038864428,-4.437955886147882,-2.0883475644149656,18.21049673514553,4.43476487049561,15.892088215613587,1.4503701593450895,-6.378287769945823,-9.424758679086018
-68.0,-0.36189167694042457,0.014660800858147471,0.37655247779848056,0.15638396719954706,-0.3281190189164147,0.1528661602516157,3.7024350881973467,4.874185868968848,29.31039873301659,-2.540856596412449,7.351646067661344,2.0593362936613175
-67.0,5.2535225180384915,3.878934273656626,-1.374588244381948,-4.584790475672127,3.355257091023543,1.2114256720608207,-14.994723974549078,-1.4763255199524763,14.282557006961877,7.201988295666934,9.991271103576643,-5.080149706372129
-66.0,4.48753845251175,-11.298439817130953,-15.785978269642714,3.383740742911465,10.09852751015018,-13.50294007267652,-3.7797208616500293,-6.725431555116424,-11.655081410700438,-9.313563148621187,-11.992269505857763,-2.453896636983563
-65.0,4.160788600630499,13.077042689007802,8.916254088377332,-8.564171137199622,-2.416825945106331,10.957207809333,0.8634424428232577,5.531702573349761,-28.999296770822813,-10.035168378402968,-4.151278159300694,0.6494873406424636
-64.0,-9.397010334098521,-6.950003154094056,2.447007180004517,8.22873228660388,-5.8827771076966595,-2.2130332997060194,10.720389103928557,-4.281972562556092,-45.70146380838355,-11.0765468170965,-6.173298019248056,11.529326393843407
-63.0,-9.642556996417522,-1.7976144815879407,7.844942514829664,5.699968342934017,-8.704139386024673,2.982535585253626,14.784777987055527,2.040569915302169,1.8616124136785537,6.807524913585302,-1.8424119035310837,7.764386040225506
-62.0,-3.537000961477042,8.761474644493909,12.298475605971014,-2.627732377587766,-7.955783376252985,10.567633612168493,-8.852004898842125,-5.080957331977052,36.394139267230926,13.451058369488054,13.919406770688205,4.361136854004639
-61.0,12.558338457538705,0.3124183636588258,-12.245920093879832,-6.447704437249311,12.365321258994738,-5.927822430236945,-21.914100675598622,-4.10741639314433,20.61190388892662,6.0966020870623,8.994003217336699,-6.55263518374808
-60.0,2.841955551961717,-9.277835749507183,-12.119791301468897,3.2050930338285806,7.523298125205537,-10.736515605591546,-1.130886764644849,7.402254297236704,15.276238063548837,3.6134879649552785,-2.9783140417939986,-16.304871219519793
-59.0,3.803491623448823,-6.811360726883565,-10.614852350332402,1.4862110710072725,7.250373377166367,-8.748758271240506,12.917646330920139,1.7086604685594327,-2.024234878805954,-6.72824019729638,-11.813423472995161,-11.164801600130334
-58.0,8.230844882956054,8.313910653493494,0.08306577053741115,-8.298059000508893,4.03273149577239,4.242583307986126,6.464824083943083,8.241881563017309,-16.31236625264321,-5.625792980617453,-9.637471739367111,3.13322937849449
-57.0,-5.470253988508333,12.671281731640175,18.141535720148426,-3.5558288786597982,-11.853101960705011,15.371096599434319,1.5117715154471378,-14.115445007586153,-22.997587443773188,-2.35243706904335,5.863155152306333,15.378265521490466
-56.0,-16.51413554523356,-7.5712245375221805,8.942911007711249,12.081394818361186,-12.7046647846154,0.7269814639777374,-6.714771281225891,4.06981160317864,-3.295584399243296,-0.39082243028347285,11.432980899395623,8.25266868150643
-55.0,-1.1839752885481722,-0.8936160830271647,0.2903592055208719,0.9969691688023854,-0.7210802427097978,-0.34256789087004247,-9.694655453155912,3.288298343053614,2.7963653054491813,-3.8333912025139503,9.714356901378164,-0.12538911040350254
-54.0,2.1865534031493667,3.3615791274110927,1.1750257242616937,-2.7348094260061657,0.5157988306025287,2.3028021178425924,5.205154012196699,0.2621732230712815,14.784420880978562,11.325629979074302,1.8875326709572464,-3.6152422305794536
-53.0,0.2537688915708127,-14.465834117080547,-14.719603008651301,7.071173279351678,7.493851169725306,-14.639063243283607,9.320842646804941,-8.797340233813072,1.275706764416599,-5.741190385157326,-24.116949113893703,-9.055653894569147
-52.0,3.412974614407302,0.14213140652825018,-3.2708432078789107,-1.7295510604864017,3.350105809354339,-1.5318121338721582,-1.3701655954698202,10.197956863709475,25.318180453588226,5.027242079878856,-4.556045148670348,0.5602149333132003
-51.0,8.559820977605526,8.097380891739288,-0.4624400858660893,-8.35839263947256,4.445406828281013,3.852896555935762,-5.155162737250627,-1.894035091921197,-8.376163342173742,0.9072437854548225,4.449169704053117,3.4189789819724945
-50.0,6.993466065151034,1.4493537213466823,-5.544112343804245,-4.254654084483738,6.28962926240587,-2.0852479113469653,4.067252738371291,-8.076404439283687,-34.39726696056228,-5.218892605901159,-0.48471282451676156,1.8653838025684986
-49.0,-4.775115901626659,4.797289453561057,9.572405355187732,-0.05136210750988601,-7.143525916907031,7.154210986114476,2.914358812762486,7.77308500395557,-5.246871759523689,-5.843558537399122,5.010765985472861,0.27642398448555394
-48.0,-7.515343888303211,4.364764450516732,11.880108338819856,1.60589577646786,-9.658395410501655,8.178383171622471,-11.395652712724937,-1.1952423938893415,11.246924440854542,1.749242253334811,10.058315795448092,-0.08293205262919054
-47.0,-1.9608369778395582,-0.5277357861440862,1.43310119169535,1.2697408598713784,-1.7296573883160482,0.4370571843072355,-1.7231251544895088,-5.672815649864007,5.962457979615308,8.935956050935685,10.927131298926902,-4.643367249575442
-46.0,-9.648647995069771,-10.266167628765436,-0.617519633695782,9.983231618508968,-4.54556609046843,-5.452016243030478,3.7877432279416916,-2.239175556386659,-1.4354747678305593,-2.6208145686146067,-7.337804357502328,1.4101519378322904
-45.0,2.110350834669937,-9.859071581466724,-11.969422416136737,3.906866422807486,7.007885884238389,-10.921367483601221,6.266547880075974,6.16438225640451,7.404286475091299,-0.7066841608788079,1.3263683942982514,-5.499115355987711
-44.0,7.43119994327907,0.1563511146944645,-7.274848828584625,-3.828575354310879,7.393811373969729,-3.565915104434179,-0.41126408305353035,8.375723982642192,16.389333712277587,3.9380711204761947,-17.2781829305158,9.413149385685884
-43.0,0.098783713512546,-0.36572272942539297,-0.46450644293792287,0.11169506864815792,0.3143460044561719,-0.4237469897710644,3.823521397095872,3.5809339322888816,7.684584297325195,0.7777123545071902,-10.087782932855152,-7.164266731734042
-42.0,7.2485753118345215,10.029938437471193,2.7813631256367097,-8.649908345981702,2.1796267692638844,6.471681432460064,-1.538880288286309,-2.94374844831545,-11.401202580083318,-4.061958235626086,-3.491137822048079,0.2910461084706204
-41.0,6.215447143198047,16.63965900010456,10.424211856906565,-11.431509995713451,-2.085431559300708,13.513219247964946,-6.924171488871674,-11.666789815023316,-24.550516579890836,-4.884800877677494,12.226950071107805,19.586110758058556
-40.0,0.9042524126658239,-1.2538275036892133,-2.158079916354997,0.17219480612450555,1.5474704645342858,-1.732429868231523,-1.8452173218586996,-8.654345283426139,-20.29676175500856,-3.210100384996812,10.994043780586576,-1.7578180818833404
-39.0,-3.946632434966568,-4.7875246535439295,-0.8408922185773429,4.361165947219004,-1.5360815080141739,-2.8498768531772236,-3.3589828693365598,4.9609417476737665,4.339469211776958,5.755779693450937,16.820691568516008,-9.192358259406465
-38.0,-19.880571834073734,-16.89370456525557,2.9868672688181377,18.453564267243923,-11.41424371964681,-6.920215157574058,2.7610685290751196,-1.7851132917093144,14.029805177086608,-6.289532518690475,-10.257826369096769,-11.570888925376684
-37.0,-7.380362187453159,2.5969673069798,9.977329494432922,2.371687094941212,-8.734430292241399,6.310937274000214,5.615672406836454,6.529319030859358,16.80691740693996,-1.6690334315518431,-7.640942221052548,-4.556610018554062
-36.0,7.656183307761887,-4.945290026013117,-12.601473333775097,-1.3828687531279682,10.077179882619935,-8.757228877868547,10.56979971408758,22.193115653596696,29.301914015951834,26.88985889373645,0.126644797514051,3.1426446631059664
-35.0,12.196330890919096,0.10824749897497854,-12.088083391944265,-6.18573629625498,12.173541337326885,-6.057160030753476,-8.86768256625214,-8.213617757453628,-13.027358870040453,-8.656544699600198,-11.695407518619565,2.3828191549289697
-34.0,2.3691836925277556,8.278998438683061,5.909814746155164,-5.282774977474421,-1.7338706039675982,7.105170702342492,2.283604285214931,-10.200160537193556,-12.70236575045335,-6.238343602662712,-5.667224620857194,8.978712390874467
-33.0,1.833850368102242,9.880402422439722,8.046552054337436,-5.817618783358789,-3.0635208352569054,8.97779623106852,-3.4262391917916064,-9.632078496458774,-24.895470243196637,-6.0711676001952855,12.640149214208085,2.388695811397681
-32.0,-0.8757980884558267,1.7674754054910045,2.643273493946934,-0.4851279179528696,-1.7881803936537175,2.2271671323300533,-7.7523476303016094,-1.2471139544964043,-7.737554183675892,-3.7122166937356997,7.765586185333097,-3.0237869397781343
-31.0,2.9821350811017653,-6.336933006970554,-9.319068088072175,1.638947218433639,6.128934038247261,-7.796129287925517,-5.8632907159972785,1.8506878143217773,6.478685419465102,1.4764156976910143,-6.0438596176587,-5.241002556271884
-30.0,3.3234004589763284,-11.273416482475266,-14.596816941451435,4.015941428092834,8.94364567141935,-12.971355894011525,2.4028790393434383,4.15073267091973,16.469947057128866,0.8262255118268425,-6.325880398547461,-0.15104756920137952
-29.0,-7.475643564643908,12.136087108671607,19.611730673315606,-2.289857256479981,-13.557827173915712,15.846705380432521,12.301583761771562,9.703956278359183,16.01011858503746,11.644882526728873,18.45134726880972,12.176964956662818
-28.0,-22.138069599708984,-6.178210082141853,15.959859517567146,14.117341693148209,-18.985272228632205,4.869497803638215,16.12704187196307,3.987456212494692,2.284638721825173,-2.0652721503268747,-6.308647515309099,9.446319103622573
-27.0,2.401066350289664,-6.020237297623227,-8.421303647912955,1.7645057811916809,5.392382383512421,-7.161126849565277,-8.388011374847842,2.7542163661713692,-8.009301720249058,-8.50776882768513,-6.881169536818803,-13.8915066343766
-26.0,16.087345789624163,2.1100803245767303,-13.977265465047562,-9.070476141615126,15.007924788900993,-5.9536019035767636,-11.138141850605106,-8.49788583474904,-9.892636032348669,-5.521464371912488,-11.76671516055523,-22.076093428329127
-25.0,11.47536604069343,1.819673229780321,-9.655692810913253,-6.624564979900926,10.535041472099588,-3.940866360248519,-6.175350450475668,-11.763270775785331,-13.099915343237065,7.894483833888713,9.017451448283506,5.315162198612201
-24.0,-3.0101327681639276,16.07297839811311,19.083111166276836,-6.512144260863508,-11.003728286609682,17.630495590866268,-2.8660950968878263,-6.770400420483976,2.2478992863071534,7.8111635966931745,14.81764336814614,17.87801904447767
-23.0,-5.913546793777639,0.5340427885305479,6.4475895823081375,2.629323777814977,-6.141477739109102,3.4616133013408934,3.3924196251307865,1.8253085785102847,7.473780516687584,6.571223675505491,2.422702892626278,2.0834057031812634
-22.0,-7.456379925317327,-6.8501518867197255,0.6062280385978065,7.173780805748864,-4.0730926817096265,-3.1528403971157313,9.521767850258207,11.7286026882433,3.294861091100689,-9.67849981006291,-6.900493241174619,-7.910286344225409
-21.0,-3.7374321128967036,-14.622850597555688,-10.885418484658498,9.20562177541684,3.609970151730643,-12.706565784242244,7.718245850994113,16.38395767949739,12.919108637564182,-8.684043570576128,-15.735868715846935,-4.233852363610842
-20.0,2.7424713794611764,-9.299595234379709,-12.042066613840383,3.310690421223236,7.34892835305997,-10.70134945438068,1.3517355606239816,-8.564169756602045,-0.8525020501960423,-1.7001940684737473,0.4874792544594966,-1.6451740839013396
-19.0,3.9167069421226133,3.9265086925758155,0.0098017504534047,-3.9613470985909136,1.9095469097536932,2.0171547610861498,-17.771701338696104,-21.769286200813074,-10.43921977817677,4.861913460964019,8.209939717074864,4.53284060614238
-18.0,6.69031439603297,14.375800067978536,7.685485671945301,-10.566935237159894,-0.4631893306918458,11.000718839500434,-9.871103614216327,-3.6758709257049684,-16.131295106171937,-5.613621564680844,-1.3089610323333307,5.472546646057118
-17.0,8.270099971807248,14.67799519642954,6.407895224621644,-11.503681094840406,0.9655748405457176,10.511093504120531,2.0245610742914266,26.854073669571456,8.202438476468648,2.4356414002055593,-0.46998149406515033,-1.1550977765286432
-16.0,3.4189638139453558,-1.9760722923407839,-5.395036106287025,-0.6695950694869506,4.442308241895301,-3.642496018484122,9.364053446933907,18.58141158164673,6.576559964660062,9.085968032637526,-2.286050909141678,-3.6812975258304688
-15.0,-4.23913569018589,-9.628270334315314,-5.389134644130081,6.987170675838445,0.5329525351186095,-7.54945422244986,16.083766841113444,-11.33470279289893,2.6414047268076373,2.815922966475994,-0.9303738245833414,-0.622410970664113
-14.0,-16.308176307904322,-8.703090925884087,7.6050853820201745,12.4810273536161,-11.997186879855702,-0.5158972827545387,14.728582988746888,-3.2250972233572615,7.208183896639786,2.1825672298208336,5.141068084622846,-0.7999322038965864
-13.0,-14.645474643952422,-6.897719974790074,7.747754669162902,10.746543579595212,-11.15711886868519,0.3762420487293401,-13.291110974826749,-17.23402231255913,-6.708016322875864,-14.434535553536605,12.018081882210284,7.036330979083377
-12.0,-1.8772103343177244,6.479328063362068,8.356538397680744,-2.327907285453559,-5.154809288084655,7.447669026208192,-2.9042668143754558,-16.947838481897556,-4.108680816381742,-1.5826059213437729,3.9669973341449083,-0.05748230121148064
-11.0,2.7003125567579707,4.899224522809012,2.1989119660518512,-3.7508014614952643,0.2934961898297015,3.5815008517201674,-20.59971490959287,-16.695478754262556,-8.948621433842508,2.5932540682832874,-6.432631549366037,-1.246612416888565
-10.0,6.745801160595248,11.126560415634726,4.380759255039677,-8.969160658255444,1.1499278200901921,7.790432012941745,-20.35899046273828,7.853272072349244,10.076612118050193,14.370797646288912,-1.3420536077731047,7.530494795532491
-9.0,20.492179876325928,-3.4947129655958014,-23.986892841922128,-8.533798584286918,22.290802299707533,-13.779044674668922,1.2990034849245022,25.920509161546654,9.248310893690102,2.1305010724206275,-12.14935566876239,-13.595263384817533
-8.0,16.48909705774878,-7.932746401175396,-24.421843458924933,-4.234119814040129,20.43462029530278,-16.214632364702204,17.294462787042413,22.028046897039562,-9.284137087914273,-13.528945379723996,-19.979586315591927,-17.879229180755697
-7.0,6.15985752895452,14.080780483254419,7.920922954299168,-10.072776768046856,-0.8939751164632561,10.960462086957435,16.951491665133563,22.73759188813639,2.9067114012131516,-3.437892990934085,10.573132179419995,16.744024170000493
-6.0,-2.3161720425932666,-0.6207425258024006,1.6954295167903704,1.4433871200158088,-2.0120453724078873,0.5692264904165931,8.463199416670694,0.717682806752828,-0.8026026747729752,5.79740030381417,17.192512608332454,13.260988253486236
-5.0,-24.37877123173797,-35.821106003266344,-11.442334771528419,30.08212700529254,-6.468364173068836,-23.60787249877159,17.4007063444817,-15.534755865825726,-9.562447793954265,-12.72832684124829,-8.119899825126385,-12.527632399506926
-4.0,-23.45728218199202,-21.408871193162046,2.048410988830331,22.421607732094103,-12.74862519252903,-9.663733683230497,-2.532436773899649,-26.950272302657634,-5.025344627759104,-6.420135167618694,-7.390616292121932,-12.312379989061995
-3.0,-20.513649251144432,23.03326763115151,43.5469168822965,-1.267667682704186,-32.023840023655424,33.30154356653089,-15.335832066884443,-19.83324527803052,13.265299554843391,20.33194571696544,27.81401822555948,13.725019816179154
-2.0,4.964189322076702,43.083460725809466,38.119271403733435,-24.031885642115586,-16.57134940529558,40.61060260306951,-31.116807378815846,-21.86786442314559,5.229986333224742,17.05191135873094,17.57370638738753,17.056061150304693
-1.0,18.445885110483566,31.21590420367464,12.770019093191664,-24.7644117097079,2.8410968605419997,21.923662248373972,-10.183814317029057,-0.8886510798413157,2.141031243655087,-1.4203605983502339,-10.439617627154593,9.748171870009337
0.0,35.61020661831807,-15.27255632871227,-50.88276294703021,-10.188689038116705,43.24366206087489,-33.06634539651469,-3.7079479942775704,41.091467161525465,1.6216339068108618,-11.261827441447494,-25.380820253866354,-11.942130736178004
1.0,3.3813715282100674,-26.220992608003193,-29.602364136213584,11.390264142910818,16.480260006076907,-27.897524778943566,22.958269360336047,32.36831758208383,0.15701270815502844,-4.076194139910408,-8.541597439718817,-11.888106419316834
2.0,-16.720776325986552,-45.58174975499114,-28.860973429005355,31.1118279601633,6.0476115446546945,-37.20380049054063,35.812409060502596,-1.502339588040062,-14.17360389369333,-18.221235883540775,-13.278403274379752,-23.180392053503912
3.0,-18.92046676378122,-24.47247156428533,-5.552004800504987,21.727851590697973,-6.63967683593813,-14.990930397472908,8.904491873620206,-22.81989797248711,-14.2812639919444,-11.200753774897915,-4.080069068243224,-7.186557477484956
4.0,6.398899956317901,19.439748162202903,13.040848205884345,-12.892059078076382,-3.3661252713915175,16.186792601226706,-16.65847037199263,-30.496036885847275,-7.928851767295452,5.387901027725465,12.179223880951003,9.868000985931
5.0,9.154698830450386,39.995059868791415,30.840361038340895,-24.54705368464971,-10.817955285443023,35.44702159746757,-25.192910094930674,-26.36630638255819,3.160407593363436,16.989809491740914,20.314123012043574,19.46386617655154
6.0,13.24069534109428,46.31152103206164,33.07082569096782,-29.82231842580449,-9.895734578350972,39.64598996841781,-25.351337704530486,34.35424661337891,34.21860095614289,34.17936465101804,26.96828167996637,26.534175486665408
7.0,4.182826581062504,9.506200304109989,5.3233737230482205,-6.804834141655102,-0.5531369813809359,7.452885777140633,-0.8595488188223026,64.85405790457976,29.94334282874766,12.635529802858372,4.815680204528151,5.659371536442997
8.0,-9.03177633071444,-38.76804538794629,-29.73626905723105,23.86815664679048,10.291259976169506,-34.20932707349977,23.75905029130686,30.061904776253844,-7.21217314556073,-28.500742214463212,-29.982641854286648,-26.206420386467304
9.0,-18.769414302201127,-37.458785818476635,-18.689371516274996,28.087893073232017,-0.019718797047011183,-28.105431194990622,22.925385548089825,-42.407990649869646,-35.643198364461654,-35.9772206552792,-26.441374350738695,-19.920580295981246
10.0,0.8331818734268932,-19.76456789812104,-20.597749771547697,9.442175443043993,10.73930499745131,-20.208651090439158,-2.617456520142696,-34.43142967220358,-17.614557120132144,-8.10228874377012,-7.370182303624713,-12.97168543129538
11.0,4.250683973408281,7.754792431667791,3.50410845825931,-5.947847424229765,0.32221230703880366,5.604646686983884,-3.363491049987014,-20.072093218238074,10.098731127028433,19.61475193242197,19.742336396059965,5.691721578682662
12.0,-12.94791971547399,29.845927827486914,42.79384754296022,-8.397081501949625,-27.839544188251132,36.37512801777095,3.636511224630291,-15.241560180403178,5.668161186690339,16.483147487818947,14.736569046307261,23.65947064415865
13.0,-11.564655497837771,39.09776746080651,50.66242295864342,-13.798347766916427,-31.07905004276755,44.85643738636789,-0.985227965359802,-8.849980651441165,10.142192584587322,19.386048807995074,22.755828559452464,27.529458106430674
14.0,12.296404336068061,-3.6259294815759375,-15.922333817644901,-4.37318104281076,14.067448462570502,-9.720665098426835,-2.9453154036156333,18.49938602942499,2.2662254734106195,-4.504046174402973,-6.260788116206147,-2.469884211551994
15.0,13.744808380456629,-26.742793505486816,-40.48760188594397,6.454867569616743,27.154391781306963,-33.64361056808834,-8.357242589996009,20.293107491655142,-9.483249639948168,-23.277606590007167,-24.19290180862522,-21.815230329466857
16.0,11.003541727579119,-24.48970217843934,-35.49324390601848,6.772978302772849,23.2083419276765,-30.024303922305116,-17.540114621200775,10.772884822824512,-13.3449902989129,-21.501678919644363,-19.75186792181124,-20.2913764543845
17.0,11.907031860667285,-11.033995538693164,-22.941027399359857,-0.40857836075286436,17.384218165528132,-17.025342113551282,-3.7353134485581494,4.007432459159077,-6.753987171913307,-3.4931788285357657,-5.348920808335413,-7.840105479159844
18.0,-4.197082864647245,11.131512505256321,15.328595369904429,-3.4380763407482435,-9.723091703614736,13.266519248251019,1.1003502694610547,-1.184403529691691,9.226375461498401,20.01094303159183,13.786724427844701,10.196617729934442
19.0,-12.564078691348026,19.35322113333673,31.917299824685372,-3.3620571314489993,-22.198927511975583,25.668860293884,24.13075572992509,15.68149089929149,21.66595601456875,24.990706937170238,18.78013908099324,13.311685650746766
20.0,-13.987802267591617,-2.0247753498425354,11.96302691774926,7.963583664560415,-13.009282772426946,5.001766621411036,19.051364067030395,-1.9351771833415983,7.779005173625023,-0.6054778219943966,0.639044838306237,-5.69076002316093
21.0,0.7405352935003222,14.524220053206001,13.783684759705476,-7.67343356780058,-6.473486141235858,14.108116878720027,-7.7900479440552814,-10.916110239228066,-0.3756435806517753,-7.47185690419372,5.400428722908643,7.99720913967719
22.0,10.741008519833006,10.45232041185197,-0.2886881079814696,-10.638880595712438,5.48592256006568,5.114961414811704,-8.561975447297868,-15.35088536372522,-4.44285312943866,-2.3109699221208864,7.6142297333347315,10.44716881921174
23.0,-6.594077007847477,-5.924019665008185,0.6700573428391261,6.2922809214549105,-3.662026969975591,-2.673416066018775,-3.8312361623241484,-18.656300629475364,-11.72203233640149,-7.162739884804429,-7.592411619997072,-0.5548818956778803
24.0,-9.036493094321601,-29.530336160506902,-20.493843066185246,19.31299693784098,5.694651189410205,-25.06038475313339,-10.589999376409152,-1.7448932517117832,-6.131266671255975,-13.609089081648417,-24.80416369372884,-13.208788599036275
25.0,6.01101008274223,-14.014855124496,-20.025865207238027,4.029317275072926,13.05714375938943,-16.991528626949993,0.2022233159592952,11.42009740064681,-7.076327855671969,1.560971365720552,-7.419351119122744,-7.268145423433535
26.0,10.736976735754979,10.133423163547379,-0.6035535722074528,-10.40770397524943,5.70302396217933,4.794266047213446,2.4703825206645447,13.604583233338381,-1.6695373311789354,9.169663993225155,9.322213402238514,-1.008954405641946
27.0,4.928636333901485,18.603424381794415,13.674788047892898,-11.815367090504795,-4.422804915740325,16.17244345630595,2.3865059350827553,16.920817080116738,7.225792653611321,11.541610341011873,14.838317143030377,6.99847569262457
28.0,-4.347571019314105,7.229476274052301,11.577047293366189,-1.4878817118686412,-7.933456631845973,9.365251737675703,4.216140132667473,-3.654248181436259,4.661612471478551,0.28421905561501326,7.103395612665269,3.2662584945675377
29.0,-4.446018595156443,-4.541556860120139,-0.09553826496402351,4.527109477835071,-2.1429545598106117,-2.2689000575729956,-2.9729567802998345,-13.43445821503754,4.264094861598689,-7.270399358810659,-3.1898046628963375,-5.018147871046184
30.0,-2.7765829048614927,-12.884365444448232,-10.107782539587074,7.86352453622532,3.6248423683406577,-11.51785110793274,9.81283859047803,-3.16132740475481,8.502810111727488,-5.036469311936965,-12.905527605290416,0.47415384029938795
31.0,-2.4580016719077262,2.0957190512136137,4.553720723121221,0.13326769081315337,-3.4620712801237525,3.305619412412784,-2.546725738359181,-5.416281123720967,-7.59869737187946,-7.026494514907858,-2.9594599480628494,2.0383932497648827
32.0,-2.7492096964026684,8.338231612136788,11.087441308539551,-2.7672025217940397,-6.949557220300436,9.690039458087519,-1.471246868707291,3.9276901652120797,2.736025924173444,9.777280535643035,4.130522124202722,1.8167442674384628
33.0,4.529917547625217,-2.179748254195581,-6.709665801820551,-1.1518010959630638,5.589000325439453,-4.477121832516048,-15.136022780243088,4.723215785761351,-3.289041026135036,9.728626628364198,7.783536722652842,1.0627268311292597
34.0,11.296703271055666,2.898292828646558,-8.398410442408853,-7.156309454055389,9.814166464051512,-2.7167017391855808,4.825833787935411,-3.9697113853314097,-10.038702905687327,-11.952997892412016,-3.513741977224287,4.875403758644321
35.0,-0.18698971741813386,-4.011153794219792,-3.8241640768013627,2.117440634518302,1.8598569404404297,-3.896938856091427,8.56490988601383,8.692250098514709,9.262406803385211,7.35415930777487,4.911083368513747,-4.2989525650864024
36.0,0.47954428266461835,-2.672230939495418,-3.1517752221598885,1.1156975168763963,1.8533874809154316,-2.9001568428508233,7.405408499523562,0.4737778393047698,-0.38144817256483843,-3.336224893188986,-6.825978035654691,-12.148164754351333
37.0,-8.65586156958424,-6.152057315964352,2.503804253619876,7.427052292334731,-5.54355507372481,-1.815464608878496,-3.4857203182395526,-4.891089860718595,-7.343175581620136,-1.4460025963552021,-0.05682872852658161,0.8903142385604017
38.0,-6.249846227300843,8.687337085615907,14.937183312916565,-1.2684250577767808,-10.634859555165832,11.823342035053583,-11.490308927241232,-0.016335830549043973,5.402387724798711,7.353629739882299,7.5514288286137,11.027589736345858
39.0,-3.800094468046546,1.4320474518356843,5.232141919881987,1.220189920663701,-4.554220969137902,3.2706437205844523,-4.239607604665501,-4.985472340377744,-0.09956942350676945,-5.891642029980108,-0.4067561879654309,2.9084963334887335
40.0,4.614359889656307,0.6021404758992319,-4.01221941375727,-2.6440337988406846,4.279646818100834,-1.6804214093369283,10.434122273511473,2.554361096251583,2.161587371929582,-7.886716888466081,-9.857363381540956,-5.252475647344313
41.0,4.305214928760403,-5.636236270868346,-9.941451199628816,0.7136602819630018,7.17319212164737,-7.758426054716187,0.9859813864525497,-4.129963583349165,-0.6745489425516351,0.08856120226468889,-5.859955890178556,-4.062587914751271
42.0,6.699930963827105,-6.432009455065492,-13.131940418892636,-0.16186320741626536,9.969932924584956,-9.82780040737653,-2.7479463314935493,0.24288363512785205,-1.7241596421535519,2.524862086294569,3.1496256902687003,2.2004496074131996
43.0,-1.4071065828221556,10.081593939012684,11.488700521834865,-4.365086238872019,-6.470109215598351,10.816803466548546,2.302987418039067,3.697839696291293,-0.29390477158211087,0.27737956706632705,6.161102300747392,2.5832066156789684
44.0,-0.7317814030018541,10.118778941376764,10.850560344378684,-4.644511225663969,-5.813338755175411,10.433399815844778,2.4886211023997196,6.150469095055522,3.2337045655948113,8.979675838245948,9.673370833496325,4.888038301698331
45.0,-3.3198949539993916,-0.19297917183354718,3.1269157821659475,1.7240942751141577,-3.248489564529828,1.4892249865888099,-2.275907018047203,-1.613329721587577,-4.3243716089060955,2.5758289095431652,-0.9272549692551362,-5.035621567517502
46.0,-2.5271272492336685,-15.592500833375851,-13.065373584141959,9.025801253148858,5.2385598855772795,-14.310806877878344,-2.3428664862391133,1.9943101035125887,-1.287474386658103,1.3182668631389878,-8.966167869386659,-2.723664278431042
47.0,0.1809984267667084,3.219398666099691,3.0384002393331775,-1.6549832136352256,-1.3874041290283259,3.145612257350721,-0.8923994696136104,-2.9841563091559173,-0.9237009541780246,-5.387610238424375,1.6479354171672806,2.977676715549585
48.0,2.738816199725024,-4.7074138725530785,-7.446230072278059,1.0324849232076758,5.126881121935865,-6.058306055019426,-1.0900580104235411,-2.8526814820057727,7.770207283357253,-7.790007370644544,-1.3008502994513012,-8.710533598249896
49.0,0.3379005849050775,-0.48150514026967073,-0.8194057251748781,0.04590928783722395,0.6069542956585214,-0.7063131043107485,1.6491282387863706,1.0195284140471133,12.271643500215497,-1.147395437730105,-1.53662040679393,1.2968404147224466
50.0,1.999460747038387,8.827422205073345,6.827961458034729,-5.434599670621931,-2.469617740164795,7.856144731550258,-1.1752955639106624,-3.973971355109815,-1.2119281135378426,1.8376407965437662,-5.2124972345604,-0.03644578242138086
51.0,-4.83158408717062,2.4031353689683588,7.234719456138803,1.196123746809152,-6.013642959133726,4.7738480179063325,3.1094578638424446,-3.1605202805838313,-17.670373589377643,1.8361537467235223,0.46630736228018266,6.958602304122903
52.0,-2.4337744349750463,-7.461426841198396,-5.027652406223407,4.929813264401006,1.2350187911435397,-6.207185049371852,7.813538515492906,7.56618696059941,-21.37432852937312,-5.146667735368955,4.555878276831245,2.651961675792211
53.0,8.23914265799354,4.4772789825019235,-3.7618636754915524,-6.29966919938314,6.016588448873866,0.39658043293215606,-7.133189398419734,4.281367903380531,4.150008360192988,6.699289456649613,9.204280469447589,-2.115015754843308
54.0,0.9656970408616083,3.763718827233917,2.798021786372391,-2.3890831481166543,-0.8977872506895488,3.240330138623617,-1.2606336291663718,-2.9229385805648973,15.784818740336402,7.9394523306989635,9.415997009560098,9.673202900756298
55.0,-0.9086728298727726,-6.832273587434168,-5.923600757561302,3.8417132849671525,2.531922219327532,-6.42072240685445,-8.005568268165808,-7.3943230594835025,18.299029776946412,-5.022247101884481,-25.72215212494488,-0.9127566282566344
56.0,-13.597860826738323,4.158876965171126,17.75673779190953,4.766404837349936,-15.643257290463144,10.991053062162383,3.559923218450196,1.2491152581177603,8.888567422704934,1.4016142202386719,1.164710152696669,2.1351940718746025
57.0,1.2921300107050042,3.5230035139887788,2.2308735032838314,-2.440130537054885,-0.5025655995942246,2.9082881273682224,-2.1264221244981023,6.3698644266269175,-8.131569117381023,-0.7368615417061977,10.791845917686265,-13.501662203553229
58.0,6.26457262588764,-11.037403583594292,-17.301976209481932,2.434484165032239,11.761108325567598,-14.217173746063704,4.651884824533703,6.050937280333451,-20.820100035887105,-2.4952862709744315,10.086981330019864,-23.838086351413303
59.0,5.449502947038692,-1.999869093163063,-7.449372040201769,-1.7515616471556195,6.435375459045785,-4.691387174540008,14.58178821153394,-5.4220543728572235,-0.6390228453464442,-2.4646197025606473,-2.291029888177411,3.0250024288458848
60.0,11.919893287086095,4.623414716573014,-7.296478570513042,-8.29352963572418,9.597589400248904,-1.2999411757497517,-4.678428457105773,-5.602119531132553,1.2591665714812543,-9.711626730190572,-18.90681417668635,16.898773428641157
61.0,-6.2474721007747425,3.860613686180474,10.108085786955282,1.1760505854825625,-8.111456133896649,6.945636171957455,-6.929026873401522,-0.7168979980346188,0.9454067073743231,7.61279952505261,2.584576505364474,18.779891165544576
62.0,-10.252675489207602,-4.362024020917324,5.890651468290349,7.371687615208836,-8.090867254108794,0.7277726869588967,0.2598407031114638,5.49521468288163,3.5207132701367443,7.505787863374033,-1.711285921451748,-2.1713418703834506
63.0,-1.101355174633735,0.9380370251314127,2.0393921997651736,0.06787236754206782,-1.6001302429287474,1.5310422872213165,-9.787069648440871,-5.34725321089076,-3.2054891680349655,-1.014217311942362,0.9545418325941304,-10.413477377423622
64.0,-8.18207630680639,7.020680483726233,15.202756790532673,0.5648834607984162,-11.655918848139422,11.073535469074983,-1.2221352079345436,-3.657903326769185,0.6033112222704307,1.4727426618392478,7.780472033062796,-1.934343854913907
65.0,-2.3584111978170745,4.93067627174451,7.2890874695616095,-1.306295510026807,-4.878116170099207,6.1478697677320095,5.871206374480343,6.22420168980309,5.275742453262431,-0.9140262990960882,2.9491276045034596,7.4971049311345395
66.0,7.770703391912997,-6.848826838331885,-14.619530230244859,-0.48677248371456205,11.210235035159101,-10.776835393260992,6.152983059676341,7.2835420851967365,9.937804879015527,2.1537110857271085,2.5977534675531477,-0.8497407614165668
67.0,7.455346785364936,-4.124134977514465,-11.579481762879293,-1.6182870553551938,9.528144106200862,-7.815592954795385,3.561765882825215,-0.21031831504686282,1.5085416971334022,-7.157169107385986,-2.8765961549907546,-7.716267437453955
68.0,10.061666871870434,2.4015574174618926,-7.660109454408463,-6.188530153971862,8.8730075512582,-2.5902752219837977,-4.315077290063904,-7.382159037792704,-13.616053620622303,-8.94405552132209,-4.567678374694977,-6.496927478158438
69.0,-6.567410754966794,-12.312129718454779,-5.744718963488012,9.40193952679319,-0.3927488538134454,-9.062968034221317,0.4922998850572622,-3.9125668157006794,-11.272558952260212,-3.147352746584903,-1.239657587782847,1.8490125361322765
70.0,-7.9715142370611165,-0.5036081147258056,7.467906122335237,4.199655277583786,-7.6917459269861395,3.454286075283786,3.203024348468193,3.498808162298624,3.2354589352135816,7.504871346106405,-1.379945747319796,4.676413759607667
71.0,8.23893648692446,15.365572405570886,7.126635918646298,-11.759880819616917,0.5146611704953781,11.225162944212913,-10.155264344826806,4.140730480199092,13.91234792653905,13.829379038592293,0.6891510528120088,2.4730059027728353
72.0,0.40636870835517325,6.567318037345415,6.160949328990075,-3.5207591541204284,-2.9121113878382916,6.4279294165208904,-4.881149651539153,-0.4458014561933423,3.7147120466523162,10.321997451061451,0.5988795699482006,-0.9035188223762565
73.0,-8.014002277314571,-6.748489091546289,1.2655131857681372,7.428817269790192,-4.6716661594772155,-2.7523678535032827,7.1589678405989465,-2.759148598992276,0.6725993154316328,-1.1897695764008684,11.516269587397371,-0.5508012673414018
74.0,-0.8425322929501209,-9.76051014290933,-8.917977849959222,5.2728198564437,4.084377802404388,-9.348703868860774,7.158574880249564,0.25894037144939086,-13.316362368761789,-17.468282572623927,-5.414765330000027,5.699879802470123
75.0,-9.331135446642485,-2.6538168186367352,6.677318628005838,5.965620333658524,-7.958897593668331,2.0006534814725194,0.7592112144176948,-6.516281843588093,-12.11065502350713,-7.925053572878331,-2.661564789401255,2.480849623743844
76.0,-1.5534250769227604,6.760467909322136,8.313892986245062,-2.550602393299737,-4.967250201285366,7.521494071959973,-4.705115666306638,1.9563312141528533,-0.7558355020873728,-2.7794425481958855,-7.569301565977058,-7.207325462610749
77.0,7.607823263076497,9.966585031152269,2.3587617680759836,-8.812877659219327,2.5936189894366892,6.218924502969009,-2.567641592036484,8.39037923253578,18.064146253583115,4.481234512805267,2.6737259583005435,1.246865670865068
78.0,16.61287579549878,5.352587546768403,-11.260288248730218,-11.009105523046694,13.99047960157606,-2.9840694804537726,2.984829098071671,4.096428228688476,11.988601603308148,5.424952670230523,2.630554143854796,-1.434058287324932
79.0,2.54486877187173,-11.85773009638218,-14.402598868253877,4.707226119389177,8.457536598656887,-13.16728692474145,-4.31446160368521,-1.5875152990339934,2.85840058418911,2.2195246705857894,6.57323298453009,-2.6510187657456727
80.0,-6.0580017782523505,-9.163486374661996,-3.1054845964097098,7.580236217815256,-1.4830882981318485,-6.097140069693625,-6.067869872297938,-7.816413980897867,-3.5716693598689915,-0.5983229323195323,-9.319284379542374,-7.155618843081511
81.0,-1.7074395860713851,4.423622469172565,6.131062055243829,-1.3134690872856059,-3.9184695760579134,5.23565395802957,8.15622134412726,-5.377196110049236,-7.566965893647039,4.731374497865745,2.4918539578570513,1.1777708248422978
82.0,-7.870729733507253,-0.5397891914483058,7.330940542058805,4.166546565085127,-7.596556032327056,3.4366935798334164,6.668979267524627,3.129793398159182,-15.6080563663587,1.590217583181401,-2.5714018023604197,7.652433382492404
83.0,-4.768176561356593,0.8103250128660431,5.578501574222577,1.9351879469338105,-5.1712128511122835,3.2427902495396164,2.8331216372758736,1.2753188834848022,-14.301743096074162,-5.311855307479124,6.570494542798901,3.685251636554618
84.0,-1.2243637526512368,0.14856820602020138,1.3729319586714839,0.5684510671475868,-1.3045056072875427,0.7383006698964403,-5.217312640735225,7.2457242176517465,-3.2948405109423478,-4.37067103480004,2.550782092777185,5.1248955550030155
85.0,1.0503061397450932,-0.25121397195689554,-1.3015201117018693,-0.37166326831501406,1.1576290811595724,-0.7933906315267754,-6.524680997764649,1.7767277052884327,39.74071317987225,7.943283873972971,1.3090783226087894,6.889494784903714
86.0,4.4539657475708925,7.487449805505393,3.0334840579346634,-5.942741663692338,0.6777907324728631,5.243844629766871,-1.8052627583851013,-4.15595456778119,20.225729260501616,-1.423412590959065,-7.746195351590754,-9.325146195183176
87.0,1.7727806133810375,9.771460671302405,7.998680057921531,-5.819747675401945,-3.0793117687405243,8.863099804623985,3.813564178036563,-3.6323511152112524,-14.629688190712772,-4.675603962273504,-5.223417058204222,-6.794673649303529
88.0,6.1056647725260325,-15.817753011791318,-21.923417784317195,4.814207256919855,14.039691861982002,-18.902126773346566,1.4769588052720406,-3.8063092797365203,-17.519943809184213,-2.954574234045793,-7.185509452214316,-4.880767673259867
89.0,6.941710938180505,-6.760668864229492,-13.702379802409904,-0.0462984479459958,10.34396662868137,-10.194898510164624,1.535699448256226,-2.116509967258538,-13.391809890581072,-4.286148103628814,8.06701951182603,-2.751732865385817
90.0,-8.767609290295026,7.967197203055523,16.734806493350554,0.45161424048330057,-12.728148758475104,12.379547463694944,-4.067248669712532,5.748286150968466,-7.020387313706337,3.9805506051606665,21.47590083741568,4.904945916645386
91.0,-4.739981847845844,8.947383390122743,13.687365237968482,-2.125905445758628,-9.26622626059683,11.342620437529229,-2.2570118816004303,10.102301220100307,22.508762390850535,10.16678313544504,2.657612914938409,-0.1322667645657125
92.0,1.651371582021854,-3.427665621094617,-5.07903720311659,0.8673242524037671,3.3150952852546762,-4.226511365560273,0.07547272450044629,-7.35508742936071,2.070384115559536,-4.226865380151205,-17.951190153965854,-2.961748276335724
93.0,-14.010613521591653,-13.743954695808517,0.26665882578307043,13.853283536378992,-7.110085863742923,-6.785979537596787,16.902383931713338,-3.1607618496296377,-6.236791278753842,1.9219432550735314,-5.29219821640577,10.64285006469054
94.0,6.445583419160081,1.8142698237987256,-4.631313595361351,-4.161075189537633,5.564030775165329,-1.4511298121382223,-11.810234897400196,9.891259991312939,8.265118846136467,6.035575373904509,-1.7120780199656567,5.907100223061022
95.0,15.59907361113758,7.750742112853823,-7.848331498283647,-11.636535794490463,11.744527617026856,-0.010134266566480837,-0.5016085667302606,-3.039920852853433,6.4430681179250415,-0.9729289974768253,-1.623973248383474,-1.2830381704222131
96.0,7.053105922986531,-9.93027175516647,-16.98337767815287,1.4681087732350253,11.955750904554685,-13.497435428298207,-3.904985399480585,-10.754401691741265,-9.824207090736714,-15.539971193812065,-5.272298810407301,-6.169236645802111
97.0,-8.130294856927222,1.8754367260620208,10.00573158298939,3.150562410968322,-9.053971497261365,5.976067104496161,7.227828335593855,-2.819206487595286,-5.896877302768491,-5.953914964619414,5.007229716600966,-3.737401908456289
98.0,-8.656969880710031,15.277553417716042,23.934523298426242,-3.368863045848939,-16.2799723331077,19.560043460104005,-6.066757229377895,3.0200231485105613,-3.8782960866081395,4.850226546310314,13.114755132762799,4.035749304914942
99.0,-11.321499835955052,6.25134510143971,17.572844937394827,2.555505253564496,-14.425297471958064,11.944194661989325,-3.035078859201994,4.458060834767226,-9.700819005260128,8.429851203412191,8.660150575345199,0.7425770733145998
100.0,-1.5306991860201427,-7.3180077722999455,-5.78730858627986,4.447124323272302,2.1595948298618373,-6.518042902525446,11.55015354746453,6.190261932894137,14.249060263474341,5.201035027552658,2.5143481152774942,-4.786565867700181
101.0,6.102455678351733,-4.004224768358613,-10.106680446710552,-1.1020988386171044,8.067594061889798,-7.015758065020556,-6.071124889116178,7.896090682829379,35.437911990644466,11.4678356458743,-6.190575323990109,-7.052660438867155
102.0,10.399379908838654,-5.859371637027582,-16.258751545866456,-2.241846062916175,13.301035004065106,-11.092591441007729,-5.493687070621497,-12.038111157720994,-16.92213937889465,-6.890800478346208,-15.785842107772293,-3.071081670115646
103.0,5.26476838509246,-1.0463929293126082,-6.311161314405199,-2.079954074405165,5.765334535695002,-3.708904429940384,2.7860260218252453,-9.635004766008421,-36.337934499347746,-14.0352088039146,-8.64344806305679,9.658054230561213
104.0,6.11744004286882,-6.718196803673411,-12.835636846542165,0.2506260224097603,9.533778554642478,-9.807383386586753,6.522947119904135,5.93089770659496,-4.908400911939147,-13.497014090062748,1.7416325095620309,4.20022835192909
105.0,-3.3204879904043456,0.8702798044630345,4.190767794867568,1.2532497439498884,-3.7797165411130216,2.4962560076447446,3.513274335929469,3.6486262669055813,19.279772475777328,5.214482808266959,11.857048801173917,6.33182210380917
106.0,-8.900951876082098,6.653204347441017,15.55415622352335,1.0729452736138796,-12.256471590915151,11.142984124193061,-4.335861065015717,-3.2863110060637895,13.585154642327831,10.931112379506853,11.048788745872379,3.0323753503515025
107.0,-4.536694909104662,11.245342931547519,15.782037840652352,-3.3251880271019987,-10.114963377000164,13.549213639854024,-5.042680382809396,10.25175198606611,10.649279402008966,14.836339539055377,3.8549314310279748,-0.1918664999005799
108.0,-6.167833354366415,0.42662194994540936,6.594455304311875,2.9031629653809006,-6.341511526054504,3.545637126390977,1.0918947354687916,3.392912932681568,4.707333579445322,7.098470058132791,-3.4682234157513134,-11.979624663602463
109.0,3.47916589940991,-5.95349114757415,-9.432657046984113,1.2746399571247713,6.413271282485832,-7.733706659301914,-6.281283012683345,-14.408951477023923,-21.435640153226306,-18.229578778319066,-19.128956569471164,-7.859477094817429
110.0,3.646796252618052,-1.852375679055636,-5.499171931673803,-0.9336629788826986,4.52808776473646,-3.633027471907428,1.4204309898389582,-9.283793822216355,-17.39195204687637,-9.260794652567458,-6.402185857395018,1.4104307966667236
111.0,-6.03307166525263,-5.894479299134858,0.13859236611765802,5.930132649313758,-3.053191180640556,-2.910535279848574,13.241913669779647,3.9495884269284973,-7.705536476861642,-5.925795824562541,-1.0087347076240216,-3.043421019249035
112.0,1.8797186843030684,-1.0097071478426112,-2.8894258321457693,-0.46914709624431583,2.416839159583495,-1.982378556358869,-3.5040868430603673,4.112518097332976,2.6391867453330153,1.4165888189425804,1.4593036535471178,2.677499117023892
113.0,13.079209966935819,8.05704658185567,-5.022163385080177,-10.527405173880684,9.004543702210995,1.479957272483749,-1.4351811389915325,10.28260122171732,34.767896624863404,14.017648248017242,18.217161046520715,11.666476717783064
114.0,14.780572817508347,2.839945221435152,-11.940627596073165,-8.775705153773046,13.394146245751962,-4.517039429041662,-3.837935135631597,6.221917705011405,22.179263778027163,8.336671247031575,17.57476092249177,3.052849934005545
115.0,-4.002137799826728,-2.823387227854845,1.178750571971987,3.361834247029334,-2.6343041083813867,-0.7977101995890958,0.5911378512331917,-5.37960813726683,-22.71894503955602,-3.3244942829014343,6.331213740560068,2.688571868678517
116.0,-21.784305181487664,-7.31044937103671,14.473855810451104,14.569528436285767,-18.092779638672518,3.5996611628093786,-4.109564658144974,-8.733794502316437,-28.458179342123923,-12.65636557290355,-15.79385377558966,-1.6802554278619888
117.0,-8.310347454497093,4.535536182288775,12.84588363678601,1.905936343331473,-10.540830199644283,8.705888575096926,-0.2263591735666839,0.17095756661228378,-0.487832608268322,-2.5356008506755243,-21.23469479366555,-5.707791597886439
118.0,-1.975675691073885,6.667560070399737,8.643235761473676,-2.3288420608966085,-5.350894972522525,7.593193089790564,8.599330707671658,1.4670124335168828,13.98380375727576,12.345744695681574,-3.794989653044656,-3.358168325443989
119.0,-0.6967336491060454,-4.331143454558412,-3.6344098054524094,2.4524763241448317,1.426139499088186,-3.9619342801070783,6.444445217693335,-3.7981918382321624,0.868380283338869,3.6394827226667927,0.03302469591182344,-2.6446251723980483
120.0,12.144157244747653,-5.135768841133534,-17.27992608588128,-3.4859965953770695,14.745653486696838,-11.181945870247906,-8.58808403750324,0.5598085319740878,-3.3540642371633647,-1.755547193308068,3.8701994687532606,-5.041692374013784
121.0,14.148680983312797,-1.7771905005680826,-15.925871483880972,-6.166703167200465,15.06779393066213,-8.822155386007678,-4.585397315728482,1.8155284195840091,6.35738251110248,-8.682630605991989,8.921352306764847,0.15599662925828492
122.0,0.40057174630285175,2.0766823893233393,1.6761106430204098,-1.2191755012607692,-0.6890818171678248,1.8272484087266174,0.8431653279109073,4.914128724111359,11.009005866781742,0.07112572049372723,13.464290000698035,7.648710808368567
123.0,2.9991428954353316,2.905026211752662,-0.09411668368272186,-3.011212698947462,1.571434351993643,1.3530609592854388,0.36674392054783655,-2.5471235532505347,0.5451347923194989,-3.3501371763306027,-6.637241155037412,0.22784157989658826
124.0,-6.474291946183137,2.9681594527217063,9.442451398904822,1.7733718577202784,-7.935818871289543,6.226447390400423,3.569149690526377,3.5465004729784075,-9.350752662381431,1.9169544577775461,-7.459885260080759,3.589672117534368
125.0,-12.76199277625419,3.552111132358144,16.314103908612324,4.6275446433499505,-14.51793059195396,9.949822334122715,-2.9583662437387357,-4.759235238087092,-13.757510986674083,-3.525149366894127,-2.593044998575588,4.911813436602572
126.0,-8.802530008717213,-7.34322965035242,1.4593003583647928,8.021661364772937,-5.192918372927165,-2.9260314283297837,1.9280003254051445,-4.007024977343228,-7.411483417660444,-2.6280711941141988,-9.05789092253323,-0.2760077468083857
127.0,3.0218874296591336,3.0492170921418884,0.027329662482758144,-3.0000910810744195,1.509289111029795,1.5587434977597614,-1.3038328052845092,4.957447862263306,1.8409056932785441,12.239149563276758,8.036972203653644,-4.761709003066407
128.0,3.4355042005676095,-1.9139653027002868,-5.349469503267866,-0.7150968764792154,4.3987258023931215,-3.601673888510912,1.0844147276270162,3.973509994386425,16.10784050200873,11.03467950750962,8.61101614234339,-7.427547244981163
129.0,10.875428024692663,-1.482515687072235,-12.357943711764861,-4.718930887569458,11.617314812541725,-6.956428028278507,-0.17001716844395032,-1.566563435669293,10.65018230448957,-0.9730113050715343,18.73602414962746,-2.0301165627004307
130.0,0.6942013524264254,0.8714070525749851,0.17720570014859316,-0.7968928293359747,0.2554462147193597,0.5005768999211639,2.51626114340594,-0.5664059358527165,-2.9642669542547786,-1.5289088826153008,-8.991592163636364,5.404858108644889
131.0,2.766028817233832,-2.808423563990014,-5.574452381223843,0.01082618641554256,4.167214043754571,-4.205336536055188,0.38743936344884133,-1.6137639342453882,-5.8352914213035,-12.897534366235966,-18.566984667601574,1.239791007645256
132.0,0.2640105052266423,0.5273057499009197,0.2632952446742337,-0.4083657918241864,0.0021999828790033593,0.3872789489606689,-1.6403352116188974,-4.686358768456134,1.8759614189044136,-10.204324258141044,-8.123541619721928,0.8962543293611249
133.0,-5.459450395043496,8.000760128378374,13.460210523421795,-1.2915544873085745,-9.448315865620353,10.724518212403133,-5.0419204637076085,-1.448516027566818,0.33300962868669437,1.6748126205162963,4.196212185851194,8.158165476346765
134.0,-6.071429437141402,-2.116787143326611,3.954642293814719,4.139607541090045,-4.9885176358311725,0.990993647776123,-0.6087071375830213,0.239837974820585,-4.831982718349323,3.0184081602197437,2.203253044029878,-8.490507382095027
135.0,-1.8683967512183695,-3.2149695861600858,-1.3465728349417443,2.57329739034339,-0.30152793829751623,-2.289754696949924,0.8355955003509398,7.478042326665358,-1.8817186279306903,10.688486344662746,3.0296282849969183,-4.367648474663633
136.0,4.063550737356492,-2.431995463511655,-6.495546200868119,-0.8754989387527858,5.328596510450982,-4.47583059605444,6.797090633125263,4.7983857285933995,-12.090351225027053,1.5013338925066364,7.975385544130557,-0.06878254386335936
137.0,-1.7171560833231747,-4.299145273526495,-2.5819891902032714,3.018347898558428,0.40799663757783033,-3.456066192543682,3.967923507282074,-0.8997042440952567,0.4643775082883239,0.6957423707977535,5.671005664836695,-2.065549888360846
138.0,4.572709322096706,4.639342861050166,0.06663353895349466,-4.599215232335338,2.226726134501707,2.3340372568956265,-7.00436099998724,-4.5695641329120775,19.1176075415692,0.0023076493114997376,-1.5732988092753488,1.1364216936002653
139.0,2.953936728682818,9.920648673028182,6.9667119443453664,-6.427741893932691,-2.0412721475534217,8.421812943272519,-1.4056664560375691,-1.9156583138488368,12.09877604101148,-1.2483631470125784,-7.246188795741171,5.9194601266933065
140.0,-1.6384856027479497,-0.3165351752857495,1.3219504274621825,0.9954834591777093,-1.4491229486947432,0.5578583933888077,-3.470231045318844,-4.957658803318546,-17.04585351824612,-10.511294982058448,-13.102878568085561,2.098888026983267
141.0,-0.6839976630912583,-6.133839088509193,-5.449841425417954,3.3607672887921156,2.400712128498452,-5.815651833566634,0.9116031896870005,0.13673916718321788,-15.270742916661241,-4.145988678917054,1.535374746514452,2.419612647413894
142.0,-6.16223170160089,-6.669140797755686,-0.5069090961548102,6.460925701844148,-2.820137630504698,-3.5321563131026563,7.312335656398863,4.536460276757758,-1.8043295566539328,0.5654012177785699,8.953788346351127,4.0939507510284745
143.0,0.6816973735182423,-2.321552954686809,-3.00325032820505,0.8006500172125892,1.845068995274372,-2.6843110577201594,0.5789853388937125,2.6354009635479803,13.933098469892546,11.24060587966271,7.5018026037835055,-5.7950776972354845
144.0,10.003253299464122,17.17276880222653,7.169515502762428,-13.595624910435504,1.4202830851404658,12.148916313837715,-7.893320536723401,2.806171257537632,22.817407592596723,6.497149466559403,8.35966168529239,1.7223976777243664
145.0,-3.219534301762503,-6.3051165290639455,-3.085582227301404,4.762298927328005,-0.05833789110021202,-4.719985039008386,3.1304743541051017,2.1517423625584033,12.715073864639642,7.884235724884146,-3.200001990461031,-9.401487500583887
146.0,-7.4784515854165186,-11.248815058902437,-3.770363473485886,9.366460274393907,-1.8380875546291258,-7.538470628592545,6.158191364015553,-7.619953620275409,-24.86186856455648,-4.312642398827958,-14.38377312049111,-12.166814846260445
147.0,-0.03501872334122913,2.104566160946038,2.13958488428728,-1.0336734534073795,-1.1428658500248698,2.16712245260988,-5.534810919062799,-4.182124760651214,-26.563845899916277,-10.42982304169281,-6.363821668539444,6.165791763887683
148.0,8.271893477475981,9.76614515820305,1.494251680727059,-9.023498360832201,3.339262104558044,5.671461381622455,-5.746288938817795,-0.029412890543015102,-4.6899567377798075,-7.896513541457469,4.709002290044523,9.275426816446316
149.0,8.060756694566818,-0.0828628094410151,-8.143619504007859,-4.001891165252086,8.136344129335114,-4.1523336345401685,1.9746200834621095,3.974295241852981,4.91522507738363,-13.713506174334128,-1.9568671745114306,0.24668085998870026
150.0,-7.09354058870895,-1.6927776822191178,5.4007629064898115,4.448519395677177,-6.208116637228607,1.8943874092687003,3.5110661667425545,0.6957228019683903,16.275810241134224,12.064134965920244,1.5249374654166221,7.184534761449713
151.0,-11.287794556576426,0.01989246625515273,11.307687022831583,5.5988506111603655,-11.253203598151304,5.627756154563878,4.997304756229585,4.003874277635453,21.560758611526126,6.819337744414833,-2.442195688253083,2.8768220428784255
152.0,-10.869871591967916,-6.386304953529233,4.483566638438721,8.659417121087202,-7.705140205441843,-0.9847046135107087,1.299725667037904,0.8068938522673414,-7.269155872342941,5.520212210075201,-0.24981833707910495,-4.0434524058740084
153.0,6.407944875444643,0.7361757011514962,-5.671769174293096,-3.6314886178768795,6.016084540754191,-2.4204116433643605,-3.9224115572836906,0.20788415291914408,-16.84327723623744,-0.07971160212840189,15.888330842174224,-3.196577342827075
154.0,12.425190298526342,6.900941678093575,-5.524248620432731,-9.653965071446857,8.952584126425482,0.6575776432980196,-2.973602909349928,-6.080144704863902,-7.308574812646274,6.248945496490983,17.71150576687489,-4.766773341811097
155.0,11.348401032648992,3.9222123839231102,-7.426188648725871,-7.632681219668291,9.441172525455984,-1.7048877668484281,-5.89071464702373,-4.542686918266416,11.390751806257244,1.453279267632399,-1.4251326126124146,-3.8952629802984795
156.0,4.261183645305589,-4.02114709669193,-8.282330741997512,-0.11821066416052028,6.239658438849322,-6.185379684401366,-1.9765142729332972,-0.5774519359207222,3.2757211162691906,-9.024144639336019,-20.7249851602556,-5.581389335804593
157.0,-8.69374617799998,-8.479565083573128,0.21418109442685673,8.594333526981165,-4.4963709398092515,-4.168738596760672,10.027299752230649,5.900093274383618,5.711232827570273,-5.967734710533994,-20.411307989241415,5.460426901072199
158.0,-11.204924888823289,-4.064223256510525,7.140701632312771,7.654208090998946,-9.147205643301195,1.578949502393252,2.391300051231597,8.55655523538476,-0.16112270062885736,-0.8965385933436272,-2.356129316107756,8.929077787147094
159.0,-9.479066844929012,7.286686022751518,16.76575286768054,1.1313798511737838,-13.104833578585131,12.066049392961634,5.334468448338871,-0.2371796188115569,-7.5448096553383,-2.022140334754547,4.958776959285968,7.228567140538422
160.0,4.370374615302065,7.220855270226493,2.850480654924443,-5.823889887543818,0.7747737396175394,4.997331322506257,-9.738944308569431,-8.766378331029234,-11.565745403715226,-0.49907643165167626,5.24680468836686,-1.7713368899360447
161.0,4.839752533558041,3.67177358148965,-1.1679789520683714,-4.2730853613469915,3.022389534222931,1.2155553735396536,-3.385655599933369,-3.0556288388879573,-2.4875004159402447,5.733912731158117,12.132228997077146,-2.902760681534736
162.0,5.2766658534365005,-4.816777805278305,-10.093443658714785,-0.2434562722605622,7.63439434107673,-7.409654254071642,1.5934773442269687,-0.8052286294759385,7.92262002176557,6.233789099391441,7.414693831475985,-3.5529130969803235
163.0,-4.6833478911045745,-14.747550049734421,-10.06420215862983,9.698128221052688,2.7319194348678444,-12.435617100883354,3.1068654596773864,1.2141339761003875,9.898231871994502,-1.0528967979552117,0.5618500655481089,-5.883775256991029
164.0,6.084891588762726,5.845847666134136,-0.2390439226285883,-5.992060903917613,3.1391703451802804,2.855787269310988,2.8173028170710857,3.7505456610938563,5.407660956948836,-4.220740714191466,-7.254392303283028,-6.410744055685337
165.0,5.293257336287022,10.936162832414734,5.642905496127702,-8.07381077101647,-0.18481897904592892,8.265648959954104,2.3789422850826822,6.659488379506818,-2.1616075925665994,-1.7674541204322056,-5.7500154055499335,3.2388379475114406
166.0,-11.535808873658056,-7.790355966463124,3.7454529071949194,9.695026679051029,-7.641488880045176,-2.0453195757107427,-10.265743269314113,-2.6923304857865924,-8.50959421106818,3.4094178943173135,5.7930929144673105,6.9669356549945824
167.0,1.029998025682053,1.518747905908209,0.4887498802261465,-1.2464722789098324,0.2742436919626625,0.9802525839407463,-3.1154832473773846,-1.3866756724933516,-4.0546222077735985,5.368063676329409,10.50221215055727,6.355483965855136
168.0,8.870789553810676,3.596570942356035,-5.274218611454618,-6.2830825078154415,7.07589723710468,-0.7855678042878995,4.184470432536214,-4.572396901505739,-5.148990125580708,-5.370233025420131,-12.439969063300367,-0.8097536643220442
169.0,-1.1606128488323773,-1.0430026360388611,0.11761021279359651,1.1366721727751885,-0.6400772903305629,-0.49097619493074873,2.3674540175574306,-2.671959444228337,-2.4048605917600456,-7.967003079102875,-18.12243983516774,-5.501638393408246
170.0,-3.4286203937366118,2.2738184788193863,5.702438872556103,0.5405806512641105,-4.57420771594538,4.035649978488231,1.773841551230415,-1.4985701668007625,13.990465055069116,0.026010333186668344,-7.220783917198617,-3.744918638747632
171.0,-0.8532156277515484,-6.456799774578592,-5.603584146826934,3.624339224527796,2.434890061309037,-6.0640203777798165,1.0085545314031736,3.6793033680891956,16.336838804544218,8.068868438752467,9.374173690959916,1.2356422409075596
172.0,-13.380422237175319,-4.4611442542867,8.919277982888657,8.972601912719236,-11.181317579628097,2.1934034258236554,7.099608274237297,7.392636025453762,0.5338978549624303,4.744771132547189,14.717213413507737,5.916226795476161
173.0,-6.4296195589481355,5.499821385777291,11.92944094472533,0.43909862960672275,-9.224739753330063,8.75703641878934,1.0426853489324936,0.8167792796050635,-20.93071125654579,-3.3596359133538543,13.53615748500886,1.6176814729771216
174.0,1.4037189915258919,-1.312202000516538,-2.715920992042598,-0.07213567108332253,2.079501385304624,-2.0496299771952016,-9.236950599986915,1.4095748677047815,-20.80631550313597,-4.533441587252528,6.093353802876582,3.5859055001613593
175.0,20.98659256879419,2.7365814356238025,-18.250011133170535,-11.810116586623385,19.625775257755176,-7.711303873180522,-8.319806167381687,-5.9868884639492395,13.931430101537144,4.766030199733966,2.7831094088503248,-2.5377489576126186
176.0,11.979339997759649,1.2534259760584217,-10.725914021701204,-6.6437536549765515,11.351595774954006,-4.766448601779059,-0.38898328079149547,-4.648413155612325,12.986745441772783,-3.2930167382380393,-17.87494739424139,-6.9695113132082955
177.0,-1.411677985368132,1.7413701836394329,3.1530481690076724,-0.11240914609018793,-2.2864431255874917,2.49867248772227,3.2939661083067158,-3.7331688671371905,3.511220374389472,-5.494221785860144,-16.764587374368055,-11.126034402454888
178.0,-5.02786517931335,-3.650817454582798,1.3770477247307413,4.314637202776616,-3.2033271548294486,-1.1628627302297803,1.7044964741339834,1.302292488001103,-4.519976261619379,0.24802654775920874,-8.165567384676397,-1.933999712415949
179.0,-8.505792098033982,0.035868884703950776,8.541660982738078,4.21122977117887,-8.515759462536789,4.261388491879531,7.5115954787585695,8.108411941089988,-2.4346739238600006,4.984962564730262,3.4090206479417,12.45707824521533
180.0,-4.551028576112278,2.4741411036717835,7.025169679784136,1.0138909316327513,-5.767847547438903,4.717923865775622,4.062297694098702,2.0158866627425134,-0.8799790415736024,5.705099526742853,9.67228058411049,9.111470906282124
181.0,-2.091530032474741,-1.2900391015797685,0.8014909308950147,1.7417977054146672,-1.4138689946919119,-0.2037578363040371,-7.435445117247666,-2.7739812143054383,-2.8825817685866384,-0.8244260363811295,6.761270830390121,-0.13271786308263422
182.0,2.5314075469561033,-4.621510921007092,-7.152918467963231,1.0120303707076668,4.804979914186378,-5.853763577662839,-5.7914116939882305,-1.9289859066937682,-1.9633647331968318,-6.329489625420468,5.828318980045936,-4.940643750156439
183.0,0.15484753527798167,-3.1410275486665364,-3.2958750839445945,1.5324601182788735,1.6910745584107176,-3.2696255862882455,0.8753845917294072,-1.3539147044564634,4.579207757927278,2.217150650398991,4.636939439520827,-5.269305225065057
184.0,-1.1918207437740462,5.5351317503595086,6.726952494133447,-2.2169246889902077,-3.9973477597030422,6.155252993586726,0.6701793482646392,2.5155758657274525,3.302070871054931,-0.47818229333559437,2.435643028696271,0.20410887809073675
185.0,0.5615338312990037,7.361567538617849,6.80003370731878,-3.9317543734131397,-3.0869820077379364,7.104682284704299,4.065511549339757,1.9817669329791507,1.8924874627113073,-0.44978851353017324,-4.5458425257330966,7.177682127611104
186.0,0.28575152433594164,-2.2367652529295223,-2.5225167772654276,0.9266010198984147,1.4262880882666735,-2.432147768664204,8.002755805387432,0.22204102771204526,0.22091837102902062,0.7865701211057808,-13.254220752582007,-0.5034520360417496
187.0,1.5482622581241845,-4.834763928860618,-6.383026186984701,1.677715830512127,3.979503351984487,-5.578642887084383,-2.289363509152817,-2.932342393407406,-4.016402424346624,-2.6979959606180013,-5.614605587378226,-0.9772283356055692
188.0,4.702843296430295,-1.1475310455528533,-5.850374341983013,-1.73429488964793,5.286250907357546,-3.4644380976389226,-6.176236391734114,-0.9573705119541351,-5.668429422999875,4.138231848968,2.6590507831313444,-5.440340891043885
189.0,3.961792648645649,2.1550692224468726,-1.8067234261987024,-3.0822756350128495,2.8942259172818523,0.1331598674460026,-8.185204252494152,-1.9717212133967128,-0.01702314834573393,0.9460478096046498,7.47145134153527,0.685956995081018
190.0,-0.1921991177969411,1.056128200320414,1.248327318117402,-0.44429997359010653,-0.7064958548723366,1.1126506319837226,2.003776407474867,0.4193055412841691,3.8791704053354654,-0.41212808119023114,5.739984934007413,2.0022861242323646
191.0,-4.916629348144593,-0.8604098320618787,4.05621951608263,2.8846406641029496,-4.545805147701266,1.6368031030608505,0.7393628435013602,2.3422420963151858,1.5461730673467504,-2.1179188049421898,-1.9546946400042327,0.575533945941769
192.0,-3.114055034758053,1.00169089364029,4.115745928398194,1.0552382019926272,-3.668107963690302,2.5964906378470403,5.530389779906631,2.4724592647547667,1.6320136328466153,-1.9254286936060232,-3.527337173630207,-2.573857570431819
193.0,-3.896482976537094,-5.2430323410872655,-1.3465493645502793,4.565009219182641,-1.2429493173763841,-3.3364322356084815,4.259820718921718,-1.838864030034646,-1.7701633241862285,-3.7102501162144,-5.62343765473744,-4.50719673727829
194.0,-0.2493889379670593,-0.7674232715224822,-0.5180343335554314,0.49344633667657667,0.17350086852699453,-0.6832646742938326,3.201409295829255,1.769104671038935,0.11454379600879272,3.7305094307657183,1.8336396774599903,2.6834406958863126
195.0,6.104673892759028,6.695233522733014,0.590559629974081,-6.351028116901374,2.8042617684089173,3.6848039045189473,-9.88632572966721,-1.213036863320624,-0.7537257193480047,3.405612888516239,2.0048061134366426,2.768642510847112
196.0,-2.372452510970061,2.731343081313691,5.103795592283918,-0.22606680939599944,-3.761514151495587,3.965660528561116,-1.7412384940935657,-1.2308336136364986,0.8988659631403707,2.613506395944854,3.399590708359354,8.22085521629039
197.0,-0.6930158439101073,-2.5116641913308877,-1.8186483474206083,1.6188143191533861,0.5460529769099673,-2.1883547633770863,2.8981921745681953,0.28838397679021366,0.7295865640843749,0.436941428510879,2.7257669284076345,1.3640442094694798
198.0,0.8995436472502947,-5.244818653972247,-6.144362301222468,2.177397805015773,3.508433338483291,-5.711143619325487,0.4716968009496362,-1.6020311636564053,-2.2407809036017063,-4.662624163931218,-0.014454052623739,-3.954047455127474
199.0,0.3375992622523408,-1.1153933769517255,-1.452992639204174,0.38784857231325076,0.8805512677202718,-1.297202834958552,3.309780286261855,-0.22604731958218016,-1.6396747194312746,-1.9796819690131473,0.012120229979308617,-5.889259808799872
