Time(ms),I,II,III,aVR,aVL,aVF,V1,V2,V3,V4,V5,V6
-200.0,0.34726355028506545,4.385092943693366,4.037829393408363,-2.3175495693740853,-1.8794916796953065,4.166199510087862,4.298742203049731,0.48164498407282563,1.9550782680010368,2.324124396457779,2.618234016398014,1.0792191486000213
-199.0,5.607346235061298,13.602534402113001,7.995188167051793,-9.552066198818531,-1.146248018658031,10.822444929754962,4.205534609806535,1.8375218661775392,5.9139753287617465,5.587224861831529,6.681803172979803,7.594273122848364
-198.0,-2.2675704780930634,2.1970902306653883,4.464660708758584,0.01248274809325478,-3.393384064940798,3.3500543153691673,0.1265000942210317,2.2534405202259284,0.3326787638461335,0.8098186969740455,1.7899386608441965,5.8346760472258286
-197.0,-8.927092222997615,-1.4789187947319062,7.448173428265846,5.180337858151582,-8.210689109506204,3.0061906025063925,-0.19467739486981384,-1.2652707536708683,-0.6711255278731805,-0.1938004431003415,-3.914327342726325,1.3143796948706385
-196.0,-5.00207787480217,-5.896895289637805,-0.8948174148355057,5.422825538666887,-1.9936228644103937,-3.444464149078472,3.4606157384582903,2.609756878787422,0.10797029323169521,-2.101239783720594,-2.897541774123243,-7.672024174582464
-195.0,2.319446579259075,-9.590755917586637,-11.910202496845683,3.6013471896698404,7.1000735563824975,-10.707764350411802,-3.642818841797544,-0.7875228052585778,-2.1603265839795065,1.0157734230866022,-1.2129427754316675,-5.333417855088132
-194.0,5.726725756733525,-2.467233020936079,-8.193958777669692,-1.5947206734835775,6.948732631192923,-5.353116309182536,-5.048055388845629,-2.633048125048333,-2.7596201662879043,-4.222276951725724,-1.4601338284726717,-2.2479237082327783
-193.0,3.851557042653565,4.863361718750621,1.0118046760969017,-4.33106834062677,1.4100903201788277,2.926554601592162,-3.5553549513264064,-3.0274662811908595,0.6573819383454984,-0.908682049616298,1.3946623536917448,-0.9514874373503912
-192.0,0.862790956797328,9.101158487165327,8.238367530368002,-4.961331151767274,-3.697274097957152,8.666131365043157,3.190497772745557,0.6573399611732216,5.390657204068066,3.9068206406567474,1.900882107679223,6.17175066456412
-191.0,-1.08579830341587,8.224155103820857,9.309953407236796,-3.5505534454711873,-5.208473633509313,8.76597583902443,6.203226942658256,3.493532081848083,-2.8132922432596863,3.3850128381814555,2.356378629209398,7.728615075401729
-190.0,-2.3354271441032983,-1.2684561484719734,1.0669709956314808,1.7430130838543045,-1.6352808421978282,-0.10359410500284927,1.6715048964943264,3.793024612293739,-2.7394911268869193,0.27900379745883663,2.1020709356578364,4.852576305804064
-189.0,-1.523690106441407,-12.104442384874192,-10.580752278432621,6.837006571470147,4.512622480385411,-11.35023642523995,-4.627732649177396,-1.6680952930002433,2.217327825273631,-2.521975478464693,-1.9027621559951933,-8.425723045104505
-188.0,1.252527107066936,-4.707360377676437,-5.959887484743277,1.675378093610341,3.586616369969321,-5.268856193163508,0.7101554431558721,-2.3662386373834132,0.8432492507773902,-2.4025763104698257,0.25527857852221714,-3.334606792488163
-187.0,-0.3255374628138635,3.301835057799547,3.6273725206134673,-1.4577285600817769,-1.9999788719995966,3.4438190681256335,0.777701108797553,-2.952449595254893,-0.8984508212380937,-0.38853442340967326,-3.852481767192376,-0.8631409109675947
-186.0,-4.251509485159948,-0.39671516485296765,3.854794320306917,2.358058581337585,-4.080254767901873,1.7015798626890548,-0.06729448671081328,1.861922084834354,1.8461972951122063,2.4058829130603003,2.0435719713312315,0.7672524539186643
-185.0,1.0504522522806483,4.2241600010066955,3.173707748725832,-2.6786250933427493,-1.012497352489821,3.6651919425326644,-0.6739266043140498,1.5233190522118691,0.8782049100713567,0.2622250006900416,1.3103765239193286,0.5766201149935666
-184.0,5.466657708512672,2.5960130904468097,-2.870644618066113,-3.9904539233802057,4.216729944145542,-0.09798724299651962,-2.529683075513948,0.36308981298698606,-0.8865007685341911,0.20120702928403666,-5.90025240394889,-1.5212436685372452
-183.0,0.5657042913499954,-3.7651454798717303,-4.330849771221904,1.5649314982837716,2.4177657209363215,-4.0134800487889395,4.018231694353233,-0.833412385510387,-3.651252748364109,-1.8021916536184828,1.4421930658455167,1.0432156866340483
-182.0,-3.3045336066424853,-4.347330738447701,-1.0427971318052633,3.8719844397050185,-1.1608901746792293,-2.7429567113802857,-2.716824821153357,0.5248929277707117,2.1147924311663875,-1.4645731694863646,1.231804300899853,-0.8326098090967
-181.0,-0.8139836762348154,4.033669902671651,4.847653578906598,-1.6420538604026131,-2.8611341606198164,4.469262659854595,0.6396123293320642,-0.9286063288574591,-0.48677495588321434,1.4825721033558121,3.8741435184901585,2.753431175566453
-180.0,4.294683145112452,5.699402725244599,1.4047195801323915,-5.030633849986943,1.4914572482505777,3.5012875912535066,2.8141631661316224,1.3256847919960715,0.9809793120505166,1.187833083608119,2.4169574468567037,4.544954754208131
-179.0,-3.7133679812179508,-0.3001185203674688,3.413249460850711,2.0489682102287983,-3.5208425702546124,1.5857076874400131,-3.2483600373991397,-1.8838170128855771,-2.7801581135432025,0.10870990103272937,-2.1332394900886538,-3.203084144877635
-178.0,2.8011829437005984,4.210631377668163,1.4094484339676325,-3.546100960487874,0.6537288604344345,2.8420643279376616,-4.064794526754403,-3.0123272330689286,0.2744512164445701,0.9392435199213476,-4.087676641272804,-4.099628945637319
-177.0,-3.3527041725741986,-4.664025318578352,-1.3113211460041787,4.043486610319436,-1.0696977862153567,-3.0303064075888178,2.327214975779297,3.2391937859650466,2.9600659799023665,2.357341167685907,0.06419000413117626,2.641780938318665
-176.0,-2.405061486533034,-12.336581620562825,-9.931520134029846,7.403417661345818,3.7864836464765306,-11.093632167724714,2.640750238765991,0.47687325234720834,1.2979024304474536,-4.5593863748692955,-0.26457882413341305,0.5787197682758655
-175.0,3.389157695315469,-7.529649738239962,-10.918807433555456,2.0225877151370377,7.1727436100183475,-9.25935919794206,4.1575410063220275,4.264962942053354,-0.18023587955668563,-2.1030866900718657,0.786497358542912,-3.57458391683088
-174.0,2.1419826121889405,7.355855301757934,5.213872689569023,-4.71869611230244,-1.5184198932294524,6.329360181814109,1.7835987307222871,1.0153291197876522,-0.7123886006977675,1.962721406793172,-0.37997032468120184,2.098939025848331
-173.0,-0.02897433514366421,8.63773612226127,8.66671045740496,-4.353702461060642,-4.3279201463851855,8.615860871500255,-4.238727620941828,-4.059874524285273,-2.4675628850557563,-1.9914134490039261,-0.867068079558079,-3.462073469195209
-172.0,-4.4441518060222105,4.779604055088311,9.223755861110524,-0.1393934535488719,-6.887403778005817,6.960475058218038,-5.500929818566632,-5.885551482503767,-2.2894084144364806,0.4577687632427243,1.5206222145056998,-1.0246462542895156
-171.0,-0.09561300255974414,11.053939905677904,11.149552908237654,-5.45221297984091,-5.590286100411071,11.132905163983516,0.5601490801963518,1.3700683139861938,3.310917470526748,6.4371198438909705,6.9577119080638266,8.311607436211903
-170.0,-1.3631924878906134,-2.25495738014462,-0.8917648922539776,1.7560193658201475,-0.2750587153341848,-1.548392829012644,0.9953891029843694,2.28039495923057,2.7350123661441526,1.3983842021178128,-0.5497671798285246,2.208231998010911
-169.0,5.944883736779461,-14.52662234087351,-20.47150607765299,4.316116126845945,13.253674480742026,-17.47844677446375,2.306589944780489,1.378110806901398,-2.1972156063588533,-3.843166521579806,-5.631377114014619,-3.883747583414336
-168.0,6.139567911879021,-6.566686859928108,-12.706254771807064,0.23992306023807242,9.394165828669703,-9.696143094695863,2.332044110994662,3.6941998762189407,0.4496176080466864,-4.350433986227388,-3.8888380547639563,-2.796640655766829
-167.0,-1.8658529951744827,-4.408771225420742,-2.542918230246194,3.0882165507767434,0.31286466876859453,-3.455461818313448,-2.929308893221404,-2.3228219511055896,0.3010449157557348,0.9547241777306397,1.9018050246463178,-0.05957204419186235
-166.0,-7.2218369956014925,4.340309493501364,11.562146489102815,1.4761447170047788,-9.336801791382808,7.974922964083736,-0.03711226402053758,-1.5135928118550412,-3.4916296635158837,1.0393746822117582,-0.16830852632619853,0.44681236271053026
-165.0,-5.511043987257715,6.409477415851454,11.920521403109007,-0.48466193565251026,-8.73772486922276,9.192624247001138,-1.1729589105040625,-2.068741635128725,-0.20585148685708288,0.5057380550596616,1.596204321231694,0.8764151702722839
-164.0,2.9915385194140236,4.242014455051658,1.2504759356374606,-3.564161952951731,0.8498506026051373,2.6982428816970154,1.0157369750945788,0.5710249288812914,1.3853687292209396,1.2852818045371242,1.1228840512082536,0.8324404744560208
-163.0,4.375104219046686,2.857784261088008,-1.5173199579587693,-3.6332017559747296,3.0048138538956612,0.623664952235782,1.8857585416333538,0.887303282127768,1.136946124964793,-2.6266083695902265,-1.4700284493097524,-2.7651470300194596
-162.0,-1.4480754732598515,-0.15371649386824027,1.294358979391659,0.7920323011291988,-1.3923240942742479,0.6022823735747003,-0.4006344412904698,1.0642687539868279,4.314118266551853,3.1071685264346875,0.316691460232301,-0.7367450299421703
-161.0,-1.8721592693402058,-1.9210695748595334,-0.04891030551915554,1.892821521297245,-0.9359660322968772,-0.9540450708909274,2.0912606854805236,2.6165882243592433,0.7742284649145483,0.02585524048975274,2.5857928792593814,4.042189822121235
-160.0,4.425507252309007,-9.62361782413582,-14.049125076444652,2.5968423484625003,9.207108005339546,-11.805999915708389,-1.6733485356051514,-2.1234597487951348,-6.970766176585075,-4.11487268530574,-1.7385545027378584,-3.292912322253123
-159.0,-1.645844321691827,-4.443380366641054,-2.7975360449491316,3.0407448300410116,0.6162510914839623,-3.667850703709936,-2.533175992992798,-3.5297424028447133,-3.6954173823522494,1.467174277180203,1.847740699238463,1.9579331195896372
-158.0,-1.2403056060287827,5.744870640589283,6.985176246618058,-2.2599452925558157,-4.081692730579819,6.320883625333174,-1.276904586089461,0.4579720413114594,-0.009464424611290934,-0.3201380639860116,-0.103715897678546,1.7432262444104953
-157.0,3.6785197861545917,11.399542643024011,7.721022856869367,-7.5511157288204345,-2.0780744096224852,9.600588031575365,-0.8809786268368377,0.5661117876357039,6.5305004120596575,2.710226271214463,-1.6385494570190564,-2.609844975982422
-156.0,-0.1271032872552055,2.0643949354615474,2.1914982227166293,-0.9056890743035848,-1.1447435843382028,2.175931079595399,1.1879232785561231,3.7441440107420094,4.603549708209656,1.3228436693608707,-5.34097922486361,-4.316435706841123
-155.0,0.7875606511585382,-5.391750906168854,-6.179311557327503,2.283959014903402,3.4936396948753323,-5.807763079703225,6.766783752714017,0.8752669857540682,3.1441829996034514,1.9428821309528046,1.964804466026985,3.9399553582141142
-154.0,-4.596783499784678,-4.0932226275249795,0.5035608722596607,4.325680189210376,-2.540538971972018,-1.8092539052131411,1.187701523437994,0.5123873276130481,-3.997945768004252,-1.2451148835867438,3.828888047763666,5.415080412331165
-153.0,1.5058351579949927,-3.7115034545021612,-5.217338612497102,1.0826420149642044,3.3745563051564336,-4.47326732201404,-4.365084268059623,-3.182432866900632,-7.485709161263083,-3.923253405822298,2.764767684326966,2.005916301282815
-152.0,-0.6518409579847624,-0.7090075387920829,-0.057166580807231915,0.737454352086663,-0.3563788670715282,-0.38944833553836045,-5.892759589034156,-3.7454349328980916,-8.959773642002688,-5.051513056465371,-3.462593300047485,-5.511660480170876
-151.0,-5.809384739676945,-4.661215338489107,1.1481694011879533,5.210798107793085,-3.449908502161742,-1.7634118330370372,0.8559623640812029,-3.019945550325052,2.911648058686183,-1.1699754681305439,-0.9477945313806742,-10.420682323929334
-150.0,0.11781983455619693,6.280256804885538,6.16243697032939,-3.227421417143096,-2.9831325707419962,6.211774340720098,-1.6920214161129514,1.5303919220465723,6.576581176200111,2.460414440746287,-2.1958475397513935,5.102765854301881
-149.0,4.3717511185431,10.290739830443687,5.918988711900542,-7.363619600740062,-0.8031320749115097,8.170325264912293,6.1804666107316635,7.0572458367959365,9.66817959885979,7.696203513455457,2.2187158426522826,8.47497708393115
-148.0,5.0356188970183595,2.89765353942201,-2.1379653575965114,-3.9228646682477804,3.5657669561246514,0.3626410388083534,5.272119352510676,3.8926728391004977,3.5398107688887883,4.528875613657977,4.11131988317849,3.503181054466842
-147.0,2.6253834289335773,-5.782420179090457,-8.40780360802422,1.6223858249496295,5.5014110180761095,-7.116163356415741,-3.561835461809212,-2.344272096423947,-6.7330076309656635,-4.646490981896761,-3.0902295717642465,-5.820839703253329
-146.0,-0.9288120571076035,-5.280646236068639,-4.351834178961109,3.073040514260502,1.7775565506857545,-4.841288127989108,-0.9678379767796572,-2.5309695792851707,-5.211235763245298,-5.182394591997943,0.10932473022631817,-4.08287192878782
-145.0,-1.237785409867708,-4.430283648500256,-3.192498238632532,2.807753788750412,0.963409243293019,-3.762201744436045,-2.056549210261272,-2.4847852336988847,-4.05456004130197,0.9667732442393988,2.3392262376032624,-2.3449220545211507
-144.0,-6.6682570664330765,-2.2375631097399387,4.43069395669316,4.511029198844892,-5.568343292120274,1.061773988692397,-1.4385885633560607,-0.5764543066389449,1.7532645315097928,1.0785141439709331,-2.626032129737937,-1.7725676090570812
-143.0,-3.3029680176634253,3.311938828347766,6.614906846011261,-0.021623078884651203,-4.985835241604044,5.001610777718071,0.43984564466559073,0.12139893337953733,0.6409350207203283,0.1442898483938302,-2.0756284700929073,5.299971322240931
-142.0,-0.0033270446440019086,6.317048094388133,6.32037513903223,-3.174596594132715,-3.1199459535589806,6.27249577886634,-0.6023534289995816,0.5469828316180927,2.833476334482806,-0.004390731090715333,0.8727012569255567,5.086856018448362
-141.0,5.29782765236784,2.574146126768138,-2.7236815255996207,-3.9590713266697737,3.963738189400526,-0.04666868248139222,2.14674180517684,-0.5270905744573506,1.1592885164004332,-1.937034573556348,-3.4611365476196374,-0.8344855966526517
-140.0,6.914224581688961,2.5826495628571298,-4.331575018831798,-4.780625335150026,5.646026176604416,-0.9270295240869756,1.185612541569096,3.8154740792643596,0.9929298435169265,1.5256761534181904,5.440157555996922,-1.1496600868607982
-139.0,-0.506915282559576,1.7107027781717752,2.217618060731379,-0.5658705570278633,-1.3448437605836072,1.9919499222552786,0.5594086720872629,-1.2292042785755943,-1.2535265784141452,-1.255302468888064,2.8707014288525494,-0.008503966508486505
-138.0,-2.955838824795215,-10.598434011764079,-7.64259518696891,6.8038723398088745,2.358463975331074,-9.087511213433384,-1.3549200912602795,-1.3875529842828547,-3.503081977672519,0.1323445445102563,-5.314235488161028,-6.078914372364027
-137.0,-4.646520404772931,-6.308993754915562,-1.6624733501426903,5.498380317235275,-1.4763793443723763,-3.9451502577386393,-3.047847371771943,-0.5993723559617881,2.1770372804264095,3.266249654041194,-1.530051994384103,-2.526186188184676
-136.0,-5.259411905786057,-0.8580123741884713,4.40139953159748,3.0768759305039315,-4.89106716369325,1.7410804943901281,2.322436786476665,1.8077191540019824,2.863027818840797,0.2423323510651667,4.441259344965462,10.212280272985389
-135.0,3.0654909498760574,4.907888219634822,1.8423972697586577,-4.04692858986552,0.6330551405005527,3.3493828887155144,0.9345147485743428,-1.316914806891764,0.13331722208709584,-0.4313898278245937,1.2969659373934035,2.647894918853455
-134.0,5.403255526303106,2.912540150778905,-2.4907153755243074,-4.137623892198956,3.8937952026316545,0.18555107558807427,1.1301272131169502,2.639145054008377,-1.0229914835110614,-1.3420871703635253,-0.09081887911221312,-8.279023895694598
-133.0,2.0122883154781466,6.992777037861593,4.9804887223834085,-4.558848462783132,-1.4536704128184763,5.9572561562418755,-1.088285100196725,-0.6843704290625208,-4.402211386943976,-1.7523051332099917,-1.8266425049666934,-1.9676586724137106
-132.0,-2.8140092218443424,4.638568497690048,7.452577719534388,-0.8874315590575783,-5.096986659906103,6.088381833313447,-2.6861251487629123,-2.0061366821358586,-0.6405202504643197,1.5376302929114405,1.9677067904457723,5.777880422404911
-131.0,2.374513004864335,-7.286911695393293,-9.661424700257532,2.4843044893833843,6.060725847101603,-8.437629999181024,0.10266626281169011,1.2562681133032743,2.9995941116485048,0.21777776936594417,-1.2976709203076144,3.004184951798824
-130.0,6.188451993666595,-2.548557014654242,-8.737009008320653,-1.7870041750023482,7.432514134325657,-5.6884124072818665,0.8946922869196174,-1.7523169711592077,0.010903170442561061,-2.3849074081753976,-6.034263707594612,-3.8292950835281907
-129.0,-8.58237116617821,-6.415808548745588,2.1665626174328514,7.459999094354376,-5.401148678480783,-2.0908507947961916,2.9763762153926936,-2.417825676668499,-2.127873295341397,-1.2849348520306094,-3.600994758532163,-4.4542223010029
-128.0,-10.143391501777268,-4.4506113326328585,5.692780169144481,7.266100073296721,-7.944462625106515,0.6590336784450264,-0.7170641583117965,0.8202755705868813,0.556751410082261,3.9267211442094143,3.062581689756641,-1.1807899563980127
-127.0,0.3366439907840775,4.281592172984762,3.944948182200583,-2.252610487561248,-1.8331627611520385,4.078211269395878,-1.1288243926539558,3.1564439587273743,4.624871127112726,-0.4711727541310624,3.910609232425683,-2.371381244337596
-126.0,11.193772493599688,14.337254965291118,3.143482471691174,-12.77992837491651,4.070870878464692,8.710157495161317,1.1422748623010524,2.4558720074685887,2.639151030086558,2.636350359757432,11.610708213984125,15.34756566660679
-125.0,1.5117383118682524,-2.0136145208950014,-3.525352832763484,0.2422975625253807,2.5609756313918197,-2.797637393028587,-3.9206411102470247,-1.7356924738902284,-3.86190715558814,-3.86590231413812,-1.1330991333215632,-2.7330033204594004
-124.0,2.514698340341725,-0.20090937841510303,-2.7156077187569854,-1.162580478304709,2.5779028875470655,-1.4090365967663885,3.2346630723988103,2.7202040461909043,0.20925907696023405,4.3320571998637245,-6.4068357763642645,-7.493374863082886
-123.0,-1.7522014015827634,-5.506749368862674,-3.754547967279944,3.623888320739213,1.0446467577475564,-4.664331946012422,2.6592961000720314,-0.2608528332766451,-0.7020049871560643,1.5761570347496767,-7.028624460568755,-5.623454660439554
-122.0,-5.557259232848909,-6.75669192272638,-1.1994326898773846,6.149346183527672,-2.209912738320452,-3.938487126837651,-1.0980301593198099,-4.087164304402474,-2.338132737522963,-4.442759242282124,-2.7470838388006804,-0.1404076150368634
-121.0,-0.8913483329748444,-0.6194043598857473,0.27194397308928503,0.7447306318144391,-0.6073112952265833,-0.13939853660688217,-3.689223241096974,-2.3197548031467923,-2.234028143013962,-4.531412029835563,2.829979336422868,10.352480279421457
-120.0,-1.291759393828529,-2.8094145886161486,-1.5176551947873989,2.115815590194872,0.09242211512648701,-2.2116796620177466,-4.289501139012592,-3.8734415845989045,-1.6015987616484717,-5.110530109807896,0.6596258796946093,4.565796052586021
-119.0,-1.3162447583400132,9.082270811505508,10.398515569845689,-3.898658502110542,-5.795048597663701,9.690832689862187,3.1342918587105513,3.1494562074527614,2.895311786170286,5.262865760519155,6.856496709801046,3.0535553721011137
-118.0,9.259472321277272,11.59398842966873,2.3345161083915746,-10.443774542527784,3.448789066709963,6.994610148744689,1.146967334998081,4.340117806206745,4.600694283282278,7.527214371367419,4.6004761857812415,-0.9480761400495825
-117.0,0.35409643372692345,-2.023836848163875,-2.3779332818908046,0.8167276890556447,1.3536864988846777,-2.1671591105746804,2.6548060314116677,2.5271676194008608,-0.11913121336780819,2.957476245924112,-2.201678865566062,-9.895203028256464
-116.0,-0.6086947141989396,-1.2321464486999667,-0.623451734501095,0.9010492617020823,-0.00475346843646296,-0.8897161720406962,2.5268290924951367,-1.0136278164512005,0.265939328631032,0.9442438259673254,-6.643002771833106,-7.957904018774703
-115.0,-2.648759216791781,-9.109664194506806,-6.4609049777151695,5.937046376630169,1.8932432281050273,-7.82253083613132,-1.3859196725708536,-3.5119260258379845,1.552042260657272,-4.571115895725687,-5.930993935689214,-4.102416550482502
-114.0,-2.7544184565092724,-6.8960340040443,-4.141615547535164,4.80250813355187,0.7581383152186651,-5.5556373344027286,-2.537647146933602,1.2002711195443285,-4.307448000361925,-6.730016474402097,0.11432090085147095,0.24691452420007304
-113.0,-3.2760963262979863,-4.214582632184639,-0.9384863058867408,3.7207072288342715,-1.1849973816242532,-2.538459797499837,1.8660808340866781,2.6290144116495133,-2.135465302861603,-3.537921488327438,2.8797056367556206,9.671019697671735
-112.0,-1.0774755939776695,5.254072677893605,6.331548271871297,-2.0360965515484044,-3.7232404974068865,5.744097927342789,1.0055930507693067,1.961181618125814,0.9177694566199524,3.296407721339699,8.43332823933999,13.054094527829324
-111.0,1.9179094699493775,6.892582415638918,4.974672945689699,-4.433669449936399,-1.5499383822194561,5.953148300645114,-1.9209630388659469,-5.722447830443155,1.4275965863828315,1.1713837832434395,2.2306313368225417,1.9654128925132026
-110.0,6.988482241471109,8.017992789637146,1.0295105481661855,-7.533473475752748,2.955459230962247,4.5330601542435485,-1.1640056294505543,-2.6330223621620044,-1.8863873819387746,3.2352254732326537,-2.9363076350795163,-11.160046545921508
-109.0,0.8898650469560789,-1.5231727531604937,-2.413037800116459,0.3634836425502903,1.7049433691610627,-1.9657413529254897,-4.222916515939797,-1.2668233804142786,-0.18533397729562456,6.436847055683435,-4.070028028791058,-2.4033369747971918
-108.0,0.2844617339450616,-3.6295441449334116,-3.914005878878429,1.639181928336905,2.0745991530388848,-3.770939414311162,-1.2987235326433,3.304596514229483,5.57201175934858,-1.3307503886254999,-6.113695729799901,-4.752780834325963
-107.0,-2.902563190409235,3.948381564176727,6.850944754585891,-0.478590565568374,-4.820336382613911,5.404995605249646,4.812052577798168,4.987820927626744,-0.1440521410197122,-2.8971095567314245,4.464129730416003,10.353809719580411
-106.0,-1.337249118027652,-6.721197203401223,-5.383948085373667,3.9941622284616245,2.0038635572019365,-6.037865122869811,5.287910481386213,-0.8544095045191744,-3.6478008864231564,-3.7511933340400563,0.48485966758230903,3.2153331254569775
-105.0,-5.463510431886474,-9.461022895804387,-3.997512463917983,7.427015932103018,-0.7508019678873362,-6.702826209721566,0.6774904241213764,-0.3169828540444454,-0.41614928891455993,-2.1907864933545294,4.104593505720917,-11.085821547837188
-104.0,2.8348995861237993,0.17996783833201224,-2.6549317477917693,-1.4638217211608993,2.7261228575590666,-1.2786948608096669,-2.5261675951935136,-1.9134231695315067,0.261571175597906,0.31010495183243125,-0.5184208576215705,-3.0602787089259422
-103.0,8.319483767077688,11.450807990022925,3.1313242229452536,-9.8414778332257,2.5710466169630184,7.257931259752724,-4.817962510335995,-1.72899911695273,-0.5561707095639967,2.479683921316251,-3.3364042022971243,-2.546043439562033
-102.0,1.2428095981311138,6.516737292937665,5.273927694806538,-3.915439335730591,-1.9666918466610523,5.8663085947864175,-0.7220481549103539,-0.38736367183499754,3.8421301219888964,3.995753543026579,0.06939852685779768,6.174536026692002
-101.0,-5.708984175868325,-3.264393585531451,2.4445905903368557,4.449200040119919,-4.114554508739106,-0.35943643955632787,3.295033539481929,1.9980314128456567,-0.640846951482904,-2.653476694629325,-2.214230502751747,4.097018030631781
-100.0,-8.685587477080617,-5.900149759587756,2.7854377174929006,7.330798215246391,-5.70160144849496,-1.5079856311148765,0.4834956624069606,-0.19813485880136816,-4.9978030591075235,-4.1050816912152985,2.8471271752215843,4.03014739191546
-99.0,1.6583355570560383,-4.192890975367402,-5.8512265324234205,1.2219001929485946,3.7838745312173545,-5.052773805759147,-3.141949149382857,-2.745699554458398,-2.8517331243361697,-0.4299662932472368,4.750749442092661,6.883425856534654
-98.0,1.9090099530683358,-3.786270168617105,-5.695280121685528,0.9669628658042431,3.7505646905898584,-4.772056342182795,2.8310010606445135,2.2270552861929733,2.349436685431055,3.396687998017968,4.008718105804128,1.3419885368271431
-97.0,1.766635884762366,4.04598910374232,2.279353218979792,-2.882656035179668,-0.2283936376433875,3.2106279697139573,4.882116529591842,4.766384597050264,5.3818758399371305,1.9420808847174293,-7.903758642072859,-16.42527607887938
-96.0,0.715189675092343,1.2419858963420565,0.526796221249622,-0.9586664560785159,0.04618667692738554,0.8549325032092681,1.3917201811533966,-0.3810423660446929,3.0604406244644142,2.4777546108024695,-5.896110250575865,-13.580080374218372
-95.0,11.540453341097923,14.719819757376492,3.179366416278633,-13.191586785615602,4.215025131216529,8.921969048281776,-8.244827628458644,-3.9356844993174716,-1.6991191985943013,-1.1354013390830233,-3.1709310069010406,2.0782869035615867
-94.0,-2.603043098163107,1.7953990944024465,4.398442192565807,0.419531383680221,-3.4626300035135347,3.150170593596488,-3.928298163915948,-2.444037416849878,-0.0952195905925759,0.3599664533701219,1.4748935210949405,8.133229163869899
-93.0,-6.794737386285021,-10.45508961816798,-3.6603522318827317,8.639997680335643,-1.605287410072943,-7.0807784089163945,4.065814966538971,1.211823311135553,-3.3731930239955106,-3.284376916037468,7.701011650603472,15.368007540226063
-92.0,-2.581352518409039,-6.943789918546822,-4.362437400137584,4.778130352181632,0.8532241420910038,-5.673217314599089,-0.1813324338479092,2.6193085932628972,-0.6793380552411339,-1.903043544258448,7.239045182943709,4.036278353241669
-91.0,-0.875919127162232,-4.711665936457076,-3.8357468092947937,2.732525091580727,1.5201779875358443,-4.290205404040859,1.6725497635624655,-0.36111146985016207,-1.226367543902546,-0.5076825799986933,1.387401121137795,-3.589779986846338
-90.0,-1.2399617988559608,5.845777285265653,7.08573908412153,-2.2816435631078873,-4.125290588350396,6.532058040606667,1.7560719533208313,-1.3170068557288075,0.9179408134345327,0.915010823669623,-0.8302160282249295,-6.3004211607879945
-89.0,2.539234830236693,-1.7637122079050305,-4.302947038142027,-0.3606634238591617,3.3765912036626395,-3.042061788407154,0.49493747051315884,-1.555959894387173,-2.6698062698347194,-1.977898160049487,-12.677903149095313,-11.387361475932941
-88.0,0.979336939889385,-2.507487458879668,-3.4868243987694134,0.798758097232871,2.185946824470763,-3.003775770900705,-1.0324420785182093,1.1626360769645099,-0.44570660107095994,0.9828594738122927,-5.798792598270718,-5.0792224803355905
-87.0,1.213737311198443,12.416279656747905,11.202542345549164,-6.850600079583914,-4.963432927298662,11.801996190737507,-1.1180023422960041,0.7239482952507938,4.520883100944092,5.109922654648152,4.903799381295013,7.53966939628378
-86.0,0.2226097448396438,5.0585887988828215,4.835979054043141,-2.6679808947878008,-2.273526814044165,4.9355437026132085,-2.2900499690965996,-0.11472899498925127,1.5381154019826062,-0.3680037558369751,1.7088617281664558,8.37796879445718
-85.0,-0.32375825242838907,-5.269976971993268,-4.946218719564586,2.776411895326953,2.3492943103588937,-5.127090666141312,0.9965085369239872,0.11599942167800309,2.0288160312487946,-0.6098863541546381,3.244091193404131,1.054394374110073
-84.0,-0.7468344865621692,-5.34748750451593,-4.600653017953292,3.110508884327433,1.8926282528543574,-5.001391534229119,3.1591431147525757,1.716586853507231,-3.058760888086276,-1.313724601820173,4.536868811753449,1.8946111312869303
-83.0,-0.7013442316579681,0.11470573249120708,0.8160499641495913,0.2809428524314397,-0.7869641914200631,0.5098746021005365,-0.5355867288043998,0.8440270034251436,1.7104945228343014,2.883663458526803,4.412189769160106,2.7712247297656036
-82.0,2.4132551158497426,0.7551429661239717,-1.658112149725602,-1.595466387718145,2.011276993029049,-0.41047319179035613,-0.7257763292193374,0.13989691320769476,1.1566747750748232,-1.0377080139098762,-3.318495944234092,-4.106504961264297
-81.0,0.41192924002966935,-5.513179039545131,-5.925108279574919,2.538785164065459,3.2236288890099796,-5.756240418728646,-1.3236815335715437,-2.0214600851098314,-2.2506246419133635,-2.718708166711263,-5.588807274289955,-7.739114363790717
-80.0,-3.4298996649852582,-0.15264938367416603,3.277250281310798,1.7774681046995573,-3.3794120110190744,1.6076919463252357,1.3209137662695793,-4.012081645440258,-6.616864264753355,-2.135211730212819,-6.852957224682793,-2.747209223409891
-79.0,-2.8496028378419695,0.46338966786346436,3.3129925057050977,1.2549699891722623,-3.111318019157132,1.8593826463096812,-0.43960835550835164,0.8559443325770126,-0.27302273083751016,-0.7093672977668813,1.4842149515138554,-0.0827000382064711
-78.0,3.2222421035011775,6.111541515936584,2.8892994124351774,-4.6877400327319805,0.210360583011449,4.474467243191493,-3.0097536079853837,1.1739580235224438,2.7662887363985744,0.7023912105339067,3.1269971319890626,3.4551588550450587
-77.0,2.9294534217163344,3.8240706041014634,0.8946171823851192,-3.40222586350253,1.0569670456202804,2.332928922418939,2.299678046004095,-0.04025660927563979,2.192631522096713,2.7859809631945867,2.8981045465931574,4.95214680907837
-76.0,2.3433098000506707,4.361565225743949,2.0182554256934813,-3.382829339307337,0.12015123387904966,3.2384016310290047,2.943990363790267,3.6744286692092896,4.119475157639041,2.0926956028044126,1.9555281914212603,0.06574000842285965
-75.0,-0.9838918129912804,-10.088775158790513,-9.104883345798935,5.579959035111079,4.016277653892257,-9.632845407935289,-1.4913257786226068,0.3906467939118563,-1.1265793801584154,-1.8524138395892231,-0.34434533775388565,-5.015788121436554
-74.0,-7.098399377905929,-5.489567984654233,1.6088313932518772,6.333635730931789,-4.319727755988801,-1.902940843856383,-0.08614648187998553,-2.2859901291128892,0.15743963337324815,3.3135180468380394,-1.0203268555243399,2.4221145105411273
-73.0,0.7481576272800656,0.52886520651494,-0.21929242076517086,-0.680378614831223,0.5179002995994623,0.11093025695212866,-3.01574092472849,0.926132686942633,-0.5626726796745469,-1.5891709802662182,0.7316901351912266,1.6748392972243717
-72.0,2.252311587976669,4.8643277762677695,2.6120161882909385,-3.6015080480382755,-0.22355088111693655,3.774685724638722,2.2599300216340215,-0.15933398611205685,-3.9961930845410922,-2.1283335390947165,-2.0237248152943943,1.6504371398585989
-71.0,-0.9282946943147521,2.3591457434213883,3.287440437735944,-0.6796862891072974,-2.071741684891941,2.865455741576235,-0.6432001473073043,-2.1181881614283866,0.27082203851576025,-0.8409715729416185,1.3805716676806858,5.909339217068271
-70.0,0.23643329182226758,2.4114329958173295,2.1749997039948656,-1.2866756128505727,-1.010970867667486,2.264665348478543,2.513741911224607,-1.8594855925146399,1.9049771188718787,-1.0586035883126979,0.6003065311509715,-2.4920842873071227
-69.0,7.087812841333802,-1.4698641789598281,-8.55767702029367,-2.848014867584623,7.860460160225578,-5.034467038372247,0.06295813210015877,1.981442750262173,-2.7427581254107123,0.3848687362012615,-6.814311196356908,-10.421102485723534
-68.0,-2.9943276989086023,-3.922481925668822,-0.9281542267601064,3.5009228059356223,-1.073632679460371,-2.440882206643297,-0.5034306725225905,2.2423853037015338,0.8158744290243574,1.315808184496254,0.3418801102311635,-8.55628661405466
-67.0,-3.4906668462543418,-3.4115768526886114,0.0790899935658338,3.4175789570451682,-1.7460151373471082,-1.6810336017962835,-2.9089468938390097,-0.9198637662987562,2.9070191895948874,0.12880298919585953,2.9156294562135243,3.2255046650125143
-66.0,-1.1961058239112967,3.1908677227650153,4.386973546676427,-1.0284181314233392,-2.830213807948361,3.84898381289906,-2.5665389573733934,-0.4103428144256708,1.4111041028656954,0.7333933220892557,3.489163286630527,11.984497485936732
-65.0,1.1950571170161162,4.255876638978705,3.060819521962621,-2.7537753776343763,-0.8908269658870549,3.6319978990049058,2.6540193906755984,0.9018107212830904,-2.0925702077754105,0.8243378903423972,3.9106463791228006,5.043731999462993
-64.0,-0.83785543718178,-1.398955702397156,-0.5611002652153785,1.172293339345821,-0.1724640559482592,-1.0161371697750532,-0.4481460632174352,-0.5552297251201257,-0.9455042159553997,0.9814700928763122,0.07543699586822772,3.1806053922880055
-63.0,3.5449280793649205,0.5410067192315541,-3.00392136013339,-1.9849994474867045,3.32180788582692,-1.1987997177791287,0.24077829616432933,-2.305113996766704,-2.633503140809625,-3.198809778287403,-1.9201495402921187,-6.839075955117897
-62.0,1.011363007278259,-5.435803713329653,-6.447166720607922,2.195039094098055,3.699974151624999,-5.917492007521673,4.858268550475943,-1.2011868189101302,1.13640218692436,-1.0687976549505758,-8.617958385042073,-10.752082947272156
-61.0,-2.624188745073277,3.2673392872489675,5.891528032322196,-0.3375307459703718,-4.286398427197049,4.596953310576554,2.15831730562033,3.5545799421150495,2.6156116054887395,-0.12859224264848113,-3.3181658876864057,-4.4920827320722605
-60.0,-1.1261235384155677,6.758051013233399,7.884174551648909,-2.8347778285320513,-4.45580504591383,7.255777575261757,0.14793811599839585,2.048815426826364,2.5915099775867168,3.759886399928782,2.1097563543333506,6.274003321744486
-59.0,-1.3716740848643447,-4.723819222771389,-3.3521451379071583,3.021630106554566,0.9586102242276962,-4.026553577373477,-4.436604554373609,2.1898360166293225,3.0367773480695286,2.59909686766603,6.147916924229912,6.292292130173706
-58.0,0.5674587703025643,-6.417440233950777,-6.984899004253398,2.8887489642730655,3.7417079470444454,-6.689959757023613,-5.897833179206437,0.18730061880665816,-3.17438935870555,-3.882135918297142,5.285545652186071,4.17923529998371
-57.0,1.7207449954586633,-6.3862239771042795,-8.10696897256294,2.365530585551973,4.955521631616402,-7.234123693675264,-1.533688679810532,-6.076250913400935,-7.240314571639738,-2.6851790680893384,0.9330203944619151,2.629621433478099
-56.0,-1.4137953897231677,1.6974677091936292,3.1112630989168206,-0.11481182345120966,-2.2227009800435784,2.419350454493927,0.047431808027535216,-6.986646769660975,-4.337612540349651,-2.482656283666173,-3.4468407663387577,-5.374775844322082
-55.0,4.059908564018876,17.49115690301449,13.431248338995712,-10.74809204708134,-4.725714730294458,15.40094898630833,8.578853977100318,5.470126896632214,3.676629350174268,6.846134050255753,-0.015822217511567427,-0.6524636366314884
-54.0,2.1976289231736676,3.3384585581268187,1.1408296349533114,-2.7341925928289745,0.5660939435678731,2.26231862428463,2.173740456772519,1.7313896938991413,3.3726738379711487,-1.1233893554701515,-5.501791497568881,-5.308896379827346
-53.0,-6.399703831316783,-9.343820530909914,-2.9441166995929504,7.8366512041139735,-1.7704262026740614,-6.116936390921222,0.08739941248677185,2.0663180491839688,2.8926401458733424,-2.6517268523597792,-4.966054590177842,-6.78975460977497
-52.0,1.1576032478477782,-5.594145678914781,-6.751748926762433,2.1923993802847055,3.9096995251849114,-6.142069437225505,-4.587048537701214,1.588032557195774,3.8684949731817895,0.037833939872303324,0.9872626958632758,5.312920449154976
-51.0,-3.5789852476514232,1.7756516076739057,5.354636855325328,0.8809238239124366,-4.435618202452979,3.5198050467049855,0.34292651899807103,1.8033498167300306,2.1538592120901594,3.4740967201684474,3.6701198580399494,7.0313701270128455
-50.0,4.394228049760102,8.02331045982184,3.6290824100615935,-6.230279155595738,0.41195975892472025,5.781439012952707,-2.701785881402873,-3.7221932136078903,-3.380065238527936,2.348560952121921,9.600196300457208,4.4291549494392
-49.0,1.3264290838339983,0.6317514362127763,-0.6946776476214512,-0.9279806992846202,1.039818612757094,0.0009460995343233414,0.6035400468826044,-2.8185462315065797,-4.89827408481778,0.32587126220922336,4.771253050940118,0.8790303435924312
-48.0,-1.1949203023082322,-3.6944838376986846,-2.499563535390643,2.407974513384368,0.604712177314845,-3.0681256333136324,1.7105291050246374,0.7602462672726693,-4.510677075160348,-3.508463788901676,-5.803182763770328,-8.13226075129248
-47.0,0.7510256531231683,-10.208896271449634,-10.959921924572896,4.762105186308577,5.890110331467463,-10.560459750562847,-0.9050794639855413,2.086232591781463,1.0569072495357683,-2.837774936084199,-7.687912598542167,-5.605420656263908
-46.0,-1.7706360170305926,-10.427123509832006,-8.656487492801354,6.1261913334767994,3.403142491128701,-9.602437219517478,2.6041369315716314,-0.16082631874899622,0.018509301358758612,-4.65966036685181,-7.9897435098825635,-1.4249802458742806
-45.0,0.33191724446177473,3.6565622181056483,3.324644973644018,-2.047103441016909,-1.5318227209990511,3.502614603942516,0.6318915741078484,0.5720707904763317,5.543457381762894,-0.35245341258874674,1.7828750318153777,8.002284941230407
-44.0,-0.7928430522785935,9.011168231297917,9.80401128357672,-4.080477957995102,-5.251561456605397,9.413949344637665,-4.493258577041986,-1.6247896611302972,-0.41098363769707236,5.1517303028618135,8.652411738651118,7.26646652647728
-43.0,-6.038134713869759,10.213800980825702,16.25193569469576,-2.053738388931122,-11.096091612693296,13.234870849444974,-0.950223401237482,-3.120684647533884,-2.4786620096060763,3.4825996459557,2.378784462832418,-3.1270470762375453
-42.0,7.444313561493107,11.178981277122649,3.734667715629831,-9.350615381095489,1.8247353901603427,7.456537741476985,1.6785435861559166,1.1430286385928135,-1.0777283333144845,4.628527015344852,1.528791437756198,-5.171978253950389
-41.0,6.004951247650255,2.126801247856246,-3.8781499997938402,-4.101052967450036,4.9079999093270334,-0.8757047710062558,3.5720129824457554,1.00683176962256,4.012219481051632,-2.713719692913757,-0.6805341709950614,-4.241769062865599
-40.0,0.2708557905718556,-8.516146386437036,-8.787002177008974,4.166883566195439,4.567144032653434,-8.648786068820025,1.4497499111152716,3.4303515055018337,5.145040360098531,-0.5151395710808053,-1.2411486976285053,2.004135829819994
-39.0,-7.088336040826852,-13.659232653720327,-6.570896612893766,10.336907230017138,-0.30915603230323185,-10.107364175537475,1.5575567078557668,3.298583283508003,1.2667606846563728,-2.3072171104182106,-3.1221331544308804,3.303111072654257
-38.0,-4.547982308227652,-10.809517265993138,-6.261534957765838,7.7165109594087005,0.873962090309423,-8.521636521799683,-3.817416328869514,0.1572006585563268,-6.568868661782177,-2.0326081473610738,-1.8589030716544213,-1.5508191516898617
-37.0,-1.076773385578595,1.3150343506670312,2.3918077362453594,-0.16406134824665308,-1.7270023861411223,1.7951143501343285,-4.517790487943433,-5.896949505399907,-6.2468733742898594,-2.4770589202551507,-0.8460223538457794,2.1141341742424
-36.0,5.853398624418177,8.837931232251925,2.984532607833672,-7.313818059585602,1.4355786411163372,5.937835046992153,0.20860818104816037,-1.5765099149074686,1.0702035419357783,1.540224317296854,5.573953488585433,2.2340148022880135
-35.0,1.2069256993489828,-2.705355890839808,-3.9122815901886714,0.7820585140509362,2.560130999196534,-3.276937309161254,-1.89438685623111,-2.2898061750316003,-3.713921024782926,-0.3301427875377836,-2.2473708032918673,-3.170698665715058
-34.0,-0.6462521448185592,3.4237214521111623,4.069973596929939,-1.4308575567779127,-2.35231128413426,3.7041172826617177,2.540318985738249,2.1016895832060345,3.3538505285688482,-0.2538138990356362,-0.8225382273744115,-1.4061647315948704
-33.0,3.65873014565605,11.186164311061892,7.527434165406003,-7.380525556458805,-1.9186399763901665,9.395683711010253,3.3126017634053957,1.5457131455322881,6.796582793683208,3.323626104838473,0.0013623877683641983,0.7737940033764392
-32.0,-1.4062009787008156,3.2973055178850696,4.70350649658597,-0.9774177275201139,-3.027151559673862,3.9620628647638383,2.8151047632556336,1.714819406862457,4.660419217067503,2.4875638616997744,1.8564795924457442,1.64420993322278
-31.0,-3.1080316241714994,-4.380111683361728,-1.272080059190205,3.7151733727573495,-0.9579785525549261,-2.78550038679887,-0.343876409801376,0.6777275982942454,-1.585677170410332,0.20774607544902657,1.7355367642740849,0.46924281528455536
-30.0,-2.8837297285835697,-5.74633699951125,-2.862607270927686,4.36501650136829,-0.0428871761275233,-4.343632542605108,-1.4591617400491348,-1.479351537923191,-4.700808742160803,-1.172898645818743,-1.7344089879539153,0.3804029431727788
-29.0,-0.834533159251617,-3.997801031946052,-3.1632678726944126,2.384973491702431,1.1353680752778654,-3.5428234556418507,-4.629556557359935,-3.0523937848221157,-6.514634885385885,-5.681923622181759,-4.3545131885442085,-5.929189855536288
-28.0,4.28496563001198,-0.8846574627292938,-5.169623092741276,-1.735089150495062,4.776664071250157,-3.0704199593317854,-0.12369125218200994,2.088969696732738,0.5029277804687267,3.192719294288043,0.9796919310521734,0.6453823749675582
-27.0,0.21961380577305345,5.093052882214183,4.87343907644111,-2.6159012929794936,-2.279898350839635,5.016726398273761,2.8069242174134077,4.680654706874535,7.68545727043379,3.7316507746210488,6.487220908687694,5.5620738512114185
-26.0,4.318225970116739,0.4520471551709937,-3.8661788149458105,-2.346350031769282,4.058084134961541,-1.7535670592034465,1.1992651538950847,-0.013834644995480816,1.2471949791171242,-2.9610258805096503,-2.1482918888993456,-2.2898439297634483
-25.0,2.09864697923448,-7.991523992825146,-10.09017097205974,2.9070533342536273,6.059314306134022,-9.008963529721354,-0.7828918623829885,-3.249172671944051,-3.9854884416736396,-4.550046248486694,-4.1834832835755,-3.444047584286267
-24.0,-9.71093747943505,-0.5247101632923611,9.186227316142508,5.1594260612009135,-9.403923750053988,4.362617862035576,3.798787145533892,0.36556452236987536,2.394204865896472,2.3896841321312268,2.8282704262615193,3.714811080541491
-23.0,-4.686400504794191,5.884425430678555,10.570825935472598,-0.6335030388854337,-7.660032173526746,8.258692017822842,-1.8832342784990703,-2.4043270467091853,-0.023825908033484722,5.09813133856649,0.8771990438300483,5.291491989078882
-22.0,2.1060373433547124,0.7113279950341371,-1.3947093483205935,-1.4413066856644074,1.8010303418091205,-0.39211751374586434,-6.053485113058594,-2.2199472404876004,-6.66573743269252,-3.389899181537461,-3.263824681913764,-0.1932345017134076
-21.0,3.631055080328987,0.5017448921382961,-3.129310188190562,-2.019729310417881,3.354699972091007,-1.3693350030383828,-0.10976035000796713,-1.0551110915668696,-1.693618358277656,-3.5421453360456434,-0.2283077643083824,-7.980916985861571
-20.0,5.6149824101562436,6.307168088775095,0.6921856786191458,-5.993514941927858,2.4365711296900665,3.516330469803785,2.432927968841126,2.9379636510118687,2.9845591720711746,1.4458347153978495,2.888060875770209,-1.8737819500715411
-19.0,6.2710716474415396,1.6288340192386848,-4.642237628202524,-3.982528605548257,5.429871388039566,-1.4957089351174784,-0.4905353735955369,1.189927645600597,6.436772402823715,5.265609021968785,0.9501974380489668,3.2240504158871413
-18.0,-4.788177258185948,-5.821044810977705,-1.0328675527914952,5.352080252387544,-1.8301234756266047,-3.4179871745155364,-0.16498226717786668,2.524970519654981,-0.5388969263067218,-0.6032969116633919,-0.5470996713900516,1.858924292037027
-17.0,-6.384963245988486,-5.395993853503644,0.9889693924849547,5.941218256875807,-3.645534914132034,-2.191039123835742,3.971296068052922,2.144000380177348,0.5393664664435243,-0.7413631700833433,0.06350608234379601,4.653481292687592
-16.0,-3.980405516206652,-1.6447233859730965,2.335682130233473,2.789246676552158,-3.2018839427769406,0.36693210394971776,0.5858052607211204,-2.641063411146113,-3.8468550570034368,-3.9178242707502027,0.6765624549826181,-5.180239906409508
-15.0,-0.8411980650363975,-0.5933471379267088,0.2478509271094802,0.6985976941281891,-0.5938532147007143,-0.13912718577972627,2.521642107056069,2.676878963670534,1.3839638492133597,2.844830145648473,-2.329565887268796,-0.19829668988843463
-14.0,1.1877060656149903,6.619376284519355,5.431670218904096,-3.919273838671564,-2.0955554625852346,5.991944296878131,0.7853442216014316,-0.06709298449390622,4.0241388395592015,3.341206869758144,-1.6382859717003242,-1.8438356403366323
-13.0,4.375663818769814,0.7182868857832849,-3.6573769329867654,-2.5624414935508066,4.043572241140417,-1.496030045595421,-4.506838228463216,-5.40057422497523,-1.535623541494954,-2.0780543871212798,0.3104064672314386,-0.054185117144926014
-12.0,5.1234382293533685,-5.35270111204639,-10.476139341399971,0.09690860334173435,7.831427805003424,-7.940513294429701,-6.555823916355099,-6.249549426700004,-7.877104443461048,-6.742624519240643,-1.2751234520674495,0.2659034577524364
-11.0,-0.23075670217485955,-6.274639341370831,-6.043882639196078,3.3100326876990134,2.867273229310027,-6.191335203433244,-4.788578447743724,-3.2049356455745004,-6.820553996695245,-4.999126094719057,-4.1690808264174635,-5.245453965353851
-10.0,-0.34851948988990933,8.738796558838892,9.087316048728795,-4.220330995286934,-4.747838498729378,8.95011720953205,6.009999923951407,7.7720115335228,5.400081082751173,4.432331518280742,8.467770839563045,7.200574834938884
-9.0,-0.0022196704653483224,8.617309172064907,8.61952884253052,-4.256949404988178,-4.2533006451484745,8.646142393486539,3.5659030293244585,4.689185422963886,5.810274514375022,6.035183263590344,3.739500153851186,7.097388075116016
-8.0,-8.9089040734324,-5.79435101916474,3.1145530542680664,7.321428479294769,-6.026825096357519,-1.3178385315014731,3.413249356273647,4.331645305293238,-0.4987892403358001,-0.18702251343705933,-5.66639203318149,-7.94056063266616
-7.0,-2.249768972183495,2.9403820706653616,5.190151042849287,-0.37715685177788183,-3.7329661548203505,4.0869201427512625,6.298581750074244,5.183837181356486,10.60575724098296,8.87014360688343,5.505163064614083,3.4764956620109038
-6.0,-3.846780303177784,-3.908800788743589,-0.062020485565554395,3.9227862300837026,-1.9074724356495194,-2.0382420557619665,3.4082470223574064,-0.56175190784178,3.4373905522394326,1.7300925757777583,3.1998254452357484,3.905832634823596
-5.0,5.19006620734354,-1.0558639483507508,-6.245930155694227,-2.103278116855515,5.697710756214906,-3.6181598723242447,-9.399580228199804,-4.85609217915785,-1.7226212608568314,-2.2086794847998394,-2.529180976738413,-1.1218796263298774
-4.0,11.75705576508994,-1.3546236815736403,-13.111679446663784,-5.240015599135878,12.48654431064356,-7.272274558081083,-8.781725123125149,-10.57317619129708,-12.184097552257036,-9.099681607799413,-10.912534865968528,-9.932859554505184
-3.0,14.756959125106418,13.521702380330227,-1.2352567447764482,-14.101508213745136,7.9644553686856305,6.109304986412926,-14.76093771121346,-14.678781813944976,-11.900020323769148,-6.590007993539664,2.2331359012968606,2.1111328009050556
-2.0,-3.7216140359075194,-11.904704566442305,-8.1830905305351,7.849912859253107,2.2757755636340464,-9.996044639871897,0.5322589437347789,-4.525725064427326,-8.097626204489753,-7.550848254164813,-2.2095876177327365,-2.709313532466246
-1.0,-19.058701774560554,-8.10085028415526,10.957851490405018,13.61649955221884,-15.040255422414042,1.3990116943815174,17.499486641771213,14.882581408214266,10.517507824567165,5.679908455036513,0.7322351958848308,1.3498701524672203
0.0,-18.98933777095361,-5.634022925067279,13.355314845886067,12.270051977903167,-16.199218864602287,3.9106588579852843,24.799961589698704,24.420468089833662,16.121901385781662,5.802737915301055,-0.46159448047198604,-1.1585373754161399
1.0,5.4440333409505755,3.7011451056836266,-1.742888235266987,-4.614067891408888,3.6522719128398027,0.9510750180476979,3.451068387520783,9.130266174315665,5.111736113531103,4.545885618216167,6.915646874021848,4.579707238168615
2.0,17.376561746551964,7.332256015761959,-10.044305730789755,-12.396069115876587,13.697219922086202,-1.3048890329818992,-9.259105803370634,2.319808240054475,2.2124208957726967,6.410908603333015,0.6552476521603321,-2.114082159383486
3.0,7.79729677040037,9.083582014007403,1.2862852436074816,-8.403148086717144,3.2467008005178144,5.156731479322321,-23.037540432129365,-19.889741619000255,-5.330353084945457,3.4210525803563954,3.362787298564265,5.603075085228044
4.0,-6.685035277856688,-8.689641094763576,-2.004605816906422,7.726220697361818,-2.348298752585479,-5.37772643394354,-16.48845811592769,-23.045840021202977,-14.194124743627446,-8.88308491126033,-4.10302968056869,2.276938751495607
5.0,-12.155535776679216,5.363643854168712,17.519179630848388,3.438239205094711,-14.848491264883807,11.406478659183808,-1.5784835637663779,-14.760852102372667,-6.291923854532834,-6.534343126386166,0.15234193508085347,4.767034882255906
6.0,6.742054960469482,8.85916631169692,2.1171113512278206,-7.832550060210652,2.295870099724177,5.526545268535449,11.00424468190114,7.597164805449246,3.1695285200248566,-0.7985459339400469,-1.3561005505326726,-2.0759520333632007
7.0,8.879316465476997,5.874596843795386,-3.004719621681489,-7.404960318654989,5.919848238808615,1.4683771980854048,14.639394810022768,17.849859331851675,7.1684279832010045,2.5332561035188093,2.6556573182202623,-9.505490550792526
8.0,2.9657676559138952,-7.4069968544056115,-10.372764510320021,2.1940755205977256,6.722471029323819,-8.938221808217959,13.675374602505144,18.918103564704808,8.791312101911352,4.964422932111594,0.6468522633409962,-3.3432377635748995
9.0,-2.2257795959948155,-24.366945093065585,-22.1411654970718,13.346346687088092,10.010875549776143,-23.223976764349064,0.866220104896609,7.613303084691042,-0.1622252055955018,-3.186697389157395,-7.458533525302349,-4.706657191435878
10.0,-8.136643500823268,-17.851193455175427,-9.714549954353346,12.959202098101738,0.7661125868539527,-13.750765146466485,-7.266394345404704,-8.98699313880552,-9.548054954328546,-8.275282740605986,-12.063485730575533,-6.972615199578593
11.0,-9.58775352468666,16.090048855255876,25.677802379941937,-3.2156058479964225,-17.652249369945572,20.84034286494699,-4.226373611263508,-9.056057907471203,2.432068191170165,5.8635276956325075,6.14917635484578,8.47371208440362
12.0,3.188846869933421,15.071437084560387,11.88259021462722,-9.18234396598107,-4.364879120907859,13.514523878353693,0.475977379579545,1.2926612107259086,2.7167898887482047,0.73606368488802,3.79360589031995,5.248109521064703
13.0,9.53775896258314,0.24032443603537423,-9.297434526546757,-4.869702973336884,9.397439939357167,-4.569564276686716,-7.705438803132651,-3.748424468945065,-2.9896722465743872,-2.864527125882797,-0.17303681481065958,1.100657969527938
14.0,2.8570651661893542,4.706616872444469,1.8495517062565445,-3.7661182441752334,0.47777561272975744,3.234792863402049,-4.80176647442574,-3.8959375592892322,1.5786813778186475,8.457429373202917,12.741418633188742,13.416264575875223
15.0,-13.538789511069112,18.898413580349047,32.437203091419505,-2.663423911854064,-22.94319307619293,25.69921743275723,-3.7369980738109225,-4.817882671191804,6.756832821817436,17.931769564926352,24.667767382220415,20.070050659553264
16.0,-5.823599349814549,7.998618362234316,13.822217712049593,-1.0668971435854409,-9.785883267676983,10.937462092301214,9.230342696841216,-0.8348575078023084,2.2369403241525445,3.771986828171096,1.8419677647791781,-4.278715802989124
17.0,23.13170923323917,-5.8426262869308525,-28.974335520170122,-8.69677378059333,26.00577117998408,-17.384719312834008,-1.9957145116344162,-0.42620374186714827,-6.782689636629741,-15.213035298650501,-17.59152760643645,-23.851921877818473
18.0,0.25375923032545433,1.715177684859138,1.4614184545326125,-0.9526656284524426,-0.5745871466960839,1.6106261796201213,14.932740257842855,19.120368150018546,8.259252021786185,-1.6641862435319625,-9.280054352537316,-8.377546672870695
19.0,3.5349076623533464,-45.357237415993616,-48.892145078348946,20.86703966082196,26.24355396177312,-47.18060460426489,-6.020067518401543,-3.437262715154466,-20.218589034199404,-31.519838899539465,-38.80419437170199,-26.330760874257123
20.0,-4.637363576452101,-45.79024680979142,-41.1528832333414,25.248040287721512,18.211742844146958,-43.525206191780896,-8.869127436531567,-10.596946260086087,-17.894861014334275,-18.725694911021293,-19.864522814810414,-7.431381842098327
21.0,-5.90093372867384,-1.459634869770876,4.441298858901849,3.632649312921867,-5.213861617983899,1.5199125973428673,1.0663957408061617,1.522177388561683,2.2435494537892167,6.013350004897978,11.951743971254942,14.306492018855263
22.0,0.7895480441935581,29.22806995764352,28.438521913450554,-14.982226046029563,-13.785625733127949,28.868070531730282,1.6275120712348308,8.256516331608236,18.82840880473291,26.115430140042594,28.183817661585422,19.22130654180772
23.0,-10.867857467690383,34.81391137547321,45.68176884316627,-11.95095947192847,-28.23384398925285,40.28975212125591,-2.6762884452144053,-4.6155132510326435,12.061876628546248,20.072640993737767,22.71881099514532,17.54109687888805
24.0,-13.62431562735958,46.881283881833426,60.50559950919636,-16.610082310259802,-37.10113800671633,53.664297852257654,2.0370955955399825,-9.11119216348762,7.6625658453920975,17.660526614553536,27.722818386761787,17.342212843159835
25.0,3.7601591322995644,28.748426210499428,24.98826707820247,-16.23877430375463,-10.648575328735944,26.846110165795082,1.6137411927598082,-3.5950471891469205,3.557339845896975,8.114575649414261,12.189297131651625,3.901404154857792
26.0,11.080272331147487,-40.06883429329077,-51.1491066244381,14.428249054953346,31.16123116762613,-45.62633344376764,2.891679780983805,1.8587328253311979,-21.229220309008134,-31.20783513406733,-35.57413722987231,-28.78081529343067
27.0,5.8667547477082,-52.67865762971927,-58.545412377429855,23.415283613591335,32.177144947588516,-55.62715708160627,9.061392032361887,14.22662532143034,-8.925094631737004,-23.81333227614772,-33.15080028525094,-22.290799953149488
28.0,17.227550363421045,-4.703220560020803,-21.930770923444776,-6.256822044744489,19.632926210748806,-13.253521695693017,-1.4276073560322124,13.482610934160752,13.536979180102062,8.20499682659273,-2.2141074149904014,5.16731914440976
29.0,10.532448407167236,20.536683504736082,10.004235097566806,-15.532975475048591,0.24283784274030396,15.253495372393104,-4.718295277028988,13.420106239387747,27.787357381918735,26.268423374282822,12.358064173666051,5.599630222629548
30.0,-2.583077624485134,7.617465730158142,10.200543354642669,-2.517707113245458,-6.410925564600837,8.889913427891306,-12.98774444556891,-14.97066394499412,-1.0892428607748132,7.339424127283698,15.541351934858373,9.989297613989592
31.0,-19.584326828779194,1.1909546777482305,20.775281506528017,9.197101891016956,-20.19955307564853,10.962445078624853,-3.694782151227794,-19.897142249518197,-17.0570102255714,-7.216634010531173,7.064324156543287,10.049204074153156
32.0,-18.97479533587628,-9.852510529758732,9.122284806118802,14.41874307718303,-13.99358463867863,-0.3074426212166017,6.306170304345822,-14.368247764679484,-24.958025068323394,-22.369375281857877,-8.072058615319413,-7.441248649310865
33.0,-11.53217819193006,-7.546405402139175,3.9857727897920014,9.552406123588401,-7.789961584478743,-1.8005115602414676,4.435203159329371,-6.067993578877606,-17.300893509234793,-18.351877122203213,-13.082283062769116,-8.27181923795832
34.0,7.669251970364181,-9.56930507843524,-17.238557048798945,0.9729605255123781,12.413722253204876,-13.422391504115453,-1.7654631518840604,4.695009303453107,-0.08719665071468273,-5.6863302384686705,-11.736424894423745,-12.288566944563845
35.0,11.983876986143066,5.828841400016464,-6.155035586126561,-8.952861818872336,9.098522962658055,-0.17986717845879818,-0.22360823408521124,11.433877479089626,14.015127894475453,11.345306851286882,0.014514752026535849,-0.47484434014343435
36.0,12.57425796935848,10.384186493938676,-2.1900714754200745,-11.440447127757547,7.403131282834596,4.159546374345809,6.351975075208228,17.392603613555167,24.166262276006428,19.45868326251565,8.580921546942701,7.525135862726017
37.0,7.354849043552637,9.831099973930275,2.4762509303773363,-8.630622558220919,2.45468979536202,6.135639049396282,2.907744146833931,6.114683888408511,12.566439618791122,11.402068440575725,10.070050553713779,5.713506580257521
38.0,-3.004925160524606,4.5381633389906195,7.543088499515026,-0.8061413732061231,-5.261448483571236,6.017801976040652,0.6144503664963619,-2.0374841330192313,-1.3764337214547524,4.431300581270566,10.731103034071296,7.704621703369985
39.0,-8.068279268345695,3.6376609073699533,11.705940175715597,2.249862816064006,-9.953948151072128,7.6411723447300375,-5.146815290666741,-6.632285004272557,-7.353937356237701,-2.2493189261335775,6.691772698156114,6.3063694106494586
40.0,-1.6374736513014074,3.7960843778970452,5.433558029198506,-1.0500198683709412,-3.522948628035473,4.653023152259464,-2.794486521226582,-7.019786871842585,-6.816070486246164,-3.546068306187605,-1.0381555804601008,1.250478644655637
41.0,-3.2829264174992234,-3.5094460963247283,-0.2265196788253928,3.4217382051095466,-1.514441574702169,-1.8401446438507683,-1.3761233558056212,-3.8291499928638544,-0.6033518010473404,-4.51563356907203,-7.96550030851159,-4.757951864491018
42.0,-6.189718743089909,-21.51236763578568,-15.322648892695652,13.796982884361746,4.581517174561824,-18.47720140721665,-4.36136866640262,-4.60266194472907,-7.752973374404177,-10.408912146327882,-15.958830697525919,-14.256613592700257
43.0,2.061520425693746,-8.21923301040838,-10.280753436102025,3.1058339011794818,6.187433508120526,-9.236293957517631,-1.4290563876699802,1.0519497003740632,-2.8582650926314948,-2.56761790592045,-6.539023615329187,-4.61338615641015
44.0,9.38046536344612,10.57602643572198,1.1955610722758774,-10.025229645894076,4.03128265481263,5.898681603045721,6.792839653675982,6.343620144936768,3.8800229384694767,2.227201510291895,5.034184428516567,2.9407286908113672
45.0,-2.09480282023996,-1.0406128725177375,1.0541899477221865,1.6054791538862263,-1.555340567889861,0.023388685723074953,5.136986264601594,3.022803879246103,0.28514649647267554,-2.00655973707753,2.4588165696744273,-0.7188973757549508
46.0,-2.7832153528491337,0.3593003937039807,3.1425157465530393,1.2553507654258516,-2.9415269229673915,1.7744300901672396,3.1568443530937245,7.307051004328552,4.458881673189397,6.4239648613801315,4.766869804748393,4.581878433470431
47.0,6.122783961477056,4.3140328602300535,-1.8087511012470596,-5.250056969210608,3.9901114644730242,1.2052410549884165,-3.459021563987078,-3.0847628515157854,0.5006054302853293,-0.8341850320801516,3.8935410062656617,3.7275865717931396
48.0,2.294067330232275,4.684946617705175,2.390879287472865,-3.5203357755573776,-0.09899376896476131,3.5754405393854585,-6.74937756368338,-8.428244667585595,-3.7305493691087768,-0.12992262581848157,1.490409451832126,3.945850057550962
49.0,-4.194455271134991,2.865248528473631,7.059703799608565,0.6317158945854353,-5.594497944910863,4.923864364551386,0.6913453637725091,0.043721587741530676,3.8792600010527334,6.579251568242986,3.083144429091116,2.8305341974769087
50.0,-5.924458610667198,0.6801683183145504,6.604626928981707,2.66412988996438,-6.30597831065192,3.6022065386940563,2.018909431185519,-1.3369631197702068,4.075746290318989,3.082454519941834,1.2937260552188206,0.8709056671083422
51.0,1.1317989014475835,-8.638518202344512,-9.77031710379215,3.791320679091549,5.493151852400463,-9.170865563276184,-3.516431730205591,-2.843147519139082,-5.483009209789942,-9.867356062863792,-11.905992985014644,-11.618489015718124
52.0,-5.1055815473318935,-3.7312335772225067,1.3743479701093406,4.375019336935424,-3.2720451944825704,-1.151685719685326,0.16951910095663858,2.297413296329668,-3.8991346280205725,-4.447287104468464,-5.910634288856848,-6.331234137247965
53.0,5.759944744498877,11.654612397035073,5.894667652536187,-8.67222506165221,-0.016599794085088382,8.794527300743844,4.332899437124623,7.322095037832141,2.8157175783382637,5.8343409453839525,8.385182269497465,11.489972519808507
54.0,10.97056545846932,6.8276805011054,-4.142884957363868,-8.94090888211648,7.532058312221585,1.356520542383418,4.9573261911813535,7.0733788171180665,4.071056214630816,4.86160636677892,2.608751903105844,-0.8582456510375498
55.0,-4.714511772166705,-9.794923597221873,-5.080411825055165,7.294925964645953,0.16067344254752403,-7.50639879496104,2.3157761924334777,-1.8321146550348977,1.847507878835386,1.4637040768939826,2.5576340919547693,4.2775401123682855
56.0,-8.929862963935225,-12.881234334494204,-3.951371370558931,10.87023581380567,-2.509949139708454,-8.408464803740838,-6.28018209550118,-7.421251728655174,-4.260259607336896,-5.0571383421528,-3.9775446175294498,-2.797572087829315
57.0,2.047913307529382,-2.5259322800948816,-4.573845587624141,0.28429244089817285,3.3700713651942573,-3.5419760524216324,-6.244538040507672,-6.310009280354516,-3.476852904512954,-4.089186678261111,-2.6476324645617346,-9.107911807801525
58.0,-1.1243677786774375,4.819153379969737,5.943521158647231,-1.8813428131186143,-3.552323317860129,5.392046334343478,0.01124134632539775,-1.5308558385566111,2.371229188280727,0.7955943153134917,3.2233492932969594,-1.267460201530732
59.0,3.6639821307063527,6.261718488334934,2.5977363576285706,-4.999813130706727,0.5162059915913686,4.446286604611666,0.11758910002860579,1.8485417914457936,-1.686927178675794,-0.6645822680087061,1.3383481505979733,5.083446664264481
60.0,3.574633854667584,8.23785304480637,4.663219190138621,-5.869388007588254,-0.5596353472649889,6.397062206084732,4.308761582952324,7.532279834164582,2.2178772942749303,3.8513945592792873,-0.8756337000876693,5.534034768959888
61.0,-4.058250693214978,-0.9528374063875731,3.1054132868272135,2.536721157633057,-3.5173709057117084,1.1121572889668832,2.117992801460227,0.564934537186641,-0.3377505637639515,-0.4735424043330787,-4.5958798034362935,-1.507739325732846
62.0,-0.4132852311893125,1.636084975856743,2.049370207045974,-0.6641227387237368,-1.246021402344132,1.8892365681993541,2.9955530781031676,-0.2600021381055173,-0.7610256300990474,0.9664875258959569,2.136798816865973,3.8142429355377074
63.0,0.8377769389619025,-1.5442527190085156,-2.382029657970314,0.3755787680846574,1.5924883543351833,-1.9870517413341102,-6.186091221198139,-4.425934903942641,0.1267306202293086,-1.1545113274986027,-1.4311398697863846,2.2296882054694582
64.0,5.128371431794865,-4.56909857940399,-9.697470011198671,-0.2591673425461818,7.390214512787317,-7.153368717149691,-2.443361379200132,1.135698650081904,2.51546163447538,0.9356828226972477,7.591041311510654,-1.110490797971997
65.0,-3.6657059650925348,-10.266494658881488,-6.600788693788769,6.9863064251702935,1.4377032757679467,-8.455586598016799,2.115069523455895,0.08252077845360178,-0.9889567461319704,-0.6883084092676468,1.0662212541844651,-10.015787903207192
66.0,-3.8662875796306073,-1.9339783198726685,1.9323092597579916,2.842465237085815,-2.857722471836035,-0.029906117971667978,4.54707303373101,3.869348902996879,1.2142222750387286,-0.6769219501473807,-4.854424798705599,-3.57894166347244
67.0,0.17560907351725263,7.85684333824126,7.681234264723932,-3.9934412106342245,-3.7168085529127723,7.808296202730646,-0.2510935627890205,-2.858375398611492,-1.2129415674771837,-0.7176167464570916,-6.368669851892173,0.6322374610394275
68.0,0.488063466438176,6.519491369942024,6.031427903503623,-3.5570957549987456,-2.8167168338923334,6.303815070271028,-2.967707472759472,-3.14959265639229,-2.845730785118261,-1.3371591985699434,-2.685749765860078,-1.397853481571278
69.0,-1.0270897274869688,1.1666559472118827,2.193745674698643,-0.04034148292567474,-1.5752178265228731,1.6998410690278387,1.6128045548723078,3.475391939151908,2.7765903422375366,5.825353218389582,7.885439184515067,10.12816188586433
70.0,3.65395975616313,-2.102619361748587,-5.756579117911716,-0.7406488550596542,4.666282906646807,-3.993488895669301,-1.0562588717527726,1.6808453607805256,4.013383311948799,-0.0733756755882804,6.264126688048183,7.285752991681356
71.0,-0.15204978804829983,-5.707847169653284,-5.555797381604614,2.971564017358739,2.7476485681373624,-5.61729025045318,-4.27981632475214,-6.144654175309029,-7.0757244615288855,-3.8250134202582387,-3.2433852968296657,-4.228368367815064
72.0,-3.364104890473385,0.8615748925011806,4.225679782975012,1.2203108801983018,-3.822476237692823,2.561636659329586,0.811974521833204,0.8557746414425371,0.1254901198805567,0.07352726989494163,-2.1065582916059316,-5.142030575645169
73.0,1.882429683065001,7.607340623101939,5.724910940037287,-4.771840274908428,-1.945961506828756,6.68988420282346,2.028241518771323,2.8697603527600943,3.7739079450194546,0.8781508470392344,1.8583479869639665,1.4689214404386632
74.0,6.4648262633638005,-1.9714401020887444,-8.436266365452498,-2.2730414556106373,7.503696755173953,-5.2528407924571,0.16148063006973934,-1.2976247702410129,-3.3584040841091265,-4.742653750696967,-3.506948918098608,-0.4475436489932678
75.0,-2.1169902927994517,-3.148381494986839,-1.031391202187694,2.603553014536585,-0.5731971835577958,-2.0558510022784224,2.8704222432015234,5.073244464654186,1.497117047527164,2.3887060289594575,-3.4278988034645743,-4.263203878554547
76.0,1.1993389528407843,2.30609798744774,1.1067590346063327,-1.7081137933454722,0.00809375091191139,1.662820604898283,1.9282955245279851,-0.41381702398366627,2.685310872463376,4.035358124045458,1.6036537761543135,1.9724931093759086
77.0,-6.9219621664374715,-7.317783759239272,-0.39582159280232077,7.158845883525871,-3.2315520443568526,-3.824240276177619,-1.2348151335285513,-1.7186568836107174,0.09679566441633258,2.2578704844314377,0.46673581970550815,-1.4809554123600415
78.0,-5.288163556246513,-6.75309955757229,-1.464936001326062,6.054543613067639,-1.8882826741889338,-4.082211485723861,-3.1233415336008306,-4.4074998396692715,-4.404313144309323,-4.908912116818027,0.8606203017787294,-0.02342854653059323
79.0,1.6169223095470606,7.870232509147142,6.2533101996001506,-4.792540857847061,-2.3004126049062563,7.002324317406366,-0.825977541931822,0.23265289231627007,0.8897472134158309,-1.9058816366509996,2.515712910134197,-0.19222443631188502
80.0,-0.10738742755975772,6.915761658971114,7.0231490865312285,-3.456546529047407,-3.628119030870289,6.981564546388832,5.176771286900368,3.1551412455676497,2.409796727240438,2.2960700211078344,4.6440525030413635,7.298299149230106
81.0,7.720022730175378,0.007964476038058166,-7.712058254136952,-3.8404558309950207,7.733825926196328,-3.844608444399737,-5.707603168320904,-1.4745069466086222,-2.6261752254499426,-2.0250235879950074,-2.874005893057161,-1.2634075895338541
82.0,6.1334655007588825,1.501115912520062,-4.632349588238533,-3.795826304915085,5.405583110055037,-1.5585772003119955,-3.261294238496663,0.6998386561207017,0.7114114946816624,1.7330766953323646,-1.083486414672082,-3.0875763101788127
83.0,-0.777915924212981,0.24376855001234288,1.021684474225391,0.2878712384053317,-0.8706516164889693,0.6443178870299504,2.7714638776604263,1.6399097382636412,4.27740825761291,4.671446526006334,-0.32477418347871856,3.1700195385411463
84.0,-3.5972856436539207,-7.775927993543049,-4.178642349889169,5.630077798693002,0.2474048719364875,-5.956908683534802,0.6534815911725518,-3.795660919400376,-3.1139970521670906,-4.428935585610411,-7.087367413732157,-0.9749973671163017
85.0,-8.29877863507753,1.8369392578189379,10.135717892896386,3.257014089683595,-9.255903121264927,5.939002775948122,4.487844772764799,2.7184970840125366,0.7543124163202883,3.5009233322606557,4.340808788465188,0.7542143517034023
86.0,1.982863609091551,5.837720785517667,3.8548571764260258,-3.878112319870819,-0.8939634596310087,4.888387691202623,-1.731535318077822,-2.6019695117919666,-1.4989798546779207,-2.6954048813533396,2.1397216884277377,-2.573636129519115
87.0,-0.4236384334355707,-3.371071414950932,-2.9474329815153837,1.8581554785018288,1.303011905013929,-3.188085043460142,-1.248761213469284,2.8182891410317445,-0.7918106872073514,-0.07220347310227582,-2.474305395987361,-4.512698142134736
88.0,0.20277637264052495,-6.212576877540359,-6.415353250180885,3.0516522101692227,3.268231199594249,-6.339411722448784,-0.02342866228961138,1.109264072967083,-2.4973966064462094,-4.875581286782763,-1.5490248985019843,-3.8800970783037285
89.0,4.295089487726481,2.539729532746211,-1.75535995498032,-3.443934354280483,2.9800679520416287,0.4442162090381667,3.0832709787696686,1.8541745069331732,4.562928098059051,2.7671332751905835,2.1724793680862735,6.937558710608609
90.0,-0.9570213683604676,-2.4059392942052225,-1.448917925844845,1.6575827490370818,0.27553981186271703,-1.9589437585684946,0.5086986736544585,-1.7925422669692104,1.7527105048487495,1.2878704077413206,4.523969746582307,4.405488299546306
91.0,0.9166993530265981,1.3142484088842428,0.3975490558573408,-1.1398642357190758,0.2867884911804803,0.8181375858769238,-3.3943054691835157,-2.3064759291897174,-1.9685111385006244,0.6099242061604868,0.2582297228667274,-2.202074022780743
92.0,0.9043888610837657,1.603788168266699,0.6993993071826583,-1.2027578370538223,0.12963066124204015,1.1871689426432408,-3.7146991948556742,-5.13102627862888,-2.5572022602645177,-0.40399976878565735,-3.935009297299215,-3.6657382505021623
93.0,-5.1404081230352965,-0.7742988419763948,4.366109281058836,2.925402627702095,-4.802840559260866,1.8285435723094752,0.38506830151554783,-0.6447506239275753,-1.885371568021582,-1.844079568491686,-5.002147388597454,0.6701074614636204
94.0,1.6091062776175273,3.0570726499602814,1.4479663723428993,-2.2914235322964553,0.11301028770738242,2.2850877746030136,3.004176185535474,5.191439535573535,3.2321417374297075,-1.3187242724700867,3.1505396501525693,5.372727338373985
95.0,0.7597389408804398,6.125431544126833,5.365692603246736,-3.406257806647463,-2.3457979273671863,5.7012651450500575,0.25851086522643807,5.808628379782535,4.452146234484269,7.6948624124141904,5.631848480002431,2.934025297292328
96.0,5.341100168432318,2.4935189163060154,-2.8475812521258663,-3.96528552246428,4.133351905405776,-0.21911326377278478,1.6763404736695797,0.8426564255091438,0.4693557522899994,1.1975042238304572,3.0337308224479296,-0.28148997014317156
97.0,-1.6067426526592115,-5.55728665346726,-3.9505440008076333,3.5283534397035807,1.1349076786473966,-4.716159515373372,-2.649502309656024,-4.666045698476069,-5.782056482671942,-4.360776630861275,-4.511800603633475,-3.426123614491392
98.0,-4.7307806578065685,-2.8653084301452765,1.8654722276615416,3.817995012171018,-3.332071369849406,-0.541581746623855,2.155148422543525,-0.7932876734933978,0.20317028119380698,0.22576909102668452,-2.213455640961045,-4.230649507564086
99.0,1.5217352168409808,-8.206842282213403,-9.728577499054698,3.359253633709266,5.674002723773729,-8.932719563750313,0.9501453686146523,-0.7430995285222368,-1.549654699967882,-4.749783138357003,-8.204957248279452,-10.270002106736733
100.0,-4.366777207464692,1.1347573222289737,5.501534529692852,1.6328712454426597,-4.880208001286897,3.3505824349090707,0.7741143252400122,0.11758126294360349,2.922468603003851,1.578452942616495,2.8846674391742373,3.7541219582466607
101.0,-0.7695922838841677,3.451944633656526,4.221536917539813,-1.3197519256677943,-2.5151757633138807,3.788531091831834,-4.348660164054971,-0.6800414784584659,0.26749255567984265,-0.6898091152933623,3.4464746463534874,7.150036587513759
102.0,1.363234265262974,-4.533215663755918,-5.896449929019154,1.536579457078843,3.613722980180424,-5.184664663646308,-2.1414678854532943,-3.877967686175138,-2.6311850776720327,-2.155103940720643,1.9993143828337732,2.5174836196023884
103.0,5.273517835081132,7.645711338634975,2.372193503554307,-6.417155871460023,1.434572900763627,4.961923008130668,3.4732576215587754,4.185763105228881,5.739410890028636,6.172542353062334,7.242791179047163,5.420372781190501
104.0,7.635506309235801,12.262808306915776,4.627301997680742,-9.972020133613283,1.483848848129847,8.480093158934327,0.22912331029687705,1.8264195935489742,0.1094338082610975,4.407454344112438,-0.3808776991941154,-0.3493631421103105
105.0,0.28674547743688983,-3.8184376599272962,-4.105183137363477,1.7556057785991275,2.168219342044062,-3.922416531814373,0.3626601759996745,2.4271344316124903,-3.7309401076790296,-0.6854282028943626,-4.359377917026778,-2.5431474668341867
106.0,-8.512064400098854,-10.27823721394729,-1.7661728138482198,9.394892824958188,-3.3305237931541343,-6.057311841148563,-0.7434063969849514,-2.6769783381408088,-2.7505368840186604,-7.188981829569159,-5.0025314113560455,-1.7864227964169728
107.0,-6.585383951531757,-5.300015055940508,1.285368895591012,5.948536289001199,-3.899948083210064,-2.039492056343826,-1.4938096308668631,-2.648528883570658,-3.355073782872769,-4.6019677127814065,-3.3371175105480653,-5.435893326359475
108.0,-5.038218425738769,-2.3251514350356075,2.7130669907026173,3.6891423755183563,-3.922396290236299,0.24135996427363882,0.9698189069172211,2.1716733423838677,4.550029404341108,0.19186518913237505,-1.796196466955513,-5.91909648444906
109.0,7.6235019674462645,10.162103952117779,2.5386019846711645,-8.888205574045088,2.575010448967169,6.317621829739476,2.697267904563123,3.0072995350086718,6.185672676906408,8.540567321189238,7.8553172231283845,7.6740111910980335
110.0,2.192659678056224,1.298047042317541,-0.8946126357387573,-1.7476354519437307,1.5794886354911264,0.16600925802568334,1.2785064050583208,-1.6867843089618346,-1.2041815677259926,4.08452758902156,7.025573298337699,1.1021509217329544
111.0,6.006265859540868,-0.39791328034436324,-6.404179139885125,-2.816507391442175,6.165915617930105,-3.3616416114512706,-1.110451851919799,-3.9529139554906845,-1.6419617873294743,-2.1314444192358613,-4.847308728754332,-1.1970478996539415
112.0,1.4580016803801268,2.3192974537694395,0.861295773389434,-1.9130438706638973,0.26036470551597635,1.6260989715716858,-1.8606377611779092,-0.783094108497141,-3.716266410312909,-5.062090449936693,-4.437952245081523,0.25827668747041566
113.0,-6.202105335616369,-4.421179257899325,1.7809260777172873,5.353225190320535,-3.9533449008389305,-1.2878279246258997,-3.4877886749874905,-1.0652887453238153,-1.6236904412201707,-4.192141067636624,-2.5461384670754255,0.5197177204404743
114.0,0.641295318926097,3.7627565550711863,3.1214612361453367,-2.1726883483804693,-1.2872064394560663,3.3917810787203555,0.1482652483208724,3.7941810346786515,4.246303335722036,1.557645760250225,1.4044522651879654,2.8166581846080767
115.0,-3.8025896790341864,-7.431334013079033,-3.6287443340447063,5.556838853058363,-0.06426753670567109,-5.585028855059239,3.695409001516402,4.018548788215461,-1.0230867758595887,1.8610210501761644,3.130646700303866,2.3376896432102963
116.0,-1.5015096423241316,-2.445061459127986,-0.9435518168040137,1.983488437037867,-0.26527873990025463,-1.675688218492953,0.9692748587687938,1.3222139744872963,2.8842702056821303,5.6478537595385205,7.985821849177707,4.202788847963912
117.0,3.3128881741185703,2.316234745210415,-0.996653428908563,-2.809959401206658,2.16193112526268,0.673999310092237,-1.1056530938169393,-1.4622988274770852,-1.56574691633213,0.8922394445554125,-1.0954690504193625,-3.771984090277095
118.0,3.8218672148818817,1.7790966824182484,-2.0427705324642016,-2.798368363989162,2.9368544673174437,-0.1196486206459747,-0.9884806492730143,-4.372162956969211,0.03536275878610967,-4.588035872619018,-7.200033818052442,-4.834988088045903
119.0,-2.4965418520466733,0.8839615294622896,3.3805033815085483,0.8089334090979321,-2.9325081352649525,2.146082408248186,-2.0857127474656973,-5.29495829245401,-4.35803953304277,-5.107662178309933,-6.775859175857558,-9.006957230199173
120.0,2.320775033234289,10.336825338683118,8.01605030544886,-6.323207477304654,-2.837021538535066,9.195905470072985,5.824772909674803,3.270872964823666,2.8512626020285436,4.7214716511910995,3.626596755738791,2.067433631596084
121.0,-0.7654148045377376,2.039853132825584,2.805267937364025,-0.6273154087400734,-1.8473398690344631,2.3719519978768675,1.5642431575002307,4.602373865047732,0.547586652443865,2.51170244854667,3.951507419857314,3.8482375130542494
122.0,-6.824027994821163,-10.546250771991632,-3.722222777169725,8.699478218067854,-1.5280076209097666,-7.096081237387548,-5.19466241320571,-0.43565998258609584,0.38069251436721663,-2.791669842123952,1.5976109632557312,-0.23185486600764182
123.0,0.9236778797399761,-8.297557577897116,-9.221235457636674,3.626122485249626,5.10050307500211,-8.790541520347222,-5.534447077976452,-2.7891280979801683,-2.7213593610775804,-2.076831585819516,-4.487601284562295,0.7816187533030976
124.0,1.2969835742187676,1.9344170118151762,0.6374334375963615,-1.5952918687921689,0.2828615631268634,1.262151136083972,2.909629619599086,2.5814159914899313,3.926769654774303,1.810830507692205,0.7465466391166191,5.412043423976913
125.0,5.332272791251981,4.859944190347433,-0.47232860090508155,-5.073803836232567,2.9366523582751003,2.2532719770657197,6.166968264539112,4.076327795298588,3.8550533395554827,4.61497263640877,2.466794198096688,6.417664478695112
126.0,7.725333890721959,5.309436217649866,-2.415897673072749,-6.571456918535195,5.106488677340496,1.4290182996640277,-1.0786861420348188,-6.04468656119356,-4.712086704803838,-2.3359047545533214,0.0952659200160011,-1.3582850313346129
127.0,-5.105556517869482,0.6129733996182423,5.718529917487352,2.2747609647903935,-5.454092116912382,3.1470772195720644,0.060111759307164725,-3.1049542220851447,-2.3033742196170945,-6.154374295415794,-1.1040980507328364,-7.2250925710536436
128.0,-11.119229080007672,-7.049182802921141,4.070046277086519,9.118007563268439,-7.636269776384266,-1.5108094292655756,-4.338740843991937,1.0488650204851182,-2.135849750821893,1.9092338650517187,1.4693789152474521,-3.169655999650005
129.0,-2.291232370290766,-4.44591606219579,-2.1546836919049914,3.4081572281432484,-0.030894941978249157,-3.2461503779894096,2.3516416652718606,4.523877949138963,1.8930663319751628,1.8453204490098574,1.6787978893978743,0.46714892838377153
130.0,-0.9505599130543425,3.906791202136321,4.857351115190893,-1.5131306129526374,-2.8663380885674474,4.353925515860007,2.473877332519196,4.504218798581424,4.606460944962384,6.232502780185497,0.3654479626407208,-1.2747978503067907
131.0,13.052253712216912,1.2233950908730593,-11.828858621343542,-7.172501466839435,12.399496136065482,-5.255638672194072,-3.578993851295735,-5.584926895593761,-3.4684300113972064,-4.570231170653693,-6.62897340475222,-3.3300632177195784
132.0,5.0019435878764265,6.257278646152704,1.2553350582766072,-5.66893847896323,1.9104733312388387,3.721128375804537,1.7118152681971963,-0.927773661564711,2.3616082239218676,-1.0413488974231095,2.3830677023114766,7.715197518367287
133.0,-3.132666130310758,0.3351447630042603,3.467810893315509,1.4290905561988145,-3.3434134217471883,1.8628033572099005,-2.776796695739278,-2.459115536827309,-4.687412380151189,-2.166557742694886,-1.2252533763868436,1.7483949758769661
134.0,-5.765605012061356,-12.436590135670183,-6.670985123608485,9.1200506870809,0.48544648827941006,-9.516756498948725,-1.894780484603038,-2.215638169096628,-3.1325362713685365,-6.796380758638928,-3.0167324958480854,-5.018883308188479
135.0,-4.11912305942142,4.569368664001378,8.688491723422763,-0.21687247687838518,-6.453366609556873,6.585425587659283,3.5511426098277803,3.985785309417511,7.061000462743518,8.027013119616461,7.636210866934432,3.768370433060113
136.0,-0.10401948662411531,5.5668771824892005,5.670896669112873,-2.730483046604948,-2.8614418615358517,5.6543838429128614,0.6168749243188985,1.300781155649075,4.098175516276407,8.409050555869758,1.6712098265754252,0.7165359566668474
137.0,0.8912314739808023,-2.8922784902493968,-3.783509964230952,0.9992858781361309,2.3621043011929093,-3.2999573733811625,1.2959190111062024,2.8312419990117297,-0.03380543385320345,-0.3300061028238299,-5.190705212084732,-3.28197946894655
138.0,1.583334640171574,5.47573152829483,3.8923968881224917,-3.5273887403919395,-1.2066009879782296,4.646997789883718,3.4357282979535007,2.806948436487877,0.09133792381099115,-0.9409769637925609,0.416428066531048,1.4630981399622998
139.0,-1.208783228489582,1.9580935513591158,3.166876779848213,-0.3642299942378735,-2.155353454096142,2.6074159814819495,-2.1000256657969265,-1.4462637493952362,-2.721501848584688,-6.0550435017827615,-0.09642243860366917,0.5331335286630978
140.0,10.084814417833769,-4.390058146247276,-14.47487256408082,-2.9038933915716836,12.32150735398734,-9.46559393488053,-1.6608296861481076,-4.921783175666059,-8.652032225662401,-7.667093371006539,-0.058296857409530944,-1.4933943914701586
141.0,6.034001142584941,-3.4489546519622936,-9.482955794546548,-1.2566284132542633,7.732435659050928,-6.502284549977045,-3.1881435560263927,-5.439895984544227,-3.599667644776438,-1.8499052802953053,3.382705927059602,0.9563951369973429
142.0,-10.930055775048807,-12.667299379852087,-1.7372436048025617,11.769546582163896,-4.611720726181614,-7.166740813688101,-3.6167745142509062,-0.6739434922994549,2.396188743980262,3.0334004666550882,-1.0605044341050007,0.2143049913049554
143.0,-10.40579630713545,-1.9778459767476626,8.427950330388436,6.253341211756085,-9.423846765830985,3.1732230627359117,4.879996477301516,7.77322297538746,12.174421694092763,9.282816603826117,1.9161729519022628,1.2733938111503817
144.0,-2.833044338888344,12.965473757838524,15.798518096727047,-5.075332702418839,-9.318074421815236,14.401786132627667,0.8133888459054512,4.360218951375035,8.009759820163215,10.2331508671425,-0.1852187174863002,-1.8023755741856173
145.0,3.99016636015702,7.942059644464403,3.951893284307152,-5.972668179573187,0.01772020684079667,5.964386154510485,1.7597145861510206,-0.9798643761127628,-5.8350488769192115,-7.074903385618949,-11.686016560312334,-7.3132202533215445
146.0,5.830591983603556,0.7314441462082248,-5.09914783739577,-3.291516226628199,5.46135952588002,-2.1620664309852757,-1.7791327688931171,-7.890194940743612,-11.910383636286713,-9.128418047647411,0.0723790594007796,2.6474146115374477
147.0,9.467000182076385,3.3130155281091285,-6.153984653967818,-6.4104520137900485,7.80318919989228,-1.3877701028356453,-1.1321581731871386,-0.7483564839698862,-1.044197485961436,-1.8139916488684156,7.56661749356579,7.0656066186121445
148.0,1.9461133631758374,-2.1474772400341333,-4.093590603210357,0.06654313432154568,3.086880743165456,-3.1515974459340037,-1.0294463719637124,0.10575734040409634,-1.0870745773436588,-1.1644160651093673,0.9739800854950187,-3.6198324066910676
149.0,-4.981713266054694,-9.878389736318898,-4.89667647026436,7.460835693503981,-0.05881758454857611,-7.4035718837462445,5.4149442010561595,6.499071699168136,6.197328026397593,4.763594840903349,4.472634897081967,4.47889628566718
150.0,-1.0880132093121926,-2.9869275946801785,-1.8989143853680175,2.0582231999398948,0.38431443045800917,-2.4479537672601026,2.8600832521306607,3.128853256060077,5.432296635415327,3.9643004211340447,3.353916972199011,2.3694766732874593
151.0,-12.305119023579852,-5.106742172042562,7.198376851537303,8.723380218531467,-9.778209904624969,1.0450012311964842,-6.191085817276367,-3.486014094138941,-1.3595864210294435,-0.763113283031877,-5.5222000021048805,-1.371242510525426
152.0,-6.773315309205108,4.910207124151499,11.68352243335664,0.9533828453321092,-9.260597693659157,8.292861533126418,-4.763415698045499,-2.912746599469152,-0.3550389929046605,0.9963756600324791,-1.8615582852281753,-3.055400819942146
153.0,11.627630623114396,9.073743820427227,-2.5538868026869794,-10.39681892956023,7.131735849935841,3.2469554737814414,-0.23773598137249996,-0.07153842237782371,-1.6405485284374204,-1.8733560193535321,-4.980577423080479,-6.633443294120863
154.0,7.487815981778651,-0.23052417487751775,-7.718340156655943,-3.660577314998501,7.639160510548894,-3.998982286587159,4.63954344875235,-0.48081715108171863,0.7725367014146856,-2.7308742174949034,-0.04055291980942366,-0.22556831545417877
155.0,0.9755841815674664,-4.417508837129817,-5.393093018697075,1.7815846788683949,3.2164072468257032,-4.8617667306798396,3.3556998416098365,-2.637847768235532,-6.170092840545733,0.24941158139931519,2.494004401874796,1.9806149570905438
156.0,0.8155873351802296,3.8389255204628556,3.0233381852828103,-2.3356106338703384,-1.1540182797105523,3.4674706614926354,2.261318112162037,4.814761933355621,0.9921554846240421,1.339339351875748,3.1687731950744036,2.240689659392397
157.0,-3.6656529871037398,0.6005555895403426,4.266208576644083,1.5273430593873294,-4.019471124841004,2.4667661580466786,-4.018225055199401,2.8875713937292344,1.630271791315721,1.0263263337040256,-1.5867104133747902,-1.6547800745948633
158.0,-7.663975046781891,-2.6255713500050617,5.038403696776823,5.135226208057509,-6.329477880974496,1.161392715169674,-3.0860606034211697,-1.7219169763301605,4.064391632310226,0.07034733661600712,-0.43179692325942154,4.764934436325559
159.0,0.24802006651357011,-6.964070870378301,-7.212090936891949,3.337886230025747,3.7484842182846254,-7.131192218673997,-1.0872353779270527,-1.2042839893851265,-0.9730661371260805,-0.4639846525775835,1.0691713623097996,4.597001984288128
160.0,3.55683994049146,2.1113190706835994,-1.44552086980801,-2.8679010065196118,2.5170381559894235,0.2919466342755723,-0.6210274028043663,-5.517217679085617,0.3999873513131654,0.3481088409083522,-1.230007210698343,-1.6173398953902458
161.0,4.289502504680311,6.922858534552395,2.633356029871964,-5.5738273261776135,0.842288336854992,4.818073684424876,3.174963679489367,1.8862432889985938,0.63375857464296,-0.9463764602052233,0.7692247967899631,-2.6527817146070927
162.0,1.4270940050868448,-0.7063585206570004,-2.1334525257439,-0.3356677578937206,1.7935108562311133,-1.3771115861369658,3.0352860187191135,3.716076972883864,-5.760743271823273,-2.588113381547565,1.1367690454668626,-1.9771717377149374
163.0,-1.6682882810046864,-0.4427602142840551,1.2255280667205837,1.0794987730081784,-1.5132386291747921,0.3596263655690325,2.83264343936595,2.981792880881775,0.6483476435879112,0.28129201943990084,4.904312739816579,-0.8928709710343048
164.0,-0.4775226054434012,-2.847015273619529,-2.3694926681762487,1.6918658097840344,0.9574857335746002,-2.555723471275332,-2.7222906581024193,-2.3937071629290956,-0.21827016490553955,-1.5070213554802652,-2.7818746859242336,-3.9655375252685237
165.0,-5.5939827661682555,-3.708170078664037,1.8858126875039813,4.611017210220403,-3.729066083648805,-0.9315627115004421,-1.6979780996386205,2.3371626345712313,4.7561814121839605,5.246869348908084,-1.7779965187388274,2.170686403649993
166.0,-1.388113573607299,0.8171924180580614,2.2053059916652784,0.25403648064575535,-1.785347279719696,1.4953457796914558,-7.531734686028744,-6.160829919488873,-0.08378479549582996,1.6516848339651657,-3.9734896853284356,-0.5633584653231405
167.0,-2.8909721328775895,2.350219194100636,5.241191326978395,0.24373772138408045,-4.051794466665739,3.7814688650446464,0.37848542626175385,-1.836089964623971,0.8046939989186845,0.31216174896750315,-4.333962654245848,1.7249929327403362
168.0,11.015692023512768,7.029323011014943,-3.986369012497657,-8.971098621885563,7.44283385372061,1.5055658211443668,2.0984919686457983,-1.2268581817566035,-3.2969819419655835,0.042690735632303745,0.648642413972572,2.962851952878735
169.0,1.8271001745226725,2.6260927871886612,0.7989926126662237,-2.2596154857495248,0.5444668538429958,1.6922696976959009,7.395213622636109,5.92662197184627,0.173587017432965,-0.5643885016710806,5.526531011486039,0.3166310060539397
170.0,-3.1753652494177795,-2.874248016345774,0.3011172330722187,3.062147167920477,-1.6951298263162269,-1.2336565329155575,2.809724471962666,2.5507842998118035,4.020908480565115,-4.009438232705476,2.3887355687720073,-2.2145373513837905
171.0,1.1927961588905631,-2.9148167103991085,-4.107612869289689,0.8116195735920992,2.6282731880082615,-3.4634861888157293,-0.6820046746928583,1.0200812397745653,-3.793788672319593,-2.3437731151148244,3.2796992551558657,-3.331662957245558
172.0,2.0793248793486043,-5.186970420518663,-7.266295299867272,1.578539030513099,4.662993996631717,-6.261332301819461,-3.488841628353753,0.8094301061068734,-0.859731044143874,0.24769246329324568,1.1577558447269158,5.033328388505683
173.0,-5.709918237895063,-4.900483921284846,0.809434316610202,5.330413339431033,-3.261677517578101,-2.0819054496385494,-1.134017874525,0.7482346343977079,1.5031491927851137,3.309221432617713,0.15997646196871373,7.431775229760128
174.0,-8.383903427563379,-10.444536930077588,-2.060633502514358,9.4451822505619,-3.1621341814501243,-6.2885456528317105,-3.5654146040271004,-8.519697312949742,-5.119861714766798,-2.187169743230566,-10.552509710471641,-4.190811558641656
175.0,2.760853571373536,9.888668193296436,7.127814621922626,-6.363084717514419,-2.1894677484043896,8.553485403461693,-4.476737466662981,-8.498012261226295,-0.5559133048149052,-0.0728570391587322,-1.3445360503448125,-1.5667277585304502
176.0,-0.13397931881010683,8.852226376982488,8.986205695792293,-4.386845445118009,-4.577638979077263,8.968670524357892,-0.5621991362635572,0.9973873100824413,0.8998356911193137,-0.43313305854600703,-2.04515824607646,-9.466017828899219
177.0,7.570708510100638,9.459011433783196,1.8883029236823932,-8.533561192275155,2.8871093831003494,5.649684665855812,5.135759283868868,10.152049133519064,10.271352097373041,5.697633656575725,3.3437389211271107,-6.960470324509304
178.0,9.538998989342627,10.060020448977202,0.5210214596346999,-9.734133166079511,4.460304599045197,5.272019417906985,10.199261147938536,10.050679990152672,4.699969762672085,3.7048020847729637,6.844239516302553,6.045554986679026
179.0,-0.7498425440512269,-8.04746705719514,-7.297624513143678,4.3858023471936916,3.290851031350452,-7.686385269881624,-0.7684106425908181,-2.0305033935889414,-7.802003750034078,-2.985909639126172,4.19611138570211,5.082951737059288
180.0,-6.316837024479665,-10.358897387955079,-4.0420603634750005,8.32071836110034,-1.128248281068347,-7.211049412376778,-4.688992195831758,-3.5875272531987026,-5.324979203123246,-3.588646901883,0.6336737288205609,11.020578184354118
181.0,-6.849893114335881,-2.016788859598586,4.833104254737861,4.4081306706606,-5.8337227837502,1.3993411913415228,2.1748511210393033,-1.3456721288628337,4.127239013962343,0.15996546167771042,-0.30545178119917504,8.567405726264829
182.0,-4.041843931139182,-9.898440562270308,-5.856596631130518,7.013784783702004,0.919750071945761,-7.807254982611538,-6.382858615253789,-7.4850135006003935,-4.3424199253822895,-3.3622135339744377,-10.013838591648703,-11.648750857226005
183.0,-0.3072794360197011,-9.970306892243507,-9.663027456223634,5.094351837022139,4.698889864662134,-9.826282744974359,-2.4563255725789777,-5.199549549786184,-4.029477435755977,-2.085503916172013,-2.645731041727723,-9.809891386749642
184.0,4.312904675124619,7.190703244116219,2.8777985689910057,-5.7240054425115385,0.6698974466431765,5.0218039137846535,1.1584971594864992,7.307331392268544,3.8193205322991552,5.163096680625657,2.125517384095343,-5.850579782813812
185.0,-0.38903447711869266,9.662855059886466,10.05188953700414,-4.611323019170118,-5.258958419795478,9.840244754199215,0.8954877186152355,4.620582632535029,2.465828674730958,2.154184125479388,-0.050746786135376976,-0.46944743056684723
186.0,11.34294732291886,21.538449606962264,10.195502284042366,-16.49155337325185,0.6208267929224993,15.843716032891974,2.286814747098786,2.445024315901689,6.899295314682385,0.03911110925414496,4.166312593312917,11.786042368930898
187.0,1.2685657823155596,-1.9562031727977818,-3.224768955114028,0.37738144558763054,2.219305834887151,-2.620225331118755,3.2266577557559284,-2.264515954765648,-2.7740132708421834,-3.0749966655179346,-1.243491283208411,1.8074132936812886
188.0,-8.994689508660166,-10.891110711419206,-1.896421202759157,9.98324488843284,-3.4955211546235256,-6.350155198232749,-0.3886353429277687,-0.06256826150971695,0.05458854189323753,0.9464984372121481,0.24857896824731562,-0.6807655742072751
189.0,-5.315171943682424,-14.031878402608065,-8.716706458925188,9.640366716590593,1.6764855204363263,-11.334036934783931,-4.862648044107027,-7.156015843662889,-5.793044577830375,-1.3003521974248828,1.5536027714612195,-3.2997003424051234
190.0,0.20224408848539888,1.3777787141488833,1.1755346256643033,-0.8216002993114326,-0.5110146216338388,1.3154553514178557,-0.012618267518338389,-0.6769035049410745,-1.4745605844583292,0.2144919630461193,0.7821498302231198,0.19068314763127536
191.0,7.941120635752036,6.941015587299235,-1.0001050484518723,-7.475595296259597,4.5239780781224805,2.9297144464278397,0.7449593080945967,5.3740842983329085,-0.7113942395108783,-0.5077888192165383,-0.3872213169733912,-0.684507071672771
192.0,-0.48002729915596376,-5.629424986080046,-5.149397686923347,3.092274757245449,2.3070891039717,-5.431783230715337,4.998550408790303,5.281051266742129,-1.5146308218726108,-0.3881516398818041,-3.908868819084682,2.859805501275436
193.0,0.5458032211772805,8.722255591284396,8.176452370107366,-4.604904396042421,-3.846594073288122,8.403808357683644,1.5685315734019487,-0.13838138654029875,4.8362014795615975,4.78177966283751,4.125598474730426,2.305178019254588
194.0,-2.3023807457882413,7.3866350223654,9.689015768153396,-2.520792220975387,-5.953327333950858,8.567017722989553,-1.5598480564277772,-1.263276273335303,7.646854496535312,2.6778457208286177,3.4195436740763303,1.0084371958131526
195.0,0.4108782970900149,-4.771439332316262,-5.18231762940702,2.117704010549953,2.754138109735534,-4.950757638461115,-1.9421437374906634,-3.616584620297127,2.110279965451347,-3.689191000138049,-4.8874528800118044,-4.450862635330882
196.0,-7.556817299243521,-12.49998445778372,-4.943167158540924,10.043198077261334,-1.2767476028347156,-8.695774866180846,-8.807366707086025,-7.058933553458966,-5.062782751247442,-4.990153744155721,-3.532269284396527,-5.909712039717481
197.0,3.0646878645493945,-2.3380623059862273,-5.402750170535954,-0.34591396228643534,4.258446000669469,-3.841401614537168,-1.562279728110266,1.7244278985574581,-1.9786974045390826,-1.0315904675177707,1.9703888446087223,4.743362248376822
198.0,3.9590555726712293,9.705962608979913,5.746907036308739,-6.8092247810231985,-0.951537137155182,7.682683752798965,7.292313231363458,4.64769096798134,-4.293997013227402,1.2354596619729055,1.5177412821475977,1.5961095022807823
199.0,-2.1059433457146164,6.441201169166826,8.54714451488182,-2.215270778147797,-5.306615515863586,7.457285129640886,4.251584751174143,5.206369160836676,-4.079220671809166,6.656092150403413,0.08661769126386365,-1.8316401101506892
