Time(ms),I,II,III,aVR,aVL,aVF,V1,V2,V3,V4,V5,V6
-200.0,4.281913214695438,-9.80379813404699,-14.085711348742443,2.725726717298113,9.131603125250397,-11.906102216796219,-4.101970258544312,9.446939792738009,7.870666693067429,4.6362529700162405,-0.4779302569305064,-6.9954525961973175
-199.0,-36.66915008434529,-37.81457194400754,-1.1454218596623011,37.205231006212806,-17.726745616899017,-19.519004181405343,-6.9644164381532025,-8.802023712561803,-16.967845629681733,-13.143227871123909,-7.9149395248056,-15.681311464846628
-198.0,-27.438931872586735,-24.73567027974712,2.7032615928396204,26.125449222829342,-15.108282128956471,-11.057794899875676,7.164796824932892,-15.38568741048802,-14.310807986591136,-17.25420538918899,-7.905268119586528,-8.553610532681793
-197.0,-7.550214394691817,-11.566953170984165,-4.016738776292376,9.591295685123503,-1.7219623888864586,-7.759779443069662,-1.9321529018806354,-4.626187661672519,2.68862818035681,-10.142846526175262,-14.317562798180356,-11.951456731075845
-196.0,19.29987839591925,15.833513249526545,-3.466365146392802,-17.617889763467225,11.348798452692385,6.2101527689563145,-5.778747622672516,-2.4907820242818843,7.271693786492126,5.084078742484369,-3.7059991003063733,0.24362939163302855
-195.0,25.581633686344357,36.31431762478789,10.732683938443262,-30.92364946335559,7.465440341671684,23.546378383082185,1.5328945058239287,6.730687477952619,9.163589893202829,20.34734896483058,13.248775848770157,21.793124394593818
-194.0,0.05897088765058811,9.395699832698693,9.336728945047716,-4.703375151669565,-4.682103541891673,9.309838460242275,6.3495315718316405,-0.12538820127339578,-2.9763777556230337,3.7393336081968993,5.079436303127121,9.809337473300141
-193.0,-2.100378919894383,-0.7952667272838347,1.3051121926101423,1.4742727070998978,-1.672970674780006,0.2801821906410691,2.999279248427591,2.954464963760805,-0.7287456211474984,0.5936097193321928,0.36899544822657937,1.0173577640157605
-192.0,-11.409858741365452,-8.065150967563309,3.344707773801852,9.689807564538015,-7.430397314625612,-2.329701455393415,-0.2309590290092256,-0.2799175885547047,4.606434209969104,-1.2463026825975756,-3.3734954742455914,-5.206061620864405
-191.0,2.9858768969965475,-7.586194250737508,-10.572071147733952,2.258234462217125,6.8037963662908645,-9.121562279695155,-13.19853138616334,4.195889905893572,-2.4817726755665497,-6.904766748533529,4.5182762123595825,-5.393975056571538
-190.0,-4.689292538530684,-16.824908405420654,-12.135615866889598,10.800235380885766,3.7514209998979067,-14.439636521876167,3.851364906305329,-3.402780999898617,-7.065871380673521,-3.6186047468513207,9.561729568547518,-1.9140471483432941
-189.0,-1.9015747376614076,-3.501663572271717,-1.6000888346098812,2.672665102304962,-0.11511211427288104,-2.5877267745798367,3.2401229616612373,-2.5252871238827175,-0.8212566042495557,1.1317888031577095,4.220013570493666,-2.1116663263289333
-188.0,5.487648297620341,5.998270731297511,0.5106224336774701,-5.686161056113267,2.4551266733246404,3.215330424890153,0.015249485442712984,1.7577021575182459,-0.30141963196683885,-2.6123218429071904,-11.570486497927076,-3.71722204179427
-187.0,0.3383863645646281,3.0831387352578234,2.7447523706933374,-1.7256274046871622,-1.2267697067497498,2.9484175028795687,4.250357289445885,2.1323469517081954,-2.091340534192835,-4.5837516305185355,-15.921673342071365,0.6180059136408743
-186.0,-4.412995344930082,8.949548367455566,13.362543712385689,-2.276692918445331,-8.903670323236183,11.183902524763326,-3.9424545568392126,-6.481065381724403,3.5838111059867037,4.847032009879474,1.933923405168036,8.468897129691983
-185.0,3.7412689319346493,-1.0859755860520748,-4.827244517986783,-1.331302891946843,4.2725366877199935,-2.9351994809219466,-0.5710180405422127,4.464912039545525,4.658215300541938,-1.8088284669007129,-7.222565976379739,-4.0831821011641525
-184.0,3.228803000915412,3.6213466389914535,0.39254363807587356,-3.426648365397332,1.4854313869247275,1.9445957220061563,7.955304552141818,5.825263145755096,3.4510595173111556,7.861983106646594,6.796296333308867,-1.3262903749857977
-183.0,-2.1406818037409057,0.9363635346256216,3.0770453383663248,0.599466916863454,-2.623587126378477,2.0201928916807304,-4.814964690194209,-6.06526320597888,0.07709075185920566,7.822624692834175,20.191105056995244,4.991810048828099
-182.0,-3.049371506215663,1.4377570121342127,4.487128518349669,0.7989598690976456,-3.7890112693758127,2.9751620691675296,-5.375577489144213,-10.189256726617973,-17.22538154729129,-9.256566110362744,-7.678695676262157,-7.112856565442026
-181.0,1.4755683968595636,-3.773740982256691,-5.2493093791163785,1.1358629573982988,3.333849326567806,-4.497918859855634,-3.3060283774554784,9.810128306343044,9.544920194621083,1.0040829361842478,2.2999072277207198,2.0794882803272756
-180.0,-5.525622383616892,-5.023693283635065,0.5019290999818082,5.332800138122172,-2.9721956506609106,-2.2455937838782596,6.881833963112099,1.9016727420619683,6.360840227174394,3.7992447328597,8.282038569006595,6.466504229926991
-179.0,8.797579511405416,3.34149033131121,-5.456089180094175,-6.097255262195232,7.160105923116793,-1.1192474734342097,-1.259162154624644,1.3137366840996132,8.949885293004693,-1.9893351866904014,-4.637817279344881,1.2268975538507672
-178.0,2.8662437786051056,-7.3611772268359585,-10.22742100544102,2.2140007703758116,6.494298866758924,-8.776888937936581,0.21735967599139738,1.457023136689063,-3.745159233994319,-2.756923132604024,-3.24016803769177,3.5936249047726543
-177.0,-1.6061317026108095,-6.938044684542547,-5.331912981931644,4.313773446779031,1.8843088899732792,-6.118155562866263,1.5263893677763396,-5.450804162677502,-16.487126560350134,-11.000639530245573,-17.435535815153745,-10.507522463059153
-176.0,-6.4370425825608715,5.6280741287982226,12.065116711359211,0.36635380591509226,-9.309880281970901,8.861819086902711,2.7789364864884125,-5.654037997417532,-6.465261228433232,-3.678918447680372,-8.71699653063236,-4.549391666247619
-175.0,0.16649971297323196,9.166793888891364,9.000294175918224,-4.624650971826213,-4.394134937219434,9.096723735329494,-1.943403072978045,5.179133847902835,-0.7350391726383196,5.601562503994276,4.591533625205001,-1.9455622831001254
-174.0,-2.942181731261351,0.5881817841784089,3.5303635154397703,1.1434470977084898,-3.2060862751590835,1.9920926985847842,-4.057863438254956,2.474906570672438,9.216456439635063,9.800917337484751,20.00289889657754,8.090263992877258
-173.0,-1.3817024378073153,-0.3866495275502708,0.9950529102569776,0.93334339420644,-1.147025051274858,0.31568708363541464,0.24704423328896885,3.046155524874268,13.625539804060255,15.882239615121081,18.476092510225065,7.508265408496001
-172.0,6.406265607369732,-0.6495594882370237,-7.0558250956068775,-2.904414244517007,6.706290213323463,-3.8387398505892354,4.4486992695571335,2.8175157328094027,2.911653387653071,-3.9556075196646896,-8.453551983291863,-1.8631203645423327
-171.0,5.80597303387772,-4.003122474011808,-9.809095507889634,-0.9253862669008066,7.793715460702501,-6.886661194167992,1.3897731165688927,1.4103640539231006,-4.498847354174851,-18.689687689177873,-20.491666225915996,-13.0729837886765
-170.0,-1.8345460307842463,1.2419115768811082,3.076457607665289,0.2726554014509952,-2.463138104591798,2.1866233338183774,-3.733029524266432,-7.879237318958857,-5.228514665824451,-8.147526726678777,-5.386373150339203,1.136660481112738
-169.0,-1.1197448004947566,14.474011092056193,15.593755892550956,-6.623264189386687,-8.364731471966687,14.991439188250302,-2.1382019170564104,-17.294028529997576,-7.792905733711588,5.62383426716716,7.211326683279562,1.9045172101731718
-168.0,-6.132341314277916,-15.174803922220914,-9.042462607942905,10.62663877480423,1.440401772000269,-12.064808712316452,-0.19818739402094476,6.372882379405286,0.6773855728482037,15.54063664424167,10.553401859114137,8.833669316727553
-167.0,2.2636488619556467,-5.162416580287044,-7.42606544224255,1.4990010776348655,4.819274056725845,-6.324927890651231,-1.242561148113362,2.414499520504658,3.6493606238343212,-0.4029964310963434,2.4858377274344576,5.03251718801126
-166.0,3.5013299808923684,5.748545341936078,2.2472153610438075,-4.6559809933195675,0.668193743475459,3.967427878390911,-0.8310704349536956,14.65507853847407,5.969446262862011,-3.9983658168075307,-2.179772944506661,-3.714177875374456
-165.0,-4.160068111650977,-2.510881657522433,1.649186454128542,3.303011426075193,-2.8736900855639975,-0.46411163906519337,5.95660130886836,7.345943251074571,-5.270925720152833,-7.652656157403482,-8.570440374448156,-12.493114144137401
-164.0,-4.873713484124607,-3.6273308858893247,1.2463825982351702,4.296035284572391,-3.035847587025349,-1.148492070958786,4.652666740762226,-4.175010407276733,-5.131096661766065,-1.5656429629458177,-6.862760259782346,-0.7384791890491735
-163.0,9.707380409655183,9.571357202985377,-0.13602320666997958,-9.672495893510026,4.863774793884597,4.758198010548531,-1.358250669856493,-5.977242635444391,4.261868076112462,2.462694697453742,-2.4192608147071946,4.720062378739536
-162.0,0.49274918643305243,4.749585124991788,4.256835938558597,-2.6530734783941115,-1.8626711735015207,4.467465877277422,-5.916720784094046,-8.324890729845562,3.596315150841652,-0.9332112847239449,6.6373211250685,7.9570015946282115
-161.0,-4.646616052425074,-3.7930976550086815,0.8535183974163838,4.268961936499584,-2.7320235136301507,-1.420285758822593,-1.3613553000794245,-5.094613794914666,-2.852453839830692,2.438025946359719,6.972624192136344,2.18381206399215
-160.0,-3.265247143141291,-3.2450723967349355,0.0201747464065285,3.3069031049538635,-1.7057864952754556,-1.6329693405526056,5.106475517966981,3.6675890302517278,4.318040579132728,7.140456329413776,10.289030001844385,-5.531299126259788
-159.0,3.9422315345593413,-6.56978640437934,-10.512017938938413,1.2885322944419162,7.239492906433539,-8.553486244591051,-6.244263936885624,5.664026878166741,0.41027612629778576,-2.321277854541467,-3.4065440547027075,-6.5065174297224715
-158.0,-0.3241230542309904,-4.523743656152325,-4.199620601921071,2.3982304780110484,1.9472337174863812,-4.370198675020895,-2.2640986353434682,5.21915224744573,-4.834995722367454,-4.612121021619252,-6.006675061585682,-3.0029197506940686
-157.0,-2.000374151743846,3.9678482792973533,5.968222431041267,-1.0127265762155238,-3.9752847821510233,4.957724779433839,4.453739961595563,0.2996055139763931,-0.2880703279277457,3.8965114240404746,-6.956435648262676,4.977658953763798
-156.0,6.672323532074838,11.466068129392651,4.793744597317635,-9.103566013950278,0.9519153361367316,8.111738675997831,7.3236236662213265,-2.118135207295153,3.629728686938547,1.487121187282156,1.353516267629879,6.813442580934954
-155.0,3.4180467984297964,9.616767718859858,6.198720920429707,-6.478519162466979,-1.3694795633422603,7.956029647795851,1.3106609467049286,-5.068748304764029,0.8129830673224044,-2.854673330739838,2.3544834938410046,-4.5663941283015514
-154.0,-6.437396481550944,-3.039241372753946,3.398155108796651,4.773985721053812,-4.963760369672898,0.13512333810221877,-6.336068463500965,1.1697723392463932,-4.713180911622616,-0.018416293231180658,0.9947456517182447,3.586355454811062
-153.0,-2.8187073473990147,-5.112143319228306,-2.2934359718295414,4.001798058470236,-0.21646659382827882,-3.680631130322911,-7.807304237957529,-3.5497089021616204,-4.706990835080981,-5.584190128905377,-9.962941852196856,-5.947563450195988
-152.0,1.4402543900313942,-7.428024598223821,-8.868278988255208,2.9563388269787723,5.133857147685288,-8.134090441961634,2.677578581672571,-0.28861323203375944,4.444970912404566,0.4456359141176136,10.252058733521807,5.593032849261794
-151.0,-2.8845950664871243,-11.597172673424957,-8.712577606937543,7.211046123817538,2.902120616139247,-10.143497720471354,2.7421499691165465,5.545427067408872,2.0720198455223238,-1.0634543835483308,2.1689817547629056,1.9397550086444202
-150.0,-1.0959278561657517,-1.7832962795858718,-0.687368423419632,1.418268933145633,-0.21255628133902515,-1.2214433019240385,4.783363185003514,3.5761504023277575,0.19952226075037727,4.031565072598425,1.964251390563474,3.236311569080977
-149.0,2.431271211997124,5.794626499492896,3.3633552874961152,-4.048451244828401,-0.475524927811857,4.5205005393466395,0.27093765061981756,0.7085490774267529,-0.43185953407837196,2.5560914670582373,-4.678164931315426,-9.310995547343047
-148.0,-4.827628094380225,7.203637298673991,12.031265393054174,-1.198278984874538,-8.443516824482879,9.646151199355765,-2.049100433478868,-7.563497424144452,1.7771900361506974,1.9617305769150266,-4.345802850778385,-9.929616502972062
-147.0,7.98022410758541,9.653007716393686,1.6727836088079666,-8.826859482033225,3.212460597151997,5.6217331319217685,-3.2524662082191127,-0.7180267532681346,-2.429705736871715,0.0975575668201294,0.940195302442691,2.601726523582005
-146.0,7.916460891434817,6.5538589485698315,-1.36260194286533,-7.249011001645725,4.614027093767915,2.6413853194995736,-3.184567326412446,2.313593638692913,0.09190005863861028,-3.298234358345277,4.276904975618247,4.605539377452027
-145.0,-0.7073203382008812,-8.658074877855642,-7.950754539654991,4.6631066284764815,3.670884484989817,-8.330734396829774,2.549882349800283,4.342649651141803,7.969553845444555,1.231982365286767,3.1676955492679575,6.053353831156698
-144.0,-7.712621822880516,-8.181433836222777,-0.46881201334222045,7.92190668257565,-3.6540667123625643,-4.268115738993267,8.560170448719939,-0.7198879535234018,-3.5173194636142324,2.1664717058005643,-0.1455923789896585,6.557890942471182
-143.0,-5.615046010105429,-4.272674934627655,1.342371075477999,4.994516482735455,-3.5123293657966443,-1.4849120556634636,1.074043681870526,-0.39241417763707565,-9.5077631037479,-8.423768046800094,-6.3397509510221575,-3.6101239790807176
-142.0,-0.211913037893253,3.3061118217068,3.5180248596002857,-1.4955286038896878,-1.899213548210511,3.391498971401716,-8.814359739551858,-7.663780803836505,0.9370624684320901,0.17838037336372992,-2.5440963443125324,-3.538360668676006
-141.0,3.3006266181503987,5.8635998242709215,2.5629732061206685,-4.604859474443581,0.4136050983218652,4.189545458624215,-9.363344111732628,-0.022325297332792537,-1.1287021820157919,0.4548358167450264,2.915908536865793,1.6421835151691329
-140.0,-3.8902714736108694,-3.4931592002319296,0.3971122733789896,3.6749486534293423,-2.0975455880224283,-1.5761214845370324,8.669305917456589,3.942339822309433,6.085006839422563,6.543248003940289,2.891009950735536,-9.06119394674345
-139.0,7.927440959268456,2.5158406615232733,-5.411600297745234,-5.233581716450907,6.639286542324972,-1.401195284059298,4.702643296764713,4.892425563015554,4.365593081224631,0.6698734282712344,0.5050840545703701,1.590392060480477
-138.0,11.780622354229667,6.646094208795941,-5.134528145433826,-9.223874334317006,8.430085709140638,0.8001274902000564,-2.645807919836484,-0.23851540978248797,-0.08774523130890888,-5.100658428064492,-0.49251967812552266,4.444438157330226
-137.0,-8.118083698031528,-6.535086523272246,1.5829971747591849,7.313183680585455,-4.7971777201129875,-2.5109369200582417,2.287214922540878,-4.4792197700849155,-5.242181664346395,2.242495097340131,2.0616553962186295,4.285544866819139
-136.0,-12.35886752495283,-13.03177295229328,-0.6729054273405011,12.675345247395244,-5.867887266082224,-6.808027878539696,2.1311628675974656,0.3446513865784482,-4.537936098157603,-0.020737304002237944,-3.9826461218249753,-2.9173540442677997
-135.0,-6.751657344041446,-3.9062661215880863,2.845391222453361,5.379112859836363,-4.825039283167168,-0.5649580935372043,-0.0013188586465358587,2.553872124362386,8.949281333955238,5.670965922121485,0.779878660966755,-4.430173519902792
-134.0,8.017865289906835,10.940226392344702,2.9223611024378826,-9.437801098702703,2.5178471418462083,6.895094349384568,-3.2948300191476774,-0.32623048288028034,1.6586809018784665,-0.645661809583614,-4.8225402159036665,-1.5638734028752888
-133.0,5.122689212013139,9.584663884656614,4.46197467264348,-7.399210473466811,0.3750019794705748,6.983988470890937,-0.9623203480779121,-2.2696342400022846,-7.601378092748615,-7.286406250901725,-2.749135592763373,0.13205530912751084
-132.0,-0.3990020105116239,5.4310977381555965,5.830099748667256,-2.489633642496787,-3.073754735728882,5.666862167990367,-4.6430692565885066,-0.33038347805748836,-4.7656177717485075,-6.038985677796266,6.956249366170113,5.070677471076637
-131.0,3.168095004137828,0.3061076599523047,-2.861987344185514,-1.7951441340664376,2.9744112234885867,-1.2428919310338307,-3.1057056304762276,1.1557701100380178,2.962487548029328,0.6527942175485633,5.244483589919321,4.690233039660813
-130.0,8.360433120541137,-2.574605495670191,-10.935038616211333,-2.8769115741167375,9.684594811321832,-6.717699235548931,3.7503348808549637,2.5586964916319035,9.741745563877261,10.16380835343642,5.9850163046355975,3.761317448210211
-129.0,0.8182510756830783,-9.478537736053342,-10.296788811736391,4.342713142504378,5.515620977898951,-9.92405176607071,3.046905962694956,-2.5605748994616477,-1.9018729739754496,1.8697437572751499,-4.0912629602593,-6.075412667379068
-128.0,-10.566611256131882,-10.121631680417186,0.4449795757147621,10.355136808905455,-5.546646945149642,-4.8680183153909455,6.420292105517518,-4.346009469039841,-3.956255690293684,-3.0265264894205464,-6.693001771954977,-8.07352169992079
-127.0,-10.347587139446544,-4.100700227122976,6.246886912323643,7.236150913314899,-8.257251111353034,1.1276581206976788,0.9781259895518808,-1.613539165041318,-0.40842221586023264,-0.8149321847732571,-3.933531708395731,3.381076545117092
-126.0,-4.977290289701279,6.540124211576202,11.517414501277582,-0.8442141138410428,-8.204178945415073,9.00633382900731,-1.447498848830406,2.764368125163005,-4.365855996653057,-2.6011062516160703,-2.0365058635767,-0.17211609660597887
-125.0,8.646038383526331,20.842830500250503,12.1967921167242,-14.721718531616807,-1.8068297682449552,16.493863061714624,-6.8511248923726935,13.09978886103977,6.075971201124347,3.869920225483404,0.33050502974040985,2.259804648577367
-124.0,9.93502129815818,3.94178003553537,-5.993241262622758,-6.907007952025322,7.937151573332309,-1.0602890931032842,-2.9156474204447393,3.0731274889918905,4.360090945313558,-0.5221602381592931,1.2682194277349763,-2.452585527427359
-123.0,3.4292399693380897,-15.525233872437632,-18.954473841775716,6.088249744647818,11.247516177166553,-17.20755502185304,3.5606854097426037,-9.647009718487052,-6.587882913625199,-5.26511894481688,0.27503597829055293,0.7548274328245745
-122.0,-4.659761821062944,-13.356637033864557,-8.696875212801675,8.976505499390667,1.9977975081576185,-11.006846250370549,1.2813870188133953,-9.950929476217443,0.10482991769480221,2.716170331941467,4.096672770657429,-2.7809892565241947
-121.0,-7.56740346151182,5.524972153661121,13.092375615172855,0.9922859859743296,-10.35049163226093,9.318417982778621,1.4132921206666138,-5.870132084545675,-5.260059032178391,0.6082236905005312,8.276375230355935,0.6850765098409924
-120.0,-2.441712280109403,7.705300342391327,10.14701262250065,-2.662794318817142,-6.316926625850825,8.929719059905596,0.06853148100955031,3.1164093686964285,2.644978128177786,-0.10190710509811252,-2.154610228719917,2.0074193799402757
-119.0,3.1895144446941353,3.0247617356454786,-0.16475270904871397,-3.0653428755886947,1.7300317667393355,1.4318210107856766,-1.2788802404002177,9.202938300469304,3.270473377282384,0.00341908838231586,3.440476438153121,7.877947399454184
-118.0,9.053707402987682,2.300182976605552,-6.753524426382161,-5.7212323665844,7.874414464109899,-2.2227722665493514,-5.474547459589349,9.182339025043966,9.484854968875167,2.2482911013209255,0.6621278003400941,3.4903806116475486
-117.0,3.4211744594518287,-1.215702831949518,-4.636877291401318,-1.0738422413260131,3.9976254615756632,-2.996305255632487,0.8484752608006831,2.002641969772866,-1.7192046242544858,0.7348440103454996,-7.417279615893095,-0.3272826518833678
-116.0,-3.2228450226125283,-0.6137851757033239,2.609059846909348,1.9459233009688754,-2.869061664842309,1.0129402750028165,6.977954361352507,-3.8564613448107927,-8.289505067592554,-1.5278462015332575,-13.339403485937638,-12.58058214240795
-115.0,-8.820773726120212,-3.868542942624881,4.952230783495529,6.3761229558851635,-6.838744761683045,0.5646015490193398,-1.6882985965827948,-8.456825299968752,-1.4745289125202943,2.918461697196297,-10.83345161321192,-8.471915118691008
-114.0,-4.371595814151512,-4.916492921903732,-0.5448971077521501,4.604582251869136,-1.9435155440128598,-2.700508243227416,2.905943649850088,-7.825790163705634,-3.2476295945059936,-5.869368894211098,8.163494438667247,0.7823058917347261
-113.0,4.013766866786909,-3.702387055697855,-7.7161539224849225,-0.1861201893379092,5.833850004305347,-5.672902961490983,0.15536773033748016,-1.6258143108622045,-0.2170128716798354,-4.590396098229891,12.307513665334621,10.35382673398527
-112.0,1.7001664818821043,4.276566084132713,2.5763996022503406,-2.9331145759414525,-0.4731430250257356,3.3876701636306406,-5.521744801319825,5.432865304068026,3.7129537022566055,3.2177607973034155,14.063534491179094,6.986238626756637
-111.0,0.2986465778211853,2.635159320603098,2.336512742781714,-1.4882459499073573,-0.9820616910354825,2.4471222077563413,0.38609891563445853,13.497860058342425,9.861137394782224,4.890042309696452,3.136725229017973,1.2091900064459598
-110.0,-1.3562191297780792,-0.46143080702205275,0.8947883227559734,0.8837591709837169,-1.0970139896944704,0.17492634050920186,0.6117958726418791,1.8432941488951409,-5.165924349660922,-0.24086103898438127,-7.870478143200086,-6.203840298048343
-109.0,6.946235814337767,7.341151745513726,0.3949159311760786,-7.1774489003926085,3.217800103258356,3.900529111858883,0.5666690442738594,-4.613168133068045,-2.3143651870909494,5.654726061331796,-3.6756905043003387,-4.89567014118145
-108.0,0.1662410840578028,1.2775498018122025,1.1113087177544878,-0.6878707040341787,-0.4560615246911184,1.2233162488618603,-0.9160543667199093,-7.539225386156406,-0.10572712048725674,-4.292390707796229,-12.898798628858275,-3.7269244342594208
-107.0,-1.374013963741684,0.5949211116598245,1.9689350754015007,0.413892423261648,-1.6546310858320337,1.3100169218069326,-1.5369701931397335,-4.313999265839428,-3.415110326539826,-6.009303631036482,-5.0408457461115335,1.6464196932505044
-106.0,-5.2825621182190075,-10.917055592609422,-5.634493474390499,8.119016519418627,0.19810644718174064,-8.245091498964495,1.385192522099109,-2.2358352855484704,-1.8886297975699176,-4.117038690128815,5.18791686496436,1.1033968074915388
-105.0,-0.6106692865049297,-1.2677721611191135,-0.6571028746142153,0.8809590060468917,0.05405515983201087,-1.0053726756850452,2.4412814352859145,12.344358557039701,4.1779985441757885,3.832312797556342,8.859615429191424,9.291513167814045
-104.0,2.9646875298685065,6.122354039365725,3.1576665094973255,-4.515366417168948,-0.13501039925061192,4.603150676994693,-0.1847774251300316,-1.6966808243853668,1.3911482725230813,3.668704591025892,8.59867605412289,8.073936282284539
-103.0,2.3888082894401657,2.6027793749909756,0.21397108555097466,-2.4554934285723755,1.0561283103087478,1.3771775044546446,-0.7261577202199492,-2.1171706878044585,3.3568533540255805,9.091440060732154,5.1514744101850445,-1.229664524100976
-102.0,2.134635280682673,-3.6731901717265836,-5.807825452409105,0.7442260565948766,3.943118819246888,-4.688237247732154,-3.8554078314769944,4.462068319197591,4.553048410285623,-2.926523853630863,-17.310456621114866,-15.353245537234681
-101.0,-3.0349604269549735,1.4359228544882972,4.470883281443335,0.7855047947359463,-3.7034788486902075,2.930886118163251,4.73513545235091,0.2136568691272569,-2.3712377949601287,-2.4236216829239106,-2.89482586792377,-6.058369556618949
-100.0,-8.335231767876458,-6.078993541676734,2.256238226199634,7.198865929823094,-5.329533016490327,-1.8516289021856664,1.7837342882381328,-6.636160443624738,-11.271569536088231,-7.697859509400643,-0.1173259575127985,1.4855106603384884
-99.0,5.251777844319539,0.45859072630501446,-4.793187118014734,-2.8642677891840638,5.061366532595015,-2.183368359415098,-5.32596016813513,-2.0151552125229144,-5.168187110546156,-7.187654767210143,-3.46037713722546,-2.8528194673199527
-98.0,-9.358000585120484,-3.2985881700073953,6.059412415112891,6.312329512274912,-7.675984024115255,1.3659748974959869,-0.886733324685141,-0.7465082386373814,0.3165969521492258,3.3766436628725036,9.770572593391082,8.48228500235003
-97.0,3.675502646182669,0.13718988694747836,-3.5383127592352834,-1.854373108644341,3.5553431315024038,-1.715592435518274,4.232256541825235,3.0507697291370945,7.836239416341561,6.330133121583756,5.82108584749261,6.537958960249869
-96.0,18.675497132207354,12.990836626011973,-5.684660506195346,-15.871831967820773,12.202329140063881,3.6346632085056023,4.32703098907614,6.280432269015127,13.491149344172765,9.711957118010414,3.946501292406582,5.298019209493862
-95.0,-4.366138963473008,0.9938785941767616,5.3600175576498215,1.7159075181039816,-4.845453715482111,3.2312798605434145,0.06992754162807735,-0.04323138088108269,-3.4544623026288317,0.15353513660758278,-6.259008127484739,-1.7950636064897165
-94.0,5.739069708434201,5.012798123049699,-0.7262715853844028,-5.353145562357629,3.167264530748008,2.111296720349076,-9.078190712504895,3.8685342963628897,0.3734023023778833,-0.7228633623025951,-6.702642192857674,-4.840372231614588
-93.0,-14.69768011881014,-1.6995834609261582,12.998096657884135,8.139503850625895,-13.8377479697271,5.6098058057467455,-3.8084812135657753,-10.492815629269522,-9.562274606212009,-5.229297673654014,0.507834768459011,-1.9821049887640374
-92.0,-3.8014649158314846,-12.05136615298504,-8.249901237153427,7.946056930321302,2.233550567474892,-10.117069060293746,2.9343445229645813,-6.0848310863832635,-6.341409686630602,-9.374510935105619,-0.250264913245718,-5.879050211125641
-91.0,-2.604350052446821,-11.3360068043296,-8.7316567518827,6.991618743814986,3.075884841190878,-10.003098704732277,8.077361210020287,2.2574683796263826,0.6670633081591228,-3.342314001443627,-1.4975193701350205,3.1339269359393356
-90.0,5.323485207791485,6.941266864488106,1.6177816566967191,-6.109010335630366,1.872212755144803,4.310512213733885,-0.8053259046212125,4.300304728362036,2.0553773236630097,1.9094455950440667,0.16749105342484483,-1.6737847926550484
-89.0,2.3325021683695764,7.311743194638591,4.979241026269163,-4.87675702647899,-1.2934311158553853,6.100291276157549,-5.3452450909300815,4.478472506938267,9.313237568253616,9.398077519142403,5.120375443840249,2.3098842053824655
-88.0,3.7618999366601757,0.8543188459132898,-2.9075810907467425,-2.2848110960158543,3.297943283658019,-1.068204157988128,0.5058639790450126,3.4489061358134077,-0.7162652323341963,3.3255614709159893,-1.1875435375334944,0.5420170497092256
-87.0,3.07230583596481,-2.995978221508196,-6.068284057472953,-0.09521101011558741,4.544371604810528,-4.49126486424527,5.075223098657844,2.5817157602741387,-1.8017724975921219,1.6917143601065998,1.1886485025757214,-6.981229656117543
-86.0,-3.2697069553985965,-1.5015970279521507,1.7681099274463907,2.4066748483463054,-2.5373502613159813,0.09879663293711691,4.500444148079372,-10.151518392153928,-5.3812825013329615,-3.0593587848741794,0.7686045059946135,8.782649218795035
-85.0,-9.580611000923957,1.5827575106957184,11.163368511619481,4.021937855246628,-10.308837075490318,6.420831874238749,-8.071378922784582,-3.011773740701999,5.267071051712527,0.13568901586481896,3.6806556430818,3.937525880612229
-84.0,1.3296993865082731,11.58601352738252,10.256314140873917,-6.429443613648483,-4.480693452889126,10.89427895001591,-8.84615183122278,-1.9505213020163636,1.5406815538048837,-0.8719833434255762,0.9164969634692349,5.492007241579148
-83.0,-0.7103564923023713,-7.859782895389285,-7.149426403087183,4.321336127571659,3.1968372410499666,-7.5264875193331156,2.027471193305276,1.543112453509443,-2.179346531419455,-8.74285931609579,-9.693149346309127,-7.494886862457986
-82.0,4.551456023988556,-9.410489843736354,-13.961945867725026,2.394818639355326,9.227001616828572,-11.623822530659652,10.693165277917865,4.3396374564040325,-3.6834793127212153,-1.3460480721310932,-5.301093874950304,-9.056473469077355
-81.0,5.091516798087551,-0.8239613664728935,-5.915478164560458,-2.1638100211403657,5.545852765137372,-3.3811679481451042,5.2960224680673385,7.566419840642768,4.041489599145479,9.228111844612414,4.5774324341369255,-0.42028639001002954
-80.0,6.17779160291859,10.7409574470109,4.563165844092514,-8.490028292741888,0.8447920250265133,7.643276243678339,0.2405532462562623,0.11466956953650165,-0.8031873448695144,1.6380510640638954,0.6879124463012556,8.734357448069623
-79.0,-0.3281857812501111,5.109826900349334,5.43801268159976,-2.3488472378020746,-2.9268952725898325,5.264104355767175,-9.537476761999624,-8.111683673438542,-5.162610859999459,-2.385323234456859,2.9866488370598057,-7.57881467904929
-78.0,-1.713062686224192,1.967067123507856,3.6801298097323722,-0.17345887711722957,-2.662349927829711,2.808523810802801,-8.7139292640678,-2.910150809453893,0.2627330845580831,0.9130623778521807,6.158909744737773,7.955641000739586
-77.0,-13.195011308263492,-6.698721915185024,6.496289393078776,9.96929498222241,-9.890256266018643,-0.12495483366226479,0.5799402887776779,1.4867806371469126,5.83338272521181,-0.19970924527614523,2.626481902314266,4.782732120865289
-76.0,-1.7218924055715172,-14.676740194928955,-12.954847789357402,8.215162506381558,5.649879568988054,-13.770791046069238,7.539768546239255,8.233927615287204,7.629737196658983,-4.735634782678888,-9.747466899749266,-12.45353335407059
-75.0,-4.699623341873819,-7.45726409553301,-2.757640753659371,6.093164839347168,-1.0184118146219503,-5.149962011004773,3.68597178392653,-4.261961016271883,-1.2363866164546238,1.6726167732540564,-4.570246036538208,-1.2946149908363846
-74.0,-1.1734712361298294,8.618249901543095,9.791721137672639,-3.7033333313889036,-5.454513493729972,9.235818847329252,2.639727642080185,-7.051794704982206,-17.35805366152003,5.047560442044103,1.3721372592115624,4.939117655521894
-73.0,12.721446030277521,15.898423277066511,3.176977246788704,-14.283217482267016,4.796811753893813,9.567222864494944,0.7619070509590753,-0.2429535371951872,0.8886202143687774,-2.9184666612058816,5.177626998883623,11.311521101744004
-72.0,9.771869404077187,8.641262181627841,-1.1306072224495465,-9.250892475365097,5.394589975919782,3.7866666043395054,-4.105098636479589,3.717855886091454,2.2756181972731513,-2.9829142519512484,-1.107103805400048,-8.491118674127799
-71.0,1.136283826416098,0.3944669114264725,-0.7418169149897187,-0.8048472641271003,0.9608314313569135,-0.21838169159539134,-6.070565995820536,3.319683071863908,10.799003220885524,0.4490253328668581,-0.7904207815925006,-3.8788194426758364
-70.0,-6.201689410450953,-6.841101619275893,-0.6394122088248937,6.4827541743170745,-2.757077253145831,-3.7837943880021347,-1.7781373398208014,1.3438422777697234,3.1321968489551892,2.939910217617497,4.582224071573271,1.580059566744643
-69.0,-1.8768582720113276,-9.20053403511482,-7.3236757631033536,5.5766129703685365,2.7518030007888843,-8.22865018502317,2.4082438972401925,2.403916024556691,0.05153096624480025,3.7957601777188197,3.6043680265128355,1.4939764098891208
-68.0,-1.2247701119688044,-7.640138626955165,-6.415368514986204,4.46768805354972,2.549868482533779,-7.077390143715901,5.648367512737497,-0.5591636425817467,-6.251559225163961,-0.5331900276987849,-4.887185950358233,0.9142525791784248
-67.0,-9.28536999654774,-10.42793743814671,-1.1425674415988296,9.891457273529813,-4.034394342912014,-5.761147412497815,4.673881317706481,-4.3783318721039945,-6.297728637704932,-8.694642138165703,-9.15746407135499,-5.062064600038825
-66.0,-0.6844440642560139,8.23876748169404,8.923211545950172,-3.8175685114535347,-4.844512050249524,8.60197908227753,-2.630204683362963,-5.365635538034843,-3.833211816260346,-3.3712686600962627,-2.1198833084084607,-0.9415966201103269
-65.0,8.775342144673289,13.334655440978386,4.559313296305143,-11.087831095076512,2.0654761030084603,8.96873180459842,-7.106870983153026,1.339585698168423,4.259985412938546,3.9830058345131674,5.575876561919184,3.2254654814798807
-64.0,6.897332878292499,13.66658104778605,6.76924816949345,-10.22594975817535,0.09646223632227224,10.244773643451543,-0.9918561514372479,7.672214296317661,11.215397074307868,12.30276621097826,8.886688036518168,3.5176232827786187
-63.0,-7.8486063342838115,-8.010896827740703,-0.16229049345708502,7.917045289162836,-3.814714617374806,-4.130233626574679,0.7457212220187048,-4.242379094682519,-3.842084701932443,-0.9596726156472615,3.1842375160153935,-0.35008275303186176
-62.0,-2.8686992300117105,-4.872513543162014,-2.0038143131503787,3.8650541745082996,-0.4064855764929952,-3.4727716923321905,3.419708575455666,-2.5022360847640455,-1.3465920788835288,-3.4287728933339716,-3.533945679582576,2.9421287256280793
-61.0,2.9222709177784547,-4.612241608141732,-7.534512525920109,0.8414969203137668,5.175450400264657,-6.021987772261314,4.246362950000302,0.09222791708402522,-0.5465890947766648,-6.453615816146405,-9.344073744172128,-3.0336749893016144
-60.0,-2.210421431268319,-10.234512648424925,-8.02409121715651,6.215146250951617,2.9345793325767926,-9.153115216105773,0.03358155959415132,0.0794703705262344,-5.135528938085814,-7.504492975683204,-5.066106980879215,-9.293228458714678
-59.0,5.044647821796868,6.81052453556161,1.7658767137647242,-5.943629151960799,1.6700408580544557,4.263478070167637,-1.4646338009213071,10.626467915599832,-0.3892013736579645,3.8604521077394973,5.314308350966177,3.2080763203381197
-58.0,4.198748691405606,10.825810550482327,6.6270618590765755,-7.539295417669008,-1.2597502871472246,8.775601229673214,-6.072063880059577,-5.139466047973282,4.92349923969479,3.024177360696818,5.227045813552085,4.548634560838719
-57.0,4.838884044446858,1.586528739952902,-3.2523553044940936,-3.1707217784941353,4.001078078241523,-0.8697733075498322,-5.925904671701312,-1.9340176334890609,3.5297125205225095,8.046296605627804,3.6807671429498856,3.4032229828290577
-56.0,-9.177099890454802,2.078312740971059,11.255412631425793,3.585986330228099,-10.182769356606547,6.7012110359772565,1.0721806498046962,-3.057299428492804,-7.716414242703097,1.3497065645478887,1.015317469993299,5.308005757891113
-55.0,-11.54946019602781,-16.398786714105107,-4.849326518077281,13.932640495199998,-3.3187380282493115,-10.67403519828795,9.338285438268095,2.47364143381339,5.564287329752307,-1.0153721504311983,-4.439662093115086,-9.011997662898699
-54.0,2.6975953398978465,-3.5911221846073884,-6.288717524505144,0.49050971474377825,4.521543520485992,-4.912970676765973,3.6564422051359986,2.112821493189724,7.315578537542695,0.7089422670279786,-0.9349988087079519,-3.0476325635926202
-53.0,3.149258521038532,3.8210207345429517,0.6717622135046217,-3.5098986241300913,1.18533085248899,2.2761581050141966,4.890570629625037,-0.4434489977634355,-2.17463073172081,-3.561085565442315,-2.9647057866813884,-1.9122621860970503
-52.0,0.24336524933241632,4.862169863012938,4.618804613680695,-2.5665533853061264,-2.164897259005193,4.698652766274115,-3.0181962045638313,-6.045398344194659,-12.400325175017699,-8.702531316943235,-0.27237922387335023,-0.5425254645130788
-51.0,-4.6500116334607755,1.6498474171300734,6.299859050590989,1.494973759471676,-5.532071130721038,4.021770358225522,-2.846122264825707,-5.215709031238899,-8.033942444082122,-5.538048896030627,-2.274746874130345,0.06519700419219665
-50.0,8.015681250909429,7.766902635204879,-0.24877861570450754,-7.892182077197294,4.154756602143871,3.7378223273793836,-11.29386667324227,5.604176030165965,4.412730590214755,3.843707797144174,-1.0407010741404452,4.39986774121599
-49.0,14.84288619907562,6.098706710687601,-8.744179488388076,-10.47280928540214,11.819616789515742,-1.335178400237872,-5.1593338383006415,9.323851433476825,9.424047694034293,10.386228491151591,7.202057882034802,7.68888470986526
-48.0,3.466018032033551,-6.463161712036507,-9.929179744070211,1.4904453242109303,6.7296145039208835,-8.20342722039516,5.161320875963075,3.744632103417558,10.330935378828059,6.034013119872922,5.435284959049511,1.6014580136004022
-47.0,-4.0180596464378775,-9.260138453211102,-5.242078806773349,6.6998336851691365,0.5722581718830873,-7.25757128472371,6.0343008010888415,-3.249787794205292,-0.10318024147815485,-1.4663555147077538,-1.3137041401362621,-1.8826552826119853
-46.0,-26.939585453914884,-13.931492688076183,13.008092765838548,20.405512942491903,-19.92889812149549,-0.47144591075515585,10.026551637741637,-9.050884811800312,-9.993647364178905,-7.60846527730032,-6.773125862167669,-7.202325102494209
-45.0,-18.335274447747214,-3.3291119046860995,15.006162543061048,10.789824848249905,-16.701686753184315,5.901250664822821,4.118930139181563,-8.592292949986696,-8.848345625784484,-4.004704778005413,-0.6233299733265723,-1.294590396944427
-44.0,13.774169370604879,11.945095937472905,-1.8290734331319634,-12.834162279491316,7.769321936059534,5.034077938859105,-8.347744365141367,3.126301506967579,-3.2757483975800143,-7.246782606693268,-1.0652205276942897,-2.5799885598613965
-43.0,21.57921294588693,14.77266955670607,-6.806543389180755,-18.15837542099242,14.15560947522861,3.950870355447424,-12.641223702410452,13.471311969646674,9.318646667587085,10.35564220939777,1.2782561819027054,-0.980193673463438
-42.0,15.803278036058957,13.687665225309122,-2.115612810749794,-14.731637394189834,8.994324238577612,5.825023686573592,-6.612740112288315,10.958879377956542,17.049297364716455,18.67452538827808,12.491131449343655,4.510876869954827
-41.0,4.973431396145731,4.671141627219834,-0.3022897689259261,-4.886233931757066,2.6670741098794375,2.138632636581684,3.7370227338868887,0.4999499786504309,8.643029161980254,4.455852169759102,-1.345954436750862,0.9984409948322321
-40.0,-7.844249874334323,-12.274874204851164,-4.430624330516993,10.079752237914974,-1.6804113900453053,-8.323731484346116,16.741280770387164,-15.239325545341075,-18.127944440226315,-16.694246818756895,-13.846899383359002,-4.321992582331612
-39.0,-20.34070374709291,-24.48358091204746,-4.142877164954747,22.440953569718637,-8.072045503595927,-14.285760435209754,9.883300627497123,-14.603623010047308,-25.597213216904283,-25.127488762919537,-11.952566306453472,-0.5560234320619404
-38.0,-15.796383347464058,-15.133786850374298,0.6625964970894889,15.503698846882559,-8.278666766603969,-7.286099946581133,1.5612242046742884,-21.128711211124262,-18.455386813910437,-13.808891260776198,2.5692496496139166,6.664916237022359
-37.0,-23.56602398623076,-18.30932707409761,5.256696912133004,20.905950200809762,-14.457286850793446,-6.4953805793524015,-10.198423574813111,24.97896408611048,34.26025717658244,30.690933283892747,19.766943868334245,17.034073654517925
-36.0,25.815678364896687,35.47736359019552,9.66168522529887,-30.673600166372175,8.11229932461598,22.52559346556616,-19.54512922578088,13.38403814279779,14.255084817869173,7.26601340081759,4.2561711764772205,-6.760475820879118
-35.0,30.294533868397558,21.240075594034018,-9.054458274363327,-25.794821447440487,19.632429827685968,6.131722718778018,-4.685915589078258,23.41357631866648,13.961617575648951,16.46399395344153,-1.2971072893665587,-13.71926764178298
-34.0,17.896584307110032,19.72328805415944,1.8267037470497245,-18.76395120140002,8.072469982872551,10.817022304748217,2.5715884619702027,-8.497301753704145,-8.254383446855476,-5.0182557795444165,-8.701255151437643,-9.394989509092106
-33.0,-8.153792775680172,0.34345857193122953,8.497251347611789,3.864116048834081,-8.286854259151658,4.384568801146556,10.66734802242251,-16.466743555796242,-13.526289456991067,-11.153328435902699,-2.473826356294608,4.809964821819408
-32.0,-16.18307766300888,-19.03014658237523,-2.847068919365978,17.635587118202228,-6.706250047109684,-10.976401439309464,14.935976459925836,-4.852260814108472,-3.594895150922097,-5.159150271659527,2.5023557214055483,0.05954500395776696
-31.0,-13.686958588631676,-18.589280955199953,-4.90232236656816,16.160438959949133,-4.349607976511676,-11.709678202063369,3.514363776366075,-6.50069233452458,-6.054516501594322,-4.361676307884337,-1.410402175799618,2.982534339942034
-30.0,-8.832768730358577,-20.787136595404974,-11.954367865046631,14.829336245378359,1.5264772404588385,-16.419837209873076,-7.791424895758346,2.898666447664537,0.6520685203111243,-2.37883703260936,0.06222610370423948,2.26829862666868
-29.0,-2.0684165267136327,-0.5065749621737794,1.5618415645392734,1.229391699917004,-1.8490533540773342,0.551190519765111,-9.88710081200811,1.066278882281359,-2.749880729863455,-3.150251866329369,0.47722226338886486,2.6445933525483336
-28.0,3.431734183968915,8.372665935973329,4.940931752003849,-5.876654551582543,-0.7109497230472621,6.676628881512264,-2.551725200550715,-1.518420192319737,-0.4227867802489378,0.5845923692483452,-4.22551510873987,0.07162763974365127
-27.0,17.760011078088098,24.642210044870048,6.882198966781556,-21.247017574065328,5.401613151990759,15.781968803963837,7.066531948006679,8.013073514287726,15.838804867355083,16.594917898119185,4.468915428475335,5.8312704204277725
-26.0,0.6874929621553179,2.7861936578194975,2.098700695664186,-1.6959032935946272,-0.6661524215902017,2.465876554437207,-1.0844152857486924,-0.02007770113385643,0.8342360477156241,3.370358932001281,-0.544861596520434,-2.6731181451284822
-25.0,6.91181341322299,3.9856129219827396,-2.9262004912399786,-5.400616332483748,4.879261752457445,0.4807677068259557,-0.9181390262970816,1.408209313354119,-2.067163861213403,-2.4695425515260006,8.36216281067658,2.3585282608012608
-24.0,0.32057365460059284,-1.9573216552067898,-2.27789530980691,0.7923328937114005,1.3403309042682883,-2.1589380318969615,0.8868920126080156,-0.4541906129664124,-0.11426488281344271,-6.864660623449334,-3.837436819665855,-7.5142209332505905
-23.0,-6.053797323915224,-2.049357446191163,4.004439877724568,4.026608572678863,-5.062013657632431,1.0224992882081745,-4.341620239569529,2.0003473656708337,-2.8092582031743247,-2.8287325348687355,-2.798887360428801,-3.429458808099407
-22.0,-4.73280199608472,-0.37845751772717584,4.354344478357794,2.5283330104829833,-4.491202055178791,1.9608402719347628,-2.096123149831103,5.727100289468542,7.113509654263779,4.984657053763842,0.01112117748730812,-3.8119827847257195
-21.0,-2.8702466387004293,-4.207070479965849,-1.3368238412654576,3.507073814964844,-0.7865770368269915,-2.714807978407557,2.8555871679270792,-16.21487676911002,-11.901470155686047,-2.2563220508715087,-3.1392868817140522,1.9090309651416675
-20.0,-2.013379871781943,-14.492211236260289,-12.478831364478658,8.295937743573894,5.217302752368348,-13.50301905696097,3.857212445940421,-0.7787981865549476,-6.029848049235224,-2.719928808629704,-6.487188368926567,0.3220717488217968
-19.0,-7.14817255715589,-13.713035731385167,-6.564863174229566,10.471925107521775,-0.3063651549644062,-10.153879055483594,10.303283782344808,3.085575618116879,-1.700935144533097,-6.311500085778002,-0.3681330836294907,1.3536219507867404
-18.0,1.6914493365133676,-17.32358911178099,-19.015038448294582,7.8583871039737065,10.334833328962828,-18.18331028036487,5.7410752190784,13.773074286733339,12.593597089976166,10.12567094326199,17.187477645675955,14.19895320328859
-17.0,6.784715959041672,43.837172797705485,37.05245683866372,-25.34457606633805,-15.081183456955527,40.43022281304318,-22.953743901465415,-10.094962395924053,3.6667366220081554,-3.3853916643110273,-8.644811330574537,-7.190568864740022
-16.0,1.2791214066198977,21.75175735636428,20.472635949744515,-11.546430254245271,-9.633081458757188,21.174544689148558,-2.4195049749751654,-9.25807821443164,-6.959190244697928,-1.665108310174524,-1.1197746871813599,-2.6299434983700847
-15.0,9.914415825539232,-1.9149461043751526,-11.829361929914093,-4.029909797718426,10.90319884151885,-6.891167950134379,3.019921398333831,9.437868547067398,4.939113285715702,9.12357909131359,11.872151470894096,3.9953853737117058
-14.0,4.928718631468266,-8.104085904784275,-13.032804536252257,1.5561652795619003,9.001846004834508,-10.590463568972465,1.3856800752917415,3.6154935458331643,3.7313598644273016,3.23834796993904,5.0288347565713805,1.3990653639784905
-13.0,-8.233313184384386,-14.107400821514945,-5.874087637130495,11.21524875972183,-1.245106708641523,-10.015773016175508,4.891792789819302,-1.778619151953071,-2.625959142481247,-0.2675139620231616,-8.610606875367415,-6.8729279428656564
-12.0,-7.606665335803444,-8.769001611607681,-1.1623362758043143,8.231294439559289,-3.213169880740228,-4.914615166438422,5.489199893339128,-3.110951191933646,-6.645949384302685,-6.74784403379764,-16.027471557466065,-5.920747237408453
-11.0,0.08449734740556547,-3.4566113961400493,-3.541108743545817,1.651730283423377,1.8217948500459547,-3.5286609336445993,1.0160454456537629,-4.425793027853748,-6.9525343864962705,-13.072166228943704,-7.746403700816555,-0.03436916941564716
-10.0,0.15782997913133245,1.8315733360220365,1.673743356890464,-0.9467373720946344,-0.7447617494079936,1.800046579144864,-5.139269776487457,8.84204646363124,2.505545748395677,-1.1534432897403661,4.78304614875571,3.673977442038919
-9.0,-2.558274391725609,9.856869360268274,12.41514375199361,-3.6752269518912444,-7.466142191853273,11.103384372805213,-6.146517646470953,3.747031363453474,7.3356978595026066,8.134302324306786,16.638770278398976,7.703999510544012
-8.0,-3.4248673626792465,1.116431953149716,4.5412993158288435,1.1323143231925545,-3.9539162999338853,2.794994075568768,-0.5800998369720953,-9.205768302049053,3.2336369129902853,8.0890956162293,6.71740166468838,1.1089453950618706
-7.0,7.788678512521273,0.023192241542052905,-7.765486270979214,-3.926736549724552,7.735057406128426,-3.827634805151024,5.448663969232915,2.347100204133955,2.4280219490437953,5.546136932265745,-4.800291897525922,-2.3992226107710053
-6.0,3.76607581867126,-3.3042387187087514,-7.070314537379781,-0.1759852840676044,5.380978436264614,-5.223908610801273,-2.36373627965362,4.4457036266983145,-5.28085096741801,-2.474382225107635,-9.989395536444354,-8.140953428143526
-5.0,0.3246744232703276,2.448823781795814,2.124149358525817,-1.4175456740680257,-0.93532002790863,2.3273342498686316,3.3182130701335915,-4.753918297349951,0.9498676571674691,-1.029586536282069,2.6398530393316872,2.226357293129176
-4.0,-0.908078105067379,3.8678374168341962,4.775915521901942,-1.520165739166326,-2.7994544862837802,4.28279171738212,-0.30523414844870933,-4.807048759506183,-1.3300444001641871,-10.293418379466582,1.2512734114697226,4.745267409894063
-3.0,-1.1444611310044897,6.8279859630517645,7.972447094056576,-2.8130338686314666,-4.517231043116993,7.4384025247435055,-0.5650577797636434,1.6555131622533397,-3.6828512559588495,-5.941166033476428,-0.406753518734446,0.5807765644391367
-2.0,-0.04523698255344977,-8.329240471349262,-8.284003488795712,4.208256026310958,4.159841011842214,-8.270860822064245,0.2500953684399274,1.4088032086623343,-6.0843621856873105,6.1706102019465705,-0.09423949645579954,-3.0316269325796217
-1.0,-0.5669636457671656,-5.383397968195033,-4.816434322428081,2.9919477095793727,2.0865906493178015,-5.146806296970814,-5.484751435267002,-1.6995484483451202,7.7608957893561685,5.724137283184367,1.9862948825340192,-2.0580929913610237
0.0,-2.968214988702312,-3.6424971264335992,-0.6742821377317121,3.3214411856781623,-1.1844234758412242,-2.2105328906213817,6.1591286163544705,6.71287416094035,8.5457202575158,4.105787064216006,1.1023209823484517,5.632219327658968
1.0,-2.5290791585621215,-0.047814440237955,2.4812647183236822,1.227548236977391,-2.5418797829113626,1.237851495755168,1.7219922523054856,3.9757352905964938,-2.4025673248686976,-0.1437326672622965,2.6366968449203365,-1.8945734965277152
2.0,-3.462870791621522,-1.9260946837637756,1.53677610785737,2.7148160897677753,-2.4570412680417926,-0.17730678122699906,-0.909710675942484,-2.437028985875908,-6.598963570032154,-5.938233444887842,-5.451948153051356,-2.3962168695471084
3.0,2.4886728462243193,3.052266300227652,0.5635934540032339,-2.7485027583114485,1.0064192185731247,1.8252211177931057,-3.7724459860201254,-8.686274990810809,-1.1674000095579338,-2.0364146807705272,-1.9072005661634794,1.2786499102613387
4.0,12.514714905391006,7.221900391419209,-5.292814513971558,-9.925123839138932,8.87079757334304,0.9866634351315853,0.07766626355018169,0.09598877787711402,-1.167708798221662,-2.399539344279967,-1.2297414737128025,-0.529876540053321
5.0,0.5873877111248209,2.430562425301529,1.8431747141771184,-1.488633613662274,-0.6580070752520091,2.089733103512116,2.3567845533078424,4.946230638318907,2.958201092216643,2.5206371007069386,-2.3739191713881356,-3.37155525812099
6.0,-0.4979312986200638,14.609748916141745,15.107680214762265,-7.037908035094177,-7.750711760238512,14.902865582215977,-6.290408549639434,6.6043536618802525,8.865152232108295,9.393980078905331,5.87412558537917,5.109814880540636
7.0,-2.737676845553734,-2.2806701970862244,0.4570066484678734,2.525142751333302,-1.620750131205949,-0.9333412129395766,0.158190694793239,-5.418241719198292,-0.6382527267044358,-2.256976560324989,-0.8954930910318701,1.6261793420064266
8.0,-9.073743389877926,-22.866769104149714,-13.793025714271701,15.985384553494141,2.338156035650065,-18.340319357556773,8.937467645547365,-7.894946230012628,-5.028687895057514,-4.517742904976515,-2.8344693895236395,-2.581842295163141
9.0,-4.151028891434491,-12.603777724223427,-8.452748832789114,8.314662010031562,2.207590657109103,-10.531443842830571,0.33028895127640423,0.5121102237015505,-8.917641238954934,-2.4524682107056326,9.617032775401801,-0.5346012426006836
10.0,-1.3171149449710693,4.889824207168623,6.206939152139307,-1.767507379537454,-3.7878169550890837,5.54795618439568,-0.27466795527400645,-1.016323947073516,-0.21411299282527896,-2.5614864539543314,1.1713027021150313,-2.9204065858232595
11.0,8.750439898863272,10.36679677130897,1.6163568724453106,-9.534948451380725,3.534215157618015,5.9900368793189465,-5.207490149113187,4.962271275479877,1.4852673589533518,-1.6320267075754007,-7.087104135208417,-1.8817583793085975
12.0,8.307488299013833,12.400586947334649,4.093098648320607,-10.402557681322026,2.143811415271158,8.241807193386979,-1.2668438914360585,7.587610819473384,6.764450825085875,6.208622225480536,1.9149293531877278,5.194152685046715
13.0,-1.1195695464246942,-2.519193540094875,-1.3996239936701795,1.8572071803752301,0.08830146453864574,-1.9686332483742373,-0.9610989793664868,1.2195670307722342,5.104787668201499,7.1255997442055135,2.0349622097761237,5.933914712526727
14.0,-7.857841076111902,-4.481228805165662,3.376612270946463,6.214718101361697,-5.597567713701998,-0.4864756989906245,5.751168299895809,-4.342104149558276,-2.0770162686789533,-0.7133892178108923,-4.2773542579123,5.372871721154465
15.0,2.8622954088618933,-0.2656993600017372,-3.1279947688633527,-1.3264272143525178,3.011890701258612,-1.712692885413287,-1.5979932394748182,-3.548661424324664,-2.7375174030368927,-5.857018451897088,-7.845888626189988,-6.896206680846031
16.0,1.8359714226644928,-2.2354622006789278,-4.071433623343189,0.17356795457834173,2.97305318729871,-3.1720368429880565,0.5119351951985553,-3.3597192316660274,-4.818328992267652,-0.5920186922040651,-1.5863496709757057,-7.756795696437663
17.0,3.6961606541092804,2.2158824940406197,-1.4802781600685644,-2.984493600883683,2.6150797706606976,0.34575214867593873,-0.09395253986054633,1.0832009630417954,7.252370331324414,1.300393599271997,4.965020734120555,-3.004185722229179
18.0,-2.9363458951061077,-1.814772037837907,1.1215738572681258,2.419800554434545,-2.0706043975820916,-0.37341205546558165,-2.5918329483085567,2.1752443713565635,-1.7440394717894192,-3.3247766866928763,8.787065641242876,-3.355490526540476
19.0,-14.020374308986838,-4.729439084326202,9.290935224660501,9.332308387609366,-11.68729220095725,2.3267306474237555,1.1961691818482114,2.7055288742041697,-4.426349864223331,-3.6155838183201054,8.002245320527484,3.980142143473282
20.0,-3.1414039568845955,-7.00470969553961,-3.863305738655111,5.101322415820681,0.41508906003002677,-5.3943993370965675,-1.0720252873945308,-0.578577452461221,-1.1476844909307182,2.526786346141586,-9.491697182470682,-5.9800950867573155
21.0,9.488818704324284,8.80758521617885,-0.6812334881454971,-9.12564571184362,5.0628276085771535,4.018398531887895,-0.07511744973436185,-3.5150393755095823,-1.7523741515107176,4.659469687276788,0.31036330131554424,19.176631726662798
22.0,10.253936429035383,9.3298177104802,-0.9241187185551922,-9.77186220305171,5.564554584915928,4.154419636962672,3.4662431898970443,-2.1896723307166184,3.751682352636399,3.3848663661060776,-9.245648819011267,-1.6586285627081656
23.0,5.967480118826273,5.012202989165111,-0.9552771296610876,-5.548184069222246,3.4313152800966855,2.058145529870797,1.261238885083381,2.37831583041015,5.477595779222461,-1.606051103933137,0.3512718885123496,1.4281974281991505
24.0,-7.1812685062688635,-3.3803547529039766,3.800913753365015,5.303352187961646,-5.449129525556595,0.2427848841007641,-3.681248525185351,2.3760649581433415,-0.8350424032441648,-4.801657308203073,6.439823960988576,2.263315041266781
25.0,-11.921933578698138,-8.906955138207154,3.0149784404911224,10.439287974878736,-7.432320551042585,-2.9076836453256822,-1.6318025174604724,3.09498857422243,0.11527445077235393,0.9379039540705745,5.079519998226132,0.05455315115211645
26.0,3.3848381898178133,-6.547732667812719,-9.932570857630488,1.5286912451444188,6.6909750313900185,-8.273241817102754,-1.9841481247568078,-3.2476453044710887,-7.969715269242534,-0.3866207392938692,-4.548121836733992,-13.453083685816868
27.0,7.374139885168378,5.1317656697538885,-2.2423742154145656,-6.227571150215713,4.75974063469815,1.4186569662587183,1.6728281635290738,0.517375839740349,1.1408177486153166,2.4635999600944696,-2.1768082192174703,-5.889093782389594
28.0,4.345806459145449,4.205654703710408,-0.14015175543513814,-4.252422157542732,2.193402753935079,2.0119300334529324,3.6234116371820857,5.172746334051164,9.558944486297971,4.162227815790375,3.9716251880399893,4.214902209402172
29.0,-6.817149901943891,5.432549696529564,12.249699598473324,0.6344376477097033,-9.505106031790604,8.8230282261468,4.265772269778747,-3.8754034956033063,1.5676916245286932,-0.8114558137906331,-2.1366280294457356,2.025600975652877
30.0,-4.483783851822359,-12.941620477428163,-8.457836625605921,8.732369682498486,2.0145695658372853,-10.63866438887665,2.600506853761355,-2.2822694037731597,-4.886549928695852,-4.9537043616386685,-5.1231868263800004,3.1119423337181855
31.0,-5.195978715380798,-7.044388737766807,-1.848410022386003,6.1412521823998185,-1.7251188360579663,-4.465501096739727,-8.820638844989741,-10.103794827106915,-11.134231703081483,-5.595429624930695,-0.15251692618180956,-0.8667227154206474
32.0,1.878263849185521,6.120561929142689,4.2422980799572825,-3.9736088377868892,-1.1532106258184693,5.238064754000362,-0.8550304959009654,2.5307747794138002,3.3826087647727,-1.149063975102748,3.6271133406225267,-2.362951433839774
33.0,3.1330213235622155,8.256163583889466,5.123142260327476,-5.73980740862712,-0.9627375289370724,6.662740683150145,-6.206784522052224,7.813524990204295,1.1621695917209571,1.9216958799170798,4.639426953597652,3.3039694704484512
34.0,3.1078124041089117,4.099879464546049,0.992067060437441,-3.56091103391208,1.016964843641519,2.5122596850127183,2.973644012369882,2.164666688997815,0.2550713184762543,3.8789942293339994,-3.56954181996202,0.2513316659802216
35.0,7.571659985615986,8.290141473705045,0.7184814880892715,-7.957508994425605,3.4709453977437232,4.462138373118107,0.290366063076233,0.41649074754704474,2.568282134356376,4.552887548891874,2.5462577768006516,6.481849151327939
36.0,2.217130544431054,-8.109371720309845,-10.326502264740917,2.926750449289512,6.243266529075601,-9.190260615609194,8.809910709964225,2.8737547296550985,9.461748643890061,2.5787294534432883,-0.62249869275618,0.4908004311030117
37.0,-8.384926844975231,-8.8966718605576,-0.5117450155825134,8.625526682758135,-3.9617723979389936,-4.684100997985473,5.54382638624582,-5.319085697374341,-4.0811521983365795,0.3505595269266,-2.457270675576139,-4.815074711048145
38.0,-2.395605123185863,-2.4897499345539407,-0.09414481136823571,2.506771160726964,-1.0976219566718426,-1.2765362760634522,-6.842253013229925,0.7797511717668755,-0.7252519173427547,-4.6511528731604646,1.1056418581291771,-3.181561796295301
39.0,4.5646848817048795,9.232798192572556,4.668113310867486,-6.915831829700831,-0.08208344217306562,6.964604330529776,-7.861331855809996,-2.6980986432161176,-2.7564233016917385,-0.0025170997497534486,0.6640332304493605,-0.9065202242334931
40.0,-6.338695464548601,-7.392762428832383,-1.0540669642841642,6.844160272185222,-2.6810071450549136,-4.207732848224939,3.134638074392842,1.0866289275970225,-0.3836155411751072,-1.0955671103016522,1.2179449850292254,0.9694473250176372
41.0,-1.2875168608120244,-6.42212885975286,-5.134611998941155,3.8280911322522435,1.9533258727754985,-5.838495865887332,0.4801465936385062,-0.8861278389471505,-3.6947909392239158,-4.32895592031515,-6.718449593943832,-2.137015847604187
42.0,6.289789869450473,8.86681332410101,2.577023454650476,-7.530697851326872,1.8760879539088862,5.743603610369874,2.203160789519548,0.22797494348888053,1.1992728169390017,1.2919904613302913,-1.5861398075586435,-2.1187893131164426
43.0,-1.9560880522000943,2.23393149864165,4.190019550841933,-0.17262504656421918,-3.061129371423225,3.157612530746642,-0.3654803461168963,2.518631009454296,4.3641248464296405,3.6418214814755228,5.984451429025851,9.882818783961806
44.0,-4.258023924067999,3.082823952296,7.340847876364344,0.6323090908070874,-5.79144098606165,5.23906645619684,-0.5605450077139351,-5.1793821061347,-7.551915243106743,-6.183101931809689,0.7450999304233892,-4.451715077874979
45.0,-4.02673297084344,0.3948758136783317,4.421608784522071,1.783155175573533,-4.294139327699772,2.4394620463415766,-1.4523382759387737,0.8630079928867799,-0.4725009621563707,2.7580007789332033,1.5668252414817154,-5.635301605445457
46.0,12.233169199083857,1.3910262736698142,-10.842142925413945,-6.764696355808638,11.552147379771057,-4.688480308903225,-0.12294739593964954,7.020295617008331,7.942151037947278,3.6301457143676963,1.3139107146805404,4.981130712918433
47.0,0.6375127064111092,-9.37722694429265,-10.014739650703818,4.338343218234087,5.350795939640798,-9.730068327828942,3.174054346774823,-0.44716303842976046,-0.4667073569061504,-1.0359246414941539,-2.32411842076529,2.848621830502423
48.0,-4.946728019807605,-8.51165755507352,-3.5649295352660255,6.69462695794523,-0.652809440898904,-6.064124840681789,-0.35788977301267166,-4.710422644093599,-2.506938988225527,-0.4834556791465949,-8.222282907530722,-2.379966536979733
49.0,-0.005487415827685638,7.0673100983521175,7.072797514179694,-3.4928619183744063,-3.5651644520776107,7.051555004507134,0.2957388981434298,-0.861804205407122,3.125751637818256,2.7856210996222805,2.2456959807519707,1.5031058587577635
50.0,7.951880151541765,9.242238313825906,1.2903581622841491,-8.645845964592258,3.3180769041976816,5.331376988931693,-4.329880896167194,1.956339009147216,5.363118865020124,7.269417549249925,8.542081769719495,4.343296504547893
51.0,0.3132512542154785,4.520429263801377,4.207178009586006,-2.3948007039966965,-1.9500024648569196,4.351313500263668,1.8556121847550613,3.000450174943565,-2.3451815607668767,-2.276755868815405,3.6014417653971096,-2.83878114368048
52.0,-6.290923917528965,1.9989762364510313,8.289900153979985,2.16254407990147,-7.289087058503315,5.129116131118407,2.58044502674487,-0.23812600082059343,-8.058131797181229,-11.543966897855613,-1.2159219690534553,-1.5758412377256312
53.0,-6.595307989792446,-2.9114058779507546,3.6839021118416113,4.7684524924811,-5.139538933496331,0.364731293568211,1.0624268395576295,-4.731067699709424,-5.972850432357204,-7.742052014546622,-10.488136024561474,-3.647847647063651
54.0,-9.827191488897084,-13.320421446975358,-3.493229958078351,11.591565908399346,-3.1728329731443132,-8.436220464296133,0.3512893170579262,-3.3063280394037977,6.076312639838519,6.026203666606703,-2.5449610700865493,-2.7275934556450006
55.0,9.368984103512918,-11.04198806146999,-20.410972164983146,0.7809879781427393,14.875511664055654,-15.684376479882532,-6.572521445149115,3.346003691059086,3.430076732285929,4.047013304535294,0.4908286606941292,-1.6463368814022221
56.0,8.56059042709144,2.9555841029095964,-5.605006324182155,-5.728850774993056,7.138184805625134,-1.2870673560553119,-1.846660935890421,4.5193105291287985,-1.3189750927584631,3.7182200819382007,2.2179075938495214,0.46569550633525814
57.0,3.243746708944381,12.813562721443557,9.569816012498972,-7.995291715317222,-3.193335093843106,11.150126239127868,-0.4544384824189297,-4.1229886743809825,-2.3591716533380183,2.095196177018511,4.652299220387175,3.258515223285537
58.0,-6.477745415270693,8.987623126040965,15.465368541311513,-1.2996897293202645,-11.005281038401872,12.267053666128795,7.738674349200764,0.4138806699481695,1.4751294053009298,1.222239738324715,7.223342405929982,9.825596964657171
59.0,-2.1055259047651873,-4.24952555589007,-2.1439996511248154,3.1297220829923975,0.06487702731288536,-3.2291820193635026,3.9463242945859918,0.3236019381669262,3.2458018423343544,-3.3681786805108858,-2.4569551911718563,-0.4884484901428312
60.0,5.017417908794821,2.2128579943038713,-2.80455991449072,-3.589602096349213,3.8818779060915607,-0.3221904531523545,-4.680823338558429,5.493924597247393,7.090890493399198,1.7560147600975546,2.3685284866704475,1.7413119056439315
61.0,1.2273268939636313,-9.68272191010151,-10.910048804064743,4.247772756898029,6.123958762165797,-10.239608109543688,-0.16044519631779708,0.6553994378508157,-2.8582480976307583,-4.129260953062406,-7.127158927321809,-7.889690257239066
62.0,1.32269835843141,2.315080873543182,0.9923825151121051,-1.8020698120637784,0.1464995155763904,1.633114073194891,0.6256275560802498,-4.540333635823698,-7.917493808552306,-5.292385389739131,-7.97672922689981,-4.264423822932101
63.0,-5.159190402080794,10.070525132998888,15.229715535079828,-2.4386872115250062,-10.211489162440923,12.627677250247718,1.4188574000278122,-3.9884807591014857,-1.9937559828965288,2.3571517334581475,-2.429486003636631,2.871215136388445
64.0,-2.2871864495986993,-3.1263675510726494,-0.8391811014739119,2.7270673318789576,-0.7440569810998601,-2.0091881523320447,-3.136644361539658,2.0509860589403948,-0.6874404854587197,-0.4392993760836621,2.627930567131246,0.3218044912762127
65.0,2.1035203925521717,-2.671028600320187,-4.774548992872398,0.2303288672827477,3.41145917019563,-3.674670451265489,-5.302123687043166,-6.981492840000988,-3.4653291968696136,3.8511006195273807,7.846764925841992,-0.632758735351465
66.0,-3.3329463872298586,-15.796897600094793,-12.463951212865052,9.516473589398862,4.60640341709456,-14.163493822181895,-0.9078236678748726,9.130650192188902,6.036503409336949,-1.5572032131368125,0.7328330013030486,-6.574425021317397
67.0,-5.3436927147898095,-4.595948485154702,0.747744229634721,5.00366501390288,-3.0150880124692554,-1.8778109625874846,4.563096712619646,3.205332367719943,7.637407445265296,5.434581218477293,5.277574485459306,1.8946051373663988
68.0,4.8551337352946184,9.781486256913285,4.926352521618174,-7.283009612073877,-0.0912022586834248,7.324967939723881,2.391900106595861,-0.7213967718983927,-0.010452655585366344,3.365639533332497,4.689490403720133,7.45966411941705
69.0,1.6280339758072557,11.069898245663857,9.441864269856156,-6.314328187004067,-3.886522181976248,10.310407314812604,2.6170303780102158,-6.405868233802161,-5.187326728049554,-4.030689698513144,-9.319223561647162,5.574541217550239
70.0,8.072056380683202,8.646997092508814,0.5749407118255441,-8.406013189597463,3.771329786858086,4.590066358845735,1.292836552088217,-0.23778802806825672,0.8899050807343425,-1.9447070152219044,-5.663292559589509,0.5358984354160161
71.0,5.592704880950998,1.0177541962916195,-4.5749506846591,-3.3549893952813905,5.112946969298746,-1.8000550310596255,-0.7766079968262655,1.968742557342003,-0.17500926198880307,-3.9156107617419167,-3.796873052692602,-3.2690965085722303
72.0,-2.879203406515371,-4.5930872651593555,-1.7138838586434681,3.762177924418684,-0.6243734304038409,-3.180480224001043,-5.801896543591819,1.5867722752863427,-0.6857559033526972,-1.2242191568067629,0.9924081212870242,-5.041053892924156
73.0,-8.823235064771268,-13.766928607421475,-4.943693542649738,11.319846230488029,-1.974813487999011,-9.391857686775221,-0.2583974832730176,5.99955270768033,-5.454809359954741,-3.6205353824218345,4.207702052282885,-2.816540104317041
74.0,-4.980780933430864,-8.673589407935065,-3.692808474504006,6.8533948886216605,-0.5971694449549045,-6.151737983272311,-1.5257475102930556,-5.055688642151361,0.8454126680430101,3.731633049536385,5.078367493322036,-0.42495281933372064
75.0,-2.044117075944551,8.630357357559145,10.674474433503615,-3.341316064634415,-6.3928314147457925,9.675454046116613,3.2801849825321368,-2.053534651346088,3.849946729893649,8.697187872147081,4.181883120897485,2.259771485507708
76.0,1.0589738234825075,1.1477727058068812,0.08879888232408994,-1.0663936213682845,0.5242188244943584,0.6378269244828494,3.891601564725982,0.8865644148613951,1.2533523372162496,1.085239232182805,-1.6946762826240658,1.263398133716983
77.0,4.421314901234814,8.451031868544728,4.029716967309565,-6.471020955020503,0.14703635594978426,6.261827406560506,-3.095002956724865,-3.6748843652474346,0.12711002982693564,-1.3351277498798932,-3.7892377284209555,3.4904765391426027
78.0,-2.4484322974332393,0.9229088437006299,3.3713411411335676,0.8122499948899575,-2.8899730155083487,2.1740507336988135,-0.42740826729408354,-2.172153602877864,0.5772108338958802,-6.222586542178729,-9.794161084792353,-5.281764399042988
79.0,12.745356455753287,1.354326475332476,-11.391029980420875,-7.076317932587941,12.079317702450078,-5.064372661060377,-5.536582753927573,3.9475828938846997,-0.0476123799849856,-4.042081427934692,-4.128389747372197,-6.728562869766934
80.0,0.12559508571934863,-3.1060244739434517,-3.2316195596626143,1.4631758871648537,1.6839018397164693,-3.21166221464695,4.223620511591093,0.25608854096434364,-5.868792468948837,1.3242182265833442,11.191608167701297,14.424013901554282
81.0,-10.78341402844445,-13.140267184357658,-2.3568531559129413,11.931516137090656,-4.210134975485339,-7.792003258963046,6.320279317831113,7.216645867821749,7.361434597427841,9.00232173765736,12.123026697092502,2.7275633630152183
82.0,5.481894348838495,-0.9619384297037206,-6.443832778542055,-2.215988078375287,5.967264423898994,-3.670787389660105,-0.8281899277210614,2.3038931049722855,-0.8905830299944397,-2.1901660535373186,-5.830440814442376,-5.143607187629545
83.0,2.086954653607207,9.962303489053184,7.875348835446019,-5.984366067643959,-2.8860805854616234,8.947909195000477,-2.377090628483859,-4.965689162363389,-1.5022209451598425,-1.6206847718927788,-4.34740249918857,-5.191185090690528
84.0,-12.263002827399358,6.363174713334344,18.626177540733654,2.9097838826421967,-15.510133645723027,12.523815723290378,-2.388089638029042,-8.300088030926073,-3.0324693554224798,-1.3252773163549587,-3.134896488738941,-2.777560945429826
85.0,-2.1516088099471915,0.30215049462998955,2.453759304577038,0.9642294006047557,-2.283811018666266,1.4116991189115797,-2.1316718190418453,-2.0782113026207996,-3.170576872124517,-2.897963561230499,-1.622248628787199,1.849232435011869
86.0,9.482645011654927,-1.7439776298607734,-11.226622641515903,-3.905616645297103,10.379338246690564,-6.52172888369119,0.6118526161303588,6.160103400674135,6.364664080553735,2.9951706800478703,4.661876229077263,5.429811274993903
87.0,4.169670921153273,-0.05397894678759152,-4.223649867941004,-2.0899706239648967,4.227111562075664,-2.1649290421041667,-1.2289432408090477,6.096506595923281,2.7400512202849754,-0.11069187869651609,1.6494649827764327,-0.045640299536157336
88.0,-10.310204432186215,-11.270029572298043,-0.9598251401117848,10.841199378354114,-4.718199948712452,-6.131838472204118,1.2297375142315832,-6.643235388855116,-5.401216298624677,-1.6223442630047753,-3.8813172406993286,-0.43292368382395563
89.0,-1.76835686631288,-9.38833258930512,-7.619975722992058,5.554792757273323,2.9658134011339996,-8.51537862329077,2.9081942119971527,1.528630916107085,-1.4836844031991596,0.4498396756466394,-0.24802654783874184,-3.3871433515077247
90.0,10.912684248808059,7.893257222615687,-3.0194270261921297,-9.423136710679554,6.929995881581724,2.5052479982284432,3.5404738366388395,-2.3436272473445716,3.9951825272117203,6.860878092979938,0.5651703366250294,0.23045902643280303
91.0,4.175441049690639,19.003714186914316,14.82827313722381,-11.528600986906069,-5.361613662806311,16.90130075005457,1.5002494665465949,1.2641611755040092,1.657416193473183,1.4116229979246195,0.4633210992665784,2.0128125027033903
92.0,6.2905783203197005,6.680530168862065,0.3899518485422968,-6.502148731542791,2.993110927042612,3.5120101971293494,-2.33260588045944,6.068066935655684,2.82188443310641,-4.373786781064821,0.4962316186880946,-2.2951255562982755
93.0,-5.00701626677882,-6.903156645776284,-1.8961403789977187,5.9383563290932635,-1.5144506431247136,-4.434034099543364,-6.759290218640551,-1.2442122024610334,-3.392032676984359,-6.8527170935820045,-0.9551961506468981,-1.684670507024298
94.0,-11.967076484963965,-10.617374662076546,1.3497018228871531,11.274259117539652,-6.698332213132281,-4.601075410905173,-1.7297696920572094,-0.28436737075098695,-5.356975348614278,-1.8028114150278842,6.747497906675557,0.4189602324635338
95.0,-11.377523433678897,-10.335881694375665,1.0416417393030846,10.837042358909152,-6.251447261366312,-4.624196588014189,0.895002138594793,-4.717390574029935,2.0388310935006433,1.0869947225168477,-2.926168848162498,10.967178428536771
96.0,0.7089583379245417,-6.0528275356638614,-6.761785873588411,2.729779751646218,3.771064095760901,-6.390742586529271,3.8734037570278854,-7.506872940851728,-2.737619864505766,3.2765162953121907,-3.9678722906719366,-5.339693988926912
97.0,3.3933740474951337,1.7015255172841963,-1.6918485302108,-2.5684179451526763,2.578040520709523,-0.05940303861580132,6.688210715905843,2.081757325217533,0.09465574774319363,4.239426323366284,-0.3988251997619576,-2.516441214240949
98.0,8.040761050312224,10.800234403395732,2.759473353083707,-9.440258234519076,2.5978166261275804,6.796445107106556,-3.071605170296456,11.750459931094845,5.941198672003931,7.1021889495737796,1.0730766555508688,-0.2774693832680608
99.0,15.772926396760099,17.13804610880726,1.3651197120473526,-16.394783663780203,7.240546830889478,9.27334463900408,-4.5820481748656565,-2.6745513544060113,-2.5477530682822933,-7.24452263840462,-2.9333378007564868,-4.844639223265906
100.0,1.9428980734450132,9.564868275905525,7.621970202460518,-5.771131948226875,-2.8813486349302546,8.621725925996826,-4.143107608530411,-0.22372434872521985,4.549649125486287,-1.6099892340772959,1.654831820141184,0.8875829497464007
101.0,-6.38387912161585,-3.718615902722138,2.6652632188935637,5.032394627988111,-4.488198186435979,-0.571204151539491,-1.0470742931914623,0.10794527278238653,2.9697649378642383,0.5227749728877811,4.214460519042931,5.836002842729672
102.0,-6.589092074120119,-18.555743708821463,-11.966651634701522,12.548742077964894,2.645051653431316,-15.223423723739026,6.032477412786191,-2.1444149481037424,-3.89816119290182,-2.578114628247019,-0.12023412276701695,1.527617138638207
103.0,-4.005294187368695,-10.450780404000499,-6.445486216631894,7.196681045080158,1.2536163912840124,-8.488773362390003,6.96427578256315,2.549016942044032,-6.255533746705751,-3.2163533330748875,0.34769104758371494,0.2958127979267684
104.0,-11.715053170504785,-13.355583860597648,-1.6405306900926901,12.573642664513127,-5.083164742170486,-7.541186975882165,0.42952555237698187,-5.687004035849855,-3.6299185493848287,-2.7156982357693646,-5.344055932639286,-6.809161316212727
105.0,-4.973487702081432,2.6749455207508523,7.6484332228325815,1.1790529426994318,-6.277097326579578,5.193451992315772,-3.0074672343818447,-2.0211775591812566,1.0327216300735276,2.127287014898435,-1.0095755182436266,-1.9875840563928837
106.0,14.217894213091714,23.826221599761375,9.608327386670002,-18.998795486260704,2.34159053403508,16.74560261649389,-4.326597970328642,2.6141392205079033,7.150259281223452,10.47091624602107,6.491387753243727,3.8633546931934513
107.0,15.899814925362698,15.765457946942474,-0.13435697842008132,-15.892120003007909,7.979332791670424,7.842046811197854,-7.002126305023486,3.6791940798651295,4.725739609856243,7.165697566409919,1.1586645462612404,6.561393100312385
108.0,-3.176441609628574,-6.432359712020952,-3.2559181023923705,4.8216830724637525,0.0847248697166254,-4.817894559412925,0.15316891588556647,4.845156627939936,-1.1890185296154527,-7.509783259249749,-4.139864913837626,-3.353311004346338
109.0,-1.2236192147354166,-10.708116985427102,-9.484497770691753,5.982092127353202,4.098867041305738,-10.148556295286566,5.810365675469178,-0.7752333310712274,-4.684780093212793,-6.513394726044712,-1.622871530397307,-0.5950176585726238
110.0,-4.162447635930957,-7.158351704025978,-2.9959040680952436,5.675445591591519,-0.6154080828692394,-5.12993998753035,4.650035202768782,-4.591672824770094,-2.7022134999092904,-2.400733309263688,1.3895297212874926,-2.5556928012304825
111.0,-12.944549026047218,-2.8683048682325314,10.076244157814386,7.840973567463724,-11.54563057893132,3.62781573005962,4.116615796110825,-5.7554895357159035,-0.76137249366712,1.8881299698918619,1.5697916022317653,1.9655364389826244
112.0,2.048184870106148,4.971135904789525,2.9229510346831167,-3.4982466792741667,-0.39818823549256255,3.967578445878341,-5.145181740215431,-0.23904464569810502,4.259694708757397,-0.740667237814039,0.046965781215207336,-4.523422403994165
113.0,8.045090314115903,10.479524968170088,2.4344346540542086,-9.251712094753636,2.8406501848664285,6.4740738729604566,-6.301976002587498,0.6821388593096834,0.6402149700843636,0.7552992984372078,-3.3153379229286157,0.2800278075621956
114.0,0.5794969051439272,-1.1442208004837866,-1.7237177056274775,0.2946017555004734,1.184610106602713,-1.4191613870069775,0.407715506551916,2.706348876713655,-3.9186859841594353,1.6560492547436991,0.858097369447102,1.9916565538420028
115.0,1.4946169663204307,-5.49306334392666,-6.987680310246755,2.016430017141852,4.194648854242221,-6.304506143528446,3.699689349572724,4.983980808276766,0.7622183939777993,1.40378983373594,1.0869111792053632,4.377829525025717
116.0,2.0080267400266574,-4.341098520258758,-6.349125260285238,1.191850612572416,4.210784012351157,-5.328324471737649,-0.02181427050281992,5.797805884548461,1.105999204604109,-0.38045697188582506,-2.8342593473701294,-2.56986169429871
117.0,-3.8929276409429563,2.675083080659418,6.568010721602392,0.5655198895846392,-5.277289641299198,4.642318995748585,0.22428914113277276,-4.047652754290345,2.5492304569345348,1.6545414793431363,-1.2603660199951898,2.845928024945729
118.0,-4.252699683365968,2.0427347613587115,6.295434444724561,1.0717735973758988,-5.321644652793044,4.1942879563808875,2.244814057376937,-5.144333935999802,-2.303063836756147,-0.31957728927763507,3.750670720148587,1.008776472993698
119.0,5.908637459299554,4.112341770066117,-1.7962956892336477,-4.9562538416921615,3.8831256028860457,1.1862235674010728,-3.3305417525166483,-2.2875839062743006,0.689109585070899,-1.8586613699688268,5.950160751912089,-5.240541237532226
120.0,-4.320040173445829,-12.038987318899085,-7.718947145453429,8.161123574734681,1.7310546830218443,-9.92963812673878,3.867403743988255,1.1350594072501696,2.256944650495835,0.6970832875857735,3.1875952510832573,-3.1895227600421237
121.0,-0.9382593982101475,-5.1592019531238105,-4.220942554913665,3.0335753288847322,1.6761245209532343,-4.744545306371571,-1.8723865318298616,-0.3399514962089569,3.1167161984549643,5.08284266583143,0.05651501998520625,5.1618639277969045
122.0,2.611517881540181,5.772365894785128,3.1608480132451797,-4.206429834828628,-0.3136028181940983,4.484581354442168,-1.0484523319764294,-2.926617028325623,-1.58562367498183,-3.131995160993885,-4.5821810370569604,0.8115531359739003
123.0,1.7344923040931988,3.548203328044968,1.813711023952169,-2.5783035800459517,0.0054363276535176475,2.692864769613173,-1.1700523978718018,3.7440557428134364,-5.245411633084455,-5.169471029269748,-5.469369985189039,0.04020791909455945
124.0,1.3719873125547848,14.529350374732925,13.157363062178554,-7.968738712689984,-5.923175491621063,13.852668382859889,-2.4200194505143084,3.1695733716221186,-7.833640102030178,-4.099064154310272,-5.573043996585037,-5.8244904658731995
125.0,-9.271537684530312,11.973194973809283,21.24473265833974,-1.3717851791685516,-15.289148988910512,16.62141768276867,-4.200465831365144,-1.3167830991894456,-10.489927699579942,-5.083014691932663,-10.700282404041392,-5.649202219190415
126.0,5.452968010590036,-6.828183453454221,-12.281151464044513,0.6637593642775357,8.831454793632792,-9.533213466391265,8.871799206323475,-3.7283105513946864,16.604161971951775,10.665390131605175,5.2781122802528415,13.05263320556676
127.0,11.42037292783804,-12.840585975764228,-24.260958903602855,0.7625935994706383,17.876496474459938,-18.516808803082768,3.1335701925477872,3.075791048753043,14.553355460002418,6.457808970424695,10.781519714771747,2.0186688552550054
128.0,-5.57904611821857,-15.471987028622715,-9.892940910404716,10.4977455216165,2.1852167679654118,-12.715294962722234,-1.1147091227302335,5.674396984590356,-1.2994739611539519,0.22254106032040966,12.468964715913877,-2.8652206088201417
129.0,-6.636778901482439,-20.77186075958162,-14.135081858099351,13.6761825798715,3.7722220012853005,-17.479096493228383,-3.9839375186536268,-1.7613379805465996,-5.9022185623090895,-1.3076921108176836,-0.14005201552135382,-6.360735390472906
130.0,-1.9605929391302892,3.9307470015016843,5.891339940632228,-0.9338338963818549,-3.9826765692568133,4.885307208563424,2.294370044114146,-1.0386831307624855,-2.8618619331014887,0.9713888432218591,-1.909112560641377,1.934863819739065
131.0,-2.9268164788015225,36.07581690262979,39.002633381431764,-16.601028583607267,-20.939026519061844,37.50624960929364,0.015306647266933426,-7.967747504004241,-1.3129228784174227,-4.010043065261411,-4.401931450399352,3.4660981136514852
132.0,5.878482054838774,12.2629072453834,6.3844251905449845,-9.018224259359563,-0.21966015461687327,9.357964992166412,0.25877262761941633,2.3532225245445915,0.019296045970889963,-2.644903395613815,0.17200804046098028,4.767248705694999
133.0,-5.0655678693475945,-8.691772286823623,-3.6262044174758437,6.8507720896792,-0.7551525768907785,-6.136023392931489,0.5924852766375297,0.9884844669189996,-4.589459575498564,-5.334139471627178,-9.31422745377902,-1.6853129657496206
134.0,4.471419698144731,-0.33438816314410014,-4.80580786128887,-2.1004992151281816,4.613550618499079,-2.554257746552244,-3.095151930171221,1.5232262328171347,2.5591503071777635,6.415955778845899,0.6793243538452023,-1.3003229801065581
135.0,8.14583932645557,-13.898580784716806,-22.04442011117248,2.8382894944494548,15.079167937177353,-17.95636843326423,-1.8643432441458025,1.484233880655491,-4.407872669814651,-5.421961845387167,-5.925956425149318,-5.793899026320018
136.0,-2.476137508993349,-7.168977231086959,-4.692839722093655,4.856676161557843,1.1775918104118235,-5.910373477642706,-2.757280377373593,-4.79867335930132,-1.6519126448886112,2.052306484363287,4.361213253579557,-6.280274044162917
137.0,-0.9412092746024732,8.117287062644108,9.058496337246588,-3.558819412382735,-5.006489972538795,8.538792391461046,0.12941904668079263,-5.003284159775639,2.846198914670241,7.016332504228566,5.283673189680696,-1.0654977938605148
138.0,5.762789243395394,17.52720044954672,11.764411206151367,-11.617277920150404,-3.0086682054201765,14.606205840684536,-0.37018846444290854,6.872169027523864,9.153918122802025,0.6409695139041882,3.1306648213985735,4.204336729140652
139.0,-0.10371706057851188,-5.762992732436116,-5.659275671857564,2.8848869992851904,2.7647070764073787,-5.665072889070396,4.091877789849925,14.2927507780718,6.2996768945575266,-1.067808115391296,0.5310732414644224,6.0038782071230505
140.0,-11.422562787233325,-18.98835713456894,-7.5657943473356,15.2417961651696,-1.9496934892028113,-13.307189259377598,9.6417483196069,-1.039931018086559,1.7692465466001095,2.1266603556565706,2.444467947851787,10.347908546867629
141.0,-11.959483217063012,-15.117820054888568,-3.158336837825574,13.504304054560825,-4.431266956830139,-9.091478074605103,3.667578047167341,-7.994948726138251,-12.516196172159525,-6.71785928328108,-10.573088341004082,-4.49381114879842
142.0,-5.186204348883727,8.247541294807913,13.433745643691578,-1.5567245406603774,-9.270123635299878,10.802822382143445,-4.024257287816718,-12.50346255885126,-8.990787763913943,-4.165802334216982,-1.2088773668812518,-3.721107212442009
143.0,12.732859553931643,29.12089916661886,16.38803961268714,-20.867248402689455,-1.7928074937493579,22.787874942356297,-9.66558571372953,-2.6403346943770707,6.126761451333101,9.38368781373715,8.527116180465303,-0.14816737932322166
144.0,12.880871989661536,7.079910197458018,-5.800961792203591,-9.99499787224593,9.37459407266321,0.5868360048764991,-7.032270529112576,1.6858295292665515,-0.04330555701176003,3.685493931467905,10.458302144966922,-0.8618918622562841
145.0,0.9069601082665262,-23.852630678797034,-24.759590787063644,11.459872927524561,12.790547411486592,-24.285216948592023,3.3191096423454933,12.997202074150444,3.6718400140263623,-8.384010072150312,-3.2988978801333952,-5.8620432725770915
146.0,3.4840751792069735,-9.110458510139456,-12.594533689346465,2.7991870427603063,8.000976939358065,-10.833653226014352,5.5419261425529,5.8780639199173,-2.6279249661681794,-9.14536103410812,-10.957761426531519,-2.1026642177159554
147.0,2.5844571425781915,20.996158513561372,18.411701370983238,-11.807380564307337,-7.947006152188438,19.723865499807374,2.448966110837832,-2.615246953644389,2.022993129678272,2.1462403134271293,0.7359080237416507,5.582826302634149
148.0,-9.8256855791209,10.93851370812145,20.764199287242445,-0.4990162166718809,-15.245207332921106,15.874414896504764,-5.484419309230438,-5.453778145576932,5.26183633615349,9.013297649099158,-1.8772379375811041,6.059388265157262
149.0,-6.945911551702931,-15.243488416362524,-8.297576864659593,11.068418281852079,0.7286624305829452,-11.822755407293192,-2.405202525370172,-3.305911751546499,-4.364644898049731,1.1771351111068853,-13.978821685496197,-3.6611177808927966
150.0,-10.678319708170802,-15.773406580443838,-5.0950868722730345,13.272817789704474,-2.8162310337723104,-10.484102404200883,9.48171650060552,-7.015832297692912,-5.445612233550647,0.7050710649960863,-5.569168683368508,-7.650381956754437
151.0,2.7445526372349702,-3.6288738552090702,-6.373426492443983,0.40395669092192943,4.533483097960137,-4.9715748258074015,3.1755066387589532,6.02743057365508,5.302980965454636,5.957013739070311,11.501711954345616,0.14770361017040834
152.0,8.93858714116736,1.2050398411123031,-7.733547300054937,-5.117589231103665,8.307365684743779,-3.23534083122731,1.05173775808449,7.5533477211767215,-1.3877524564012138,-3.4474135545317295,14.818887100650182,1.43943784986836
153.0,13.811904963446814,9.438425366421255,-4.373479597025385,-11.600737759580369,9.137672172979121,2.5601807926693585,-6.46233435812486,4.45919555597595,-0.011055077010825198,-9.656382406408623,12.834061101377849,3.055471995976255
154.0,6.961934527078158,21.78819265485514,14.826258127777049,-14.359418190356683,-3.971929976392002,18.2550930185143,-13.646809096366471,-0.7738025133128006,1.924195621508014,-4.739101171331386,3.400599114938128,4.930910687713962
155.0,-6.783267106521524,1.5321615109911573,8.315428617512476,2.6331938426918224,-7.516158310874474,4.949610733751274,2.6335479919567106,-7.059394171865011,-1.7952545851116137,1.926131097674765,-9.589622273713738,2.470131288999315
156.0,-14.061798786400445,-2.130325751543074,11.93147303485686,8.097342346238385,-12.968136027508285,4.925608439437735,8.184924867102925,-8.526672434394353,3.4716937141886657,15.878546568881134,0.0263682865292445,7.479260525269175
157.0,-16.199373608950104,-11.60828765682383,4.5910859521257175,13.900842382928634,-10.448695458449164,-3.563471857741374,2.5952411285714567,-8.471242524946126,2.7429572735994316,9.29141277608242,5.478924860847537,4.989261536364694
158.0,1.978318778660869,-10.213193699000916,-12.191512477661998,4.112310573490255,7.108291901657351,-11.18013980916134,1.3259113478499738,8.353947333891853,-2.800158472683189,-6.609048070796527,-4.858108444087428,-5.455731666246451
159.0,9.225460209344757,-3.481164078137147,-12.706624287481755,-2.877460662546579,10.988330606781817,-8.073452970584952,1.2260570066685952,9.201580780738688,-0.1273154362603185,-9.5498234526673,-23.667892802523788,-23.03665460777516
160.0,4.180314111585237,-16.122890044359362,-20.303204155944265,5.967571959705237,12.18451909843002,-18.272272657287406,1.2183594704705278,5.963288194604029,-7.671933158121542,-14.312703372046366,-32.645196770135925,-19.251684025945163
161.0,8.308559013163341,5.660198952240474,-2.6483600609226468,-6.984781803415924,5.499194028350182,1.526610314919003,-0.28071989655844876,0.0665305646943466,-8.427496237805322,-14.07852663270199,-6.880137107165526,-1.7840489333355336
162.0,14.254537715184265,7.658961691885242,-6.595576023298667,-10.952147553767947,10.444985063363262,0.5565932631872021,-1.0399605107905194,3.283610859493857,-0.3217383438199036,-2.936953234934105,23.561663859106254,13.96621934557653
163.0,0.40919602523837595,12.791101721178881,12.381905695940791,-6.58899103787776,-5.967101323591274,12.618783016384974,-4.068586165871932,-4.134907015929601,10.036513206928932,21.442337926407586,37.877349381394495,22.299960357884487
164.0,-3.2209663846471615,16.068109740722385,19.28907612536946,-6.404682085890152,-11.314825790287905,17.641665216034802,-5.531624242876823,-10.866962917327621,7.858524890744472,22.2328853466029,20.614049175414436,13.797553038318576
165.0,-12.69879051117001,15.398935860605047,28.09772637177494,-1.4016078905085638,-20.37904349708684,21.72114433050091,-8.735863710321945,-1.5568256806713459,8.631053960479717,15.977364763763614,8.014330425963529,3.6106381230846356
166.0,-10.458486651224725,-2.030355049525535,8.428131601699391,6.279920283770615,-9.423147426845524,3.2580480047945013,2.0644893324654383,6.639989338249139,8.11397684275153,2.6128141538836007,1.2114957913222417,-4.968142769336117
167.0,-9.00441782201079,-8.90664954491867,0.09776827709217528,8.920011484467212,-4.529410810983334,-4.420527400112146,4.614329301319678,-5.097962275073579,-6.416868759621737,-6.671867584545733,-3.3546878447322825,1.0184670759849102
168.0,-3.495353659764162,-28.291942705370428,-24.79658904560666,15.94372203517509,10.595310374561365,-26.561772218734315,13.838148793833648,-2.980970378119299,-11.37432939129973,-20.113298774387374,-24.89609893591119,-6.296905332011084
169.0,5.7176390238618,-26.256963115632722,-31.974602139495033,10.246778680806926,18.87110296794306,-29.13887594600237,10.74299055691559,3.12157154810623,-6.482552277584322,-22.433729725654246,-40.841825628494874,-22.701108836492253
170.0,-1.438392198690062,-7.647252440105311,-6.208860241415593,4.524584313160856,2.4111390976105103,-6.958597574308005,2.6398233085410565,-2.2804368785963294,-15.8808062870205,-18.700408182342244,-21.22520137581576,-14.745753035924912
171.0,11.610158109865804,7.730052870801602,-3.8801052390642043,-9.684950174335425,7.692435945694981,1.9670318647229996,-7.306636563664059,1.9195200507739507,-15.269611224696026,-10.518359495089921,-2.334516999575457,-6.305401694248955
172.0,5.1376425301738085,29.448649971927157,24.31100744175358,-17.227309995435945,-9.561079044756687,26.91982803832464,-10.772697425559382,-3.9829140937851295,5.335338578951642,19.436985852209858,34.951398855702834,16.094484495302762
173.0,12.537657031949445,27.13951812663423,14.601861094685372,-19.851391180283667,-1.0070667668494853,20.835174923628607,-9.645845322042371,1.7213467811165497,15.760979713545417,27.85590796151653,29.416735822384954,15.731732291033136
174.0,19.12607045457525,2.6618583095887907,-16.464212144986,-10.908850210219878,17.741405100922684,-6.850447649365229,-8.570278343664613,23.99109721303364,24.195559235255608,17.011057012949827,14.332521554789775,9.224401550751018
175.0,-0.37074599152763366,-8.41033441175763,-8.039588420229595,4.371325415310374,3.8606012680015747,-8.244233321648869,1.2025162793489232,10.934135722557793,24.803675455299363,14.491049601856481,1.369629528204145,4.662200330622339
176.0,-24.562835584696913,-9.91953520621098,14.643300378486188,17.215975647224045,-19.574145461926015,2.3487595652129762,8.016130648300003,-5.133501903291404,6.374346626979545,3.2536297702911963,-8.49257882228457,-1.3058744980930654
177.0,-12.939239429745331,0.41889609680935536,13.358135526554868,6.307279706723804,-13.194246522181897,6.875759021541728,2.8674286849848123,-17.911124146612014,-10.862773503859529,-10.02169452176652,-7.262814043094261,-1.8116344082515674
178.0,-18.99629597353236,-14.268904837802882,4.727391135729633,16.59556700850119,-11.823410147681031,-4.790116622072936,10.659050516390792,-14.906954803752413,-24.732718347207822,-29.669146044352665,-14.159855065387534,-10.07687146728308
179.0,-10.583119203651624,-1.8622355331769054,8.720883670474718,6.2611485222605685,-9.687051516378762,3.3977691732376787,4.457159093235448,-14.983424730988734,-31.552046765874575,-16.965843780511754,-4.854579870662844,-4.339146370639451
180.0,13.210792854006494,3.5718334128086457,-9.638959441198075,-8.353698655609296,11.472769912903859,-3.000675017691365,-0.7483373676730158,3.6263869351860794,-3.4022638304550874,2.0359754261165097,6.403069799321983,5.643735156529935
181.0,29.764616355443813,0.35485179848968773,-29.40976455695451,-15.100018140502806,29.558556122331495,-14.506731755357578,-6.08467455812306,18.036080979388217,15.386219836934046,10.725088061170633,-1.4089354889025099,-1.834202442860442
182.0,20.654878131072184,0.9450171963309222,-19.709860934741634,-10.838863031676244,20.153638168686342,-9.36832076635099,-7.671372774221902,16.486838693008053,15.085607526864386,4.834240949777273,-9.025847332229747,-7.200973701892494
183.0,-19.730665416278224,-11.200990825008299,8.529674591269707,15.506479126719803,-14.082126134918024,-1.3213353843409328,3.632275234983421,-10.123854235806746,-7.607873006859112,-7.703157372009358,-7.770393095229639,-6.723978468622965
184.0,-17.022314061984503,-3.4945441750688584,13.527769886915806,10.220110648106033,-15.308392912438356,5.036906364396768,4.571187858921567,-7.842702003998806,-2.2248153165657634,0.8085011068981043,9.123244389125773,0.5441854566515627
185.0,-3.1604205268284877,14.154631117943474,17.31505164477234,-5.457765871890145,-10.272770109783039,15.685294175096924,-1.3657083364696438,-3.1715509916627878,0.9287796517278171,6.4833915123419885,14.31265435796997,8.35787825872034
186.0,7.939233394213528,22.23274183665316,14.293508442439991,-15.126862620304909,-3.132689881885913,18.222197394526017,-6.978584034601982,5.790393247748968,9.451306254884042,10.202819188746265,11.231368712021636,11.051492713387006
187.0,3.437147019126276,10.08466545167803,6.6475184325520935,-6.72449604745738,-1.556977932673635,8.409861023707744,1.298929015083624,12.539420301715934,9.546537277326927,7.205267694956923,5.3096386760437,9.731223251039358
188.0,9.08390423002287,-14.978236190497974,-24.062140420520766,2.981997064013602,16.548649736232598,-19.552749048024996,-0.5738803728126156,1.1562984640806722,0.417135323366145,0.01579865486912313,-11.043336137565426,-1.1670905909672555
189.0,-6.614010003230012,-22.766428205926086,-16.152418202696087,14.643976786205945,4.751709087529595,-19.413726122411877,2.4119493820668767,-11.784910785180475,-7.211973122572219,-9.52354607952184,-13.144125862453436,-9.875699917937409
190.0,-7.132809122209371,-10.355613184147751,-3.222804061938536,8.772868880523138,-1.967029174820261,-6.824169781580181,2.866135381653762,-7.083663800643916,-7.253042520912778,-8.004990292487768,-1.8704874969961125,-6.783953669220744
191.0,-0.2336773530309193,1.3100721076247108,1.5437494606554472,-0.5940150868270182,-0.8983919423664377,1.4690109039652066,-1.6890039493110574,1.9421806683400824,-5.036773743505053,-8.337090456257513,-10.450220889657936,-11.471410540424879
192.0,4.114808592027881,14.35582521574472,10.241016623716547,-9.219438942640721,-3.0743101074065406,12.261481344037165,-1.9883130500071144,2.7670023099063323,0.9748217499165364,-0.039205259896995415,2.421495245387614,-5.0304273803512105
193.0,2.40104518338032,18.672297269173832,16.27125208579333,-10.5276938953599,-6.872677042398825,17.51512531460359,-1.1913806450314188,3.631964330797577,5.0801547540062,9.010354380982314,11.503985326174769,8.06062239253109
194.0,2.4351536318491065,-3.454485085484823,-5.889638717333957,0.5138790022153392,4.1384263841440285,-4.704385595928535,2.2602932720773214,2.118711141439568,5.630112840388934,9.52409100156682,11.32825387661077,10.026098274740226
195.0,-1.543786052693537,-1.489171838079829,0.05461421461390148,1.5198429427516083,-0.8318761805961403,-0.7457720842577824,3.4993395336880884,4.783559253878653,5.260700597786643,7.0910837623282585,4.784241496813704,14.92029510998193
196.0,-1.3008004868733165,-5.9105005441722795,-4.609700057298444,3.612997113965662,1.6923152879766088,-5.206229447002072,0.3432159050478284,-6.2069612384162545,-4.579147725622615,-5.504696416070783,-4.058156314702318,4.032907785029033
197.0,-2.82937710617435,-18.579731806942803,-15.750354700767822,10.720414021390784,6.413256518502018,-17.1874563719935,3.7892133476099517,-5.429475180647876,-6.447443225403395,-12.948247970408275,-8.275549926663658,-12.148804628852915
198.0,-12.32456226119948,-8.438649789082035,3.8859124721178757,10.33026982954782,-8.077341823178127,-2.2982099167683288,-3.8160289039493893,0.08553165054523948,-7.029735912699701,-6.409407060953428,-5.812799485511811,-10.360698015361478
199.0,0.9728316560155319,20.050073658404052,19.077242002388584,-10.47176960102416,-9.025097612179877,19.618801884527066,-3.595952827985009,-3.7122773665923554,-1.6024166257875379,4.180444482474221,-2.8162342618120118,-3.6034657816201774
