Time(ms),I,II,III,aVR,aVL,aVF,V1,V2,V3,V4,V5,V6
-200.0,2.833809798046508,-0.4783049691905683,-3.3121147672370643,-1.1868694301026022,3.03001337749608,-1.835960667647107,-2.0420246402082247,1.0759015893685624,3.317477867052874,1.6965090077068798,-7.315788316440043,-1.1075608311898624
-199.0,0.4884629409147139,1.245711456887915,0.7572485159731968,-0.8808714022208708,-0.09620862825147825,0.9833635384544488,-1.301409233463319,-4.570359508714311,-2.200108485317169,6.76002501124117,-2.6923972728477477,1.181692827558933
-198.0,-0.09054828882799715,-5.799199169804176,-5.708650880976197,3.003952234122653,2.7734757630318434,-5.773871184175838,-0.812492308990203,-0.5153889955246573,-5.358496809470265,-4.6294576304625465,0.43838421650415627,-1.2812204174192394
-197.0,2.8309500885765817,-1.4724491469401424,-4.303399235516753,-0.7045456419623255,3.616730774538085,-2.913520457113427,0.21712271045804532,-0.08853309325299463,-1.5723093676314415,-4.276119906024698,3.00275709883853,-2.9640466759837283
-196.0,2.266312399941058,2.149711498060963,-0.11660090188010686,-2.2374195900949143,1.1683572851941735,1.060689217065233,-3.4289180732610887,1.0579838630263194,3.938434916000202,-1.3964241117044458,0.9533545943325681,-0.5631823688720281
-195.0,2.2881454372587733,6.710083629637784,4.421938192379027,-4.451550595905037,-1.0856887816089995,5.520513683086568,-1.637866186016744,1.8071164629076397,0.5353169916549754,1.476882597105124,1.3834626126316967,4.2187917495857405
-194.0,-2.551696102098625,4.210363675028624,6.762059777127281,-0.8596122710513732,-4.6739030363914855,5.508872402632651,1.7249492831594442,-1.599124577792567,0.12280397494651263,-0.9168039228553844,-1.5283513208551411,-2.890338918125301
-193.0,-3.1322572189990594,-2.1482307727419765,0.9840264462571278,2.613449962879855,-2.0757324864554754,-0.5676127604986569,1.3216603359060402,-0.7717923845317685,-2.3142936080381156,3.662379007353678,-0.591233073323355,-2.8088582442824
-192.0,0.6372283903584592,-1.387703765988438,-2.0249321563468374,0.4326989942768509,1.3902154694761337,-1.696103677676923,1.8618976314039326,-0.07605410299468679,0.9873168416976488,-4.688633309593384,2.2156915125791685,1.654616403131806
-191.0,-6.189289288339513,-5.623355182412547,0.5659341059270293,5.891594493284112,-3.399797053756503,-2.518423374090765,3.183574502923823,0.5205292836490013,2.5001587420995612,-0.14123664873459774,1.6936990680149202,1.0809652152660514
-190.0,0.6143940139337094,-3.4254491328142636,-4.039843146747946,1.3971763946625204,2.3809587769132854,-3.7972526966100473,-1.8372349160574983,2.1268523719962094,0.8375878628241348,-3.0616309995742705,-0.11353085045137845,-1.9772785043893528
-189.0,4.822353727164773,0.11246171685221906,-4.709892010312557,-2.47080536693242,4.738101361580303,-2.2782398684484844,-0.625513026855062,-0.7916842824012696,-0.9131047519404722,4.65196251969595,-0.8462744514893461,5.941023214081688
-188.0,5.042616798516484,5.234197392963563,0.19158059444704323,-5.139166386503977,2.3935508617508243,2.740452706270103,-4.5926963804879,0.7089939540139303,0.5136635570426599,10.92950569271418,-0.5952625486594991,2.876511024147899
-187.0,0.40654725914528633,4.639906317369876,4.233359058224549,-2.523949594750134,-1.9501934896952817,4.470214042473603,-0.21253506030654457,-3.462925980785328,-3.273873464355976,6.5077142414668785,-0.8749050402903822,-3.3998145425123356
-186.0,-1.2855253554140953,-1.837902005322467,-0.5523766499084037,1.558793825436501,-0.32958795164431387,-1.236941077988846,1.099530812476818,0.7502199840740043,-0.08721435397432775,-8.942404055992387,-3.485790873578949,0.26681629677446006
-185.0,-3.1917405485300847,-1.7764115787196173,1.4153289698104505,2.4775633021560517,-2.2703885905662897,-0.22250586669671368,3.446722215459894,1.4766544139846,0.6670792108026712,-9.791466494418067,-0.8106352105897625,-4.627340149229643
-184.0,-4.67157635455603,2.636624698751036,7.308201053307073,1.0069238712532502,-6.036934256380887,5.0057040349748405,-0.22171537710984035,-0.5257388004402433,-3.2554160305031585,-6.320691220161342,3.6902125236575043,-0.2641505259976107
-183.0,-2.471761346970565,-1.971503587168522,0.5002577598020639,2.2860198801382747,-1.452744222240532,-0.7078500818054019,0.8215326007248908,-4.211038927834947,-2.8479671577370262,-1.896493896025813,-0.38936912625829656,-1.9792085363684586
-182.0,4.843412706054553,-3.6446481478209756,-8.488060853875494,-0.6171423010918755,6.703199671567095,-6.122859322084752,-0.8389320211009007,2.7121381400143116,2.7041598813436387,3.6884899457690388,-0.17507415711434193,-2.6860245894138113
-181.0,4.656396254307418,-1.7098347866272963,-6.36623104093467,-1.494224385563678,5.47567578524139,-4.019293448251213,-3.4896235339490502,5.612687065828538,7.531609465009871,6.471526810773868,2.210955156769699,3.486177094627494
-180.0,0.8812028007823147,-1.2653887502319763,-2.146591551014254,0.16796031005996137,1.483881075259339,-1.6874278753046956,1.2239343003377776,2.9382115782192946,9.981988909395891,9.64821240323717,3.2475999589507,10.073508217253494
-179.0,-1.5346116517989972,7.362479143989621,8.897090795788614,-2.9411783254336656,-5.241449106127557,8.15154419008446,-1.1438001548578027,-4.7359926545528115,-6.5298892870745515,-0.46923624558163635,-2.3262972690223034,-1.1682383348482048
-178.0,0.7589644886179054,2.6541374554712993,1.8951729668533632,-1.6577175693996389,-0.5123024724755614,2.301703542493472,3.9608177079331037,-4.012119443595604,-5.684479748333726,-6.7745893138932765,-3.0407629121739106,-4.481462036813959
-177.0,-0.42702118891112384,-3.320288840284545,-2.8932676513734403,1.920536466517285,1.2109802247033712,-3.1531606581362754,-1.051862970281383,-0.1787911518196692,-3.8764383830728,-4.175453853668822,-3.22432337465842,-2.722491025639729
-176.0,-3.2320074672132306,1.2060390684324334,4.438046535645666,0.9797098643761541,-3.779387460987983,2.779152844898374,1.317469350995125,-5.485366443112224,-6.741743981063675,4.523133133867677,0.8268078960266438,-4.149395169092655
-175.0,-6.8055400853650445,-5.177895339871939,1.6276447454931566,5.956930818952823,-4.2424241587342095,-1.738324887204013,-2.327602394861464,2.694469681470528,-1.3410274696851883,-2.5151434125125136,4.459894017141614,-0.6378709827316111
-174.0,3.358354284375762,0.9713173609065899,-2.387036923469114,-2.1232566369565014,2.8424740504492565,-0.7506649679087523,-0.9670543615219992,6.564450145105779,5.716225484313701,-2.0611962541666324,-0.5060663824794469,10.585424588310197
-173.0,5.2348701942582405,0.2689126299890157,-4.965957564269215,-2.7926980056242954,5.0645686100929455,-2.3134098039735758,1.0179718198942291,3.301595676647576,9.496746618237832,1.4837799234650018,-0.16270098409070688,4.091239956695485
-172.0,-0.3716119824030546,-0.8310638525850752,-0.45945187018205713,0.6347146465951363,0.08086218226236941,-0.6090171539865197,-0.867128978317029,1.6196819324607188,3.3831810786220347,-0.606819542470959,0.053152907136947314,-6.305702922802567
-171.0,2.450465689363229,3.6250929273512655,1.174627237987961,-3.087644043977006,0.6696767390931111,2.3615139009475334,1.984910670147231,-4.6819761474272585,-0.188875686419534,1.7171269679006387,0.13505186144845466,-4.123044532823693
-170.0,0.8646672963643394,2.678176041756673,1.8135087453922698,-1.745609008062102,-0.446150363605229,2.2931095155509,-0.8768304101443244,-5.086090806977843,-5.138159281576209,4.942723016795897,1.3548705369342289,-0.4409257494431351
-169.0,-1.9314664925036675,-1.45339045354882,0.47807603895482154,1.7177183211300036,-1.2565732822075248,-0.511223074364269,0.22481282717690473,-0.6911031776217591,-4.106257799945819,-0.7720748266405666,1.0393667452891056,1.8240591329318332
-168.0,0.2121356062665931,-2.606651942470335,-2.8187875487369256,1.2249852101817393,1.4645548897120206,-2.729628081121108,-1.6253722831850677,1.7380461818640809,-3.9987284029805923,-4.4592290665192165,-0.9969587593078257,-1.8145883159518863
-167.0,-3.1083906998613493,-2.717771032118353,0.3906196677430376,2.866940794693617,-1.7187906816117506,-1.177204574440661,2.182889759687557,1.6056066733011773,0.8432922450296441,-3.3896518450338524,-5.037507157666053,-1.2681700847544617
-166.0,-4.5364771354040245,-1.3695825258924648,3.166894609511602,2.9129619428492495,-3.8167266142001863,0.8836899692193825,-0.2829766445750745,1.749712583846843,4.60322774092237,4.720520621362656,-3.748502726627895,2.932496349822938
-165.0,3.121366883708932,5.616525268950058,2.4951583852412043,-4.3246023779377385,0.35252063591009986,4.113572887479473,-1.1653612393332438,0.16735086783875852,2.6632407570399033,-1.897444630198005,-0.2747108518065349,2.4578098961268626
-164.0,-0.13153475133731973,-2.405166391863697,-2.273631640526304,1.3163953462166589,1.034684048144216,-2.3702896155915383,2.1709687699988884,1.44760419056811,0.42613917170883964,0.6545867775727747,4.711881863893999,3.8860189988038645
-163.0,2.11578483534063,0.32960231198071555,-1.786182523359864,-1.252809622243503,1.9143458944044598,-0.6925460904204392,0.25472955484450155,-5.935296581182989,-8.894510100622073,-1.1653355471632505,0.3788245454506076,-2.840487896460699
-162.0,1.1992591001897628,-0.89148220421527,-2.090741304405027,-0.1869132651125004,1.6825748852469242,-1.5465085100257803,-1.0328248288368973,0.6159349474086246,0.9508656675575282,-0.9779697294142469,7.175455430232557,-4.517333560347397
-161.0,1.6461570665856438,4.358175125790508,2.712018059204822,-3.0409389256439576,-0.5825539352497897,3.5479136881115436,-3.879268136017291,1.1109189958800858,5.665343701463642,4.8761144036909,8.047833291978032,2.0344545039722055
-160.0,-0.14470712975418434,1.5579037231875679,1.7026108529416808,-0.6736043201572637,-0.9050473082206785,1.636391873949597,0.8474142603419865,1.4624865691770992,2.633900563602212,-2.1153236280513674,-5.907222989913835,-4.906536104023412
-159.0,2.5906786207031747,-5.22558170380974,-7.816260324512962,1.3441544740518125,5.212328476499046,-6.516161402233127,3.1709135756533913,5.120665308226647,6.5395338056201275,3.661916671475881,-11.773899056050483,-0.12141291695562773
-158.0,-3.8795456801217,-2.832001815145225,1.0475438649764799,3.3782557868646457,-2.460798843727178,-0.8830554151006325,-1.809288473128181,-2.8132555963017007,-4.659145879580236,-0.7420925254325568,-4.298751581938561,2.6590595992465067
-157.0,-4.275962883777875,4.814303321878551,9.09026620565649,-0.24859007600512317,-6.680930064992528,6.970940075384367,2.379170944745688,-2.752718359644129,-6.928882440918916,-2.1132903919631474,5.256827171408781,6.7430469880166495
-156.0,0.03869772407708538,4.5184989241340014,4.479801200057012,-2.3371306418953566,-2.213147765159635,4.45180018414235,-1.7626696620331108,-3.531616378024216,-5.007447776739591,-2.238520317670635,5.656944194042338,2.8325891473228193
-155.0,-0.19008320791540767,-9.124251905000165,-8.934168697084667,4.677460718212149,4.388843790070585,-8.98423672324008,1.3695417608475,-0.9175814238228492,-2.1581440188017496,-1.8506326623893532,-1.9047219293436086,-3.3386875506873466
-154.0,1.6539005942033607,-3.1762747292000295,-4.8301753234033455,0.7026517239111981,3.2694991731625906,-4.025035326864549,1.9172825933689173,3.9562485587991585,4.042615129002935,0.8493356691718985,-2.0743238084134727,-3.730831890082258
-153.0,5.601287137481314,4.589617009744177,-1.0116701277371365,-5.075140394383694,3.2639715808477963,1.7756717033547633,-2.93856180421354,5.157360085990245,7.149425382729764,0.37945449370355433,-3.1831901672686005,-5.089885004258653
-152.0,0.748830961113574,3.523166868477585,2.7743359073639917,-2.114419617087833,-1.0504529507617293,3.1395897181945203,-1.663903260847944,-1.1887089687588719,3.053088682248225,0.5380636860124468,3.34076017678083,0.35482323392370985
-151.0,-3.128198691174756,-1.232768299423523,1.8954303917512383,2.2054353636352064,-2.548860767367736,0.3219680214278877,-1.3959103600374596,-1.4935608032590568,-0.6331668508167887,2.58191833141668,5.941512347685219,2.9316615631548686
-150.0,-3.5966493310564256,2.8049551032997035,6.401604434356158,0.42645409974902904,-4.959211246236472,4.668759310937039,3.2495164257403015,-3.115183835684256,-1.6487756759220042,1.6226158061633575,1.3332096521107113,-1.1580801204315745
-149.0,-1.5950042856686741,1.5882918223879818,3.1832961080567195,-0.03764014873655708,-2.3508586458227976,2.365711203983981,-0.2578662665300768,-4.243428308862755,-4.8933030480599635,-0.20698961038350772,-3.61430166572742,-1.2854621037199503
-148.0,1.0820290256356562,-3.4727209481436336,-4.554749973779239,1.161581025946667,2.857310751766084,-4.042837423320564,1.5190639793825724,2.153337818521582,-2.2746573428075463,-0.8136330610917446,-3.5905398200134044,4.475731932414538
-147.0,5.337399654759349,-1.179952535949266,-6.517352190708607,-2.1066116178621836,5.8909611995123115,-3.8095995731187937,-2.4667733666808003,3.6887750133071044,0.7948903712444966,-3.088999222425036,-1.0025158422496938,4.075350362221021
-146.0,-2.0354582408625794,-6.463166102182886,-4.427707861320355,4.303598556097713,1.164720283790877,-5.496516519546764,1.2141293459250169,5.318402672263281,4.181474775120373,-1.0937986706558072,-0.9857457107822558,0.5200116944827555
-145.0,-2.1583398494846775,2.5400198808455676,4.698359730330144,-0.13630747283752798,-3.3766273689656225,3.6358139581431455,1.3398066016024504,0.6194299148025935,2.28620824224845,0.49361680298929667,2.3172511500462103,-2.243153162787354
-144.0,-1.1580670235485586,7.754601590263225,8.912668613811649,-3.3258194892567357,-5.060841994642646,8.340958682160643,-0.5957510248359552,-8.176695091534018,-4.203946739704763,3.5678753085596844,4.584303472413609,-1.489984619871735
-143.0,4.614407590723101,-3.7363589730470697,-8.350766563770224,-0.4733844374077525,6.45468601511328,-6.0423841539240755,-1.348956856234293,-0.16132070667918263,0.9266634191752003,-0.12611222212306528,-2.6585978404648016,-1.6007859004300573
-142.0,2.3083739045731217,-2.6502893729507964,-4.958663277523837,0.12730520992243188,3.599615408404013,-3.8052745421555922,1.4590252881069725,-0.5329519332337198,-1.4785688584588899,-5.105471917187464,-7.271470191757,-6.75190617956184
-141.0,-0.6402231153763243,3.3298466679305667,3.9700697833070193,-1.3194846068229669,-2.268072978173784,3.6516378098616014,-2.579536802795941,-1.0129040383582906,-2.180123028916987,2.912611645439866,1.0322247820955508,-1.759212640948193
-140.0,-6.28625657843495,2.107149654416373,8.393406232851444,2.107209622847158,-7.309904655714865,5.258325430574448,-0.5768735080063097,2.484316260799056,3.20958001688751,-0.28811299987367955,6.82939874979772,6.924906835099871
-139.0,2.661181622006629,-2.3539974567247244,-5.015179078731304,-0.1392949496121727,3.8635298188628955,-3.6675682789862343,1.2546585292058303,6.006870076463633,5.568817311788579,5.705248306823032,9.612711106475611,9.655441051660882
-138.0,-0.4946010796428473,-0.534865794029232,-0.04026471438638746,0.5309044045303998,-0.28183330555070163,-0.33937521220293587,1.0060297225210337,0.9938875509425276,4.060785385509566,-2.2612634990562688,-0.036580706444321986,1.184588231455761
-137.0,-1.1703256065992576,2.2359942530306474,3.4063198596298814,-0.5103189783066546,-2.262753939784677,2.8573785249553425,0.6793156599225383,-2.8502716110941906,-8.854441788434599,-5.020551613282922,-9.948536590054248,-5.655078251537514
-136.0,-3.229361220918333,-5.3264381261184965,-2.0970769052002023,4.230394375524133,-0.5377359160016528,-3.74680033409894,0.2989045462793836,-5.645518087829697,-6.927767987339319,0.7207330966336891,-9.179876196950417,-5.9993554833896745
-135.0,3.192589481315638,-1.2095746125520703,-4.402164093867793,-1.0304067630073583,3.749755853962976,-2.7570493089821047,-0.5385601653737656,-3.8428689269058305,-0.08116386153730826,1.6676770520457866,-3.3451454192494112,-7.716569175622258
-134.0,4.3640301953444,2.314573364733768,-2.0494568306106946,-3.2929493939035104,3.1608631225401473,0.10531880694812079,0.18396339517780858,2.8752334018991914,5.754783454195641,1.8376280406998866,7.793959604755743,0.5806889533364403
-133.0,-1.1119254682584434,5.884525448199657,6.996450916458116,-2.415199348957811,-4.020557765561698,6.413825997570491,-0.9344242760988637,4.583819612571486,1.8846142512952953,-0.5900903702352749,4.1449262355711625,7.9692728827218335
-132.0,2.362855353401084,-2.205078901419208,-4.567934254820214,-0.028332696636911514,3.4994143673748574,-3.335495588338267,-1.807309900668023,2.2222963234988073,1.202094381567865,-1.7974164345847645,2.1232696503148922,10.42705013723619
-131.0,1.425500204720433,-0.17805311608334173,-1.603553320803693,-0.6530123333120306,1.5491904966081684,-0.9208576868769922,0.9056969437433784,-1.2189931474469722,-2.011334989921057,-2.762497924184958,1.7361734124857793,-1.0136330857528826
-130.0,-7.077988492667591,0.9744313458177564,8.052419838485374,3.0209365629972593,-7.608210991706851,4.558836940481642,-0.17792948089539887,-1.882491325059338,0.5577936693592398,0.7530832957187608,-0.04240978777944049,-1.6895665871734757
-129.0,-5.104277156375899,-1.6139211917232155,3.490355964652584,3.406254589238156,-4.339122965882013,0.9008076789650241,1.8561563461609099,-1.0246256429636684,-0.8981876333942296,2.359268595705803,-3.2846611123921896,-3.51557604623176
-128.0,1.7557973036506045,-3.068800547541427,-4.824597851192138,0.6257544907570869,3.3279371671500226,-3.988702420003254,2.0601700007691592,1.6624696154800218,1.1804871751930357,4.469415062166071,0.5295591556716732,-6.331920580919201
-127.0,5.647081141846554,-5.244400732524394,-10.891481874371058,-0.15080902532395968,8.307004198724012,-8.035853887239547,0.18148082058920778,0.737394600203733,2.3702032638602932,-1.9172273286093549,-8.337500391259562,-6.475881904908751
-126.0,1.8326633482098793,0.5206418643160959,-1.3120214838938056,-1.2013129699630858,1.5303937510053243,-0.3677666422556456,-1.95382318211643,-0.24937468950495933,-1.9499491627480938,-1.446898579660779,3.8192521134496706,3.129271809057326
-125.0,1.320605538024279,8.978286590098346,7.657681052074109,-5.170618305597685,-3.2120302425418896,8.342697724681884,-2.564936533736444,-0.16600181946264247,-3.863443853961292,-0.9456702372062527,4.9476455650058835,7.001855660179537
-124.0,-1.7947923077140158,2.990259883330517,4.785052191044606,-0.6165855424425226,-3.256281275897888,3.8316343415342384,-1.5918545956946764,-4.171243606790513,-0.7685768686293917,-0.16644182804619145,2.401416225227576,5.5739003011793775
-123.0,-2.571272878667352,5.407642048057801,7.978914926725195,-1.357825855646388,-5.242613158165354,6.715455186539445,-1.8068417221531239,0.5638728988973511,3.3979930120409976,1.219548706825516,-3.1224368344526283,-0.8187911220511386
-122.0,0.5561340976342302,-4.493910647677035,-5.050044745311275,1.949020391752532,2.8350504997614756,-4.8273338962992325,4.487575282299105,2.298691115481663,-0.30447528956823877,-4.840676541123653,-5.676449053352327,-1.3538473976537149
-121.0,1.0087531184822764,-7.802467595843721,-8.811220714326009,3.3741409154203605,4.863079296583294,-8.280055974663377,3.3589812953024305,1.1851374913035453,-0.7178271458921897,-1.4173799151533015,-3.2554879300139055,-2.877106491201918
-120.0,-3.4152711725498968,-9.211076122072285,-5.7958049495224575,6.287322263874149,1.1432537462814705,-7.470966144494971,3.3999525772163466,1.6188179682703039,-0.5639157885843347,4.810025933999742,5.436762234132683,-3.609904700710574
-119.0,-0.6019245660327175,1.6720359875071344,2.2739605535397818,-0.4842770451824103,-1.4064385388617466,2.0128357567288067,-4.926962078663021,-1.8408350596671912,0.1475706661515485,7.551517063215412,10.988462622162505,1.1907331066410638
-118.0,0.5537137460442277,0.44247969335460235,-0.11123405268967212,-0.5261270284077182,0.3638872474254605,0.13431144393237715,-1.3368181121766636,-1.8097263842106552,4.054885806458425,-2.4566338079981724,-2.3262932846094877,2.6554048087697115
-117.0,4.556058590803434,10.4688533145083,5.912794723704868,-7.459401926537508,-0.7251600190744141,8.165541838393576,-3.3295834396375366,1.4592334264764244,1.635593589501835,-7.335450785325975,-5.87853397609806,-0.22771764229970737
-116.0,2.7696336012400073,14.891764838084088,12.122131236844117,-8.852219550813329,-4.642743560912319,13.484716340752218,0.05132765375498183,-0.8463432828664103,-0.3735172796982992,2.3004755687414327,-0.7836625710752094,-2.186444215421933
-115.0,-2.354218124777392,-1.716134266980518,0.6380838577969259,2.0184881804749635,-1.4600960516193462,-0.5616008564604593,1.931663469295859,0.21920391624016178,-5.62283018951713,2.9147859609908715,1.2917620892874169,3.278520573633265
-114.0,-3.851289041934763,-9.507333021569695,-5.65604397963485,6.666833931064841,0.8628990921941089,-7.528652570419835,2.2809139873084385,-1.0804379256672156,-5.492348461870086,-3.8853164450368367,-2.8871024734874333,-0.6913143606678545
-113.0,-0.5561792342796623,-12.783487404321553,-12.227308170041843,6.660072812439054,5.79958414133478,-12.457156219516387,2.9515721605364322,3.1891838018341008,4.759794730383839,-0.921895066255837,-2.6579361238806287,-0.9243016588815239
-112.0,1.5522140614616569,-5.794361131715929,-7.346575193177591,2.112236025654616,4.4958433287883075,-6.6063039148526075,-1.8214488985402524,1.885554543313059,4.080924950363779,0.5665883247867645,-0.5998379028866486,-0.04596978339751695
-111.0,-0.235116254015575,1.758156761222466,1.993273015237969,-0.6924023303069089,-1.1423307891244772,1.8348892555460043,-3.053345957796834,-3.523823687590653,-1.3977998565129415,0.4979753080630477,2.395202870225982,0.22311552258738865
-110.0,-1.6178871559158063,8.956873951319713,10.574761107235439,-3.6815065122869046,-6.119320381017378,9.799808752586305,-0.43709023141083536,-2.2299206091495387,1.0519535230447383,-0.4573112433208426,4.169239318803914,1.1130702561754084
-109.0,1.5465569455616772,6.392040860307313,4.8454839147456505,-3.985211107916571,-1.5873899097109034,5.571835628784949,-0.5735063995094626,-1.9375486255541787,1.2335078252232614,0.6830574122297168,4.651330126433409,-1.562104869522165
-108.0,0.5573986891025082,4.369565024409078,3.812166335306678,-2.4846094739633826,-1.6370945184821115,4.122887999003935,1.7750108551938584,2.769887754345311,-3.5891122390631165,4.201401342383221,-0.9339491303474743,0.03493809225603131
-107.0,4.05258290616871,0.9718790592737219,-3.080703846894861,-2.5392622142501695,3.5631186340210763,-1.0196575151741492,0.028136708787711795,1.6980353787656282,0.31364326838082834,2.757314078145946,-3.998887489985805,-3.6031304798693364
-106.0,0.5231874660325069,-6.93220029072153,-7.455387756753958,3.250732330739029,3.9891745408505197,-7.233107847202311,1.4178785259826914,1.5671730888950695,-2.0318263827182714,-4.679506617809814,-8.054318748180034,-0.6882318246512011
-105.0,-5.7116483896972206,-7.579893181458158,-1.8682447917609482,6.609375664692068,-1.9230139968274593,-4.679361472073245,1.450783179686335,1.879155605307261,1.7832879391407288,-2.4208333761868954,2.544733286153914,5.831890098003341
-104.0,-2.5897678773958543,-0.34264769619893176,2.247120181196859,1.507046931346725,-2.426403293821496,0.9223012712237759,-1.9030853980986373,-1.1069303013113947,3.0353260103994026,0.2583650276190488,2.13427407618969,6.054079723396232
-103.0,4.588828430395121,6.69030659253412,2.101478162138919,-5.598080986162446,1.2243740049576066,4.3674019212604245,-2.3370856193253586,-3.0886444400313167,0.21263030694322005,2.222554421030966,7.644511162557171,-1.9286033477534965
-102.0,0.7645875154028461,1.5263895094804205,0.7618019940775189,-1.1810424302355345,-0.031565732660065626,1.192529255074389,-0.11775256925076127,-2.4655724217152652,-0.33735862258842314,-0.44280705365493933,0.11879629890149745,-4.836236200413386
-101.0,-2.990448947262237,-4.805754312591136,-1.8153053653289326,3.863838405899258,-0.5543938485277875,-3.345317480115473,0.46789186610312317,-0.7328473766995667,-3.1077949337454625,-5.129911128986086,-7.071362111418403,-6.305108103054284
-100.0,-1.1948174909226708,1.5341723500074314,2.728989840930085,-0.20420278250635093,-1.9371150794097172,2.09141571833954,3.8722298718846426,0.9777835600041971,-2.914273630639155,1.4545364913862207,-0.41808513869761965,3.534056242518895
-99.0,3.5877925161762665,3.43909289749053,-0.14869961868574189,-3.4713726158413882,1.8906834671511472,1.6797563500874304,-1.2984960161071941,3.384508444081076,0.3071324141062701,-1.1450671325467525,-1.7408473803231344,0.5937918332821766
-98.0,-3.922090269359833,-3.4068583954300875,0.5152318739297528,3.702861933267597,-2.1927140040360347,-1.4120357793329523,-1.978200659661527,1.685114534897723,3.659480399895414,2.092561117854956,1.3842617777337034,2.4364528269325714
-97.0,2.212406950457682,-2.0598860399038097,-4.27229299036147,-0.12122391432049906,3.197023602283969,-3.129136218837049,-0.02284909405119384,0.41759983120125854,4.203986224671057,5.372845294023113,8.611795827470882,3.494015048896845
-96.0,5.4682926858626,2.81683548580203,-2.6514572000605465,-4.1138716933846435,4.023383942105999,0.047296160772564155,-1.1974982376768564,-2.3290882479834605,-0.14372941737990708,2.4277657201241984,1.3884011716160303,-1.666753246900584
-95.0,3.1270296405924665,2.263076130600512,-0.8639535099919238,-2.6718233193544263,1.9670004756660437,0.6720660624292836,0.5423360113644574,-2.766374105575024,-1.1459543507156615,0.08180128394494812,-7.022383599664171,-6.231070884871915
-94.0,-5.249945527398726,0.194346968319546,5.444292495718291,2.466475765627849,-5.290858385310268,2.7993418358713003,3.3139992839509196,1.8680267710063112,-3.4749008215242094,-1.096137921083684,-5.931304493804056,0.9896252436374748
-93.0,-6.604580990572238,0.20745229953293387,6.812033290105141,3.2101132781090658,-6.727046064089615,3.4956116894459948,-1.794836109373109,-2.5641676917831737,-7.935942426058505,-10.295232741049523,-6.565559293284351,3.2502509575594933
-92.0,-1.6164716490361135,-3.654424192003244,-2.0379525429672034,2.6417472490242666,0.2723465894115207,-2.777902898855607,-0.8227560498524303,2.357308054502726,3.983192552274151,-1.633808207070551,4.9084135232423405,-0.8743327204034061
-91.0,-0.7058360054192265,-4.019914294982164,-3.3140782895630445,2.3655860519807947,1.286409053784466,-3.675985283891324,4.810795909216134,4.285276385479632,5.614824165184859,2.333548862191434,12.63233661270019,3.6878659819013566
-90.0,5.8041953534652935,-0.5206892705263437,-6.3248846239917516,-2.639980775189868,6.044000109043402,-3.4323945688927506,-4.475594161393092,-1.7758960770243581,-0.2122721387681783,5.06704739247486,5.2542624091644505,-3.7041908737043254
-89.0,5.292525069424171,4.370347132707773,-0.9221779367164649,-4.827451200481146,3.0819529672541957,1.7117919982020138,-0.8335337176621229,-2.0893421974990383,4.864109417584899,3.901678192868938,-9.611197551532868,-3.232930607743487
-88.0,-0.012247462808002929,4.41690063595543,4.429148098763433,-2.1932491593071646,-2.252035814442845,4.406016832655599,-0.27256850673310695,-0.33841363509836264,1.0417402680701784,-0.8464917008415087,-1.4477823399716239,-1.7634711873754765
-87.0,-2.251769904270608,4.951266224308859,7.203036128579511,-1.3337342732237287,-4.685380000878007,6.132360758180707,-0.10626957420303862,-0.8599118034160013,-4.45791306797655,-3.009979439721553,-2.688067985934578,5.860430578270526
-86.0,-1.6078746153372878,-6.1064058189437365,-4.498531203606419,3.8016950550942537,1.4842682492246233,-5.333861768156359,1.3408881887029447,0.5265830205981268,-6.784670230169212,-6.517406407964425,0.3036836470474209,5.774904996107177
-85.0,-4.31136343169018,-5.68637556010218,-1.3750121284119956,5.028368095607833,-1.5076350520689596,-3.570467029632212,1.059398578683774,0.43605862352772756,-1.6999439465692614,2.177390514085274,2.4773628959616953,0.2807190713081633
-84.0,-2.5486321979919873,0.18494457773147488,2.7335767757234457,1.2155054176505056,-2.5980147616194182,1.490308879066374,1.2208185152536064,-2.0670551269547466,1.4083049668242413,7.499415730339315,0.31823969037552646,-3.952491487986423
-83.0,5.246011490423167,4.880329371410053,-0.36568211901316405,-5.106226932882331,2.776367127161523,2.2818286793531803,-3.302690948696458,1.369401704550637,3.836989525145848,5.437301956895615,-1.3705068598596277,-5.232545951061834
-82.0,4.743746557467126,-0.9650819220000524,-5.708828479467235,-1.9316990434318932,5.203682493272954,-3.316967129054513,-0.38152724697228235,3.8825982002863317,4.288380311017661,-4.688613576739854,2.3371806291471247,0.8165789508805354
-81.0,0.4773337651124505,-3.158152190545712,-3.6354859556581713,1.377539180912891,2.0396582871025455,-3.457814903832678,2.5196022084002854,-1.386378125495711,0.07576838753975901,-3.4961228192273572,3.2644362275576086,0.45832750364195873
-80.0,-4.008595176681224,1.3485589846892347,5.357154161370499,1.36935230750208,-4.617343564361552,3.3706612824488533,0.0872318879525743,0.43795556221948584,-0.4062291949515713,-3.1498347384813865,-2.525543947390929,-3.6856279141331956
-79.0,1.4615692792659332,4.066849819199538,2.605280539933663,-2.7992708328196856,-0.5845303792396512,3.3561438213449986,-0.4280354019269974,-1.0769910878573898,-3.216503808465381,-2.991556738786475,-6.211384947204193,0.5519690470046713
-78.0,-4.807665096132429,-0.614221194775177,4.193443901357302,2.7607007836453477,-4.515609961506307,1.7353584976899235,-1.547842469606567,-4.58114534396567,-4.556412867463804,-3.1685588885768547,-3.413164309646862,1.6406140248986942
-77.0,-1.9931647062480111,-3.2082804710802537,-1.215115764832229,2.578093566540485,-0.408523312045741,-2.180915127020696,1.9526178002845938,2.3380643548307183,2.843818910279919,-1.1589175104481346,2.069135682576129,3.1973665396506936
-76.0,1.8698019222919353,-1.0767335937681235,-2.946535516060097,-0.41424282387287925,2.3837553510875678,-1.9734712363187705,-0.3899019522697649,2.2350910272335605,2.679600538792797,4.6184599324585704,7.984261051912486,3.508765569409645
-75.0,4.903778667087114,-3.525277670272022,-8.429056337359198,-0.7046884957648215,6.717309247354573,-6.010725151988022,-1.0029885566173498,0.7191843155757363,1.2405062568057552,10.403288499048465,4.452444431520357,2.447516226477501
-74.0,1.4903982950541055,3.246680672095681,1.7562823770415115,-2.3844651251059528,-0.1611668224273055,2.55141671448015,-2.7899212808075937,-2.072971881105655,0.35338743030290576,10.7606969773397,-3.1412316919655052,-4.012596899323614
-73.0,-4.592816802516268,10.876966371999119,15.469783174515351,-3.1603081125584893,-9.977489840967635,13.145227427062913,2.1017098547136177,-0.46212096873266256,0.1358412578092787,3.8623175684333226,-1.0147087413851612,-2.48127104470826
-72.0,3.286065434378735,-1.5600749198057602,-4.846140354184474,-0.805287146858327,4.047287957361574,-3.235446159650694,2.144354860467599,3.3924788508518646,-0.8880596981047004,-16.07571997822497,-0.014406814373865817,0.209896597326638
-71.0,5.3998714360978255,-5.876679511320745,-11.276550947418507,0.2936271117052397,8.326388636366776,-8.617127728585853,0.3967094794336241,-0.9629575844773961,-5.67110886009593,-13.358481733316523,-10.467702029563704,-1.5562313350424113
-70.0,-3.4798963173656605,-5.38832910733106,-1.9084327899653104,4.408271794354145,-0.7921130259953735,-3.619791790547096,0.14651551256205647,-1.5478198010288238,0.47772770293079514,-2.302555811310585,2.1298167816778113,0.3702520181196933
-69.0,-14.411139488751292,-1.181787116631722,13.229352372119688,7.767643935989787,-13.82471899650753,6.044532425676731,0.20799279298675788,-2.533356518078087,2.770258912320549,-0.14792823223953455,8.379904844814789,4.134217841303001
-68.0,0.19965747998689043,3.4132980275098364,3.2136405475230685,-1.8395698453275324,-1.513959106815503,3.330894203799971,-1.3938811871245795,-2.5418712912957493,-0.8188887652341257,3.829364827487312,0.6498208317627268,-4.2646472634933685
-67.0,7.786651573870705,2.483755652105777,-5.302895921764867,-5.173467288531314,6.531383398877588,-1.3900003607131897,-1.8404370629439881,4.643257957928119,1.0559448200869048,11.915901666744585,-1.1643644556567048,-1.7040830705761776
-66.0,8.84813478642703,2.70574983130469,-6.142384955122368,-5.741010282789935,7.551851716719275,-1.6923048480848404,-1.6687147354436909,2.094517760756927,2.2273799910155927,3.024634383251887,-4.6673343926102655,-1.1373651261778304
-65.0,2.590621511278983,-2.1202501228883195,-4.710871634167399,-0.2013307122286645,3.619621960639349,-3.460233748086835,1.0393377820698544,3.2113225435031567,1.7429432245875165,-0.6792218924197329,-2.0192090025728033,2.862299895378471
-64.0,-2.4175192995753414,0.6898814733129135,3.1074007728880946,0.899099521988114,-2.8006799332781296,1.860767625170132,0.6599016771912446,0.3776903497892439,-1.3503820071385264,-1.849632913198948,2.9049456437171832,3.4592677899086257
-63.0,-9.557096177229123,0.34010235604457983,9.897198533273553,4.569321840318407,-9.69042910379304,5.084486692219575,2.826363470076682,-5.7986013328379915,-3.5255832271763157,-2.9802502470901584,3.705355673820757,-1.199887214401187
-62.0,-4.189645092143475,-2.921314137990809,1.2683309541526064,3.5999837439634454,-2.692474197176038,-0.7814716673280562,3.247432089321012,-2.38706952179679,-0.5876392302006304,-2.0359138382660635,-0.464749084407339,-1.0724752850898907
-61.0,2.8789424067486653,-5.34718929161965,-8.226131698368299,1.2025585328291186,5.512788690068707,-6.743371490268409,-2.852163818141925,-0.37082452310449376,3.641188284106483,-1.2745429287648404,0.21850361475974908,0.18685201878306423
-60.0,4.890702213775749,1.3719411238505081,-3.5187610899251434,-3.1646100830201713,4.247035326107409,-1.1112637527026963,-1.2904837580610236,2.748311728754138,0.8983749310412216,-0.706667052267151,-5.2729769394578,0.9916504894094966
-59.0,3.6267542884807513,6.387066743434561,2.7603124549539357,-5.04663501644464,0.39874789002123423,4.61255884320181,-1.8108329131960255,1.8186989646138942,-1.9090395069822312,-0.818789550300552,3.9693321752429553,2.0729207703522654
-58.0,-1.4200194976545348,4.783264598444503,6.203284096099136,-1.651924207307927,-3.84702263640958,5.45188164629773,-2.2241294746296436,-0.770246306827459,-2.347764843834608,4.497472407885254,1.7751547445592164,-1.5644597208583357
-57.0,-2.581100122333032,-1.2056034943442064,1.3754966279888814,1.914039659662749,-1.9389889122863813,0.12069766037776053,2.0313867977362796,-1.0150515415962054,-3.0942402940555587,0.436802291789137,-3.14934692096785,-3.6154934931417335
-56.0,-5.477812545364223,-4.965494019187666,0.5123185261765375,5.23682714075915,-3.0407031879119772,-2.2721981733318373,2.748023299381803,0.6357342863285458,2.481480837365109,-1.9188746128154173,-0.5572269212138676,2.5049818544099924
-55.0,2.759517560725204,-0.6972058792245459,-3.4567234399498132,-1.0162262421381878,3.134805702302155,-2.0481075034915635,-0.6441791031433506,0.8027914143017791,3.246636157959038,0.4169604082099372,1.3840480635406838,-0.4831993254969377
-54.0,4.140930886711018,-1.1945677772660936,-5.335498663977171,-1.4535512265164328,4.7601374864713115,-3.24210737440993,-0.9932708324744776,-1.4970968767166275,0.5457687243850717,0.5147873955967645,-0.09317198760784956,-4.715214471406041
-53.0,0.15328908573304667,-3.2421800581278233,-3.395469143860892,1.4928147543008143,1.794297160888108,-3.381301892374994,2.8229454545218196,0.9715734600654752,1.1534640858522898,-3.88096999712662,0.4914381695672204,1.02413673729927
-52.0,-0.8724468519054531,3.406111996462312,4.278558848367784,-1.232392368600807,-2.554870715032293,3.852976843190371,-3.5711645237632252,0.8421255628092525,0.39014304662390037,0.8002218998649071,-2.0344788415554977,0.7754347514999659
-51.0,1.62599627328568,1.2771321924636792,-0.3488640808219694,-1.4911863482788388,0.9318752309132328,0.4722752236069119,-0.43409881694478325,-0.6665347449063117,-3.1712206949093775,6.475581177954421,-0.3516407146592032,6.539600069518696
-50.0,-1.9718510725004381,2.0480901550107427,4.019941227511186,-0.07669021460506287,-3.0480434278764443,3.04450821697088,1.6825850118859433,0.31345687675958434,0.28654988374139956,3.634849128485383,3.763542874987544,4.158256165953787
-49.0,0.3376313639360624,-0.3535996591148751,-0.6912310230509502,0.04628789785144112,0.54472300116803,-0.5041760898673318,-0.42044768146110223,-1.935084625793026,-2.86088811530166,-2.130119592262687,-1.822281593817323,-4.145781014810318
-48.0,-0.03520009291028181,1.3849745613185722,1.4201746542288411,-0.6394963228407148,-0.6934932080654159,1.432893819077037,2.9234852929337087,2.2091626551115113,1.5895590985453156,-5.025405030614327,4.679525787142379,-0.7337067283831407
-47.0,-3.027473868752379,-0.5082213032397994,2.519252565512602,1.7226038846951837,-2.73502723827883,0.9710371606911004,-2.7555179699547145,-5.121966414838895,-1.4819217654173258,-7.973931017744756,-1.1385958397256308,-7.166408888465568
-46.0,-0.8359825232292575,-0.28204423714858795,0.5539382860806985,0.5929263525807364,-0.7312812383543098,0.11423302268243085,-1.3890504039047626,3.6163377752644665,4.568100843654007,0.7970195267143887,-6.505895405606031,-4.3686363737380836
-45.0,-1.600633493607392,-5.164225031532567,-3.5635915379251277,3.4189672560846427,0.9485702222744526,-4.37668803189601,-0.2093073044281898,0.6965575402135306,2.7498458304677342,1.5195520590062208,-6.81718414871612,0.42813492650138363
-44.0,6.368092793727804,-1.4259074639487161,-7.794000257676492,-2.5097809485426588,7.128988362594292,-4.619100877189605,1.9258943749622937,2.9332772988556877,-1.812754210550338,2.7827229688457176,3.582685849846024,7.066834848001593
-43.0,2.756807671381551,6.388378828063244,3.6315711566816344,-4.608797848306151,-0.46760110901748275,5.077826635823068,1.9413891527449705,-1.247327545688523,-6.8975457420380115,5.439489707768876,10.273145120632538,11.352492040207915
-42.0,-6.150996465378002,-5.431154934236403,0.7198415311414879,5.833362892425509,-3.466117267785995,-2.3726144110772798,1.6920345603717215,-0.7379466878776733,1.6538207673344911,7.379734332207208,0.5946789244069235,-1.905557453393559
-41.0,1.1038136921728112,0.24557277014681617,-0.8582409220261173,-0.7149248900418976,1.028493646362352,-0.331817516140267,-4.453077146629253,-1.2110774464885474,2.3636255866840354,-0.1703085404392013,-0.5804049654847432,-6.152142465849125
-40.0,-0.2790759854134467,4.3603519315764725,4.63942791698984,-2.0089407458741473,-2.4901788707810217,4.465641700083997,-4.066869739743754,-3.7936920286353706,-3.835755748208939,-12.51016645326639,-3.7597065799488245,-7.915376600243234
-39.0,2.473739925332605,4.329664809316352,1.8559248839837363,-3.3783034885142618,0.3586219116926239,3.130494948663552,2.3063459141213527,0.7717129106841372,3.28875842663862,-6.318507087287641,-0.33873224805985824,0.7993928802098313
-38.0,4.509539534089173,0.35494394511088734,-4.154595588978253,-2.495061694180924,4.30620359311069,-1.8652958910045712,2.0387641050094087,2.458824882646784,4.8816612052610555,2.6323502715178178,-0.33045441211073645,4.21377012377431
-37.0,-5.982584924928725,-2.063771617873689,3.9188133070550926,4.0349527415373005,-4.973249311550527,0.8844159530066369,-0.228793494963077,1.931647955372671,0.4265382860802964,7.312169678000313,1.5607050463968155,2.3245898515542165
-36.0,-5.591337234752973,-4.785272084406568,0.8060651503464704,5.201218029569508,-3.1407226855384214,-1.9491226592892748,3.2989115290656845,-0.11774560896937691,-5.301277855449689,1.6885319191341854,-2.093671228901043,-0.6665983332661787
-35.0,3.30372705890437,-1.9447215081544824,-5.248448567058747,-0.65937748142907,4.253955450380722,-3.6278793074589775,2.2677833620771795,1.2217737126984916,-1.0325528389487801,0.643869130736336,-1.7628221880712887,-2.1222072564547245
-34.0,3.5813591327593897,1.8144383809075335,-1.7669207518517485,-2.6653721304378752,2.64666220513709,-0.000503673378582592,-4.066650135688159,0.1277202292525012,2.1412252682191233,-0.7158569173008358,1.143213409011633,2.2573380028663053
-33.0,-1.710604119498752,-1.683012733741679,0.027591385757121722,1.6657108678368875,-0.9054868806298123,-0.7680978180959053,-3.2723313235580207,-3.03508619775522,-1.2594291761367624,-2.4909210692212738,2.349577148205422,-0.9943114996634339
-32.0,-0.16502356152543396,0.3148305341932245,0.4798540957185887,-0.09149913556936529,-0.2908319126195114,0.38013573877280427,-1.4422520820012021,-3.5170037934298435,-1.6182491656987157,-5.6393204017266205,-3.421681267654444,-3.1412437794611834
-31.0,-2.7227599451186704,0.46665967452417645,3.1894196196427087,1.1221449791683187,-2.934580310726521,1.8093604868525373,4.437915994195627,0.9475279529202987,0.3903954703184352,-1.135974833605169,-4.72164202933396,1.5303591153858256
-30.0,3.808464233047093,3.190374785323339,-0.618089447723889,-3.5005434971178975,2.22774819536393,1.263619745778616,-1.2273160598077006,4.007132463874491,1.4460988847156946,2.8278615550331554,5.138872722937366,2.317343776507159
-29.0,4.890597692878225,2.9892089388942917,-1.9013887539839984,-3.9427154531748085,3.40802541414101,0.5172013563046036,0.07305843018483282,1.0598423025104913,0.6948794495845738,6.033918912007718,7.760094281094954,4.1006183145238415
-28.0,-4.251206013333537,-3.431707319966929,0.819498693366636,3.8313430272073683,-2.5995636917281066,-1.2562963474310438,1.9941266504216015,1.197623524430072,3.1571100777328724,5.383307947164812,4.971078718390296,0.3442761905498777
-27.0,-1.8661917501732859,-1.6250379369170351,0.24115381325634938,1.803086835159848,-1.0324202580893826,-0.6408635445603984,0.5445526988002681,-0.5006310810082847,2.250379004180731,0.7006496306277128,-1.5002003451612236,-4.2276856356058525
-26.0,-0.8445030131155709,0.9656135194786799,1.8101165325943613,-0.09482828464872006,-1.2966439204528308,1.3649960532630903,-1.3531188545760422,-4.649015575509541,-3.124598558262545,-6.545997888170478,-8.917683243873046,-5.736523790243915
-25.0,0.5098275761150413,1.1304196499335526,0.6205920738185897,-0.788580653890167,-0.09329926437393826,0.8593947170777354,-2.03731916190882,-1.2071425261300979,-4.376234463089871,-8.275980924918281,-9.21527909288059,0.24137429699112012
-24.0,0.714553406641062,4.495930738030616,3.7813773313895593,-2.663706186461062,-1.4837073255759161,4.128754565454882,-1.4081309376611242,-2.561062683446039,-7.870668100239189,-3.7444356471439435,-3.527360146730328,0.41790883890362723
-23.0,-2.087294483555012,-3.222252322809597,-1.1349578392546036,2.6668352852176285,-0.49939360726968435,-2.185208254616126,2.3699673236640195,2.8561233770011656,1.2667948093371435,5.592659120507087,4.934521952038374,1.951518528922501
-22.0,-0.9160128705213004,-0.5308043300824412,0.3852085404388239,0.7313143783432376,-0.6720986661151304,-0.08035356506972358,0.06986858941957752,6.489511420567708,9.233491546762382,7.986160406232572,15.406814829079762,8.479407994433597
-21.0,4.193386276883398,-2.5526514813218775,-6.746037758205292,-0.8120734076212808,5.445875346333107,-4.662003502897048,-1.087941983173252,-0.6011876944795853,5.1673146810185795,4.25816664141891,2.1849318997277862,1.9961874198451723
-20.0,2.8000730052649674,-2.6458957036602615,-5.445968708925222,-0.0642239062469322,4.172500231724414,-3.9877337512573443,3.319003351126645,1.3889290286934837,2.926778487537177,-0.9371163331767032,-3.386596250907007,-8.246370448099203
-19.0,-1.2412168801092156,-4.9146215236414,-3.673404643532161,3.0982676418449424,1.1799029005463182,-4.323169537298854,3.596534768278248,0.3450621739095723,-0.406489709355912,-4.895022719411255,-9.211426177709987,-5.275321776427876
-18.0,-1.0670559867126475,1.2033262997002505,2.2703822864129424,-0.11801706564627218,-1.6329789402521384,1.7005166611012321,-2.874663072832858,-2.4860837501449184,-2.192504055267907,-4.2108258704823145,-7.4319106005844375,-3.3029993717272537
-17.0,-0.3913599397883387,4.300266239402056,4.691626179190429,-1.917913487467035,-2.5113904789428627,4.534223232735385,-3.4717511899900195,-5.62726971351203,-10.237795139295232,-3.81921058523582,3.3828116954602647,4.323757372923495
-16.0,-3.454169356054592,7.090581292255312,10.544750648309924,-1.854855460870967,-7.052132342950478,8.855570515426464,-3.1158326554664946,-1.8455636682484975,-10.700117920257707,-4.294456400341667,3.341616560248664,1.4843064538659985
-15.0,1.4381704368320545,4.029448352509076,2.59127791567703,-2.7673094273330534,-0.552867954508117,3.2725949346072105,-1.3737515332946568,2.1583077191262583,7.673705101340644,3.2466145651547516,7.917822295507832,8.015651600518892
-14.0,-3.144399527618356,-0.18578261384072248,2.95861691377763,1.7116163038696541,-3.107336047186136,1.3540316317483685,2.450155216177498,-2.0091922698207987,2.2094716005936967,5.403184648710012,4.661277710271932,7.214908161156357
-13.0,0.07536085916767649,-2.8517647878587518,-2.927125647026422,1.4350016232446705,1.5252128917695638,-2.836928620217292,5.858407818984503,1.982153427304293,3.016799422137949,13.666189228985862,2.056887811645916,-0.9080284334794466
-12.0,1.9425484583423538,-3.3077770264666118,-5.250325484808929,0.6505998862334095,3.623509169428687,-4.29981635001384,0.7792644904430279,0.9023285879430185,3.559744032650975,0.11553820736948239,-10.091395605268739,-11.524679637002446
-11.0,-0.09486452402805656,-6.388799232324304,-6.293934708296162,3.2096213240009757,3.1317375973439074,-6.358377528678368,-0.886417438281766,-0.6773784476296378,-1.3494478456827783,-7.661483903502783,-13.070353635133138,-8.529263358012404
-10.0,5.135414455390565,-3.1549639240633387,-8.290378379453792,-0.9441208959159377,6.67298407310239,-5.738105173851527,-4.628503786900357,7.458860373403924,5.115176513267077,-9.502925071883723,1.1786734174332363,-3.0895601432406687
-9.0,7.28534098478468,-1.4687623505801093,-8.754103335364634,-2.9417020049895775,7.987019609703606,-5.04866784320426,-0.37412622039201304,9.124317355551659,8.656558390449353,-2.703116601557298,5.583841527818132,1.8556214611407238
-8.0,2.768479657377509,4.911747174800538,2.143267517423139,-3.8744668326272618,0.3654210538474303,3.5092417302013366,0.7152654092567323,4.182873320066961,1.6460494559519676,8.848872918734255,11.237994819305138,6.783548432169076
-7.0,-5.746848594204992,7.852350383069316,13.599198977274284,-1.0090621470745007,-9.693422090322535,10.70409413468475,0.7788896420332441,-7.629355253491307,-5.1300200201041655,6.012500992982295,6.909687543156496,6.659706524084171
-6.0,-14.186894115467615,3.6044524846556643,17.791346600123042,5.334879515724319,-16.005623262717034,10.672391850048225,5.202479611136737,-18.373888785528287,-17.9334861299654,-2.7463780165722724,-8.745830716372993,4.413076440862272
-5.0,-10.722482723372412,3.0516032430796973,13.774085966451757,3.80125236187665,-12.262599064115292,8.46262341368532,-1.7617938741919512,-15.58610241879569,-15.47350969846554,-7.746974255873205,-8.99795549830007,4.948870958537374
-4.0,1.259161515143886,-4.131285092375176,-5.390446607519416,1.4037142540971128,3.3898415273015368,-4.792274844593731,-3.0762199667032606,0.6570269249744509,-1.2358787831747993,-5.852132675898088,-1.4116362368547701,-6.29399642323248
-3.0,6.0763966199263795,-7.0347064318542,-13.111103051780553,0.44939009246001016,9.579200741520967,-10.026637539796457,-2.566588830021322,13.16038393942425,11.11247158760267,-3.8134909268280572,-2.073529725947303,-12.590961095293592
-2.0,14.632759810100856,-11.070689958473203,-25.703449768573844,-1.7291281562820813,20.151438443711886,-18.41935122100299,-0.018388684948554612,16.01750589919876,17.834000495792456,10.346692111710336,6.895333501544799,-4.137392338001605
-1.0,13.557639048404578,0.22389680512975652,-13.333742243274619,-6.836356686453893,13.425954223857097,-6.586167103748799,-1.157926951246858,11.187263020227121,10.194338316838476,11.13886281707483,8.048970837606248,4.523528342440588
0.0,2.1104289632681486,3.1171370924205366,1.0067081291525195,-2.6371547396059456,0.5287472736846395,2.110693204572812,3.9474828558528285,7.1938985045712815,13.132037437368918,9.597017418363256,0.9134144274561127,0.2683225895997601
1.0,-6.004211372492034,7.334678441963045,13.338889814455202,-0.6902604674153332,-9.618735579102939,10.307699605607667,3.7104778539065455,-9.140544181611563,-12.332260055924495,-7.302123838752515,-8.619639566783533,0.3898899952387631
2.0,-11.285643002687422,11.419890030057314,22.705533032744658,-0.09675368194705247,-17.02310368610214,17.112463769355003,-2.190815877380283,-15.737036925966452,-18.713789268245584,-13.472788418462827,-3.6641077611997,5.273657598620012
3.0,-19.990058836257262,4.937886479142284,24.927945315399235,7.489886507469832,-22.408037172015366,14.90309868004999,-0.4974532113231067,-21.644879980570483,-20.575833836166183,-11.483188052156173,5.186066915919204,10.220168041456365
4.0,-5.434001518592264,-4.6854824105940285,0.7485191079976374,5.095906253984705,-3.1187200096156324,-1.9995915673782232,-1.0201831168090907,2.2050394992437425,6.049375213000051,0.0372148434221975,-1.0018512058948887,-1.8835238842064923
5.0,4.764658278395493,-2.439603905900489,-7.204262184296487,-1.1301526877885348,5.9566724626158,-4.85381929251342,1.5884857782614041,8.04014161632147,9.534887763378386,9.089528083694312,3.7507628854447255,1.207894503426522
6.0,12.402990457351507,-2.752769648915443,-15.15576010626691,-4.7924591335006905,13.82814628173299,-8.906455135511008,-1.1663056562289564,6.3317287121451065,5.254709341747699,12.273569032412228,4.28918064037317,-6.866749386189663
7.0,18.574764741182985,-5.037848785126651,-23.612613526308834,-6.810493817871459,21.059095301673317,-14.2739940882526,-5.509059792865878,4.867015428076289,4.891348034998203,4.407990535866572,-6.016674405804043,-6.859349114531794
8.0,8.813877682122014,-24.455692077298224,-33.269569759419674,7.863491822711036,21.000548840715226,-28.884531421326873,3.9101762456508506,15.867952841903945,10.016196727422551,-6.963889884293406,-17.765406759387805,-14.486136004391195
9.0,-2.220887041278629,-4.856038409946912,-2.635151368668155,3.5071820983831117,0.2375739256561893,-3.76116025496719,0.04950753109225381,3.1293589254295635,1.6941834817816162,-8.544134081122886,-4.9545328111435305,-0.4152284794897927
10.0,-13.544413908312233,15.310719472614624,28.855133380926326,-0.9128748684979813,-21.17515809798651,22.07229350710902,2.8244238645967616,-1.5133008306252118,-2.771375313092676,-5.211984232673407,9.408713421060106,7.419478436421761
11.0,-22.810563937241977,5.329180659855471,28.13974459709684,8.708359949424375,-25.453500671403162,16.72539057530171,7.528958428360793,-5.749030373505024,-7.182919052793572,3.84812177452622,13.939958856274906,9.308181530188325
12.0,-11.7840409290564,13.049160933817037,24.83320186287301,-0.5919249389645111,-18.365184505295183,18.92918342590471,-2.0928005346444043,-17.14265758507147,-17.08100009671614,5.3990975825006124,17.42849897656196,17.268683016759347
13.0,16.49257787317722,28.81648663097233,12.323908757794896,-22.620519062773727,2.1100195566611895,20.629587633011695,-10.476381260616835,-10.086271795640126,4.223813292457551,20.015199571443937,20.59772946161267,13.623009657839475
14.0,9.895163566306897,22.332529723206772,12.437366156899637,-16.163402488110606,-1.2404649943187431,17.354940089696203,-6.583572523184055,-20.046882101466352,-1.2195488509624737,4.710394911333575,-3.708617709641611,2.829316548488722
15.0,24.639678492983947,-42.923246382161416,-67.56292487514555,9.169837656275714,46.05758129121679,-55.28507947589837,-1.4825958558255947,20.28856586764293,7.6439178047771374,-23.615998709248395,-41.438342589008585,-30.29367283564798
16.0,11.392934715390465,-32.50834523059057,-43.901279945981074,10.58870167144837,27.68411446348324,-38.17908219439806,11.207962444419136,37.67647321775708,20.4320104967801,-15.45497294137299,-31.53657395960362,-27.4795422069097
17.0,-27.692020597290387,-19.4788540404661,8.213166556824788,23.543498008667296,-17.99581066747061,-5.615087027046837,19.922728281565092,18.531047030386965,1.9962285779656455,-8.873772939218423,-15.945639910386529,-19.732068971230746
18.0,-17.5996488120825,19.85474251726685,37.45439132935007,-1.0844464916390244,-27.49615773808201,28.66873306545257,-11.113119858855883,-24.13727823048101,-24.63412955820918,3.448169270223918,25.229833263732864,25.94228222654943
19.0,-6.516601553295491,21.697914620004624,28.214516173300513,-7.622260475765021,-17.419710147840014,24.971431924194956,-21.578758202936093,-40.03339894374902,-26.83176065558623,7.312279452484082,34.66234984887097,39.3298341530959
20.0,-2.513325166583739,2.5243830539730503,5.037708220556787,-0.037382982781098306,-3.7562919665736754,3.722490764309736,-0.7078670817539958,-7.404155050636504,0.8200598620557162,8.230012488401222,16.64718014659223,7.404412877071856
21.0,7.312076883425512,-0.4508538245378855,-7.762930707963694,-3.3888931359688534,7.554689594056546,-4.079044691761943,7.021970104828429,9.260661864744046,20.356164994346802,13.50317452640208,1.2289131584073036,-14.646616643030935
22.0,13.952803701908817,-9.14130339583118,-23.094107097740416,-2.451869025595667,18.543291477046903,-16.159625944232335,11.69460559844426,25.085250787075463,28.933306266559146,16.101393742510034,-9.74753795238573,-16.868604823429024
23.0,13.790228038753416,0.8039694714874313,-12.986258567266377,-7.275170303028954,13.414959427071404,-6.045235628212417,8.199451312717652,17.9212932206542,15.88619538074483,3.796128811246316,-13.164177722774635,-12.031842038196997
24.0,15.275776931625522,13.168002737196396,-2.107774194429304,-14.20953116015922,8.648587910538918,5.505260079512836,-6.104747456731477,6.55253423841083,-3.0865770615937924,-12.560239177469931,-5.482881877650092,4.550822515756918
25.0,-1.6975829764973263,8.977960130097122,10.6755431065944,-3.6340212150724884,-6.143428352030096,9.886261050067755,-11.2555441261901,-10.827605250222113,-17.805509417512024,-20.561795376932693,4.3193317920522,20.18443466547595
26.0,-25.74613399587197,-8.880730468532205,16.865403527339918,17.317799337277098,-21.33795312482293,3.975062053639844,1.9564978571845586,-10.912809433680591,-20.294201412280728,-10.843234248034529,5.07256318247226,14.455457401714954
27.0,-26.103488209041537,-5.755696854947369,20.34779135409427,15.9360951508685,-23.25971198923618,7.276268965200542,6.26354170047202,-14.625452407959514,-12.246680349889923,7.781598592999915,-5.607900492673827,-4.901590945152293
28.0,-8.27690065529855,-13.151854345503047,-4.874953690204735,10.725354481637162,-1.7410542930876733,-9.03991764480545,-0.44900752792781395,-12.443723317995133,-5.942590633325757,-4.4924327611839585,-17.197037222941294,-24.765644425866693
29.0,8.8775220080606,-3.6940048281888345,-12.571526836249651,-2.6547350906473133,10.756278823105887,-8.168607692015556,-5.139861953533816,-4.887611923935969,-1.4676674922554636,-8.530006652869666,-7.147794690210787,-13.031528585143095
30.0,14.139475379151007,5.264847803334344,-8.874627575816465,-9.682917054254272,11.534843404319204,-1.7711827185761058,-5.19557494468179,7.085928661561942,8.473548065227094,1.6702827969728107,7.391943894300053,6.32839663114507
31.0,15.618544965612957,1.7534229325058117,-13.865122033106793,-8.665347690884973,14.77130867898014,-6.0284041542266396,-1.1166955442458006,15.98738215850413,17.267374259321116,12.664407622543614,11.144924873686623,1.0251400866670641
32.0,13.184607833353075,8.47611259902909,-4.708495234323479,-10.810157376381467,8.983524466577496,1.909635724310588,-0.25447925091138024,14.956835262311845,16.82717855177215,12.037310676743813,14.377860885391017,7.213555708820563
33.0,3.6521588912881935,1.7492177206864135,-1.9029411706015855,-2.7604493641664707,2.7465242164492945,-0.048145787994509526,9.095855382787391,13.350316614548898,9.364923932867214,15.305956704661114,13.274870494344666,15.501013585965822
34.0,-11.292347015482255,-1.867967498549671,9.424379516932394,6.598585319021809,-10.379606347202534,3.733768854646546,8.483924345242308,0.17424145021931015,-1.1465254980401358,7.294221034448321,1.5326331453592186,9.118970263060833
35.0,-10.756498295740656,-0.7579987654828975,9.99849953025751,5.777093490120304,-10.393990855810928,4.581636005532132,1.3760600134083814,-14.781559037243259,-11.346088943290471,-10.07874514385979,-16.037540658023534,-7.867431277814595
36.0,-10.502047425901711,0.4792825321760681,10.981329958077488,5.035336762138664,-10.760658075486075,5.6957549504058385,-6.641304130929333,-18.30028222182348,-16.121997526947325,-17.834199855803725,-12.054795554018698,-6.278398994982594
37.0,-2.7986252676984353,2.35337078454021,5.1519960522385455,0.17440604354543776,-4.0034806389265025,3.7983900504650676,-6.78482865596288,-9.424754029149229,-13.540670653563124,-15.023654868939817,-6.272843974280077,-12.117870961191421
38.0,7.262362677363823,1.1927394803294757,-6.069623197034298,-4.189157246572463,6.70350775156808,-2.393462393813292,-3.535825978349206,3.3848822898879485,-0.569329920910846,-7.824508532410579,-8.181907969775697,-6.988987374800967
39.0,4.663911362880949,-4.453820553699937,-9.117731916580798,-0.13803765754392217,6.915316960255534,-6.821641205826645,1.1189803002591465,9.043595513336518,7.034400776423734,2.7182890952103196,5.020342878960424,4.141613389890878
40.0,1.9394105778879727,-1.1016406201304867,-3.0410511980184864,-0.3681239535378915,2.5051137923325832,-2.031044863177292,4.064197539694377,6.36046578646471,7.842585935599595,13.127309384168205,9.584689688377082,9.106111495681294
41.0,-4.676806158815779,-1.246442834587591,3.4303633242281144,2.934975888027726,-4.043245261839607,1.0511351128816848,4.673648598390413,2.99535488536951,4.266447141568502,12.708192810333184,9.303724136048293,7.134577013153492
42.0,-0.10421387834533746,-3.651906856757735,-3.5476929784123366,1.848881381473968,1.7323374580180968,-3.64219120642509,0.1550798216993079,-4.2336865411953415,0.4435304703062979,3.685445537079108,4.100240379331721,-0.7779436924703251
43.0,0.9446867086797297,-2.0502564064795674,-2.994943115159173,0.5183109509837676,1.9051917451041231,-2.4864231239968615,-4.77682071506387,-3.42112500779787,1.5231869184341127,-1.4112254533692132,-0.13831233387616937,-2.7826395901041696
44.0,-2.4941925944394168,2.796992141017913,5.291184735457436,-0.11307468852090352,-3.8734720809348886,4.081860281059884,-3.796200255776947,1.0196925613494074,-2.6836155839574514,-7.292365163760075,-4.151198476062445,-3.5873364755700257
45.0,7.0863081901589515,5.387580487367641,-1.6987277027912544,-6.202930993266698,4.338606947712713,1.8067444246713484,1.5179520344237913,3.5479286792254947,-0.21869680628538024,-5.41778821187134,-6.28523624053431,-0.8470618253801803
46.0,6.424993560465754,2.783190866633134,-3.641802693832676,-4.571200533148433,5.064219782299381,-0.3839360085680381,5.057262093557121,3.8285055859216435,1.8321586190448707,3.1738906296731972,-2.599476026524698,0.5390748398449157
47.0,-5.180335254292879,0.12533088655024294,5.305666140843036,2.483994735317621,-5.205670786581978,2.6862898927971557,0.3336709856300817,-5.082446356911446,-0.5409669209692631,3.6832748879431527,4.339868663750732,1.985882105675654
48.0,-4.7227002930589626,-0.9906511552346358,3.732049137824256,2.818139158256258,-4.183265695896171,1.344388666215175,-0.694186306277129,-1.341493598000394,-1.509144967275148,1.605256110359257,0.9110247922288731,2.207969691658234
49.0,-1.065789595441415,-3.3977742558576898,-2.3319846604162757,2.2781833715251336,0.6044494838604786,-2.8902945134951112,0.7128612641898309,0.04745267970032119,-1.7861772311284545,-5.500156851140455,-7.521614704800696,-3.0215726883320038
50.0,1.001809018499579,-0.4556212043566523,-1.4574302228561822,-0.2993846632306232,1.20464985737934,-0.9044615363634902,-3.0977235211922682,1.4885523949129538,-2.7029512052252525,-5.303722723617872,-2.6922107157163966,-3.99123912357407
51.0,2.4569389065781007,4.677577030252346,2.2206381236742914,-3.588582924682397,0.09338357850241552,3.498016706405078,-1.5154470067035064,2.2298669065663015,0.5542264524259781,-1.6889370240973287,1.077505785130369,-2.2837140252047976
52.0,-4.141747157541518,1.1863555847436906,5.328102742285242,1.5384424936836751,-4.76299909647033,3.2229254860559866,1.6452129113638392,-0.8051166599302062,1.1648165658983243,2.929237503572072,5.4547014798929325,6.445447477920885
53.0,-4.077896421160674,-8.097891672548903,-4.019995251388217,6.071291659689528,0.016156128333382147,-6.0981044490514,1.4091037106528697,-2.7721021819178806,0.5900152342701983,5.471250136657694,8.163055860180588,1.6022153121976634
54.0,3.67930143076715,-5.963265165108379,-9.642566595875516,1.1247486003267249,6.700222397654533,-7.845962521244873,0.9312718403813579,-2.9297031954557022,2.451455009961296,7.282784325466833,5.418009578714524,-0.5913385784024445
55.0,3.631192564814704,1.5061527671294677,-2.125039797685243,-2.588511937836501,2.8345358657621023,-0.2750184657410455,-2.3828891137298145,-0.0650076615237255,1.5420722409518397,0.42931757603063403,1.4133089768267832,2.907831012694003
56.0,4.364516276460488,8.220772684029992,3.8562564075694947,-6.238030018081481,0.28811219134904276,6.075506032059411,-0.5222380143988212,-0.9501450048990303,-0.6406311765053025,-7.243213975721332,-12.936122558383904,-2.723669174490354
57.0,-0.935583845336827,5.944138319334824,6.879722164671657,-2.533866271300794,-3.9503906274022107,6.455332899215714,1.63343304108598,5.127367559575708,-1.3900650484133208,-6.743025361762664,-10.225004317023961,-0.5976478972473778
58.0,-3.1434274010770182,-1.576877792145058,1.5665496089319828,2.3246748339613688,-2.3142476279893867,-0.03188724000533005,-0.8100584354310902,3.4511150107126873,-0.027703213193737142,1.8881862365588784,2.6641574463751043,-2.28368892983426
59.0,-1.5110484181667474,-1.4982505600080303,0.012797858158713593,1.542377760827409,-0.793523608306359,-0.7614240564025128,-0.049556925290066764,-1.7286019546893117,-1.606570163346819,4.999458816441972,2.2231713650599128,-4.2202570200421174
60.0,-1.3436685913879964,-2.476668206486253,-1.1329996150982935,1.9433597169318697,-0.13007246916143445,-1.8189550260381875,-0.3553710872148896,-0.33189675840395033,-3.018397873309549,3.8728575314610953,8.54919450026904,5.5518107242252075
61.0,-2.90841755824464,-2.9625789194592484,-0.05416136121464521,2.8868148127270645,-1.367054728488279,-1.5230159771819938,0.6428752043356568,-0.33565535892984455,-1.3841653590971283,-8.332857904374738,-0.28875262373428257,0.24972538289161283
62.0,1.2101963014201198,-1.719203491803463,-2.929399793223607,0.2829972842001456,2.0551810588257355,-2.344324859896964,3.2931074070450608,-4.17602206769797,3.150228148303277,-3.551565395718243,-4.764680745749673,0.5597794473392841
63.0,0.6262171644920427,-3.2436880499294305,-3.8699052144214754,1.2584350991883617,2.2344488290913027,-3.506286593355363,-0.02618885544429539,3.2099574777610123,5.215382429909006,-0.09691352220230809,-1.154537574765428,-0.7472510281237226
64.0,3.3687275147445255,7.715299017804511,4.346571503059987,-5.512188809569793,-0.5053019390863212,5.994557223402468,-2.464280284649836,-0.15537414649043002,2.1413373484430864,4.537874287080864,1.460516571303753,0.024433315794843577
65.0,5.9914857720301855,3.6708716632790233,-2.320614108751136,-4.79880467722189,4.211752916387113,0.7121042116074543,-3.552562328765826,-2.51644815385291,-0.05438915005807088,11.603836917562877,6.644916473457614,2.9941397692280547
66.0,2.0748023577169197,-3.8246074201217315,-5.899409777838631,0.831769494578686,3.9541648934467113,-4.826235842031496,-0.0016779703952014557,0.6637535259491787,-3.0665510513328815,3.245699371005829,-0.23042301706774926,-0.9327639988764928
67.0,-7.233922432143423,2.6855066155355365,9.919429047678971,2.313037695624583,-8.621211169785088,6.262338236103916,1.8616550812886667,1.6139667122908707,-4.10799926779945,-7.570322580014032,-3.5008426340947927,-3.074640274786953
68.0,-5.570393431263579,-2.7142123375805083,2.856181093683032,4.10477585783299,-4.190196767793465,0.036277469124394335,0.5235089414247518,-1.0827321669390664,-3.570906383106875,-7.89468370385328,-0.14629075743350617,-3.224152573808408
69.0,-1.7483167652521932,-5.294568201233001,-3.5462514359808903,3.563682218803785,0.9136724164266639,-4.370486909445464,3.2825839142721627,2.150427635637704,2.1706619311530497,-1.0913195460097311,0.5974076028084729,1.3879646935203285
70.0,4.5406945156530725,2.9749025893956547,-1.5657919262574698,-3.7947126444810038,3.063906191735013,0.6800584547496258,-1.3936413063968704,-1.2579670338274553,1.6685374600438445,-3.2608686849820714,-10.477428091943207,1.084980294171816
71.0,-0.466020572269493,2.6591662766723556,3.1251868489418686,-1.134741998468385,-1.7843438410962285,2.8691191402862253,-1.6934415228779396,0.5600032482669963,1.0102860744956161,-2.742381509312538,-3.480406832996608,3.432601965155776
72.0,2.6374032243762473,2.4388101862286318,-0.19859303814748241,-2.4986493279111452,1.4333041832483653,1.1739437046994232,0.22695315525219506,-0.8135123773403622,4.100440837437305,6.11073899240897,9.310115177050124,2.9417769792642248
73.0,-2.7748365064112708,-3.2851967288368438,-0.5103602224254147,3.0693982177815617,-1.1904471163918715,-1.9273124011239777,0.8885283691567258,0.28857631982966536,-0.5583361294643496,7.758580269817939,10.205194324175006,-0.9568222305508183
74.0,5.894922937794347,1.344484152064809,-4.550438785729446,-3.6577714692263243,5.247139029356172,-1.6386210129027345,-2.254427232243815,2.0972054064868257,-1.1764458380990892,10.498698653505958,6.75697910981615,1.555134827374666
75.0,-1.15356681518212,-6.220279083143029,-5.066712267960925,3.7297956675182773,1.9817587777000556,-5.606354897474606,2.300761435661359,0.04147743408134208,0.027517568336682174,-4.404184602724932,-11.131490834305676,-9.311884663285513
76.0,-4.558230909623003,1.075457643329731,5.633688552952659,1.7075242944003373,-5.152600683696207,3.3874215250411215,-0.02697995541971121,-4.840070283734585,-5.692930503941111,-16.340423769526215,-8.846979608927493,-3.4369387419174915
77.0,1.8782010479528362,4.057626003832152,2.1794249558792083,-3.0010166390457442,-0.13455751791051762,3.0709988226087828,0.04471821635670015,0.43998875304012075,0.15755528290254883,-5.157677389002008,-0.8513104092121235,2.847698763867101
78.0,0.39796469226723896,2.5942440974289154,2.1962794051615937,-1.4514736931819754,-0.890152863478958,2.427763519422208,-2.286441997366386,0.6475633882421062,4.106857155779915,5.854804496037881,3.6859765481057165,3.3402742901680966
79.0,-3.38449977327072,-0.847133657372918,2.537366115897771,2.0792393023931073,-2.9575154081315116,0.8025624874106196,1.0192717427066222,1.7197971416504547,1.149174154010476,7.800134211829701,5.345374513971953,6.0127436362299935
80.0,3.040857037522826,-1.03152711634295,-4.072384153865763,-0.965293914595766,3.558004132375282,-2.510659878006428,-1.3143047784351602,-0.9885803993941125,-1.8513812418086177,4.203765116403452,-1.9915164413143525,-3.571678054188138
81.0,3.847339314318053,0.5271884515536986,-3.3201508627643266,-2.2283028584508124,3.5876583412867737,-1.428711329091735,1.9661306455008747,2.0879530714547494,3.252619037984882,1.3325199547177649,4.032248242317256,3.6348587657042364
82.0,-1.61194474329197,-3.0329575844688392,-1.4210128411768297,2.3610122481752382,-0.08486092550828417,-2.1763901577085356,1.2729413856290064,1.5985733395088686,-0.8664520715174603,-8.316104159436026,-4.897590860963678,-3.279948105058293
83.0,-5.368932254920469,1.1051104879152736,6.474042742835767,2.0958594591708044,-5.901685417705524,3.763396683188651,-0.16249214849238935,-2.368941603315719,-3.7160667659346833,-4.154556591840599,-7.331163264140995,-3.5479372158704168
84.0,-1.9858133241673475,1.2826764773100159,3.268489801477396,0.40155842471885905,-2.676702042040723,2.2489660742565634,-2.371225298789202,-2.1216644368898745,-0.770852061874679,1.5160878828377196,6.16017750990841,-0.31850720610443206
85.0,5.298180888985016,-2.211236422289649,-7.509417311274644,-1.5628886339078893,6.440494822152733,-4.889301835405348,-0.4439913605306318,0.8697978369944199,1.230044046743987,1.0437859042932052,5.362165014554342,3.2469023448061645
86.0,2.6208431819555913,-1.1031161559046139,-3.723959337860216,-0.7687008690815741,3.134808166156894,-2.3669129770924844,3.0574215929640673,2.5114666389268416,3.8370212577138094,4.918335633424789,1.793664484036087,-2.586792736269926
87.0,-4.817861619161622,0.3029673606248006,5.120828979786389,2.2553882986125493,-5.00533415852046,2.7558575862250194,0.5031514722863717,-1.1710528006752638,-1.536791462522976,-1.8164848196073486,-6.575341087253596,1.769388284603563
88.0,1.347834810477709,2.317375395242211,0.9695405847644787,-1.830382352210036,0.2318932726809264,1.6073762715876259,-1.5412301819563963,-0.28404785271868604,-1.0132477904511101,-2.0417879242970294,0.49902389498055433,2.6469638842175245
89.0,2.848393644720166,0.10761561212842463,-2.7407780325917592,-1.4759252793919762,2.8372558424345424,-1.3523457219739379,-2.106327997674535,0.451584928866012,-0.4500311794927299,-0.049228339367570206,2.957352854446765,-1.7507652705740315
90.0,-0.40126685080818214,-0.04959945194968707,0.35166739885848897,0.22297298903666607,-0.4116370218894131,0.1956026213762167,1.46973028708919,-4.4470415690997305,0.5547738454451396,-0.1770396131162576,-3.562328418420268,-5.212872389225544
91.0,-3.6460728001717313,-1.7882146267981172,1.8578581733736073,2.706661259026467,-2.7064019477855754,0.002830539449841629,0.32541367538381166,2.3463467337184216,0.46042305219774327,4.5083906651791885,0.014998515073106677,-0.7100159674973618
92.0,2.455957217689039,4.65835952378537,2.2024023060963,-3.577652860876503,0.09594182362150427,3.4792349697743186,-1.2225492267786615,-0.4036070347883405,-3.159231938798782,-0.05620297093422777,-8.442371697012517,1.2109892865896925
93.0,-0.3959313440654136,-0.30479950203475303,0.09113184203062066,0.3982373514598216,-0.27251771924995166,-0.13523092103112072,-1.3335593233191694,1.5553975337056412,-0.624174518819505,-1.2992465584875859,3.0119959681122186,5.536603334846862
94.0,-3.7750842527105544,-0.4406494181633984,3.3344348345471118,2.146299462457158,-3.582766600702805,1.4192855490564136,1.6347812094171306,0.6680321890804755,-0.18123092037778982,-4.168758774364307,8.83812846018387,6.113185383449
95.0,3.6876120866319395,1.0672164311096495,-2.6203956555223074,-2.4253939958387694,3.2052484393810485,-0.8038147760529817,0.22001672189329669,3.100064007648293,4.963066720108905,-1.4208395214726237,6.321060905319077,1.958180462787064
96.0,2.5656117880839444,-4.033405334704712,-6.599017122788636,0.6805117192321468,4.5556961848074575,-5.264251727600362,2.9952474669119393,-0.6917236748565174,5.714226479319399,2.024620907231193,0.9107031611603227,-6.098779582879785
97.0,-4.019684410216873,-10.539802323876806,-6.520117913659899,7.302309039419996,1.3043266940268254,-8.477331672872698,1.6506932633444622,-0.5654143642221475,-1.9180182062689903,1.8382394779433344,-2.5407576033648502,-7.320577500554896
98.0,-0.685988667828803,1.8909308517438568,2.5769195195726993,-0.5798801031046992,-1.653023781060237,2.208333013125164,-1.0541464520339492,-2.7454082124622987,-2.6370422648607823,1.4895281642301748,-8.04146392143955,-1.0283707268929896
99.0,3.3097471366347015,11.998460023175822,8.688712886541158,-7.628833971279515,-2.707748255851138,10.317654560398243,-4.228272174684928,-2.086339988387715,-5.4075703979592165,3.7214046540026575,-4.557528344385824,-0.04967643999653337
100.0,-4.708863134608668,0.265300965122929,4.97416409973161,2.2516177058559887,-4.857685861548335,2.592104446811689,-1.3026776996059264,-0.3901321677905404,-3.0880143564267373,-0.28569588554583714,-3.684676625891756,-4.187480083630885
101.0,3.5406775952940803,3.184088748714804,-0.3565888465792799,-3.4060036254855985,2.0105858762052344,1.383347929492797,-1.3617422835914974,2.2652004901660234,-0.8673420238487959,-10.04672698292598,1.3145431470128444,3.389511634422054
102.0,2.4689964012593584,1.3748600102600863,-1.094136390999293,-1.960505974230171,1.7604398707894955,0.18588804606288822,1.8747025798554708,-1.8577221655378517,2.8434421080046395,1.4654810930527429,6.738354161942251,9.854047120231328
103.0,-0.7350112217441487,-7.5116263082605546,-6.776615086516435,4.0892937059859005,2.991687135590394,-7.100281884682407,2.0703900201096297,3.0347097503513094,6.091785575326214,0.7175230184406782,5.102465344357653,2.2071499891052406
104.0,0.7407151287598273,-3.4939147489609517,-4.234629877720804,1.4259145190901266,2.4482589525720075,-3.899166026851456,0.912654103516072,0.6673855044832038,4.2220306048285865,0.7577044924034457,-0.48324044094129714,-2.124618453770114
105.0,-2.458490549925571,-0.7043252672094189,1.7541652827161434,1.6360574442835778,-2.077139952580353,0.5700742547062152,1.0485944774010856,-1.667014050414076,-3.368759028483478,-0.7226480004482159,-0.3779267069877986,-4.46495679210631
106.0,-2.97582195513952,0.7913513406284609,3.7671732957679867,1.0743256166434925,-3.349480461250434,2.24708362356257,-1.3889334036837284,3.063018749883099,-3.6486686062400873,5.334371904585285,0.5642810653660875,0.329223376015789
107.0,0.013688907855023968,3.0141772751102396,3.000488367255247,-1.5256594757679522,-1.4734195118071032,2.975512677954747,-0.08239964523363841,0.8714823726621531,0.22636660521385377,3.77958922993232,-3.204178722660062,0.3781642657461628
108.0,-0.6365781416124578,0.4939018993887019,1.1304800410011993,0.06424307293500409,-0.8597790972925264,0.7791891334609695,-0.2018513036923878,-3.612865648610464,-0.37789103005353386,-1.1199056874439284,-2.7640860289926157,0.32642085686429234
109.0,-0.31123666724216703,-0.06037921917136546,0.2508574480708361,0.18031674268419629,-0.3274544150032558,0.13872951399066769,-0.35910077399204443,-1.0319190775986726,-3.05374085568431,-4.916397499835911,0.2801930236990664,-0.43537674303404716
110.0,6.6562581500303075,2.1311485254497917,-4.525109624580496,-4.401276034327533,5.555532472163779,-1.1557535943456085,-1.1810209990510097,-1.907473270941087,2.2718967751157697,-4.489011851536752,2.465290259527489,-2.2222331252296503
111.0,2.435113143495196,-1.4845254188312853,-3.919638562326459,-0.4881152953069525,3.2323482103902554,-2.7408398257819457,1.2151259320768313,2.325724347795366,4.399753300565102,0.7601084314926836,-2.2299118632200376,-1.33963773170036
112.0,-3.79444607616395,-2.2094535521667686,1.5849925239971991,2.982210256730721,-2.7042374786700454,-0.27193658803965204,0.2952661359201458,2.305652730992697,3.645690692698631,5.737894635258535,2.691514001140229,3.5960063259089265
113.0,0.9102689877990908,-0.3853875251197856,-1.2956565129188578,-0.21019572951881882,1.0940921698455395,-0.8772413728294648,-0.5682334492293297,-2.373624570279514,-4.496972243762414,-1.5645506461056264,1.1279635992564534,-3.276184211691734
114.0,-3.4621866738686546,2.2020546401718337,5.664241314040502,0.677067591147412,-4.57065470189944,3.8991284849033034,-0.7154699433382834,2.443471527398962,-6.1531684877994435,-1.3699196464304952,-0.6446068292737654,-1.7222541417269142
115.0,-4.214228320162439,-0.30386993608938295,3.9103583840730636,2.2240403830999824,-4.0722869638240855,1.8510832550197955,0.9127297827545104,-1.2040127063881245,-4.808810708782042,-2.522234961330075,-1.3613068886638977,1.1785127062906295
116.0,-0.27529459655628896,2.401191243410382,2.6764858399666673,-1.099566609530473,-1.4127975606526515,2.510935862157292,0.05147660283729272,-3.119165567174038,3.7953409746643403,2.922788038409082,-1.2920372865926468,8.598052053799805
117.0,9.755146572630212,3.656627284227892,-6.098519288402331,-6.743084160518252,7.90366265712836,-1.167673813217466,-2.082897199680833,0.6718020684968693,5.311211574427328,1.4626278948737885,-0.6858667422618547,0.2561463517461622
118.0,-2.2380142382263024,-5.53698766380532,-3.298973425579047,3.9290270266953358,0.4994206574707025,-4.442072378420138,1.1457306028388055,2.2013041702431684,4.806714997461441,-2.432462156999658,-0.9440437366696082,-4.917028902015754
119.0,-2.7778139795141286,-6.463625649855178,-3.685811670341101,4.662476739953054,0.4162198396603447,-5.098748363068191,2.8462613856421664,1.524116621469143,1.7079275495809934,1.7896485362820864,0.4576294885312052,-1.5820889354672976
120.0,0.6251802189998902,-0.5114621859358768,-1.1366424049357928,-0.09370651742505909,0.9176688198655523,-0.8492557970380681,1.0126911350087462,1.8323582345232192,-3.120878631459842,0.8155640287845949,1.32526088909552,0.3301842763679299
121.0,1.0473614167169771,4.4703632868099605,3.4230018700929867,-2.717437234194019,-1.152112086454132,3.9983334813553033,-2.075100279356284,-0.5684838542619736,-3.435390170039583,2.8682298221058122,7.2433172535470955,1.8344431315788219
122.0,-1.5344504163905641,4.393348863071521,5.927799279462112,-1.4684549148565949,-3.693739147301922,5.13159341845342,-2.297883849198877,-4.338129278257274,-3.42473331201609,-2.1980246262354366,2.110857905355924,1.0625359235999736
123.0,0.8693327019155404,-0.5015791478416567,-1.3709118497571664,-0.22605084410322296,1.081684323614632,-0.8877258384771847,0.25004716324662035,-0.6168608640343205,1.1020688557864977,-2.6023284213914044,-5.129593690070669,-2.360947228831749
124.0,-2.0483662711265187,-1.567706308782398,0.4806599623441331,1.8401953069268195,-1.300634363002368,-0.5741060483669074,2.119045138640788,-0.5070964954912283,-0.31594435933251974,-3.7372111388256424,-7.2300044935480425,-4.128903128021346
125.0,-1.5935430739588803,0.5266693221232976,2.120212396082169,0.560604741081903,-1.892611343728173,1.2933204134239238,-1.8908443599100353,-0.4206061333064218,-0.6738073706064874,-0.40035645162730815,-4.752916901031371,0.2747205076350495
126.0,1.8446199607276283,0.6959671325050814,-1.1486528282225685,-1.2479022509616402,1.537924041256482,-0.17668657400195742,0.47351907446855135,3.8312097732200634,3.281062826021224,3.3110563965036404,3.2894874964046337,-0.19496427234782776
127.0,4.099923938200627,-2.449976893031335,-6.549900831231993,-0.8852702389884919,5.363229755257226,-4.527673886925281,0.1301187238996887,0.3907085801936596,2.0759104626163687,3.010783950770378,5.804688071569954,1.136455955165382
128.0,0.5247265376249368,-0.6704085257488306,-1.1951350633737858,0.08859420422481717,0.8166371564119848,-0.958952732314867,-1.4293145576101214,0.7935290436227966,-1.1012936914965905,0.18963078429256575,4.640458514241319,2.386134051757349
129.0,1.6425426055017651,0.22994932300108717,-1.412593282500668,-0.9216852015363671,1.5614160210860173,-0.5370952713228081,1.1739698904994742,-1.1782219739396989,-0.22896534077036712,1.357146954389023,2.145821332386351,5.813734614552692
130.0,-1.365016073482223,3.1698476034126792,4.5348636768949415,-0.8873157194010732,-2.994717551618457,3.829420947886507,1.0775615507358314,-0.023369616806561466,-1.558002062931911,1.063081247073399,-1.2252473422344892,3.5946086186574484
131.0,-7.665218537346105,1.1223774171851755,8.787595954531321,3.2102077223462615,-8.190899500035176,4.933215568955866,2.7693929929487067,-1.7755922336438423,3.0761029095238275,-2.072862721518829,-5.716756449571082,-2.651710632215277
132.0,-3.972096480917232,-3.7613292505901574,0.21076723032709133,3.888576293575789,-2.0539398901841874,-1.7180863047734727,-1.3654370392961777,-0.6371399034714359,-1.2933601408333706,-5.203101405393781,-7.877735165055638,-8.145308047598302
133.0,5.218410855844116,0.21853920784040348,-4.999871648003713,-2.690778062473638,5.069141826438377,-2.4134681252798726,-2.788267388681084,-0.5289779763602193,-2.430453281514803,-4.757468408589254,-4.7478010486753774,-3.4478086271250943
134.0,3.0080844590273284,-1.7345558976929238,-4.742640356720255,-0.602651036882276,3.835107379361138,-3.264330719420329,-0.02614624479238281,1.908148845695543,-1.157590340071535,4.673292068772918,7.006229143776461,1.758134753452
135.0,2.7234215531142767,0.708592391693786,-2.0148291614204803,-1.7550510221930187,2.405951342132678,-0.6831467283938464,-0.009544880541339618,2.3151884181519944,0.774979371899581,8.188290068239425,17.977735047097365,6.056317517739598
136.0,-3.3080510322138945,-1.9922619720643964,1.3157890601494933,2.614384995021267,-2.3558482106954197,-0.2942974952733954,0.5510122132923901,-1.3388000645541331,0.7857796475579745,-1.2325812288088738,2.532046342057307,-5.17835330070739
137.0,6.706927184677046,2.1747628208090855,-4.532164363867992,-4.397946976841803,5.653629924700599,-1.138869714721972,-0.9108976353886683,-0.25995606212921746,1.0248431158801434,-6.647037083183031,-13.80974255501528,-3.598914704649925
138.0,-1.4602613671534086,4.7130012603828835,6.17326262753624,-1.6658239348470043,-3.7808198072984918,5.401820574938635,0.522524156571871,-0.32491170253065244,-0.09041372931249891,-0.6186065239281096,-10.288223791831074,5.123009506185432
139.0,-7.676516953233893,-1.4516915290552261,6.224825424178604,4.597029964485554,-6.988692431797439,2.345196482417151,3.0164779379962896,-1.1028602507372165,1.3299004547719597,4.367385293337266,3.479975873306002,7.2901775394360335
140.0,-1.8577511303653447,0.3644239126041252,2.2221750429694183,0.7718874573952328,-1.9924511576582136,1.333016079082025,-1.5980694379878864,-1.980405103025863,-0.9776013382066107,4.113510373326073,1.8027368752960533,-6.801453316061597
141.0,2.6029927175295438,-1.3035736404808527,-3.906566358010414,-0.710519473033695,3.2304604013029423,-2.5611410370263656,-2.49894777068097,1.7668400910839042,0.22258370911182668,-0.2270471225493298,2.105645156028495,-2.0798687487518848
142.0,1.3035411926348708,-3.0930843368087055,-4.396625529443536,0.9075157371915991,2.830814623079492,-3.7746121203220215,2.2407817205641782,3.980992358194576,2.4326260104770014,-8.353645666003665,5.752815792499234,-0.3295929075027373
143.0,4.443783439284661,2.156026476237901,-2.287756963046678,-3.2890832879300045,3.348392779189579,-0.09096542394996554,-0.1690639138026155,-1.067821263266963,-2.69149482954624,-0.7033856174087836,5.363657069592486,10.75718879659053
144.0,-2.793706677822099,1.1125482275932792,3.906254905415469,0.853065174001288,-3.3686980348040723,2.487459597279451,-0.0525232444276504,-2.9357129621066953,-3.245714411526264,2.404267163364696,-4.283756068647715,3.2647542634194426
145.0,-3.136131016656413,-0.9146525020392909,2.2214785146171785,2.042358445274325,-2.6222891513017763,0.7112638098766836,0.26101263354389026,0.4521066158175352,-0.3952880185860346,1.4086563613533518,-4.1969435349911866,-7.3450651941522285
146.0,1.4080519777056817,-3.7451504806872284,-5.153202458392912,1.191142081028528,3.2542810727834413,-4.471239767782307,1.2719569300884535,0.32404381746388683,3.924117337637075,2.808062697470436,-8.450476712206045,-11.197498730560877
147.0,2.4673611164699305,-0.8717709035826401,-3.3391320200526313,-0.8491193024857093,2.9523282601952934,-2.130613520728038,-2.9468985669371937,2.7728311829353127,-1.541104623952117,-2.159321436307573,-3.1122159041779316,-5.471339645978418
148.0,4.074426688146084,6.431254150490485,2.356827462344313,-5.301502110750882,0.8273232059039255,4.4430193071759465,-0.3088803623264068,-2.8774213131474715,2.102046973656231,2.160892651986589,4.721792778932873,5.994548373865372
149.0,-4.063581045581662,-0.29659311318497616,3.766987932396618,2.2104099093828253,-3.9470196681172673,1.699738175192809,0.866878408407312,-1.0648622367182385,2.0994551966357182,1.2303251409197378,12.074962432454038,10.833062355948261
150.0,-6.821074024413484,0.22267095022581995,7.04374497463929,3.3281378403857786,-6.884475708131287,3.6701472310078307,1.452166676979887,-0.40210884519150214,-2.6535150112656805,-4.555941050561467,4.408267177309695,6.804430054703954
151.0,-0.32707257614982055,-1.9018779381467044,-1.5748053619968232,1.1416798916311452,0.5947086507835055,-1.7866836477711057,-0.17339615424162425,0.7767172444483113,-3.484314699125919,-2.3124437065001677,-4.0404725514961,-3.2733761221415527
152.0,0.430248560122104,-0.6093482554968348,-1.0395968156188338,0.036961742634201045,0.7078584726772648,-0.8000904504261115,0.9859680191738699,2.700096786938173,1.858816685893359,2.806252416550274,-2.980655448167549,-3.9917793018969427
153.0,8.587373041131158,0.5024704828249467,-8.084902558306126,-4.5187408779283,8.390176290433589,-3.7714071029091825,-3.003357284273566,0.7918977629812765,1.3336236633633478,-1.744202549387414,-8.918995748332321,-8.831907798289219
154.0,4.819923021884529,1.4697935989350353,-3.3501294229494505,-3.1178873641447673,4.062716234091113,-1.001121590321881,-0.56810040771499,-3.494156809743832,-2.2902944933380898,-3.437757173912257,-11.191716159524768,-7.940822953106068
155.0,-1.559769515968937,-3.6031709442770765,-2.0434014283081416,2.530604844709874,0.2215192608351546,-2.8039706676461034,2.188678453349152,0.3213235838284618,1.7443867432689188,5.0514460021294605,6.7028070934653385,7.407217180451991
156.0,-4.768145874917768,-1.4909047906725412,3.2772410842451887,3.1578643739132497,-3.963350192062782,0.9179227986843864,-0.10650858089818849,1.3753021070705274,3.3134896302953885,5.831354065720155,13.771300411766582,11.360433232597053
157.0,-5.809493849495731,4.853583875405832,10.663077724901491,0.42734160823874845,-8.256814005295086,7.791820211678328,-0.14664893329434375,0.41899203526624124,-2.7787038788972116,-0.6679774258506219,8.70934291754506,0.6870620428261383
158.0,-3.7999412284216967,2.088658208241,5.888599436662634,0.8831485124886007,-4.868622660542471,3.953618577602256,2.3700140279523634,-0.6946012964006241,0.38350554757964317,0.2585643518112216,2.2654385915040844,-2.7569212170861785
159.0,-0.19574517595284346,-2.676477347508869,-2.4807321715560695,1.4629646683079347,1.1115255667390427,-2.604455271582626,-1.2732064830212573,-1.49285196063174,-2.6267352897436513,-5.069592864094354,-13.183412755673764,-3.087446693723206
160.0,7.194639812147875,-1.4160970746833028,-8.6107368868312,-2.8628646019352937,7.9417924713016,-4.955144453290444,0.07426562136396697,1.7141324271525635,1.1012789046021607,-1.6182808065280363,-8.763463999754624,-0.6373751531280862
161.0,7.724994909671652,-0.7639682357894005,-8.488963145461089,-3.5331867680388513,8.136758445105635,-4.647260382477324,-3.44766899774812,-0.37458207909647123,1.3358759037131975,-1.9731448815508261,-3.2505175395942763,-0.21862254864363262
162.0,-3.5873504532165867,-1.9977544294292784,1.5895960237872808,2.8181717650222096,-2.645722297512685,-0.23124949895147173,3.0164211742150857,0.813007318999685,-0.019966560783006293,1.3198890993176327,8.730381471457383,2.683781564481075
163.0,-5.6948189604611805,4.466727149943955,10.161546110405107,0.5602515745283755,-7.912426997317116,7.276041017650963,-3.170561641691755,-5.318265859131557,-4.383033648084808,0.2747638371424592,9.536984071080083,3.5593787214808086
164.0,6.328002505938221,1.7315689247807153,-4.596433581157516,-4.005456190955323,5.475634635373689,-1.404157740533924,0.025284418315621504,2.9240708221930753,5.065085131935652,4.236798602289539,-2.0335719392941787,-4.330911234089253
165.0,1.7795487190317814,2.1753263064269506,0.39577758739518587,-1.9532932069270796,0.7063809895811826,1.303709311609258,1.0937724063716567,3.8602552816541427,2.5704920030584715,-3.929184922355108,-12.61436653561002,-8.432451385142832
166.0,-6.367005624882653,-4.949899536776549,1.4171060881061548,5.683048046463652,-3.873906408163712,-1.7530819520371868,3.8555832345493815,-0.6741426086648912,-3.6369362249737853,-1.8459906395415762,-4.348941438461523,-3.852135501828572
167.0,-5.34679927300119,-2.731710786104988,2.615088486896265,3.9858957827488917,-4.036680984755349,-0.04337090446228664,-0.33567760785408285,-0.7737203703983843,-2.645225081454685,11.97126909839995,8.055205010558215,7.407682554660696
168.0,0.671080434660333,0.06168971141632329,-0.609390723243956,-0.3406165369105558,0.66797787749227,-0.25183008258977296,0.6267290788978275,-0.7845552804122375,2.50355198558324,1.9135720916715906,9.53124186359467,9.692837581559173
169.0,3.0173370479404977,0.30755498011613075,-2.709782067824347,-1.6376466957476878,2.8163034314086937,-1.248032060253263,-2.8600598804987967,0.3103728924231922,1.1678302803342993,-12.14391704737055,-1.695014831879981,-0.3027895634673756
170.0,5.400807961197231,-0.040109075631697966,-5.4409170368289725,-2.737296039790355,5.454932499833433,-2.7782124324222695,-0.5756677380632502,0.16515528523910888,0.18597810393796677,-8.523531194791396,-0.9418366602799833,-1.1090317341758427
171.0,-1.0022508672702073,1.9709230510179392,2.9731739182880776,-0.4676380223275802,-1.952014559970996,2.518994409202752,0.30675021651203327,0.3877413663009796,0.7428712779095035,6.163753179262012,1.4746626986338693,-2.9974647400884766
172.0,-0.05692134692749451,6.703677881702306,6.76059922862975,-3.3132483765583935,-3.450859964361995,6.7015477483603,-2.9767243532502867,-5.246658838357169,-4.466955617113715,10.44461212212456,-1.205802914258647,-1.179770542256985
173.0,-1.1454921627759962,-0.08055739394987294,1.0649347688261153,0.6163634374962135,-1.0682254495647678,0.5370962220607063,1.7765780769964774,0.8264974686430446,-3.401746105780694,-3.2601315370818096,-7.299821638584558,0.013126643963946805
174.0,-5.317226336462321,-8.728173087004421,-3.4109467505420694,7.020527670628125,-0.9953341657970232,-6.109579241384496,3.8864371217435,3.0057268493720297,2.470362897861106,-5.898520373707845,-6.137618882900261,-8.439644055027557
175.0,-0.2384731968300393,-0.5136170743945168,-0.2751438775644277,0.37102897268206725,0.053500871826548946,-0.3623835033727332,-1.146461836294467,1.685331419551909,3.5364946882991166,1.829177545190023,-2.4431711440417656,-0.34859565429630557
176.0,8.309197496975377,4.000994019820438,-4.308203477154886,-6.159356910867668,6.2627537303251595,-0.20505790915617528,-1.9393355388875095,-0.7291644988389534,3.1536252677394025,2.1848021236579513,8.520331978595852,9.380018264907537
177.0,2.415023958057297,-1.074382607288454,-3.489406565345727,-0.670009245444098,2.981937495870415,-2.255125097068527,-0.4005432687764868,2.3209263266805467,3.871925076725097,1.6313972211283096,14.165958458524994,9.648352432312569
178.0,-6.505177814729321,-2.0578677975910624,4.4473100171382605,4.289572703910196,-5.449849783866129,1.2261563257083326,2.749655018038831,-0.16423909561032193,-2.750958121302462,-0.20770632846817672,1.7682788260115103,-0.6336770817591146
179.0,-1.8817002836401455,-1.020821382004351,0.8608789016357776,1.4687245082078484,-1.4266658651543698,-0.11800997626904741,-2.0976763190436323,-3.726646701308029,-9.208270133836557,-6.454139513591983,-12.996113488111353,-16.0018324181692
180.0,1.8887225587725034,4.607834994439805,2.719112435667249,-3.2217302437505664,-0.39403274715937253,3.715823333256499,0.11877802199724574,0.18785437523071025,0.7587380924180245,0.8080285571102555,-5.031803781758645,-4.652369814019305
181.0,-1.4192052696690813,3.533808439736398,4.953013709405424,-1.102630389113812,-3.1659959119499774,4.227606641844551,1.1117219210441007,-0.059099870881274885,3.0114684161776712,4.600230557560516,1.4402963426071516,10.054571969045197
182.0,-0.07268737161462877,-2.3597839147257136,-2.2870965431111197,1.1745486583110614,1.12761719716809,-2.333231760789831,-1.1204019898629294,0.9456877390650366,-0.4854047773477732,0.2596577484176592,3.0983569448962998,5.652279622679702
183.0,2.9891431135082396,-5.570757718481084,-8.55990083198935,1.3285853100880967,5.717929135252021,-7.076125282018289,1.3564792323586672,-0.7825144866095455,2.8353852387499825,-0.4985883464095975,-2.9363529931793173,-3.4573396631057474
184.0,2.865734299136589,-1.1374792898463126,-4.0032135889829235,-0.9058590724553478,3.459980473086301,-2.5894823228947423,0.13676354266702628,-1.6624646358388646,-0.038829050664588305,-1.548386485270715,0.36866724945857393,-4.533367871107167
185.0,-5.2943017984556064,2.827107823049116,8.121409621504704,1.270164271054492,-6.75587302022725,5.441569564370345,-1.6263044779461102,2.909284619658988,-3.0863156166604755,1.326166018069305,10.361077781863537,5.886019783351669
186.0,-1.2667253755491268,5.754279105662917,7.021004481212052,-2.2063012902442756,-4.105844554204904,6.418898638911546,-1.9739731857573646,-2.1802520347953607,-0.8748304695383377,1.3041055890951108,4.7190973734904915,-1.6619892751790584
187.0,4.171011799072448,-2.2583651123903743,-6.429376911462783,-0.9169594688794198,5.347268104775798,-4.324241824277205,0.46351104051325553,1.0579889373260376,1.9189639924016886,-1.2589703290392067,-8.797564339346657,-6.573361025344412
188.0,-1.1680497219368962,-2.332877106382049,-1.1648273844451298,1.7122786847788238,-0.023537636562382502,-1.7344078363049076,0.7417074421223129,2.3778544436287605,3.3836405958379507,-2.520256422032647,-8.9676776771384,-3.405547047139571
189.0,-4.140970587442642,-0.7990604036054523,3.3419101838372125,2.430385681382952,-3.754652681439738,1.2880526866354955,3.2844898918358254,1.3991020358164277,0.5981277440448356,0.49566573669725955,0.05016836885817355,10.529538037196284
190.0,2.020762755944247,0.3034349174162011,-1.7173278385280326,-1.206778940039598,1.861665561427818,-0.6823991047465419,2.9400183318025737,-1.158154837830815,-1.7938079601379096,-0.9730340219293468,-0.33758285406674227,8.381140807464378
191.0,5.854760279770993,-0.2175245442070878,-6.07228482397804,-2.792371040619764,5.957836392197731,-3.188802991114177,-5.872792828383551,-2.415618428151009,-1.6926388878487262,-0.5598801169504325,3.653866205782529,-0.7908394426530916
192.0,-1.247757384730937,0.2692207077696785,1.5169780925006933,0.5073274942712096,-1.3906959806387822,0.8583112821664411,1.1461352205032822,-1.1393307130339125,-1.9137948480491271,3.9015822421619735,6.4155627592161295,-5.33484299527122
193.0,-4.544382142328319,-0.3353506567168008,4.209031485611589,2.4522652524674955,-4.391138605425797,1.907587592496568,0.15648878427932156,0.3206833766695357,0.6404226382117031,0.4922011026979154,-0.341746887720916,-8.325780735049307
194.0,2.780283242523475,0.6875613783127071,-2.0927218642107346,-1.7226259125310621,2.4927744418511923,-0.6516194452275184,-1.8336399337875038,1.1134837094342218,2.43103888723763,0.45064121055999784,-3.2251913780121226,-4.140157994862577
195.0,-4.878279088389565,0.9059388207456898,5.78421790913516,2.001187194624985,-5.362171286160848,3.3157734393885185,-1.5868784490479397,-1.9245318578881514,-2.331498345839924,-2.6393135302666164,1.1200808302969951,-2.4869011103834966
196.0,3.18270498738276,2.0190382148070896,-1.16366677257585,-2.578861256562594,2.2132570040336628,0.47435477397213044,2.69693398033668,-0.9737303511341748,-0.03349032216143455,3.4176706367447296,1.2000036660151832,3.356976278194078
197.0,1.851009552990968,1.5490529450138437,-0.3019566079773375,-1.7490790831909657,1.031240684474457,0.6675279429096435,-0.19167183362510865,2.643859870562337,-0.6129421992308919,-3.888651458054827,0.12505421045388943,10.142210297578357
198.0,0.9121274688457328,-4.869980269742447,-5.78210773858831,1.9359009859028287,3.375393380915589,-5.362921152690872,3.0816078621718095,4.176144432565554,2.00484503939806,-2.322090185919842,-2.4690816236395365,6.872882806407382
199.0,-1.4234004669061728,-3.549244227025219,-2.1258437601190447,2.5252821452411944,0.29696302163481336,-2.8761001696260866,-1.8045110298107643,-0.06092349365444272,2.8649556134571856,0.16767048318445976,-3.6371140460954794,-2.177872307549147
