Time(ms),I,II,III,aVR,aVL,aVF,V1,V2,V3,V4,V5,V6
-200.0,-2.167230338769021,2.872095727505816,5.0393260662746675,-0.3340943685940685,-3.5807725024486574,3.9893279409488382,-1.9246910459344586,6.062274034970617,-4.454325206026736,-1.376612589549588,1.7018088449782125,3.032207606131087
-199.0,7.6131983065964715,12.912826123906822,5.299627817310105,-10.240820972870484,1.1821622834526624,9.136843412959953,7.68340391502271,2.9593923700061944,-11.843681876683647,7.2468706557076565,-7.006715207697975,2.8884661590714855
-198.0,12.737889657235995,-3.7398765668065295,-16.477766224042753,-4.470541724177073,14.556104622536202,-10.15810842821887,-0.40507188027001284,10.47104302248821,-0.20701195835080188,-6.950276002264392,-10.86337364274573,-5.943124980474613
-197.0,-20.946659836377716,-26.07810211687716,-5.131442280499533,23.46895703062191,-7.9595445597182835,-15.574917928510374,10.233799100669374,-17.794409086986818,5.927707771217004,-10.683664272014205,-20.803232701398255,-13.891163614813548
-196.0,-4.196984812656111,9.421929074507577,13.61891388716375,-2.650441985443946,-8.882829928688523,11.472571482768316,-6.54646037022896,7.592208167267593,6.492934789409972,3.1331832594832902,-3.4586193748398273,-7.919087999422301
-195.0,21.95643290272648,2.8395607854491565,-19.116872117277175,-12.354542202898323,20.55983662247909,-8.106935641362213,-8.084238649561582,2.1531686856358867,-6.603208438281517,9.981637121920224,-0.10781722634071134,-0.9305124045055444
-194.0,-14.506272576493561,-1.7504887198042098,12.755783856689494,8.092712366041473,-13.608619074153465,5.455742943776813,3.167911921653488,-3.2239183505789573,8.025260806264313,13.56685696642984,33.008526931606426,28.831067790724582
-193.0,-11.58378956124542,-0.5475447309470705,11.036244830298433,6.106143340136295,-11.286447082641583,5.275606125508743,6.865652863158796,0.14297900693126386,0.45034557709310685,-9.475733833104169,17.734356136093794,7.42139256126166
-192.0,-6.76087204625674,11.234320177970275,17.995192224227008,-2.2783716088901174,-12.430328065477605,14.644898998422384,3.3054676466651065,-6.747243851963714,-0.7387935909908221,-3.0175235309853425,-6.321982938202547,-5.568504901756512
-191.0,21.460591102267152,7.836766517715784,-13.623824584551468,-14.61420459259299,17.57229014086579,-2.8648671976322655,-18.809076096730735,-0.528252649733866,-4.777469641094608,-0.10979915284566388,-23.213686235870995,-13.008362493955087
-190.0,8.999548078759013,-8.256630725395398,-17.256178804154555,-0.33782327251628086,13.082406004946716,-12.80821614731852,-2.527896937371688,13.55156436085913,2.8359198883867354,0.5968130465924317,-13.759650829054346,-8.841317849109199
-189.0,-8.08534288141338,-10.31146956082899,-2.226126679415737,9.154556706846577,-2.8943140019146663,-6.322236406395475,16.119763376664825,-1.0228785628796713,-5.3742699128290825,-12.372456487512562,3.408732895443876,0.8853495413290355
-188.0,-1.9303675226052783,1.37114649845552,3.301514021060724,0.2387510299535478,-2.658776389348253,2.3608285135910476,1.350577896393471,-4.233340519318334,-2.771528362511247,4.394399072529203,8.238498201844987,2.485791719638489
-187.0,-5.72881995558339,1.6687814938770535,7.397601449460423,2.0717536103528342,-6.527727210313722,4.558546932638844,9.145866098273558,-4.431404838100489,0.5295119006196731,3.7231305109766333,16.45656667633338,10.366582508253922
-186.0,2.190801248422351,-1.0874980397261542,-3.278299288148493,-0.5063701219627281,2.769057694425728,-2.1546067347605917,-14.206307852845395,-1.5889758970516623,3.3565898182656193,-5.194395954522767,-3.8772395526419814,1.8151804368382018
-185.0,-1.3456972997939136,-3.575039501133576,-2.2293422013396382,2.4289523876917105,0.39645387224090745,-2.8694078171095705,-1.7139755391058742,5.3461326052700535,2.22528731469448,-0.05592464605084979,-16.252416124794323,-7.565129016105461
-184.0,4.854557765445902,13.14025364300268,8.285695877556794,-9.029147547736624,-1.6832388699276313,10.671674091428983,-3.161271268745476,0.03846361658361741,4.979873489629431,8.811258786315813,-1.7427684071320506,-0.9465018836970756
-183.0,-5.9493203008132465,-7.031556830275712,-1.0822365294624667,6.53462950898246,-2.4807303396451603,-4.09491206847957,2.434648970507976,1.3763717648451805,1.7003313866363117,11.013299641839396,12.318772146730574,6.971941182657529
-182.0,6.1838201319617205,-2.4890569099663264,-8.672877041928073,-1.8862863867349402,7.459787401312278,-5.6179867883584205,0.8099370420054228,2.7156751379041726,-3.603409681775137,9.111626778448995,10.897883218297126,3.875474540915362
-181.0,5.2917368310231705,0.18873786895837208,-5.102998962064829,-2.783100106416531,5.151078042622805,-2.416575062548092,1.549891952207451,1.4208943205239613,-6.226336694943988,-16.998543204262386,-18.707769072533765,-17.60866422958709
-180.0,-12.639075994856249,2.667511588742096,15.306587583598322,5.0203089235328795,-13.937853567232917,9.025107215202013,4.70826076992481,-14.568722436466375,-10.51855242878502,-15.864632610522298,-5.151460995190017,-5.91398532479915
-179.0,-6.161822211852106,-1.5939846181154342,4.567837593736673,3.9151399040032295,-5.326029039670413,1.5220661060087297,3.872531906307337,-0.364201500495426,11.470628571514796,-1.4976209909002431,3.7686465119928867,5.5369331061415075
-178.0,9.039913880419803,5.425361356782721,-3.61455252363705,-7.188816545432691,6.291445851637235,0.8589313133084545,-3.7298082668697212,6.288244312416528,8.14317350509386,6.021363418831315,9.595209494548305,17.659440015716118
-177.0,9.051305929732614,-1.9262163252897668,-10.97752225502233,-3.5891260545031645,10.060344739975783,-6.50109768357992,-5.45764876224779,9.436968797056496,4.668573005830589,6.276278802503428,12.154652798256024,14.031425423808201
-176.0,-4.7752730988526935,8.386501916442432,13.161775015295156,-1.825382069842377,-9.001002379416006,10.800953604853914,-11.085083778255996,-10.787509734041235,-14.398976082787762,-5.397887457233704,-4.073680754799637,-10.403606422350816
-175.0,11.576107032389654,-1.1459176079325626,-12.72202464032222,-5.232632981119236,12.113805146093256,-6.909746490469274,7.559555568223139,8.48341524507306,-3.981882436284388,3.998650926458575,-16.355407884410177,-19.10358303100691
-174.0,-10.444049460962269,-13.897958068287487,-3.453908607325238,12.149725795042526,-3.5352864622558315,-8.654000295856719,7.979718157613426,3.378468984878929,4.220252039005821,6.418539028696578,-7.2269649045202735,-3.8900542097006277
-173.0,-9.884443861084739,-16.524674575288696,-6.64023071420397,13.174531742489116,-1.5885471036987324,-11.641089302200971,-2.207323392789559,-8.537084188984739,9.602701147871555,0.05747259393218629,3.3509790088482774,0.09606552958613168
-172.0,-5.5348970424457855,5.246226538271212,10.781123580717008,0.18220107236643202,-8.127118428430743,8.032534959197392,4.032823692174921,-4.938061432865728,-7.354020748500756,-8.661467800796498,5.442282179342223,6.713955914907321
-171.0,7.094773897951762,16.479349670344376,9.384575772392635,-11.758589630480392,-1.1131926025483923,12.950158906219594,3.215293567460208,4.568824321492913,-5.968031648635574,5.943339329423401,3.677025197379674,5.639609036234697
-170.0,-3.6942091601943785,9.339775490409679,13.033984650604062,-2.7995065540170163,-8.328883293451815,11.20498231208266,-4.804824392259686,-1.3255386725338472,6.510108250920553,1.9019577566887529,-0.7963758161903849,5.773292562693102
-169.0,9.706491462394919,4.195740700563175,-5.510750761831762,-6.927914447236558,7.568755252345029,-0.7177022449624202,-8.246767634315043,-0.7122075333026177,1.6229155361717307,-7.247419297769299,15.230159845579971,1.55276121116676
-168.0,11.888256880493442,-4.720793425372319,-16.609050305865804,-3.635146748041556,14.209630873421215,-10.645356973234222,-2.2442516864293953,3.995896011656194,11.149185528077892,8.07457188886277,-6.817117247869506,-10.297600771167618
-167.0,-5.542957648213468,-10.364261263662524,-4.821303615449122,7.908583592427856,-0.40369835578269875,-7.571577121123496,5.570078663333291,0.7174087016704609,-11.541393206645914,1.5986802074822128,-10.84923303364415,-3.126306485076398
-166.0,-1.8437329947128749,-7.099920659740166,-5.256187665027369,4.512232494723461,1.73387723349538,-6.154513986856766,-1.0861684895510306,-0.44161275700385794,-4.806066455212394,-7.453695146464889,-3.4285627596460797,3.735195274100777
-165.0,-2.7310868095387995,1.9875533977993518,4.71864020733808,0.3390862110697155,-3.7073769778074155,3.3009524736067286,1.6204521970504386,0.16032077273944334,7.608249954172379,-5.4387428341709745,3.4214259957747064,3.7110001561446406
-164.0,-13.658344845248049,3.4231934151108137,17.081538260358816,5.167704618998236,-15.361003167426999,10.282828354567576,2.579478273908285,-5.447039669700004,-13.215593151682201,-2.4582625341828654,6.586166773316786,1.498882383494798
-163.0,3.0263863614048994,7.665632696482602,4.639246335077687,-5.372364910642002,-0.8012040791163999,6.108947498788263,1.3891537057866732,5.173607246669857,-0.5921841735259572,3.5780205828428686,-2.9174760609801726,-6.1009228200854295
-162.0,6.751229715883015,-4.7700120419065515,-11.52124175778952,-0.9378695756500481,9.144291544062348,-8.104475120490266,3.7392958665599005,-4.66890506162645,7.469865958653725,2.671416191809991,-11.216796166599408,-8.136423883754826
-161.0,5.238078358373082,-5.42128304821078,-10.659361406583804,0.06389203747144734,7.965817230163281,-8.071004052182234,-4.166320514488837,12.153526271328278,13.210296085008302,8.357494041870439,7.6936336174045525,3.5843953474345436
-160.0,-1.797590477046036,0.1500589335551672,1.9476494106012376,0.7924344175660714,-1.921162772208417,1.1042664351687121,-2.33222024621767,1.3284120948218159,1.882924218048129,-0.9682581998210438,8.59497277496951,17.369343573859755
-159.0,-8.07306259883068,5.068384919605569,13.141447518436234,1.4661203458946033,-10.563027869814114,9.088143574722995,-3.3713406965929713,-21.561882393639745,-16.874222405791812,-0.7061665346959927,1.9843106418529497,-4.139903325520976
-158.0,3.661243213332808,-5.46872924496565,-9.129972458298534,0.9412980710496504,6.372888361712458,-7.311903766806567,-0.6958111908175852,6.690903350826235,2.1103936593233703,-13.18898451111148,-12.291308022812865,-13.115893085717214
-157.0,9.71113314727474,16.64531270436463,6.934179557089809,-13.144465511936598,1.373191715976587,11.777686741224372,0.15253413627510418,2.545833161794051,1.7732497281728161,10.051583038216286,9.533256025962164,7.7797141900946984
-156.0,-7.486921390292606,8.226361381912847,15.71328277220536,-0.33780602150012795,-11.612952140761763,11.953923619389704,0.4305675529090698,-3.3273947734939813,0.9459215680969653,9.349293494447966,2.688250670447102,8.857618893392544
-155.0,0.23215836920895327,-13.15151760623117,-13.383675975440212,6.4129392936326095,6.793362344076534,-13.212395805228539,1.207236177093299,5.4645682985378095,-3.7229196669581945,-11.10585217312429,-12.388900996017298,-13.51702143678683
-154.0,-2.572471570169517,-11.021262945603972,-8.448791375434519,6.751546829871653,2.9982652153297833,-9.76840507973698,9.614259729032948,4.774220721702003,-0.9764376368048227,-5.793886314690832,-3.0363549739397677,-3.138831224021825
-153.0,6.021830868015439,-13.225314747303532,-19.247145615319024,3.6371685528618,12.611142761924166,-16.279230396133155,-1.4219668274617265,2.0481157041882385,-0.5247686723320866,-4.929950607296806,-11.360267428986294,-11.74449115068363
-152.0,0.7152716602996252,1.128477944886046,0.41320628458641284,-0.8843794391883315,0.2022132675875068,0.7996785881678559,-2.252281535590253,-4.7512557655271115,7.588360043803157,13.621180519704597,19.583892233957034,17.19367252754914
-151.0,-11.056139131021224,13.942767776562656,24.998906907583947,-1.4825900491985082,-18.0586212768596,19.49728818630105,-5.8548745144298096,2.517842630459766,6.887104578247238,9.34550349482584,18.223660482848935,13.815797197431449
-150.0,-3.107506676573295,-4.313724940368596,-1.2062182637952503,3.6733017322912076,-0.9848742857645565,-2.7309599604185095,3.1240747395039,-2.24069147807809,-2.2100955047995177,-9.732400164161398,-8.295324792478887,-1.7948897703054065
-149.0,12.254552493829365,24.563910433112767,12.309357939283446,-18.365765461191902,-0.06463785089765661,18.393157255296842,-8.46574883946057,-10.93674982517581,-9.162621747865968,-4.4474295633740635,-9.015923545046222,-6.7319440331751945
-148.0,-1.4305228157927434,0.060020175654006636,1.4905429914467891,0.7306649064084292,-1.421856949669511,0.8180249307588321,2.3448266613131525,5.501102093638357,-4.882585425375433,2.7500947454969875,-6.52163786023745,-9.233183006752672
-147.0,5.144753315976228,-13.563491078904436,-18.708244394880623,4.177389718349142,11.962679254001833,-16.165943939552214,3.017459438474782,-0.3689418711901522,4.285306244837454,3.8843402885685507,-0.16821652988185143,-1.4292197385610192
-146.0,-10.714480648370534,-13.047290948348156,-2.332810299977549,11.848989122439724,-4.1568720892094735,-7.717597411072974,8.776542523953152,1.0411252971929623,-1.9659621952952444,-5.315520437362768,3.155452171816207,3.1052343415133365
-145.0,9.213586881100586,12.965413984488633,3.7518271033880684,-11.044250283938414,2.6837020126646713,8.330011944865664,-7.062915314361257,5.037355697787253,1.6817630883762316,-6.542528253684408,1.0596863150236597,-0.013455517778927728
-144.0,-6.465300111369153,-2.94318389856062,3.5221162128084913,4.667764886965034,-5.044003971986369,0.33646954986430233,-0.29762111367436606,1.5151929215365638,7.381545848744907,-1.4521864242048992,-0.0534896534949687,4.974087059467409
-143.0,-6.697846987218542,-9.91494477799545,-3.2170977907770775,8.266736834450807,-1.7159525431557063,-6.6005334402400795,5.391269618218693,-7.573565135850666,-1.1885112760227887,6.300431065600289,-0.48212789788502697,2.17259957430309
-142.0,4.559935662728963,3.4477778400550907,-1.1121578226741033,-3.9664654721634807,2.855939610884045,1.2118071970779265,-4.464744320337202,6.0688005002512595,-8.30813772477082,10.531142797216903,5.304179958475344,0.9360883060873382
-141.0,22.553430702239464,11.92374888182631,-10.629681820413392,-17.19995098058913,16.60729954055727,0.6940820785909767,-4.907382152004365,4.397941916051144,7.308615338604967,-1.879740763346077,-2.0781803875842817,-4.494597224497068
-140.0,-9.877798329825586,-9.47188127432914,0.4059170554963397,9.639355745619131,-5.128879886412878,-4.559353448096553,6.5342553852168965,-8.757119404663207,2.6495203357602906,-3.7108197496497533,-4.361083449422306,-7.740248762427605
-139.0,-19.97728784437732,-8.704270396450893,11.273017447926453,14.391009346147491,-15.691430229699705,1.2633324590475332,1.458028479548351,5.908107250892139,-2.6936601374078886,1.6569846606015042,0.4584805536731995,1.830161210194126
-138.0,-8.326223443185754,9.177319394625483,17.503542837811366,-0.4470742171225677,-12.900043757888316,13.322331279319657,-2.15058407301785,-5.772696941404616,-5.621871582163825,-4.231823563217715,4.102700633655202,5.95009343912011
-137.0,15.99276946726162,12.604593468315167,-3.388175998946198,-14.315945653192118,9.710750807317076,4.589323911888685,-5.390269939267202,-7.5130700626131866,-9.360697494113019,-9.403396930270771,1.5993972044079843,0.4874971766613001
-136.0,11.69930727802155,4.7807885755506625,-6.918518702470591,-8.25792922814718,9.33726552184291,-1.091999055694772,-0.41159631958087495,3.933178486361481,7.7280279495101025,8.327198396925041,-2.012744860252295,2.590901670727918
-135.0,-7.252529758268102,-10.227400182914629,-2.9748704246462756,8.715895819829434,-2.1797313679259274,-6.551691260496689,6.831835655609973,6.026552366660177,14.578124967134977,12.703691050838456,-1.6220722705699788,4.545775704431637
-134.0,7.674692941766888,-6.042641254008541,-13.71733419577533,-0.772075770228597,10.742938463610905,-9.836755543335782,-4.652238597446062,5.034770733114828,2.623294113155878,-2.3367247699943103,4.190277642167599,-2.149965534151359
-133.0,-7.5995378285597095,-15.603131071921863,-8.003593243362275,11.632400458991492,0.1768956431582147,-11.843879440220356,10.062465510387776,-1.632857719496494,-10.249499781086893,-12.719606905792121,-6.538638410545318,-12.861274787277043
-132.0,5.343160221036716,14.386338478027394,9.043178256990402,-9.924442385444218,-1.8722400115778957,11.74936438049836,-12.662820962493985,-3.5954438370976436,-6.657854155432659,-6.540976934627242,-5.037709982482417,-1.578218685913746
-131.0,-4.021567612971177,5.45197833802042,9.47354595099127,-0.7043959835432609,-6.770978038529602,7.415656055106904,-0.6783034179982121,-5.4719885032684745,-6.900506221153771,-2.09156259221978,2.668770930497807,3.0917214332670095
-130.0,-8.78251021048904,4.05681515326852,12.839325363757368,2.371232675222186,-10.75991421602956,8.476508466171008,7.26204880256375,8.848108741168513,5.414337944442301,6.062805937891225,6.532940757056917,4.148879683374271
-129.0,-3.920901396806201,1.3754954900487606,5.296396886855085,1.2851905389771883,-4.641989364222317,3.2817572143382217,5.2888201092011755,3.7379503481580203,8.40846819665719,11.408425634069928,7.001637333265625,5.460523942429161
-128.0,4.3688487379440115,-3.5300753374187304,-7.898924075362416,-0.39720315769314674,6.174540694071062,-5.694111397891196,-2.5257262537365324,-11.042020996135847,-1.9438448438345173,10.887959752087959,1.241948785926147,5.773969873146093
-127.0,9.591003769485711,1.2269923636926618,-8.364011405792677,-5.452704821225069,8.937149018951075,-3.5515828475171904,-10.223425732440248,-10.86092746588294,3.222054019013106,5.741355306139271,-4.539980037609366,1.9953582568286201
-126.0,-6.646031324811617,-30.23710307948086,-23.59107175466904,18.489323385440954,8.511866871029978,-26.898801300047236,8.504186768438844,11.431620900563637,5.0778008009301985,-23.641884293646328,-23.200909449348835,-23.457923158986045
-125.0,4.814979645298439,2.897054186412701,-1.9179254588857457,-3.877681745778262,3.33086533709037,0.5056953900742727,-0.13208792401962288,8.95418225024248,-0.9284325697950654,-9.278985425032811,5.809930568306568,2.543763648924063
-124.0,-1.8278748536674356,11.473222340953054,13.301097194620354,-4.840553573385748,-7.515911305593744,12.327815428568734,-1.9854064007733898,-3.807194773333605,-25.82884220330359,-8.368348684746422,9.017970037943345,4.17349187873304
-123.0,4.714096686231462,15.816771626174013,11.102674939942363,-10.285454664551695,-3.2191794564407736,13.484124090253584,-5.646052848332242,-0.11212471829590442,9.767821034280795,5.728980073361073,6.1900402355690565,3.6369575066930357
-122.0,3.7666399256359524,15.216664122369512,11.45002419673343,-9.518261809023413,-3.863002111831094,13.3633674247178,-3.273895417234705,1.0910127313383662,16.85861847870813,15.751132249058147,4.65387179352518,3.1153541500621307
-121.0,-2.2353211624834715,12.898378739960961,15.133699902444404,-5.287749431521384,-8.704832417860112,13.972403667789946,1.3658978748010693,-3.0983755533698267,0.9364448522356374,18.67161457105415,8.013174330354362,5.957310281157197
-120.0,-16.067151006717932,-26.83895557630805,-10.771804569590058,21.48942512317197,-2.5907871941592724,-18.766620824530648,22.135545158922614,-0.5689354314933381,-8.871677448758216,-7.028864975595559,-8.6912886745495,-7.82091605929098
-119.0,5.941866266568707,-2.354243509402165,-8.296109775970779,-1.7621955470210935,7.093945210150058,-5.363361092952022,-4.002390581976073,2.629589000756752,-1.318942256394283,-4.412222669763513,-8.285445558918207,4.868041589379722
-118.0,-2.0142104337417335,-21.833153048932893,-19.818942615191077,11.874680061515825,8.873834639430514,-20.785199469256316,-22.688372396591895,-4.020575692516372,-5.007292987765352,-13.114239549385346,-13.027248965526727,-6.3003682444695
-117.0,3.983404275408003,-5.097187374301677,-9.080591649709602,0.5080411496644612,6.57968141428736,-7.127009835100704,7.1819227874125335,-0.5014448756505453,1.0708378628949766,-2.8192488748178475,8.165081611526162,2.793363390957217
-116.0,5.875642005231715,3.3766543983808326,-2.4989876068508075,-4.595273210770384,4.15541988059992,0.40145411544262366,13.252346544747489,-7.854708994770416,-5.85968428330521,-12.475352396524283,1.8990580131661097,-4.361788688744381
-115.0,-2.885821979478317,7.9983733912474815,10.884195370725811,-2.524449193086096,-6.837303160326872,9.485701919185356,-8.448049289544814,9.255841865298352,9.106112217931349,7.648691058108192,-2.0948456439177914,-3.840397580940618
-114.0,-3.1647196117437266,16.38097814537003,19.545697757113732,-6.654355783636818,-11.384520230816229,18.0136380123172,-5.436708140619893,1.927594072224244,6.102805104184938,15.428416563139898,5.905313630150348,3.1561176803880846
-113.0,4.764652452141091,12.226714975533442,7.4620625233923015,-8.46242233954591,-1.3766562621957164,9.823868785906301,-0.7676010061250742,1.6602385339547547,6.3859812590749305,7.456136670025605,10.340780099460744,3.5238103459411536
-112.0,5.366484785497334,-3.8263487717296183,-9.192833557227027,-0.8142520545392733,7.33020596820818,-6.52217864243501,8.351784378665647,5.24673955057426,-0.3867840198066046,4.2483075297633235,1.0647428167708313,3.8568429149497963
-111.0,-5.7276180680605275,-10.561950009887841,-4.834331941827418,8.181602130492216,-0.4775008640643237,-7.705399972285093,4.021403702404764,-0.4461410820860827,-7.8155158060406285,-7.3527827482266215,-5.916516298717266,-4.532158563232028
-110.0,-10.862991803495929,-5.319668243960111,5.543323559535718,8.13126323842292,-8.23918115236955,0.10513488766950374,-6.268824759610789,-8.4916834338064,-6.489123111658855,-4.339410114683208,-2.7445753352607767,3.627439752283471
-109.0,2.7946223165112416,7.879263123006474,5.084640806495208,-5.372422348568602,-1.1094220854733938,6.470195649880202,-6.824023934244387,-7.210616553289201,-9.273496657007847,-7.344577239015967,0.014249833228674902,12.35602794920299
-108.0,1.328692449487934,-5.055840658781599,-6.384533108269486,1.8306925348027363,3.884012866494097,-5.741894358951338,3.12763092882769,-0.11107901724694269,-2.66066369515887,-12.376072115653338,-13.087793961625737,-14.610505319111867
-107.0,-0.4892237682732872,-10.895472958229968,-10.406249189956618,5.739241196803954,4.977696054054049,-10.606596191758582,11.207307961084496,9.139050163700677,15.736088595039408,-0.5452841758467173,-13.84408077560398,-19.447860045806426
-106.0,15.860602160622147,-0.3609239645737987,-16.221526125195936,-7.7825710968829585,15.974236781765654,-8.259894555430355,-2.8635285728078017,5.290247423490685,12.705297178059876,17.782115585026293,12.112553181571876,7.133415774606689
-105.0,0.8511443962089222,8.013473440508232,7.162329044299238,-4.467543459397353,-3.148951456050506,7.5298909929165205,-4.9619787533691415,-6.497395299066527,-9.604810436829078,2.033572342193102,29.462345450702088,15.52423317457531
-104.0,-11.074436450583748,0.29888982733885516,11.373326277922494,5.427771505160969,-11.219442607090324,5.850380051359854,-3.936289509638536,-0.4395194901068561,-5.562484101687634,-1.5767328464367303,-3.4171204764913856,-0.058866924137508825
-103.0,-5.124470239930739,3.253931289788301,8.378401529719,0.9712473739994916,-6.745156879546445,5.8289026561978865,-0.4771642541087473,3.6964212852395533,1.6402251609505418,0.7574087912226519,-8.239524976735149,1.4626060479042229
-102.0,-13.688229138569623,4.698797791834337,18.387026930403973,4.5262768536560625,-16.025089760701427,11.558860027411052,4.393951112891372,-3.1547929048811048,1.7080115534532267,7.838809411089853,2.000775754453559,6.345663334779831
-101.0,14.151695529552969,-4.022288138381326,-18.17398366793425,-5.116863125219663,16.18543177124009,-11.154029799503315,1.6851490280790897,-1.518684609881301,-0.5221878308614655,-3.1869822399904484,-5.415069359708033,-12.735129148962027
-100.0,15.679222762287797,4.88693776330083,-10.792284998986894,-10.340626492722683,13.191723173030962,-2.920883992666812,-0.6604243174649285,-0.8459783264800169,2.9773206153917036,-0.6737081296004197,-4.330448314167542,-3.166793139133861
-99.0,-0.6546126729147046,-1.9241388575988754,-1.2695261846840982,1.3057354689025464,0.3538947273894184,-1.556054490803743,-2.1599097085148067,3.316635299913967,-5.237032626261432,-7.873900263585022,-7.168632282946788,-1.2684189113312376
-98.0,-5.475480855492677,-4.1354460677970195,1.340034787695723,4.819263707950005,-3.431332023138602,-1.4285159887800423,1.751070024501518,4.24260039516376,-0.2441186945989131,-0.07749375667131009,0.9657520458318118,4.265227499806334
-97.0,-11.813204965488291,-9.988525251907124,1.8246797135812134,10.916182886645416,-6.838660580753757,-4.108763215375614,-3.9903075346210946,-14.29586024161359,-6.550918120965803,-10.980818195259813,3.1110806446594053,0.22199843194169766
-96.0,-3.8794274849617683,-3.3635596429114916,0.5158678420502896,3.6432253048902963,-2.2190502199226914,-1.4504126863182425,1.1489848873170314,9.652073970224494,7.362890965170726,6.145668853888472,5.200630115357776,-0.545964543776166
-95.0,5.836860698319239,8.616439976630108,2.7795792783108584,-7.194444180659698,1.5795026519535402,5.7471886021171015,2.868336876057042,5.610372964248899,4.789368114848369,6.353236206822946,5.193203712737392,1.4825755840788903
-94.0,4.01292430301419,15.550816487582996,11.537892184568792,-9.816275953277358,-3.799832105807102,13.58832894166674,5.459781840954596,-0.6232444419377545,7.1093976001025645,3.857357041810525,3.7049874216156784,6.683319971152285
-93.0,-0.6244562639502895,2.447970492939164,3.0724267568894548,-0.9354577527627299,-1.8171637073147489,2.719378293721234,4.847331917148249,-7.555157524239804,-16.5553474249542,-9.988119176775346,-6.42584839591678,-3.1577768786036757
-92.0,0.35662993360459394,-11.30239282998739,-11.659022763591976,5.455836062875637,6.030492490410852,-11.527020741658262,-13.544023095802078,0.7014988686634718,0.41224704189309147,1.5982094922614072,-2.015226808236311,-4.670759769487741
-91.0,4.5000794194119065,-19.750399274253112,-24.250478693665002,7.609484878526787,14.313711533836443,-21.971637318444184,2.0347954905003887,0.02958131620334692,2.563096942211642,4.832257943835878,-8.305963017382883,-6.403949218716943
-90.0,5.989556392193261,10.660611324016251,4.671054931823033,-8.265547176191287,0.6749364282525319,7.693888685389224,-5.269530487323529,-0.7420169040931237,1.8167648385613655,9.531723127430944,3.084111813163811,2.865716879338125
-89.0,-9.248514007332128,9.58777308547778,18.836287092809975,-0.19570201252688157,-14.024177174550594,14.16390679033499,-3.68292671759099,-1.9529289362429705,1.6406118102309737,5.10133179338625,10.625107243486816,7.487048423738479
-88.0,-3.585493124823467,2.0808172355882473,5.666310360411764,0.7969630817793698,-4.60185181877115,3.9095758571973747,4.802317620824667,5.978032148685287,5.053353398534422,-6.019763829822531,1.0529118843727163,2.683685980232467
-87.0,1.561349173032068,0.4221943735677316,-1.1391547994643414,-1.0330533280534737,1.3032598680503025,-0.31577948438830106,6.620684978779918,-1.8405458605005198,-2.3176944205798273,-12.19134762640032,-2.671642727317337,-0.25086418744069294
-86.0,-0.5175811018369338,0.637467188162787,1.1550482899996677,-0.10580574138297594,-0.796734020951673,0.8660233267243896,3.5290725286977382,3.969986075542448,3.224526462017465,-4.586140979488051,-5.963631887583573,-2.206219703377638
-85.0,-5.086145709297565,-12.547182131730436,-7.461036422432941,8.84853152626909,1.15450163214614,-10.031508771521764,1.8273534510574985,-1.6132236043728625,-9.8661850956406,-5.177667122893402,-3.732538356552445,-6.787606173671711
-84.0,2.5086679306039215,-7.65356096775853,-10.162228898362539,2.606840330900457,6.305833147727927,-8.93662468188682,-2.616706632926636,-0.4208956092630629,-8.785442343943734,0.6593276081661512,-2.37800051650948,-1.403911017345222
-83.0,5.8296861754553655,8.509197451976219,2.6795112765207607,-7.1301799543832,1.623932603749659,5.639137315229207,-1.0251047842076861,6.073722781797505,10.142442973054617,9.920300386869952,5.800624157819145,1.543195869404037
-82.0,2.795570607582108,17.37168175286272,14.576111145280532,-10.11804740903031,-5.8454754715854484,15.932377522452654,-8.432432779795938,-15.68095070855788,4.354281984873202,11.987843527590472,6.8202767666533415,8.076940941644875
-81.0,-1.5544983894942737,-1.4212520230313492,0.13324636646287402,1.4564471047535736,-0.8852042734833174,-0.6144039833226298,-3.113739708878629,-6.176887883565023,-8.397068911332646,-0.008545190762205834,0.8855409263488432,-3.963697611942993
-80.0,-0.10635473203778889,-11.105706303328171,-10.999351571290394,5.574167296063634,5.395586446080811,-11.028695742369877,3.584922724362124,10.85189554711905,4.97082445575291,-3.0562393336882003,-2.27720278795248,-4.458400834327117
-79.0,-2.5942215499996637,-5.855442749512334,-3.261221199512656,4.268118996506338,0.35144470053506893,-4.537466565128765,4.494922126175745,11.24012909207913,13.307270759825295,1.1070720423175375,-0.8606402357037075,2.5327660564991534
-78.0,4.305202950550434,4.545766059433625,0.24056310888319166,-4.4658942234272425,2.042464903965977,2.3348133847999133,1.9433723295090948,-5.10456979706613,-10.779550160421532,-9.337430259925013,-5.718845391088678,2.2869798719239713
-77.0,-2.344713136201648,7.617697345589326,9.962410481790954,-2.601867853847393,-6.14688811823799,8.811306219915288,-1.5783293660530013,0.3244456545655012,-1.5250135087684318,-0.5416647683440914,2.306735545622065,7.171493826900202
-76.0,-11.353805997976172,-7.675950074540088,3.677855923436059,9.549227769294916,-7.507102006906972,-1.9770228654073012,5.461073652750016,1.048410247065792,-3.943538404398272,-7.728784047393044,-5.340867117429793,-4.590204209651544
-75.0,3.855075841494396,-4.2096448325498805,-8.064720674044283,0.13696002104685734,5.975766953098155,-6.194189869072142,-3.1131172821288713,-3.1726435556171064,1.4890719917093904,1.725339430791308,5.603648807619427,-6.431727960185045
-74.0,0.6605678771965104,-2.677534130377523,-3.338102007573989,1.0545837883487335,2.025353757514915,-2.987561836937002,-1.4209311615853883,-4.380962465941437,-0.4577697779467161,6.478366501084615,3.1306956529820904,-3.62058629083584
-73.0,1.291951723192505,5.93734182165714,4.64539009846472,-3.6380988770968266,-1.7193022167146261,5.309621336444598,-2.216912438921818,-1.064569691344323,3.052291714093808,3.27384816975201,-2.1700337954236644,2.290562752228786
-72.0,8.084597708184265,13.239045765071324,5.154448056887144,-10.677113518320352,1.4298187548354664,9.21372081508113,-4.294210483966866,-1.4454071875108065,2.1120876886418385,6.377202188441585,4.560369286652329,11.453439504562214
-71.0,11.771877212401858,4.52683646983584,-7.245040742565969,-8.159587079326785,9.554915402665376,-1.4201378716515642,-0.007222588280477948,3.4711805802176943,-3.441812547239056,-4.8195793406607335,-1.612205752978294,-1.688930223179307
-70.0,-20.486303224170598,-13.514295291273548,6.972007932897047,16.991162095296104,-13.762568160018823,-3.249788837135455,4.784676344443886,-0.515196063333613,-3.3362381404983728,-5.518616779731122,-3.865126836970367,-7.124698491689637
-69.0,3.1619210040629486,-3.5234568005075433,-6.6853778045705194,0.1692083096276038,4.886925064045805,-5.076482455632031,-0.9776913634676321,5.637888825477195,4.810488083675873,5.3340835193449445,-1.89500960554191,-2.227032992074953
-68.0,7.9091842556613745,0.36013725097421956,-7.549047004687174,-4.0720692176967175,7.768222246969212,-3.5580137998538115,-0.5421675765432215,3.802008492880539,6.02395718631774,8.153468546358138,2.856122422464306,4.840914595300414
-67.0,-7.352074548671622,-0.9737358010115877,6.378338747660031,4.141470780141554,-6.8265817475662445,2.668530445331198,5.770786595268797,-0.6847448100911364,0.7748289813721483,-2.3298795640007057,3.6263168503391032,4.750981729862736
-66.0,-6.515645659577596,-11.185786255246414,-4.6701405956687925,8.824359929656328,-0.881669154099078,-7.955327951620416,5.27354197906441,-4.511020867511785,-10.51577130850985,-16.820775682828234,-6.201234736560711,-8.152034026262726
-65.0,-2.542221107276258,2.292766788018936,4.83498789529525,0.17284973348652044,-3.7221228826961936,3.539164461929654,-3.48066584395267,-3.2629036126396898,-7.04552403119137,-14.37732152361397,-5.676477872752425,-7.606868060101192
-64.0,3.0044672538022636,12.766730091003808,9.76226283720161,-7.92015220185605,-3.4088361888885257,11.31692448073893,-7.437637540070659,-0.2638628861428258,4.3852958899519825,1.1497494806981345,2.3024465426692924,6.4362917624494
-63.0,7.972220342359661,8.076858987486634,0.10463864512703092,-7.984405639220141,3.9048808420728522,4.059248631752898,-4.259981679734186,-2.9249622648823204,9.01121123386044,22.663309999129577,5.505585951939503,7.76035255871064
-62.0,6.580021569443156,3.169193884790607,-3.4108276846524985,-4.9175551898925445,4.964329486603369,-0.08077945889094651,-0.7095275750237087,-0.36452410511747063,0.841247879867649,12.295166303549557,3.041478427111416,1.8039160409419113
-61.0,-3.7353227009471457,-4.000878452945995,-0.26555575199880055,3.821135673153766,-1.6917573532822985,-2.1793289797075364,5.324620762651052,4.790481302820207,2.7466982286981434,11.789846013872872,5.8322200207152965,-1.356578087188627
-60.0,-0.602651589800334,-5.649196325200226,-5.046544735399884,3.1552365257185992,2.2599446212822585,-5.321146618283816,0.09556773502442883,1.524113162095094,-1.6870079080704778,-0.31105760014502026,-1.4407741218664056,-2.994731408378607
-59.0,-6.919944114519556,-10.68935786918855,-3.7694137546690243,8.83431774447525,-1.5413780714463605,-7.205939011869317,6.981710876872334,1.8573103600453362,-6.255233048467736,-18.7788455434762,-6.337047160630519,-6.389002292573735
-58.0,13.420742344122417,6.369222745663286,-7.051519598459204,-9.861660732680969,10.188983277712264,-0.3966348759902436,-3.6823837851244914,1.4851020083290303,-2.260460764057008,-23.768354485639804,3.2788358159410915,4.538281257644396
-57.0,-10.769459120369751,-4.011494154063332,6.757964966306346,7.351078302053209,-8.811360530474857,1.399160212041053,-6.242365207942676,-2.448648167764727,-6.13268339999485,-12.314263980936591,-9.923377372620427,1.1806525758246815
-56.0,-9.679692054081038,-2.048699517393195,7.630992536687788,5.909723642605189,-8.623463203337261,2.8217437911650602,5.241756122616048,-4.500254922954873,2.2413209794553097,10.366462248478005,-4.218523047342741,-1.2452439579199401
-55.0,-5.07234703072068,6.7104211422853925,11.782768173006037,-0.8486517876249747,-8.394194080181942,9.203937945069036,1.8714200140215536,1.9469525636131402,10.305661329252631,22.03758921701867,10.383463882606865,6.147038768949991
-54.0,10.519445924305463,10.194231167363721,-0.32521475694176427,-10.387452680956178,5.378679967725728,4.975707817004442,-5.722531269570173,-1.3710219916203996,4.208602171643133,11.362619140526562,0.35478543710328747,-4.911050738317753
-53.0,18.362447910304358,2.6445954507656433,-15.717852459538726,-10.540155393488659,17.07692256818956,-6.570323774824593,-1.5073204123329478,-1.8172911319558074,-3.5229626835958423,-2.965264248549623,0.03573717807882515,-6.136337717709332
-52.0,2.8466654161754352,-13.627418467679632,-16.474083883855062,5.422905603942238,9.619821968973199,-15.082067091194878,7.3599904687067195,2.373893284099802,-2.992218889618602,-5.314701520506975,-1.4546773061582696,-2.2434033051097924
-51.0,-15.86045235394397,-14.277699754530822,1.5827525994131602,15.091159782801368,-8.682292257692904,-6.298694595633445,4.026535320498274,6.764111711314932,4.705802561611633,-2.027158816794481,-2.2273075139258705,2.4018188471563953
-50.0,-5.335554153362973,8.880359264776489,14.215913418139454,-1.7587919047437541,-9.814354189658058,11.519302591093894,-2.3050512854806007,-0.10673195838024707,-5.039316966581387,-1.872088390832018,3.498473055147771,7.901083811121444
-49.0,-7.030960143477175,9.895590452874451,16.926550596351632,-1.4233175110507268,-11.938069178916805,13.462677922608867,-5.311883309996297,-8.49391073721014,-5.008298581737373,-5.525527684553898,2.578151244446505,3.7259378477270713
-48.0,2.8696210178738726,-2.2666749298017814,-5.136295947675631,-0.29278339797794983,3.9651589088392987,-3.7260547060654,-4.821685338584845,2.562954025845983,-5.0297869273033715,-6.317894180965176,-2.765342182679615,-2.011014440899144
-47.0,2.929898934534794,3.017964000207909,0.08806506567314276,-3.0408219805238392,1.4617169239744565,1.531687795337068,1.157816067581258,-0.33723925465383364,4.044148198793745,6.144409038881833,2.7591155714661766,-5.3946487949790285
-46.0,14.601978344539914,8.758155952568314,-5.84382239197156,-11.663083195173458,10.184205096546805,1.4391245954534204,-0.328188791296967,-0.9462353084753947,7.7937742199223985,7.032799223642813,1.5225225635226498,2.90553636508381
-45.0,11.68684920082542,0.085503076985606,-11.60134612383981,-5.86374159310458,11.6826722648564,-5.6947181086784555,1.0102850793684865,3.953548676991028,7.71573662753536,3.54387609571029,-4.517738429865123,-0.704396728966658
-44.0,-6.792284503951616,-15.736010561899127,-8.943726057947556,11.291008948725676,1.0333508883228983,-12.354540869364246,5.461390113206461,1.6784477835375233,-2.3484242058997022,-10.625859189833285,-9.04021313276217,-6.348499254225458
-43.0,-19.37479682778632,-5.644503395751797,13.730293432034411,12.460305998491041,-16.518817452510312,4.026864816075148,1.4282550891432146,-4.124162929021358,-2.277354535804747,-0.5603964856948269,5.714813246698027,4.929573799875524
-42.0,-6.283840605780458,3.575868990515496,9.859709596295843,1.3838353735312428,-8.119452693025332,6.698031365587968,-0.1066232441324968,-5.833212889607831,-9.564004495338962,6.868621362658446,6.931852708382384,3.7714857045859578
-41.0,-3.183836944712023,1.2502403635538708,4.4340773082657865,0.9167273519807335,-3.7800609009899775,2.8167621926124706,-1.0280638052573203,0.0069418076463994005,-7.91673010826869,9.070077199782624,5.839365653718703,1.343596237977105
-40.0,5.501191754621205,-2.907159596890877,-8.408351351512124,-1.2700682362001288,6.982248822506591,-5.611066438666599,-1.2819311095325605,2.3008694958001152,-0.8994978860340352,-6.613712990606233,-11.021662118694888,-12.935690112667654
-39.0,15.578980092402196,4.158824077078899,-11.420156015323274,-9.842993172791678,13.52634573296613,-3.59078053306414,3.756998270521937,8.801230476874881,20.705136430952248,-7.4230978386028035,-11.137048857578087,-5.692909281561949
-38.0,-2.376946702766224,-4.249790766466199,-1.8728440636999064,3.339952093674394,-0.3041973730993668,-3.106620091541858,-2.39985054155835,14.237802029067325,7.479340853037566,-3.5104716682235195,9.244361078281063,11.044605680716097
-37.0,5.035788542208598,20.722428743027468,15.686640200818955,-12.928356751323955,-5.377207433052161,18.23198854090359,-4.966627555940855,-7.435738595313068,-9.413675634997904,-4.56841643952632,6.702155792083826,14.407811979405086
-36.0,-8.170974860416127,-2.5622124469846312,5.608762413431581,5.322537664726625,-6.861547618929054,1.4663923526186755,-7.047001211711309,-29.042501372345143,-17.628419751361616,4.603136200918435,-5.883488127000879,-5.072787508720023
-35.0,7.32046100421346,-2.265713196692872,-9.586174200906289,-2.485611561050496,8.484667989122023,-5.909027877677886,3.86970118038421,5.405484784307237,3.552303357085435,6.785110624505073,18.683077688694212,1.921816817431692
-34.0,0.47473056452362417,-6.020019549681581,-6.494750114205223,2.822513164326922,3.521167581315845,-6.244133005666065,8.909461459311018,9.973536244501462,13.072987779912221,10.612759609245767,-13.011735036378582,-6.185627882646914
-33.0,-5.2143996256658625,-2.4848382300644207,2.7295613956013893,3.8285740975888087,-4.007615050874574,0.1341545724539266,-6.443320945791167,4.776756999017949,4.224159342042213,1.898309183033363,-6.713785062284428,-7.302542190899079
-32.0,-11.582114462551235,-5.8387940655786235,5.743320396972583,8.695391486227846,-8.691332807624093,-0.034338037540496025,2.6332209832888767,-0.34484006621754393,-4.937771989074793,-6.993789528491161,-2.964146421503875,-3.5538863539251913
-31.0,-7.741406998832378,-3.054246943647015,4.687160055185342,5.385509017546071,-6.15847410964599,0.7562940568060029,9.72088922942989,-0.39448426651706914,-6.646975852516273,-13.410604561660882,4.984996926141945,2.7599850927541087
-30.0,5.746495958156428,-5.8227739479281215,-11.569269906084575,0.02466370161536549,8.637893051810224,-8.668652743869396,2.718298690431766,1.2044983710261061,-4.759579321499073,-7.727680356097569,-0.9610201752449514,2.550445942720836
-29.0,14.288429211941658,6.144281926844223,-8.144147285097448,-10.234628416726196,11.196079670371327,-0.9607782015280802,-7.260060734897436,-2.1593965774361887,-0.07768985504105252,5.215962410241166,-0.26552182559277226,2.276062360229168
-28.0,7.798370739743347,10.398965521998655,2.600594782255345,-9.045670198384673,2.576114418909637,6.473761874298146,-12.30017489338065,0.6387504140751068,10.359531109635743,15.951342055041911,1.4253485719812253,2.60104632519807
-27.0,-6.654078805781705,2.3504274876494495,9.004506293431252,2.1958454146573025,-7.855077036183136,5.665096638299749,0.8308256253501707,-2.7960441337584587,4.934835085963971,5.58694833827584,5.6015406261954,4.394588156034107
-26.0,-1.702113546951937,9.66402472948582,11.366138276437852,-4.025099027325315,-6.482421492774058,10.514466077267953,-2.876530995472341,-2.2561934179648895,-2.189658717930735,-3.342300123489319,-0.514199442581619,-3.195884336777628
-25.0,-3.6049369891674434,-1.5829902505698192,2.0219467385976397,2.5409171231921364,-2.7598516307225753,0.2268438534411059,8.203618894540892,-1.5762975362188378,-3.6233906091422394,-6.116522009751809,0.43937657610000336,-0.28483662468693405
-24.0,-2.058192712319263,-2.1702631586696355,-0.1120704463504541,2.1325461228815072,-0.9934130312681835,-1.1311034372321904,8.268992276626818,5.740203131900051,-8.773830762509228,-11.478366240275948,-4.243442534383155,-0.730670231892061
-23.0,2.831207094444315,-9.557550917897483,-12.388758012341913,3.3766922853877386,7.595486539376915,-10.966563263898927,1.0597995948948586,6.651193137513257,1.3990744775799282,-3.7615809225163925,-2.8103748865042495,-1.7336377646500396
-22.0,1.0645167862465315,-14.529366002411574,-15.593882788658142,6.744525269126879,8.318923453060119,-15.064673616088456,-2.5113893596453183,-1.4550042929508842,3.611278978455764,4.8853896661727525,-1.0836381205401597,-5.916016437875387
-21.0,-2.573442021102371,-5.607323391267718,-3.033881370165326,4.1044881397360555,0.22030053180965803,-4.338324908752203,-8.301723252525576,-11.168407306464154,1.0733719932078183,9.834190694708616,2.531200404084684,1.3774509381115339
-20.0,3.936997944982515,13.812062940704857,9.875064995722411,-8.855904698840517,-2.983165234797602,11.808461571015687,-5.143774593423131,-7.835930287989714,-0.8206239229178087,7.070613648606979,1.7915732013600225,5.341204965459105
-19.0,-10.78135391849683,9.640859385446886,20.422213303943735,0.5155480514388229,-15.623512246455263,15.058279379348349,5.456705117172124,2.5501479687283632,3.139917708603299,3.3096459363507047,1.4975320922252278,-0.5651285256254144
-18.0,5.287675537824008,6.452529054652201,1.1648535168281704,-5.841422611338119,2.110070040025991,3.8222654324500898,4.425137360800246,17.04472567137318,3.9391135425871724,-3.669999962876654,3.6227899319284638,1.1673608119073624
-17.0,-3.8688664881505614,-13.359293231411822,-9.490426743261322,8.56668782333044,2.774528425508097,-11.41836937986671,6.864522429542257,6.22337675938268,-1.0346365515329365,-9.598500949695946,-4.775876421645882,-2.5072613019367793
-16.0,6.956600377185858,-1.028845630168469,-7.98544600735442,-2.93206637788163,7.511629449381346,-4.500995606838826,-3.3617749817890306,-0.8277830506379513,6.992663891397327,-3.910763493562105,-3.290385059585686,1.605069240872967
-15.0,14.11326929942462,13.342774232160744,-0.7704950672639592,-13.697461699378918,7.485161257220234,6.297456609316293,-12.041785331437689,-13.016430503289675,-15.788828082560853,-1.0551981960895125,-2.04422309351908,0.6324183188102482
-14.0,2.007412314676748,0.34292799607700974,-1.664484318599753,-1.2253678292626646,1.8061457691145524,-0.6414122600669854,-2.6134186063165306,-2.8226859707281386,0.1320419484653481,4.027202362210762,3.9817835515103863,1.9582608899761165
-13.0,-16.296489722448065,-8.126558848594684,8.169930873853417,12.238261802142748,-12.257035149675367,-0.02974539884175209,5.249550450287272,-11.414326971119175,-0.24341551723709176,3.594277094170536,3.3686724672198336,-0.9264926574464546
-12.0,-14.09163786047737,-4.9735039046702205,9.118133955807277,9.558332819704138,-11.624986816997605,2.026544400743066,8.348629750385472,4.540895292128109,-0.26838057120358116,-0.46540792202017567,1.6732266218751404,-2.5807831202683844
-11.0,5.384965578391958,-11.438149767087314,-16.82311534547911,2.973685481552933,11.084084388983893,-14.094989800718114,6.698461720909682,16.543109998878837,-5.075833406526359,-10.8758908472303,-10.217575851792406,-9.288149747477947
-10.0,11.586907661237857,9.581076436845738,-2.0058312243919936,-10.557170786711339,6.852108627233684,3.8236687375265346,-3.462516398960935,11.353556717080373,5.785472874491694,2.8549056303527713,0.1580620160503985,-1.256941402695423
-9.0,-2.4781814647115183,9.222792424533996,11.70097388924551,-3.343970189404316,-7.1170750396177604,10.418803858111984,-4.665451600432607,-7.00443052936673,10.551133193906043,13.74422463997577,7.627935627038018,7.260063099285148
-8.0,-7.52289234005239,-4.9864994570488514,2.53639288300345,6.206015201208279,-5.060766881518082,-1.1892181222468454,-0.6578193045231124,-2.5863243280241663,15.070281393413456,2.962907295509228,-2.2362107095951185,7.667246296496051
-7.0,-2.783822057045799,-3.019411071681261,-0.235589014635605,2.9336061917177108,-1.227466097249462,-1.5904476043308473,-6.129120711281244,-9.441023864226832,-11.617471502805587,-8.385873360921483,3.6521784234530363,9.914134629222984
-6.0,11.857256498595945,11.222925731455959,-0.6343307671401567,-11.584362622012717,6.294619015043043,5.254456747386765,-4.8276074061959635,-8.713251322710718,-11.355376428102915,-3.820386858495972,3.54007143001748,4.307587940791949
-5.0,20.452915324678397,2.4321009288413578,-18.020814395837164,-11.404256558193238,19.21124688182332,-7.832660217090445,-4.688923480026524,-2.0242508140468116,-15.31397384909572,-5.4729360631378565,-9.876390640580489,-19.350588351411986
-4.0,-7.941608398550894,-8.014221700969419,-0.07261330241849784,7.943193856421253,-3.955702457153693,-4.002652717328564,2.966191040053789,-8.00510391527611,-3.0460010711273524,4.133537455453058,-3.8532072064045777,-12.278342920549532
-3.0,-9.39227399376955,2.3965187989585575,11.788792792728207,3.549950153611197,-10.609214530873036,7.053398488905048,12.397607036822905,10.033502489622059,7.692527852805983,15.909681191374972,15.611859521713306,11.120138939580404
-2.0,-10.053890264615106,-3.7136251500537103,6.340265114561549,6.866819912007203,-8.216085206287861,1.3502368289317432,9.478170607150163,10.850319265950414,14.00305834931966,1.4745800975264824,-1.4736191381124142,-1.7594659812365716
-1.0,-21.46296787164464,-13.859526729035677,7.60344114260908,17.65425897180057,-14.554907201725982,-3.094207301544513,15.830238517918424,15.441735569240853,12.065336708465196,-14.581550121781927,-14.057355146784285,-8.553731730877914
0.0,-1.7435905056342147,-0.4372680992651192,1.3063224063693544,1.0914829287938268,-1.4714461738288014,0.3871013644568561,-8.810161673925613,18.245534547347393,15.705174552051899,-0.8124315927114889,1.4342542568132872,16.70068229448167
1.0,26.955695331781047,9.780790514809253,-17.174904816971566,-18.363242443087643,22.116090576949873,-3.745300554345663,-26.653597104629373,-12.273885402369224,-0.421189225393348,5.59818453851989,4.353477872016589,3.131483624091169
2.0,23.15776897416778,17.030522619552087,-6.1272463546156635,-20.09089073030828,14.613599953181051,5.483887802559657,-13.356526024853107,-18.709988816943227,-30.401376422259133,-2.2293429751640135,1.3831847311226464,-9.118225520994141
3.0,2.0915930898344754,7.277366739548844,5.185773649714406,-4.68908613953316,-1.5751985045262913,6.2682848782010225,-5.867809295609833,-31.10767300272033,-39.799345190937196,-11.139872073116454,4.870834828119946,9.317823688759118
4.0,4.335705817329304,-2.710709405978088,-7.046415223307376,-0.8299917328517554,5.6648258000982,-4.835604191243725,13.331259612070074,-1.724027193561696,5.515476329985564,-11.239139086262213,-0.7174392991053962,1.8725642963587132
5.0,-31.07966624085616,-37.8980927041672,-6.818426463310975,34.45600572402172,-12.075911183158798,-22.388022972448578,33.290084080249294,29.418602898735394,27.260053701700727,-7.473022461486539,-19.29749353278126,-19.845366443561915
6.0,-23.86061816394742,-14.335868382041271,9.524749781906102,19.12963927101296,-16.714625755050307,-2.4318299564755046,4.077888707125238,-0.966662733084469,15.87831735421801,16.711839097121917,-4.814670781716028,-8.904598498721212
7.0,-1.1507937398914159,18.431779046930323,19.5825727868216,-8.619421814962266,-10.386575974617916,18.980318874273536,-5.286815788869865,-6.14344335919628,17.803905381521602,37.7792244634098,20.664799192705104,17.055145983271803
8.0,15.715097075724177,45.102638802348885,29.387541726624583,-30.391898250774194,-6.853772333049296,37.21364570351335,-14.219395082190573,1.594578003845203,8.788009573524409,29.43213107330672,27.66649171011241,22.30176674032468
9.0,6.043980531845282,-5.696989279394842,-11.740969811240165,-0.15414773560519635,8.95661386360447,-8.678515249825866,-3.3460085280080047,29.10340881938427,-17.88535769014263,-34.66164485795543,-15.199988201064443,-8.369763941482335
10.0,24.38481755942373,-36.120874724223306,-60.50569228364697,5.815993842283621,42.434069253006555,-48.27928194456829,-7.458344452312311,34.06280321806413,-13.215429630948599,-50.22038987990418,-32.7085324813773,-27.24518432268905
11.0,19.590692265976692,4.071373855336439,-15.519318410639944,-11.873306940049497,17.547048873938394,-5.693681064494978,-12.118970027697317,-19.414521889860573,-17.925034801436063,-5.076430771032538,7.667395131520571,7.198368023155924
12.0,-16.850460818506356,27.354544041796938,44.205004860303546,-5.20630945236867,-30.53371853777584,35.73160107680596,-13.533145722437729,-71.45221173900205,-13.954023547818208,31.58959235623421,25.129284492437115,16.354782814834934
13.0,-44.63533259789424,1.7650898116016949,46.40042240949612,21.487030721065928,-45.524124672130945,24.038703256430622,21.53757292948258,-41.798064207018285,-31.77916795848786,14.902246748622584,-1.3085730458407276,-2.041335307105004
14.0,-12.377681033379407,-18.631130818801182,-6.253449785421708,15.478846584571832,-3.0712734283259167,-12.400989652645999,29.93571897912307,11.747977132841072,8.846390101932384,1.9504510482474569,-6.684812914378021,2.5129078215046454
15.0,-1.60051296355517,-29.572885040775983,-27.972372077220918,15.556859068035049,13.171571145217523,-28.724364510111478,26.845395821655714,42.22673022355249,18.034217179559537,-21.233192066351357,-13.710442258946296,-8.231595671059594
16.0,42.10760859316082,1.9020900781613097,-40.20551851499963,-22.043718780211876,41.21448562731958,-19.177248832554803,-19.49771901162075,56.236929917628515,60.743290510798,-15.532139756389492,-8.529019872767163,-9.869478632224917
17.0,46.046585456257795,25.220628042181428,-20.825957414076377,-35.60523297695834,33.409042403573224,2.172783697048514,-35.47692629126014,43.930622268690335,77.63476198942237,16.43721646542709,4.646791196387488,-3.3145924275170695
18.0,-2.915384816431967,10.82648647987342,13.741871296305522,-3.9380200432971684,-8.36092833271781,12.255810756220567,-12.085965864944772,-0.8649157559193288,27.17909260307501,28.373643674562135,11.424436761104031,7.722310403792516
19.0,-40.38127060850073,1.5709674132352305,41.952238021736164,19.415505154002368,-41.123178488834895,21.804095485776195,6.031910343576371,-45.04562163430156,-33.37133149473419,24.434342489243694,15.56532307859067,13.382987292582863
20.0,-41.47948349324513,-8.403528060220314,33.075955433025115,24.95023971309706,-37.31332228470201,12.29014041596382,16.780253675521465,-62.55463339001321,-115.03926409139908,-31.24506594639104,-4.7712852600685665,-1.3358001878018682
21.0,5.215397923282541,1.5911466135950318,-3.624251309687285,-3.3903169056603204,4.464498623193858,-0.9927818713667635,-4.195601834598218,-32.67465366613487,-103.4230625036364,-39.940988864753244,-14.560058286460876,-8.847195343440267
22.0,14.248756984039355,-0.709918810800958,-14.958675794840234,-6.826356878007482,14.571964233022227,-7.816035317884117,-3.2180631380027425,1.869539025700739,-20.940812544645297,-14.023451460678158,1.0922794238239861,-0.1860785706207846
23.0,26.859752961733104,5.874001113713719,-20.98575184801966,-16.33370683017671,23.971382031039532,-7.538510685918819,-4.83174728295403,28.663847186702196,55.96146917408216,13.522551945364036,2.5884840711534123,5.461993527650401
24.0,4.253847119044348,-3.0009781969451224,-7.254825315989869,-0.6605462938722297,5.72391895905367,-5.107287284797668,5.780465254005246,35.31091007201586,81.7419465829971,20.059145951981407,2.577474123094108,3.949508619007217
25.0,-23.8379080377815,-18.838871492929226,4.99903654485194,21.392488495016103,-14.451466263899235,-6.972473228713487,17.024675595218053,16.499021834103296,48.71756045161618,11.487906198046826,-0.9636642369995299,-0.3585263615182579
26.0,-9.09950707621863,-11.104849502607376,-2.005342426388798,10.083472829970404,-3.584055828114673,-6.523252300324899,14.730460476666797,11.136975336170956,6.316953302089573,2.904289819072236,-6.213414494467916,-6.935725871765479
27.0,8.576962156090534,-0.37303402012855114,-8.949996176218793,-4.118925429261671,8.801721673877413,-4.704360186562957,-2.7230937296362665,-5.558858714782268,0.8603405169188463,1.4853554576195576,-2.13367044199006,-12.94594279755584
28.0,6.268128743939597,13.490713849926252,7.2225851059871005,-9.898595495878842,-0.44010789485205154,10.315875564597745,-13.941632900446123,-10.848267151461009,-15.582550914804877,6.700989382334978,2.5134267669018064,-2.8806156856336447
29.0,9.36880636795212,26.459414614207667,17.090608246255872,-17.859581037628995,-3.8214164685655727,21.813850665249262,-22.39346276907533,-10.652444668858333,-24.739504328008366,-5.555061842237519,9.676376854338333,5.638769159697707
30.0,16.37080436459739,29.860376473697723,13.489572109100418,-23.14595831739591,1.406841731358404,21.714698122232665,-17.08918851431411,-8.59906192665159,-18.874352099795367,-8.041812932945207,7.641751311177601,17.629664242890435
31.0,-1.8153982155699975,-12.141511848023553,-10.32611363245369,6.942739828372323,4.228660130517497,-11.192431076308917,6.261834327876211,-5.253914731160629,-14.995081102270749,-10.842924609289563,-2.6016821486484023,13.39916777590453
32.0,-15.427852685125785,-46.88153620203442,-31.45368351690884,31.194742662013205,7.992980367660604,-39.202764366515176,19.08107043927628,-4.032697066177623,-0.08791403515330387,-3.3987599132756774,-9.306907248640819,-6.694710757516643
33.0,-19.298695305758184,-25.457895694033212,-6.159200388275234,22.418484241084634,-6.584667316695656,-15.841865599835712,15.902324920153585,4.221952907531003,2.8401245597565206,-2.1640061483358197,-7.40729831600259,-10.950650017234148
34.0,-12.69971544267685,6.577253968723664,19.27696941140056,3.0256778080550077,-15.92183253405619,12.894351217136059,5.695953990756905,0.410068499559725,7.334825442304927,6.593255559161752,-2.8105042198074166,-11.383816911352785
35.0,8.755907755005284,17.036122910159786,8.28021515515455,-12.926844179433964,0.22610169511997746,12.703209719179126,-4.6626107747819745,5.376390284669648,6.357541198902577,1.6722707801502992,-6.06550174835675,-9.955791481917588
36.0,12.812432073308024,24.81265399661062,12.000221923302657,-18.75976580317017,0.39325519624659344,18.370834114489718,-11.303859122188825,11.11652048984865,11.646724647852288,4.636387514729061,10.085357614347688,9.575375141691602
37.0,10.585540349782104,20.285702614595188,9.700162264813203,-15.458044071769468,0.4279055670313463,15.034165037944767,-6.64793807261013,3.33536367837585,5.149971085138045,8.258693781278993,16.150512817917935,14.656915652101908
38.0,0.22318326152101342,-4.058346416783298,-4.281529678304243,1.89657896346775,2.2356266461459446,-4.12992821182493,-2.186339339326789,-1.7782599886185735,-1.379894566179364,3.03179703874936,10.190552018718266,4.943082466205472
39.0,-1.9535676333789112,-13.932055473875241,-11.978487840496314,7.921094254634338,5.073229533150929,-12.994380403785728,0.42549616661985556,-5.578046097694915,-5.15480506300638,-2.7522817859233353,-5.4704043124772195,-3.2432260663420758
40.0,2.1936964792874365,-13.473550089278785,-15.667246568566252,5.694796745282158,8.912362520819727,-14.60929789799063,-1.007009955026211,-10.10430671603927,-1.3696934465312722,-7.832727070874222,-17.11791166158292,-8.369128633190508
41.0,-6.36860918304131,-21.273236504215546,-14.904627321174331,13.794407947791708,4.250940569705706,-18.048624914626096,8.284215609564189,-0.7889221037685701,-8.521782495552685,-7.723130698008303,-15.365849501989047,-7.621496566499243
42.0,-10.179567522236361,-5.877309328423616,4.302258193812645,8.078390293041743,-7.256072284427776,-0.8253204177115387,14.379752448060374,5.5979135649179685,-1.9059498753457023,0.17227284506324825,4.408792249127169,-0.061235272079512626
43.0,6.288957066429098,11.194483925679197,4.905526859250036,-8.77199910424795,0.678761804235176,8.092064497231615,5.746326118350716,12.446694669029515,-1.3158237711071505,0.6267929086254016,5.033044371586503,3.6433089379646733
44.0,0.6566576357205562,5.023493631258264,4.3668359955377305,-2.870882929179892,-1.7876170231647288,4.660402797488015,-3.14660158383204,2.1474359813261117,4.352420368228898,-6.667393196220123,-0.0892095777584947,-1.8635310689520135
45.0,2.899451960416056,22.27378475064646,19.374332790230543,-12.61698541930059,-8.248640680077118,20.870977951018677,-24.905440209469468,-8.672970555765335,6.951531179012534,10.138107461559098,12.929982635828907,11.788739912544544
46.0,3.673418656300635,22.23533506951282,18.561916413212362,-12.904694942553544,-7.458071415254601,20.3705176872212,-22.150272934018886,-13.31474096424524,4.172892501311404,13.475573790889126,14.240871039382561,12.426610850827345
47.0,8.858880724015908,2.058813246107336,-6.800067477908442,-5.407450949454753,7.809645307931434,-2.3948241332393323,-2.562870617967028,-6.242354056141805,1.0900498352605204,3.9340416979319253,-0.4423740387627042,0.15779398663168376
48.0,-11.490304664821085,-22.257937028280136,-10.767632363458993,16.847971955763484,-0.3903364677066632,-16.45495469652076,22.038439025606202,2.3906577795821526,-5.8100326438383245,-9.226241856193434,-13.441314153130268,-14.78296433695652
49.0,-5.324727303922993,-25.05977827481898,-19.735050970896097,15.165619233339005,7.243877649736971,-22.416450759312717,24.89656770884214,10.96463614200536,-11.452890278284793,-11.291423428261979,-16.80021608636176,-11.044453500263643
50.0,-4.847303066639511,-13.332609755847065,-8.485306689207768,9.06029228786467,1.8469252262152018,-10.927887949854062,13.46222462001925,11.245694738549084,-2.0785309360220916,-2.6637314179244687,-3.5384496141266535,-5.078181616375867
51.0,1.3678156370356922,2.69124631194272,1.3234306749068647,-1.9859831241975607,-0.03690061271619438,1.9869476817116363,-4.1845181996091245,5.007167120246423,4.194107394158535,4.280631695751045,2.9629453042348723,-1.396853454173887
52.0,0.17923417362345528,6.873299475754357,6.694065302130815,-3.568408884065214,-3.2417324178944025,6.761014932447599,-12.107390328278061,-4.213859889585718,2.9121334170252067,2.3167886522290724,7.174707899380317,1.5356110598837405
53.0,0.5642768228850432,11.585828905829159,11.021552082944128,-6.044943426299332,-5.2119604993102575,11.357559177158668,-14.590091021720976,-7.470877368512451,11.259318374598257,4.428397582598524,7.176172259325879,9.912215957555905
54.0,2.717338890840399,20.51023435526624,17.7928954644259,-11.587801612559936,-7.51585746784705,19.20370100975508,-10.523321411733683,-9.180234971380397,4.136401007079894,3.8185008799449474,8.550602444506257,14.822277389885002
55.0,13.394146053914778,8.852810311260516,-4.54133574265423,-11.176646573585517,8.997188861129263,2.1275090828907572,-5.624854506992497,-0.025540821399690827,-5.579243939805944,-4.63973562248275,-2.318182170567045,4.5327596401153025
56.0,3.103368975585716,-13.459557145595461,-16.56292612118117,5.207290642490968,9.791131774937138,-15.041839728799234,3.3735418827797594,1.626876695090398,-9.226089015502234,-7.320501625026705,-6.671478990050167,-6.237643591231054
57.0,1.4978462302823539,-14.463632380143688,-15.961478610426097,6.518839187220481,8.692654600942562,-15.24692179933235,15.412699432910884,9.835440340269962,-2.686237487927867,-1.3825909991611218,-3.271158705741496,-5.935926898081811
58.0,-10.992861710255536,-5.010020607927601,5.982841102327853,7.96668741931605,-8.522794176360119,0.5259138672853911,11.592273980974058,1.404878366852988,1.1184443466494525,0.8350454022633447,-3.043668439597927,-7.447114202691347
59.0,-15.888451185150519,4.368434637490637,20.2568858226411,5.732366942394017,-18.02884249409013,12.268795146328014,-0.6978787352335054,-4.539711935847965,1.308210897091012,5.308198478508809,-1.0771801921535564,-6.018617562246467
60.0,-1.9211038205092041,4.842636179516178,6.76374000002533,-1.4054191491383836,-4.29881737735115,5.83566815845489,-5.584408263345233,-7.304843553295305,1.8880653811809078,5.250256242239491,4.323768595096169,2.595258363850517
61.0,7.834018588598919,3.0289478654071127,-4.805070723191773,-5.454518723819618,6.285557369933679,-0.8541454601649265,-9.08068266269427,-2.065884202272579,2.76074815454853,1.8130472221847056,3.8054763215106737,1.9312422656401413
62.0,14.481851349496042,-1.0574713685153085,-15.539322718011316,-6.738420920464272,15.058425672475092,-8.337500485233464,-1.3253289204112235,4.857020268885569,1.454692057941685,0.740576880044747,2.1555288450410655,5.204207210077492
63.0,-0.4411304411714596,-7.667094053066684,-7.225963611895194,4.022685655799405,3.3657019880808754,-7.39796212102617,4.248965401334569,5.579791040684831,-2.0723247861111185,-6.826463368270771,-6.887855279981833,-1.8665646309146346
64.0,-10.691816967291896,-1.3212280738383604,9.37058889345352,6.048928367165592,-10.054320636277826,4.004199143620305,5.757155768951141,6.588830001548262,-0.20087250148307345,0.845752633605307,4.149977810190366,7.311793739028854
65.0,3.1258427087351492,4.740288207272145,1.6144454985369583,-3.8932202817908617,0.7336956194533917,3.1644614631876777,-0.03965583985397014,1.5203222841714048,1.6936552229569586,-1.732202515961201,-1.7209987539305187,1.4436464134611997
66.0,-10.349735699489052,-2.7641881167981417,7.585547582690891,6.5188178954997325,-8.913595040341455,2.4008441160767244,1.9834596860045108,-5.932378575168742,0.8668114409570409,-1.9007007476749367,-3.207621165015614,-5.639162781768968
67.0,11.418773589446184,7.530106089498946,-3.8886674999472834,-9.43035551877125,7.622131771257838,1.808433895380701,-11.331488480886412,-7.014245509653282,1.1823964677306542,-1.6767531716878843,3.3441189242323706,-0.18270447217196661
68.0,7.442882466650634,-0.9797320944669878,-8.42261456111768,-3.2619791566114786,7.969544298540689,-4.720765398319902,-1.3906729597669991,-7.4225090445522115,-8.003779662328606,-4.218453108093905,-3.6999164034781926,-2.6430401332105977
69.0,-4.412296538194499,0.6598493055030301,5.072145843697471,1.8484062957859768,-4.796331228217046,2.9150175528870212,5.59045250565687,-2.91920956473165,-6.770499297540914,-0.05619582827896563,-2.91691357317896,-5.179489283638348
70.0,-2.2931619084516504,-4.584008524836617,-2.290846616385023,3.488457054503778,0.011947889744384987,-3.3987149682801348,0.5598790483993077,8.393359414595364,-0.6902441845863416,3.2046204868094144,2.7019883705111383,-3.0103407120549495
71.0,-5.984321181507434,-1.969259670529714,4.015061510977684,3.942537160231463,-4.9948515994145835,0.9749216198706714,-0.8663366849404883,8.852129268541583,7.514287715791942,8.80630648179931,5.85562545603663,2.4155950360787948
72.0,2.0704893448737964,10.038478854659083,7.967989509785274,-6.097448883256052,-2.946724128565031,8.951547539407562,-1.9883712915331522,2.3991303420822696,9.223937735370779,6.470163465957359,5.673033052436125,9.915090645717783
73.0,-1.5002050258453807,4.779124691988022,6.279329717833443,-1.6133872217340732,-3.884121918865462,5.5576769606370595,0.23040841062563966,-3.8012302941363925,5.8454373328939795,0.31287075345009585,1.451822264116577,10.303655578938603
74.0,12.311189472435961,-1.8674547792245522,-14.178644251660373,-5.203688167376037,13.259902213392945,-7.988564345203227,4.884291470092549,5.183075159511684,2.1599009012194514,-0.9828420337293426,-3.490672367843727,0.05587473538416088
75.0,-5.377064693703035,-22.047963291939645,-16.67089859823648,13.726767628240008,5.67456457246505,-19.31617918241005,4.358951647711354,-8.223092570044766,-10.094568079788777,-11.032084048766418,-11.392293434976338,-10.287421691188358
76.0,-14.615429513237345,-1.7505902097070365,12.864839303530312,8.19785329840863,-13.778731697152818,5.530008222954744,0.9310859202795658,-5.732872129207671,-10.002447815172287,-2.8981256668960222,-10.0448240057185,-11.315331215923251
77.0,2.5227899095653736,1.4054008221566048,-1.1173890874088546,-1.945440737169271,1.790325940293373,0.12148570539779624,-5.298826043949311,3.6250975262287923,-4.330378867573003,-4.031474848866892,4.651605269617545,-2.557952213989286
78.0,5.508832159194051,8.77171215980467,3.2628800006104726,-7.1958827037276505,1.174696939879717,5.993187638794307,-4.595023180674218,3.3806942976982968,1.7031077216587298,-1.714267237341827,20.855527922981345,3.7454072970080277
79.0,11.65959575125932,14.058670023243668,2.3990742719842397,-12.833493149129394,4.599308107527447,8.196631451016078,-1.3870143832121022,-2.307078891285683,8.941741042452296,8.474961820550426,-2.0802023695066385,10.8892634617263
80.0,6.496012880908108,-0.6500892085146424,-7.146102089422765,-2.9771649599913212,6.781016050556288,-3.8643611445752124,-1.6614306906141962,-0.7049114802823826,4.006117250902683,4.837790730508675,-6.752288491727691,1.9666068467528026
81.0,-9.640537020595012,-3.830384280769438,5.810152739825671,6.755412713430998,-7.697829772458274,1.0096465917571587,0.08855684112833284,-1.219804130812,2.732547845419707,1.6823366841763168,-3.359453155259655,-3.1345467543927343
82.0,-20.460377473663176,-6.450938131248027,14.009439342415382,13.469192486426504,-17.217087320115102,3.787551832134854,9.65527074077917,0.9445841135308692,-5.370882574659474,1.4522003995169595,-2.61794058050341,-9.098467799642954
83.0,8.41648435669231,9.273680130463534,0.8571957737714766,-8.837269606507284,3.792187161815641,5.067528142138134,-5.567633665256064,4.116283408400024,-4.012964453995317,-4.310872471630828,0.47241628094362653,-0.14169294048580783
84.0,11.352786071815089,6.1545779579771835,-5.19820811383774,-8.74853198607278,8.288453894033328,0.48038329546665515,6.360103200393153,1.735401894502943,-2.750548641081549,-11.661133831294054,3.135423796329607,4.764089172433683
85.0,1.6594559659491486,-6.651647411051936,-8.311103377001094,2.5030534671036784,5.003707376072173,-7.473371838880181,-2.7772650057129065,-3.6935268718684426,2.8597122243586277,2.565304539550663,4.537918153799749,9.18871579205014
86.0,-2.612561465716794,-23.719900976869962,-21.107339511153317,13.179586231360659,9.195532134723349,-22.474686966866834,-2.736434374647223,0.3812278464929926,6.687020828066889,8.63053319321031,3.7426166914377963,4.367297979308942
87.0,-7.519681227525925,-19.9626509190866,-12.442969691560933,13.685728920111307,2.41868993223925,-16.17391896366793,0.9390004085983708,2.5007057180014076,3.3847288672256832,7.679315593454147,-1.4476492914860142,-2.808427230128085
88.0,-6.709315757611198,14.105335943013232,20.814651700624204,-3.662913198837918,-13.719022067160553,17.499323207682615,0.12577091760080905,-2.880347956665557,-4.117197339832687,-0.3424365171407744,-5.463636383202729,-7.941865021504452
89.0,3.230109725378568,31.740119649859317,28.510009924480602,-17.517108033726245,-12.592880887991718,30.093424310954592,-2.3763821864148644,-4.064397863397422,-7.119096341720479,-8.491284584326696,-6.865256180005246,-10.089263169269323
90.0,16.80636280267188,14.572777439593404,-2.2335853630784843,-15.633065442168295,9.488944963913157,6.141811782636136,-1.9108277904295523,1.0537216821592146,-1.9821972369963663,-8.089100433461786,-4.576635679598569,-4.538103554807215
91.0,2.800281065826967,-3.2477751500569223,-6.048056215883825,0.20799805624567202,4.390780034367445,-4.597542815873098,3.3280545713305174,3.124924218947679,2.4452509728272784,1.891368360266691,8.069728149079532,6.462966850488229
92.0,-14.008017569638943,-20.201954324763886,-6.193936755124845,17.091863922798222,-3.8658632698026456,-13.231131672300668,7.709985078582665,1.6333670279688075,5.6467128045427195,4.357913683947913,7.864463567078458,10.378759889240023
93.0,-1.529342355785869,-5.622389770975213,-4.0930474151892335,3.5618456271732857,1.2400025498271858,-4.820275065414817,-3.1117715471216654,1.6961551421197714,2.1575467967564754,3.39502617262151,1.3299599115848935,1.0537324014542842
94.0,10.394186657908861,1.8836756182168912,-8.510511039691885,-6.156057492149298,9.486755764630912,-3.364733388468272,-11.571126496675907,-4.241398094037166,-2.5908687653919276,-2.056973628659784,-4.739056881213882,-3.1704502204715577
95.0,-9.981400638989376,0.5467403285196668,10.528140967509076,4.696761983595717,-10.298379425229065,5.5547032177503,0.928897155744135,-2.0847086263498453,-2.386022419072437,2.409262634037657,0.16829740017304617,1.0422017351763362
96.0,-10.415404967454474,0.40267310032759096,10.818078067782023,5.062363022385123,-10.577217329860227,5.619029588143426,6.233456884524778,-0.05049102997936761,-2.538568543566426,1.0295500592817386,-0.33905852829483574,2.1183305782030053
97.0,6.756659666228975,-2.1966979855165834,-8.953357651745605,-2.2244776619048725,7.901613819226051,-5.572070323497564,3.5025323345531745,1.9976420794896868,-1.663580954582542,-7.298485792155978,-6.42985690077139,-4.565755820967002
98.0,6.255100110157557,5.278391398181898,-0.9767087119756747,-5.789889188611417,3.5913714136385497,2.1516583239090807,-3.2718020695354637,-0.7558961918155456,-0.4609686362243389,2.153883896745497,0.3916571535428237,-0.22318790167689873
99.0,5.706723100455097,-3.0354167056850487,-8.742139806140115,-1.3602062996386168,7.205411799689477,-5.88673477999235,7.9206955847519875,5.63800943161735,5.516309667507156,2.9234822597415904,1.9982185946428854,0.7674248857927837
100.0,7.099185730503255,-4.945826909763379,-12.045012640266602,-1.1060737291980773,9.554516943327892,-8.489656855331901,-6.456862206728971,2.0660136079662,5.544440131328017,0.5020047554352938,12.553206879705096,8.458942123405855
101.0,0.286869346121156,-0.5063691680072937,-0.7932385141284375,0.07158125658803705,0.5194377837853104,-0.6390076945006881,-4.293334109639678,-1.9937053964580227,0.7607126993946709,-3.1135458289918914,-6.460319431630562,-11.595666872173991
102.0,-16.103088088072404,9.849082728540761,25.952170816613197,3.1563018144493564,-21.054352820194868,17.83799826744926,1.6897204204529603,-7.716845186449939,-3.2988028107072287,-1.5403722390241574,-10.665413548090596,-8.130820516941373
103.0,-13.353737168093641,5.710985538582312,19.06472270667604,3.839734277897424,-16.163879770861495,12.40906216829536,-0.9912330336581027,-4.452916120229784,-1.8187783109085651,6.256301192765099,-1.1410876453236005,4.1427877790400505
104.0,9.01818054030373,9.375547886293878,0.3573673459902267,-9.186055007470056,4.370860983114813,4.892512339455705,-1.9062964387746923,3.200832658924257,-3.496353322245917,3.4235594247453225,18.59742538369157,14.464349896956975
105.0,13.845595778792465,-2.0925907713884375,-15.938186550180891,-5.867895716002745,14.930288360866456,-8.984428256065884,-1.8374910071563413,-0.15058778412576568,-13.32687476920192,-11.769581406284042,-3.5309332637846156,-4.071020674203101
106.0,-7.398157506249017,-30.42095254151795,-23.022795035268942,18.921415897386566,7.772162492358125,-26.764389933307616,12.58114810340443,9.816483577368587,12.639711095382127,3.9477937939297183,-9.845955742820099,-5.4422449840234925
107.0,1.5424053714287846,-10.515142232630799,-12.0575476040596,4.505293176564523,6.760656889627516,-11.323077008243411,1.9538881611411991,6.73385419153516,10.149454496850943,4.128833550154079,-1.0421499204651572,0.16469949717842614
108.0,7.65758481725649,15.477346320465426,7.819761503208941,-11.618988677579377,-0.12045194236847401,11.696751552734144,-9.837353898832307,-3.4743508361327025,1.0637371500678015,-5.270565297026968,1.365285208300512,0.3373190458640569
109.0,-2.2234703038420656,22.50879080225756,24.73226110609966,-10.186993834223472,-13.439953998655403,23.596053521652422,-2.031261405012641,-14.412795191844655,-9.791755106795165,1.6631434428879122,6.081780016510177,9.602981136214915
110.0,-12.241128984270446,-1.1441125468696107,11.097016437400882,6.731878924579959,-11.633493865304255,5.035720181962256,-2.228386622882718,-1.6540623871364062,-4.276890249489716,-0.12276649994096966,-2.673458705385124,-5.615534043116701
111.0,-1.837862384668882,-17.92987840919205,-16.092016024523097,9.925762164000528,7.081906382587114,-17.027902736365473,8.364712045840392,4.362896033640309,3.395109617086749,1.623445211356592,-3.9839458589445074,-6.8580889551644955
112.0,4.963425568572472,-3.1425066002345776,-8.105932168806945,-0.9457407010400827,6.567682134216935,-5.6423982189954165,3.634484463677278,7.200964145249142,0.6647089934173736,-2.873381474330594,2.6729083687545887,-0.5124245202191142
113.0,3.273834211131234,10.187079786631834,6.913245575500621,-6.763739492977816,-1.7853829820275782,8.526516287874905,-4.416054761826813,0.07869156553415557,3.499110259036186,-0.48954303726492515,2.8883246055906304,3.2323669668382893
114.0,7.3851960029412895,14.455413529192219,7.070217526250838,-10.871335192583429,0.11602988993344665,10.730273075641666,-6.76171960051924,-2.6076077063286336,0.4079777030268721,2.479275561971168,2.5904297531021743,6.167454230757557
115.0,-1.250902188134548,-2.907410895721524,-1.656508707587172,2.05447007341065,0.16525903749063042,-2.2460026828885185,-1.6261255009989988,-11.710850262504568,-4.908623945801194,2.136725290042226,-5.779305816334494,-1.5668824026215233
116.0,-3.3751476926965602,-6.982141304936234,-3.6069936122398665,5.238192755014791,0.1612364686560154,-5.267571462134239,1.7989581602935252,9.329906797737383,4.26062987855999,3.905281117899714,2.0223893048986166,-0.8431739598062081
117.0,-3.4568258318252525,-13.237899110115922,-9.78107327829078,8.331765172864337,3.1324483242722754,-11.48793218929945,5.533284788265962,7.690446692454868,-3.3931608662570936,-6.066511481683909,-3.380035995625052,-4.157371851772594
118.0,-0.33217734056231896,2.059279768353634,2.391457108915979,-0.8799487119717977,-1.3096092938402606,2.1672917806932963,-0.7172687615348958,-1.702395455018515,5.21079418140296,-1.0690804422447098,-1.5851601262183004,-3.4794800296149857
119.0,-6.9199247047646395,-1.5035920579396018,5.416332646825197,4.188551143308734,-6.192257133543856,1.9803270196060518,4.23503111738414,-4.169391906392714,0.25657885426456406,2.2265382583617557,7.838941372458733,3.8735943944781326
120.0,-0.8059290323207569,-3.5631813307686917,-2.75725229844773,2.1488456497208093,0.9532823357084261,-3.130388456944451,1.8730354726245995,0.2199187026866274,-5.940767758161696,-6.180953005178772,-1.2759222022176209,-0.9482999799693463
121.0,6.407590304700919,-0.33329423781139944,-6.7408845425121795,-3.0097685082852372,6.553125102285101,-3.5797094502419426,-2.5345979525121822,-1.101255632836927,-0.413246593178459,4.281339162219393,-0.4596278716624328,5.922212382299685
122.0,5.668213084055388,8.7340531835329,3.065840099477433,-7.188452413109397,1.3598111241791981,5.940816942557819,-3.729436795772761,-0.8823454619737231,-2.43037442268991,-0.8064777011692121,-8.540959818089522,-2.787765739376863
123.0,8.51193923411159,15.446518982077963,6.934579747966139,-11.97589601264984,0.7692635264257089,11.154740594808048,-2.1205906603546145,0.32939504846225254,3.9904183087660776,2.8425611786640332,5.318952352373609,3.750858777877415
124.0,-3.698273174708534,4.291698073701028,7.989971248409305,-0.29419035255793347,-5.8634938342653395,6.104642354369473,-1.4989538665564193,-1.2442292644198227,0.297944371049617,3.9363192758588608,3.72125165414751,2.214762696776477
125.0,-3.681788415903867,-5.194904403587266,-1.5131159876835545,4.449491893889684,-1.026321488689047,-3.3128236557962336,-10.863551631371536,-2.3192344356994576,-1.124909432385018,-4.458017579928978,-6.650553207272613,-10.408564172190285
126.0,-10.540652273682232,-16.87647931957544,-6.335827045893252,13.736025871325975,-2.12669676714688,-11.644015888078838,17.347867808667285,3.9668421597237695,4.902424709647147,-5.880308242387714,-4.151109417635421,-5.972933903608455
127.0,-3.8088838757125734,-5.162953418697347,-1.3540695429847025,4.454717285878782,-1.2577293966679393,-3.215239361204773,4.933026582556089,-0.1834305683544608,-0.5862611994046842,0.6129702148365164,10.7171501060635,4.661392392043068
128.0,-4.020031651168977,8.837176139737787,12.857207790906937,-2.4208785128127763,-8.476881018839224,10.895740433435986,-3.8055250285642233,7.021037383735699,2.0025474890664823,9.562510112929616,17.98555648390263,16.50941449639074
129.0,17.52277602035599,6.330095717786372,-11.192680302569432,-11.925653039195176,14.389870049265575,-2.4548839010716463,-9.65707504887542,-2.42092523555536,0.7007147364426604,-2.1113117984672454,-8.863462237110006,-4.864024726833378
130.0,6.2758126944732595,-7.329772572313221,-13.605585266786363,0.5320275487899302,9.96596786557078,-10.486145496538061,5.223744124596523,0.35875077915970865,-9.419036472972614,-5.510838449509141,-20.6867035898638,-12.945917353752055
131.0,-10.631732006174676,-5.724525732475402,4.907206273699223,8.177935571078756,-7.748120048358373,-0.4263766111006597,4.08362110434681,-9.041251126591009,-9.254219735819914,-2.266204833997158,-10.784539663435448,-3.2297708762583808
132.0,1.4446879955797725,15.725649229947845,14.280961234367894,-8.598341365829691,-6.397247715712932,14.980311438978092,-6.447917120615026,-7.855860254951686,4.65992464252285,9.391091168480017,10.312020295673703,13.005283128443185
133.0,5.6766903599195295,-0.3927441026020242,-6.069434462521738,-2.672161492944974,5.8177214459310065,-3.1862191826952735,-2.336401037391589,7.096151965453567,12.962510539094625,3.37785857448074,13.169533477994435,5.138219254675285
134.0,-2.5294830703124953,-13.053884298096792,-10.52440122778443,7.8237937282678836,3.9466006486125584,-11.83700615884319,4.78718928692858,12.42865381676869,12.870850720573708,-5.766209393528166,12.179479132521127,2.824325548617334
135.0,-5.162342310670465,-9.551424078111868,-4.38908176744146,7.377284727652511,-0.35337979305776335,-6.95258100784309,6.077832238291418,14.36748169557025,0.5295387667332063,-7.476996047454232,-7.758219357805757,-9.874821771115963
136.0,-3.2367256143013328,14.28157151374137,17.518297128042704,-5.50641133245548,-10.339043244338939,15.909153759091975,-1.7801861367125587,-18.74430033118695,-29.285416759969227,3.0298880797130585,-2.455573524432369,-7.737428915565439
137.0,-0.7373333820159809,3.0467034380754185,3.7840368200915266,-1.1353637705072048,-2.2182175763063943,3.423698106101436,-4.6254634669049866,-23.92762406607031,-10.289761204628421,-4.413311268494002,-17.168630699097815,-10.220703285139358
138.0,3.713231719674785,-3.5516742251725786,-7.2649059448472935,-0.13079093782619422,5.4544360821878755,-5.392673539792051,1.8084342892978795,30.056581234820786,22.223885573032582,-1.716760693807608,-6.956284548264129,1.2820606369523957
139.0,1.0957513996189485,-1.917730302360973,-3.013481701979963,0.3737809652965136,2.0184898688723067,-2.4363629127205817,-0.6787244598075614,-7.411660552911803,5.505844819549526,7.871085864926709,14.084200360512053,12.20172166263717
140.0,0.5719270571274282,15.686547262205051,15.114620205077543,-8.074357532905088,-7.312004831127253,15.367312595428942,-6.3403462017168195,-9.277572193214521,4.412024181388403,12.632733276129288,13.339013872039526,13.235855472123848
141.0,1.530877343333512,2.3237780278077267,0.7929006844741298,-1.939601608231356,0.4007417731787247,1.5395485566191163,1.425869397297088,-2.725071257425527,-15.796929096856903,1.0647355236786709,-0.9355759668756853,8.416684106557597
142.0,0.9955973360240972,-10.93346314274271,-11.929060478766793,4.965108608012409,6.48787527607844,-11.440885585906743,1.886037969576379,14.6516197641103,-3.4457432828718417,-13.93393207979496,-2.587812370131422,-10.741708002975997
143.0,-0.12133634337299763,-6.245965038244848,-6.1246286948717685,3.1845932269062067,3.02290523905219,-6.19276386372272,3.026083123998533,4.3166388706114045,12.99873058292588,-1.8700189663251807,-0.195166890466675,-3.688724601722443
144.0,-3.7339352651232223,0.940987449872428,4.6749227149957715,1.3986873497220724,-4.18464405734175,2.7960790665604716,1.1180284172436474,-0.4600779222613851,1.1104924271463212,-7.105789205035747,-2.052047341797915,0.847025383612177
145.0,1.1304011426359692,4.6337845527624,3.503383410126529,-2.8814116272260777,-1.2443073085571275,4.12656457725736,-1.6876973491329257,-10.993588358558819,-6.208919543162187,5.212007640748583,-4.2392142576230265,-7.416231112266411
146.0,1.1419207878283473,-14.384363321245036,-15.526284109073366,6.618508777991201,8.357926391726203,-14.986714155309333,3.3442780454373358,1.2473278570539774,-4.234851097788557,1.1035652451582183,-10.292655108989925,-16.614826637297863
147.0,0.20983624359648628,-4.858462529587895,-5.068298773184471,2.3172660727026178,2.5878126206041476,-4.925895006009263,-1.0098532660834136,3.7661870775857147,12.209990894312352,8.977478793287338,-2.742127778737515,3.306181705994735
148.0,-6.741577257829981,-2.7166076329061286,4.024969624923763,4.717420277222191,-5.35195792124179,0.6053777096402664,2.8800321785777028,-2.7196474242115545,-1.3129342112318185,-0.5239523782881506,10.129649003964193,13.680791422767015
149.0,2.797962039704493,16.278765036984915,13.480802997280318,-9.475988452137226,-5.306427515340032,14.905072577136169,-2.5042501372284027,1.8416629607904964,-2.8913163946595817,4.513623226829664,25.648572415562995,13.498858969150856
150.0,7.881518168635978,25.77020211961003,17.888683950973924,-16.84722294484974,-5.0440114615393,21.852650598664717,-9.743132582415976,-1.2251135093581897,-4.560268620359377,-4.047458080664524,-10.695759520093464,0.5530646562713386
151.0,0.7777935079229659,3.77932992637138,3.0015364184482918,-2.3055572869128245,-1.0709233153841213,3.334611200928016,-1.6128273252592562,-0.3592416000456288,-4.46673317693455,-12.789339983412718,-13.04638938212921,-7.502323684166199
152.0,-9.891077411720879,-16.144482287515014,-6.253404875794198,12.98441074527203,-1.8552226963460465,-11.175329928990138,5.120322508265665,-4.57817277705961,-6.925180779666422,-9.314976500313156,-11.84972901193235,-11.180643116658974
153.0,3.8494416208047784,-14.665188879972732,-18.514630500777457,5.4466060802701,11.224162431350457,-16.565227747908903,6.008139035932693,0.6085134698198422,8.0451664598106,6.003782192521722,2.444413920194191,-0.6979140549476801
154.0,-5.971319828153601,-8.453443383661183,-2.4821235555074743,7.245192822598461,-1.783161268143317,-5.520596165275293,3.039796337985551,3.9985094161307915,8.897644721205765,14.203657707308139,15.362089101192707,11.88104026966742
155.0,5.504840122536184,1.701192018717304,-3.8036481038187224,-3.6529145674399697,4.612595829553822,-1.0237107158653167,-0.5490524583326635,3.61293367537355,7.334396248240961,8.0496513952878,1.272235097472704,-5.232741170493186
156.0,-0.39866107150177665,-0.36892314073815635,0.029737930763750198,0.41172825788162815,-0.18025559485751041,-0.13988167259255394,-3.7642988371179085,1.2283485249141968,-2.170283005801021,-1.4531825518655594,-3.572015848140429,-0.5239113236551791
157.0,7.224834261681974,12.611983043471456,5.387148781789564,-9.966500095934041,0.9507108255094512,8.953559924218542,-8.712319492195737,0.22091222530051424,-8.846841930930127,-8.189880312130098,0.6449121353672416,1.9334547947883352
158.0,-6.031193869552917,3.2466045825184793,9.277798452071462,1.4291342162016951,-7.622935830302841,6.298834064612939,6.60792398548017,4.061238548062578,1.1934600046541561,-3.396156009691781,2.03650729418581,2.2353396263342318
159.0,-1.27461707100321,-12.223465845394482,-10.948848774391182,6.794388114164217,4.791309702214748,-11.62375673459472,3.807176494250866,1.8606997312125035,-0.42208665826646197,-1.227181774096918,7.428754347850586,3.8099045607361948
160.0,4.782833398472444,15.932650570510706,11.149817172038297,-10.382309278491151,-3.226918984553768,13.587124932930262,-2.626338920672897,-29.538692718139842,1.879083926921728,9.016502035921569,-0.0728932977203719,-0.29907428632239363
161.0,-3.9779657919962825,-2.0695824879074607,1.9083833040887495,3.006008826157582,-2.9053844140282927,-0.10897087230790348,0.3333667782529249,4.900745066957812,-16.319158643533015,-10.466791645477013,-33.167448961181,-23.83601557798516
162.0,-2.174479617639708,-4.13404590037907,-1.9595662827395255,3.1393369099153134,-0.06787487149059934,-3.0713517516076068,-2.6860502050880166,15.966863393613078,3.348151803259497,-11.022539183127083,5.621363247058923,15.398323071805827
163.0,-0.3418838815974845,-1.285638467524632,-0.9437545859272705,0.7969577116020701,0.2624260688416903,-1.057550388931173,1.3979900425984282,4.27111619922493,9.086716678343702,3.6234056728801605,7.16743403092549,2.3299391363133664
164.0,2.0070950108375682,-11.186559059147068,-13.19365406998473,4.645817694006801,7.561264672041423,-12.209607453621325,3.5490332681780585,-5.975790500587885,3.544954302132167,14.295737127747447,0.9266582874827831,-7.241203012309526
165.0,0.41993694260153513,7.409248310388083,6.989311367786531,-3.945105340631352,-3.2467755196103427,7.181384386404183,-2.221434619466833,3.43414766099877,5.741903674336998,13.989679426080544,17.426739738026555,3.6032003254407012
166.0,3.6917316428743954,13.82537710073736,10.133645457862999,-8.79628298501444,-3.185688474957961,11.963307185602412,-4.25419924879209,2.839126191529916,2.1637576350928738,-5.915088783613858,14.270555075658148,13.347001702427377
167.0,-4.791876254800403,3.208591362066465,8.000467616866977,0.8284850957224585,-6.443120585648144,5.59070408937313,0.3893900904712102,-8.713030543199777,-8.948798351211156,-8.82004844406132,5.127425304069931,18.76542362639617
168.0,2.5292276931580817,-16.69413857039135,-19.223366263549266,7.1195176441138095,10.903720263559634,-17.89055719154492,1.1136302830905735,0.28318341663926905,-3.97304882563449,-5.9956060142254,-30.20257044243143,-24.177446072351493
169.0,0.8495375958916656,-4.70008038303397,-5.5496179789255216,1.8879682686941908,3.221631792550614,-5.131845048213514,3.4583557350824337,-2.306869696870219,-2.424292951964568,-2.0270360763794484,-24.4445419392685,-22.394138198877172
170.0,-2.2385663655625816,2.1770365358149824,4.415602901377642,0.07893653702385128,-3.3898781189607234,3.291690915268572,0.6856331130864821,1.5465397905720624,-3.252902012834676,-4.972622097424527,-0.29845318007641986,-0.6287020647361388
171.0,-3.5729203999143637,-14.833192875823666,-11.260272475909272,9.178779280451849,3.8536789903355895,-13.052065347780367,6.7203236951549,9.362903890302764,9.570934596347685,6.086956642709538,10.236906004393283,-7.406481936225882
172.0,2.0415138342903867,7.253984285317916,5.212470451027443,-4.668755877506846,-1.5798428635387372,6.2227187393208645,-6.08661670321283,0.39822177563537053,6.392601760169272,12.831087567795052,33.7666678503759,42.256445383916486
173.0,0.5486036921495792,11.741364377441911,11.192760685292148,-6.167117205839157,-5.317654338394731,11.44682911347671,-5.00187562531735,-2.3697179105270143,-0.761020730835825,-0.7809470594889012,-0.7281290785393928,0.908858102813916
174.0,3.9723115966289404,11.644497213601843,7.6721856169727,-7.835624275655374,-1.8425672090280276,9.625433614702082,-1.7594776220805652,-11.808105883763128,-11.723728074076647,-8.14475058198348,-3.9684192644004552,-7.400708967526751
175.0,3.329518031588991,19.27760435061252,15.948086319023378,-11.259095816491445,-6.294998293377565,17.64593987460456,-4.90214606768582,0.1703141677039337,-0.3311058579056869,2.557323789992257,-11.698461949992376,-7.643409308272931
176.0,-1.3713941627300519,-13.650273662457284,-12.278879499727271,7.548824516362357,5.47733939922655,-12.941192042843493,5.662755707996377,4.463728350760465,6.08624763910459,3.3391912612718087,-10.073285028516318,-7.610557443694609
177.0,-5.091134942153488,-5.113786937550678,-0.022651995397103164,5.0578071129373905,-2.580274784005357,-2.5493795164443345,1.7545891097507824,-3.7977407911119836,-4.653640409588852,-5.174956754159744,0.7250342044647295,3.5031917210434207
178.0,-11.170297916379502,-26.61376524749532,-15.443467331115674,18.92543944852245,2.175501658942897,-21.008799265472174,8.428613832372918,11.047437820094462,1.1943562745956302,-5.876884839125705,0.9620728020489295,-6.437269392451336
179.0,7.151018650892251,-10.769820831143484,-17.920839482035582,1.8445146674334252,12.497532147629,-14.399152287867423,3.6691245091948845,6.7242728742879105,8.229926721586114,0.6821416186782656,9.181566027739771,10.952235709969889
180.0,6.6441122617875426,6.102910605571944,-0.5412016562155095,-6.414676593588245,3.5507243609393457,2.8126760611270676,-5.967516198439469,-3.1248756391314054,5.729879017078886,1.524685710633961,4.382776027177335,2.7482708864700163
181.0,4.1813755889478905,16.19773415644972,12.016358567501841,-10.228939962990717,-3.8876307857258166,14.066569958132238,-8.458660012239967,-5.310978054070034,-6.31642796124233,3.756624368600644,-1.770978570609647,-7.511028504753232
182.0,3.8191043610615476,7.036506691596729,3.217402330535087,-5.466570396465627,0.3230436377283019,5.091236960366373,-1.814924412893161,-9.813218400821587,-19.92932072762176,2.4594437644983684,-11.155560131076934,-11.13578438313873
183.0,-13.355995915220415,4.14278321357312,17.498779128793366,4.646708891425712,-15.41075565848305,10.866841079841274,0.08759982211673667,-2.301548606161087,8.184445799388758,2.672364491604747,-5.97653600212548,5.717423475760245
184.0,-12.227032688548778,2.3845181392837005,14.611550827832263,4.962109984814202,-13.404178459380166,8.54619575443974,3.5453295006854946,2.187900973806409,5.840637806687594,-2.736021653512097,7.096372374022872,12.895593161710966
185.0,9.99327072354135,16.62128456790451,6.628013844362978,-13.264402548415859,1.6220503359621894,11.59624182402099,-1.0766544809883958,6.304208884906364,-1.2672602264410582,-1.0096442203587488,10.898691584640707,4.832407413408925
186.0,7.246323981865515,-14.381957891542282,-21.628281873407904,3.5347908368670002,14.46229365592155,-18.03056223742519,2.603706511582807,-0.510705192121307,5.1138107896248925,2.4279398760899635,7.722165661709104,0.8291533898130041
187.0,4.003239468155318,-25.273027994704524,-29.27626746285985,10.604219262056441,16.673573874232172,-27.29613549147586,8.26462882464153,8.695046411249573,3.9638379422847256,-1.7626201068251715,2.055042713548316,1.832911445168059
188.0,7.791792230458195,-13.180836014337793,-20.97262824479595,2.6643077141743605,14.345994149294416,-17.01481609686667,0.515919621630486,5.633555194939293,4.457621217032542,-6.789145177506808,-19.432991231400038,-19.655465892686443
189.0,-9.236289967212173,16.009968647304447,25.246258614516677,-3.3403677811568793,-17.27085737496608,20.615917858784762,-6.403278423008494,-13.900609771837578,-16.67598480964495,-6.809622009566541,-11.863027150961376,-9.174651516168758
190.0,-4.746152264558512,10.927370975827113,15.673523240385597,-3.1270083468271825,-10.157498084045965,13.29190729059377,-6.655314806976066,-1.6992375248190434,2.651390312202407,9.141048356222544,7.553230394838316,0.1687483319804155
191.0,-10.396939246827928,8.803412507618848,19.20035175444677,0.8342595701110986,-14.825907253397244,13.995131600891284,1.2385591528999962,3.363489979257058,1.4883944879205369,9.54569517642775,15.05929663534455,21.03166781074545
192.0,2.7956175980056184,-9.434629134190361,-12.230246732195871,3.2741911769171113,7.559861327686958,-10.83966793983345,2.281962064441244,-4.207770764227558,-1.7689686697976297,-5.011728115273517,-7.178003408821072,6.461341859431727
193.0,8.446089466960693,-15.809282447964515,-24.25537191492495,3.712759783379045,16.311825079984942,-20.041984239140437,4.556146921648186,4.698323975136037,-2.4691974641298318,-7.344757750101763,-10.515918294865157,-20.05678419884676
194.0,7.187515132839152,28.207510157143208,21.019995024304283,-17.666905840328326,-6.962805240305173,24.600673536315355,-7.510992215923949,-6.898148137841,5.904053884734604,10.196709510019211,15.368827875012311,6.992447258297876
195.0,-9.317360212905804,16.935342828099404,26.252703041005226,-3.778423811709912,-17.75868290145583,21.656453511288376,-3.0925343356948995,-3.835044497569212,0.5043231356512585,10.529563948408867,16.072635305828292,20.80138311048752
196.0,-3.3138216750125875,-11.535536420531987,-8.221714745519582,7.375209790500917,2.4784783339834413,-9.897112329507603,6.45306167629702,8.899775588540907,2.6521234337207433,-11.030551614346727,-10.157775055371147,-4.006097783110563
197.0,6.825041712792233,-24.047878896832817,-30.872920609625382,8.558081771549645,18.87688289320143,-27.47970881967959,5.644086640004817,4.743829766663122,-0.06832057975326333,-15.911487998002277,-35.582314031839516,-36.74515908954646
198.0,0.042961880055116586,-14.806842608848788,-14.84980448890421,7.40091200578054,7.4036333505187395,-14.84747514511669,0.5812397963953213,7.627046202564724,-2.1455840074408736,1.6958794943322726,4.891978407478456,4.8681841963923915
199.0,2.6275508769336926,4.072243750206628,1.444692873272765,-3.3383377747994323,0.638153302452348,2.818439343433231,-3.8624381729357573,-11.218679990113813,-12.195860963713038,3.16710906917152,25.959000029996005,14.597935981826296
