Time(ms),I,II,III,aVR,aVL,aVF,V1,V2,V3,V4,V5,V6
-200.0,2.3341246865175656,-14.434297288695486,-16.768421975213045,6.020955021050549,9.58193940901732,-15.651654770298908,0.01853616278267478,-1.2430045014880937,-2.442467823786938,-7.206028545386039,-10.173223858086192,-9.310551222092524
-199.0,6.6688039687837515,0.9537001192976877,-5.715103849486155,-3.7629856334188845,6.2238159291637905,-2.345864195976219,-7.850604522313995,7.550039260391665,5.815824540948242,6.36821329336739,6.9463774069927045,4.852769370648099
-198.0,8.881321412578155,15.651212915941434,6.7698915033633265,-12.30012824874209,1.0134270565080463,11.250684993994113,-5.530857979915654,11.118654052665264,8.389344135274746,15.56602719331407,13.185600625080674,10.858893305041331
-197.0,-0.16123243397859532,6.129393564715661,6.290625998694472,-3.021748224967366,-3.1824070346493136,6.174627400756411,0.7065448154852252,4.503794859669535,5.152583118539472,11.724950703417926,5.4320058453657625,4.487432478986746
-196.0,-8.006719618342103,-2.4616400931770714,5.545079525165251,5.2725486719945405,-6.803674378776972,1.507151320108946,-1.624298957372958,-13.69008143791168,-8.97219715804395,-8.56665735700108,-5.934626854202577,-0.7718400746828795
-195.0,-3.6984525384768396,3.015163651672596,6.713616190149446,0.3793344564383543,-5.228348795369915,4.828739801707121,-2.045271861314083,-5.193727315683333,-1.1874592658018772,-6.907276976417941,-1.8608792090153297,3.8020350511058734
-194.0,-4.217112824966666,7.92206996917302,12.139182794139593,-1.892181852292791,-8.198846516068562,10.071974435379415,5.775492141545046,4.053075400602612,5.411613409674883,3.9809450330528007,6.810288220437593,3.9472586809642616
-193.0,6.942832998533466,1.5715672630891797,-5.371265735444357,-4.215694197609158,6.212091068154821,-1.859672502029925,3.213602539101712,3.4287772264881364,-0.6072911733819732,0.71913855987741,1.1588820434865332,-3.9924355211671667
-192.0,5.197433666962863,-7.122009544444577,-12.31944321140741,0.9271756791800344,8.727474333719885,-9.68062373168874,-2.527089695709962,-1.432410386194872,-2.674947871796068,-4.429744520706547,-4.3316584101698865,-7.028826775154267
-191.0,-3.75476317244234,-13.402280015311378,-9.647516842868882,8.543950910535875,2.9839560704919297,-11.563008526714016,-3.6965402147716144,-5.333823665772831,-8.010491040047581,-5.260477338560036,-7.375200148791175,-8.883842450914653
-190.0,-2.6565850681875545,-8.426212499435866,-5.769627431248181,5.583975836480819,1.5040343536956207,-7.1359124323738765,-1.9631624835946488,-3.78454862297065,-5.523086240733188,-3.3471972041429323,-6.112259691640955,-1.972136852130646
-189.0,0.7987418290661163,7.68672109461478,6.8879792655486805,-4.282345789826558,-3.0287849857767357,7.248321465334048,6.867414629953757,6.502997320735694,9.81969214062235,4.675357477738021,2.033000637539845,7.369116980572711
-188.0,-0.9678397414160851,0.5615494953644262,1.5293892367805615,0.2378882347476674,-1.240592100544915,1.0831461307993804,4.564896112001984,7.73583112566862,6.06222803444285,5.021573220917535,1.8528936679625598,0.11425849851551995
-187.0,-0.4731012410062563,6.036331460275751,6.509432701281991,-2.751236586439938,-3.487401841079503,6.3084472719182125,-2.2803325345033905,1.2651446508395936,5.743101653979091,2.586382199498788,7.6570710044333,5.775926267609384
-186.0,0.04563812010823984,6.146620320288545,6.100982200180156,-3.1481813910385728,-3.0242882210830566,6.079535847214153,-4.675710179011082,0.43977508539682947,1.3250430186838849,3.96595552382255,7.071204979653727,2.8401541592214334
-185.0,5.408456351558737,-1.0353331727900854,-6.443789524349015,-2.1626706441073904,5.931674204064965,-3.7046068968147505,-1.913035987626794,-2.6188373828146663,-5.628191493360416,-0.567313421039888,-2.561011985697645,-2.812505830449583
-184.0,-1.388603072757284,-1.0423938751471675,0.3462091976099755,1.2373106046796205,-0.8587707589998277,-0.3115741613461629,0.3476160451070638,-7.718081687221398,-6.800458372058486,-3.357594452307511,-1.6232948048108078,-2.094817319635081
-183.0,-2.6457408543192504,2.722319456949008,5.368060311268268,-0.09679585763267395,-3.9960326561684436,4.004319361465356,1.062556388172919,-4.686084746526164,-5.954248879715863,-5.197073487366216,-6.000343536650478,2.9335200846784826
-182.0,0.6817566223187506,1.4786130427413209,0.796856420422752,-1.0610653210685737,-0.12508085028936816,1.0964793534080717,1.1536284112551907,2.1132491216837863,0.711041947278154,-2.0726002558245975,-1.7231182404677412,2.833364409111822
-181.0,-0.24693411223215583,-2.4672895292518247,-2.220355417019338,1.375703184675363,0.9966419390264953,-2.309507665010093,2.519391965164069,6.2533457196400395,6.982682156672413,-0.04528223101051454,0.3588248071244635,-2.7553851304085613
-180.0,1.5207597065228318,-4.879149688556579,-6.399909395079069,1.6981124210775522,3.968819708749126,-5.611213123203505,-4.801675562602465,3.700151976841213,3.1354262786012743,2.7834404740954493,2.8890873095666203,-3.9218275533254596
-179.0,-3.6884493749210865,-7.9027711184215725,-4.214321743500356,5.73714270976643,0.27185229751364015,-6.116673443075082,-2.402770351827729,-1.9860801105565122,1.8965609267282106,0.9261594168874518,1.6134920614268986,-3.7840880243487454
-178.0,-0.7641147341535562,-1.6851783502397923,-0.9210636160864001,1.247299462347073,0.09124383528074823,-1.2898925609713157,3.790486700699016,-4.005691334570016,-3.107021240323886,1.0517303444916595,0.19203954957449598,-1.0079214160987156
-177.0,-0.10623196510909186,3.608137993499519,3.7143699586083114,-1.7252454455936719,-1.8900905577845757,3.669666126076774,5.009405468997878,3.0930113809916753,-1.3095691859488294,2.945103345185255,-2.4295876958870464,-0.10754183481240553
-176.0,6.085783497013316,9.914857180307777,3.8290736832941557,-7.97144434369795,1.1581130292226094,6.879945949403755,-1.4311985649863321,2.6650446738277926,0.9848482729861481,2.5800335733540773,1.0051179081577648,5.772652424524695
-175.0,2.9620603361873767,0.4094991192933559,-2.5525612168941247,-1.7329814564072494,2.717380795925675,-1.0589578921745018,-0.9325968008226181,-4.2769086772452205,-0.5766716891108391,-6.148959114224965,-2.6776087707605827,-0.32742958947933776
-174.0,-3.9812838045213907,-6.45303940463567,-2.4717556001141734,5.171827002792325,-0.7887114479433665,-4.441064009639987,-1.6872192700171234,-2.947583031178884,-4.094964412382286,-6.656505169042706,-4.3630009898549496,1.2387056699430141
-173.0,-2.5369565176725146,2.104992514570204,4.641949032242981,0.2506873137280585,-3.6219662341098444,3.326853280948775,-3.6927948390235614,-1.1632831447226293,-0.17356151951682053,2.556530424886991,4.821911386454891,2.9879956951458975
-172.0,-5.975844841830929,1.994954887733221,7.970799729564403,2.026518329137847,-6.9299993323510085,5.025171899787908,1.1766278872699978,3.0467870558677483,2.9549387021268037,3.6060929897053464,6.873492907552585,-0.33709372604695126
-171.0,5.766045957273006,0.44328978758744497,-5.322756169685462,-3.1452430376143825,5.582069033224232,-2.4689335684019307,1.6278502743272782,1.487373779312753,1.0365488759625952,3.222957731351859,1.0503349945270744,-2.876399537495445
-170.0,1.033146866692627,2.551714377000109,1.518567510307435,-1.751221151195872,-0.2899995429508735,2.0092250458166623,0.4520662003327591,2.6217834233394135,2.498243647861546,1.1580225085705225,-2.7413425005150547,0.26292348949326616
-169.0,1.7596399540921417,-3.7734902614251986,-5.5331302155174935,0.9729018369234335,3.6729753442085715,-4.679455480617214,2.483747125464017,4.281794181756546,0.6775672789034316,1.1896107812900703,-3.504064796570262,1.1376976791201754
-168.0,-0.6968058225858258,-0.7820151567801314,-0.0852093341944764,0.7872040838871048,-0.2817278525065068,-0.3831023814649557,-0.8889843742672281,-4.696957827476721,-0.14176928743468942,-5.017184740548476,-3.9050012206942184,-3.4618389822188513
-167.0,-1.004863204311606,-2.211071532302064,-1.2062083279905484,1.5786646943966178,0.04580985914121516,-1.6600623492949464,-1.654745119327649,-5.898298623041684,-4.125976428851344,-3.7479546545216094,1.7217322520928282,-1.7614701642676476
-166.0,1.1073242406545587,-0.8238698958037156,-1.9311941364582894,-0.17125107366674697,1.5444575945976313,-1.4079146400711458,-0.9826866003839334,-0.7714358229375731,-2.1450189292156034,-0.3733593077544448,1.3289451222833446,-0.9640640343374041
-165.0,-0.6729885546428761,-1.593025445635746,-0.9200368909928212,1.1017434126314862,0.150261148898105,-1.2847642570374305,1.059333672838089,4.126545205215792,2.0646669943539635,3.076328929406797,1.8570802898697447,1.82667602434671
-164.0,-3.2920281674837124,2.638604284084896,5.93063245156869,0.3719711300118025,-4.662803863678622,4.260640495513771,0.9796040585647647,1.242172130168545,0.7878802606624127,6.00454768095653,1.774723756760239,2.916314613865281
-163.0,-0.4626912462229963,3.915508712030925,4.378199958253997,-1.6827425131096307,-2.3943975599738287,4.207115035611815,0.8736854664847267,1.8124618231454712,2.1666773125207044,-1.8293874412890778,-0.008609167572269705,1.6029774103270023
-162.0,2.4915898701611754,1.2154604209184332,-1.2761294492426747,-1.889012747003946,1.9068875483343886,-0.04331416977104663,-1.9432149611426817,-4.228726167733165,-2.307002979759317,-3.340395750694345,-5.7694310446305535,0.03523652100787955
-161.0,1.789866178058234,-0.12842812833068784,-1.9182943063889053,-0.7869508543167274,1.7943475971441363,-1.0321056282226213,-0.26908493706270886,-2.037121743462827,-3.862693669602896,-5.171376972056656,-1.537460413967767,0.4752814582050702
-160.0,0.1519339195416165,-0.10478188076092113,-0.2567158003025123,-0.05793909558141658,0.2197871383575405,-0.18761067678357568,-1.5841939728511796,-0.6182032018298756,1.232187081991393,2.434273023925138,4.403410317515691,-3.0258342350327805
-159.0,-0.9676018720063106,-9.185461997740946,-8.217860125734646,5.0422641484743265,3.6391364929648975,-8.709551267287003,2.0014080200096975,6.612016040566198,4.468630141188756,2.718979909068712,0.9500123148694004,-2.5120633207260603
-158.0,-1.8471577640133812,-1.3565190851561386,0.49063867885720747,1.5672136964301584,-1.1530023479960436,-0.4446410962913201,-0.8057102573550241,2.2264836867970192,2.32612091662316,3.6584741550269744,1.8140735193921813,-0.950008923066979
-157.0,3.2727134054996183,5.696303098107986,2.4235896926083327,-4.440424530699506,0.44602821068887166,4.121173985825256,2.1240543381727295,-1.0314035911390642,1.1245959062796937,0.25093376914424015,0.9222639670079805,2.4323512501953917
-156.0,0.6027918583117223,7.852756601667898,7.249964743356165,-4.182573665938156,-3.372324690777176,7.52723673158262,-0.34338069805987026,-1.7328128445820083,-4.493957070783437,-1.375939752653689,0.6670518910943353,3.6148951951825543
-155.0,-0.5677368590515133,2.385092709360642,2.952829568412156,-0.9398542814986508,-1.720206623735192,2.638942488739243,-1.5361678160392087,-2.987920902878245,-2.9312163503583286,-2.7722933063308233,-6.707659357074232,0.3745918660564178
-154.0,-2.423409236601776,-6.796928850921295,-4.373519614319497,4.660295586910426,0.9463241968600422,-5.6189084299301,0.3408986701967224,-3.7867424266868412,-0.1507576184000574,-0.27563412513756647,-1.004543975687144,0.18018711363374612
-153.0,-3.7560734587482023,-5.2153823654692015,-1.4593089067209897,4.457892883826201,-1.1685910945086153,-3.292509106030694,2.077015919392381,1.2316179737549733,0.5552952783804603,-2.6967171284353477,2.080855194177905,-1.7764791807464986
-152.0,1.125626808030638,1.330287230721657,0.2046604226910138,-1.2586613001463296,0.44667115832375714,0.8159239615660816,-0.24120932403081496,1.892250140153004,1.234074496898434,2.116107949575629,1.5363087068071017,-3.2495860124448113
-151.0,0.08655261391578117,-1.4687172626642206,-1.5552698765800352,0.6530429260303923,0.8898985081838788,-1.535593386328695,-0.7693281313095717,2.1197250257963667,2.4296641694294716,1.5748367115770825,1.3764187308615377,-0.8282864285060472
-150.0,2.3725686734376925,-0.2188762501666106,-2.591444923604337,-1.047089586478538,2.4739007525056973,-1.4208046308396252,-2.738972029006371,2.300297261176347,0.10896838440939982,1.1207444199998975,-0.6133390034095516,-0.3044406392250545
-149.0,4.264626254197788,4.469905967521642,0.20527971332384792,-4.349786967881786,2.0207697591114084,2.3288507360734534,0.8019636658061475,0.4359365000696769,-0.3723246230917143,0.6854702971040083,0.45266362720570436,4.533660412432471
-148.0,3.790511511251047,2.5363209919532643,-1.2541905192977616,-3.1566369167900175,2.510231734756342,0.6361850614158191,-1.1992667048370258,-1.7290315035890826,-2.5464511899373745,-2.1981107223838166,-2.2109386906580855,-0.814047229876836
-147.0,-5.387135152151353,-0.31828276994084015,5.068852382210577,2.852856994688154,-5.245306597680553,2.370166960946319,2.3237716118697818,-3.3650210206054982,0.24868360644704568,-0.1114907763233507,0.8089895410809975,0.13841259418269347
-146.0,-2.9561687033549506,-0.8054976736035682,2.150671029751463,1.879760026687374,-2.5768854591667583,0.6631723318314229,2.445743430292925,3.111988201292742,0.4883280677124525,0.016270129464094896,-0.4749486155200022,-0.188567141558924
-145.0,-1.772313224548662,-4.487403579887855,-2.7150903553391186,3.132916147452535,0.5209415510627187,-3.5393449749359966,-0.3413764674177773,-2.824804601934347,1.367801523776516,-0.07370897781022628,-0.8105138344655111,0.8629590130464855
-144.0,-0.3062639293445004,-0.35492969732273805,-0.048665767978241625,0.34188517966685517,-0.16213905167691606,-0.22780530194321358,-0.5407768678530134,0.80354434119116,-0.508901432781657,0.27648760784733734,2.3269615768119967,-2.3824639295903274
-143.0,1.3319206284671463,2.5353282389758256,1.2034076105085916,-1.990716028130675,0.10744502826392899,1.83404169301139,-2.5757260443945706,0.36591764787795494,0.9509408939501152,0.012417743063151715,3.2215310257290977,1.1520497387609077
-142.0,-0.7213005712080622,0.611532704076775,1.3328332752847065,0.0869328822623765,-0.9849320087337021,1.0076392903215785,-0.2646889675413622,-0.02559377846202815,-0.5428475365540574,1.562015837753928,-2.9226770065360865,2.9687548107044575
-141.0,4.688816000473251,2.740326622588506,-1.9484893778848327,-3.6739405890674575,3.280691689991403,0.34726268135279126,-0.89234579151558,0.47248785910992397,-2.382277545909672,-0.346583690953859,-1.6595741387041132,-4.947512985728098
-140.0,1.3996320219029545,0.18450450792550954,-1.2151275139774478,-0.824638115670669,1.266530969334569,-0.4872726171156526,1.863692498089019,-0.7909806277785518,-1.409483353674398,-2.3013872387820906,-2.4018391645014012,0.9407474497957778
-139.0,-3.109767781059166,-2.3015282923913185,0.8082394886678879,2.675210266792061,-2.0043664261265244,-0.7175306166240878,1.1057590252243907,1.7964230590380368,2.5842374902870393,-0.5558823758544899,0.8168148408537692,-0.172783733671436
-138.0,-1.8139649606611696,-4.1962263711341325,-2.382261410472891,3.05270623092644,0.3128185109040721,-3.2570973342067306,1.0695141033000537,0.19140641810624487,0.9669751863422689,1.3910228236967859,1.5860703442914488,1.0465624353630953
-137.0,2.149896054340759,-2.0928629028773518,-4.242758957218034,-0.06173178106261412,3.2224130486223967,-3.211261600681066,-0.39493101462165603,-0.9949095966631967,-0.3353905483086639,-0.9471206662102784,1.3568375708356988,0.7244661905457075
-136.0,-0.8219662514524628,4.262852495602477,5.084818747054995,-1.7551794850197515,-2.925751566489012,4.631908945521955,-2.846534386668666,0.8953530984906589,1.1650047110026889,0.7641318987914268,0.22072571348425285,-1.7286106271272506
-135.0,0.19408849677764928,-0.7630696678465636,-0.957158164624186,0.3292607355964905,0.6094946239115542,-0.8242408612974064,0.39394768125356094,-1.0912116692659592,1.8505344875808827,3.2322971409422068,-0.30616205866517626,1.8643883352050654
-134.0,-0.9570766981658644,3.1121283461425517,4.069205044308424,-1.0289319552432754,-2.5484351713478475,3.544813378107888,1.7994364448887612,-0.622229152234815,-2.743295058434134,0.20769244194976644,1.145922572318533,0.7211716452983559
-133.0,-0.7278732390041228,3.287315363961206,4.015188602965306,-1.303565186835876,-2.3965076212116916,3.6806111480224057,-1.1251852816213797,-1.3492285591405853,-1.1431278134769967,-0.6018444557532753,-0.9161631641110564,-0.22784281522644043
-132.0,3.0829156905137904,-1.6545892203036678,-4.737504910817509,-0.7310032421774806,3.8934757314912622,-3.169092199082743,1.5769948843539736,2.9465782583199993,-1.4525208681821937,-3.25756660040879,-1.7523367308942417,-0.4550057120305453
-131.0,-3.9975012307811344,-1.8633534639575524,2.134147766823517,2.918988013913931,-3.078352483919552,0.16214551819175393,0.6770411558067484,0.4554247746148006,0.4958679869343434,-1.1214978952216974,0.78190772274465,-0.7928826561788433
-130.0,-0.8911936832740924,-2.200069952960483,-1.308876269686451,1.5361108411121365,0.27463339361637995,-1.804525113639645,-1.661735136748401,-2.1626695892715517,0.4748198731587047,-0.11395520584318897,0.623173997299405,-2.617900156840151
-129.0,1.8719644375493985,-0.1587734308892541,-2.030737868438688,-0.8684768296619136,1.9340305383713197,-1.0629877534720094,-4.153172505768473,-2.667551324775103,-0.05014134905818257,-1.7338905180248059,-3.259361693240573,-2.1985168352399196
-128.0,6.061680714588464,1.36190646456314,-4.699774250025316,-3.65109067675754,5.3567444740917045,-1.7131972004130707,2.8940416797477733,3.0017508876255197,0.6158694978030247,3.921387153547245,0.49661944665570057,2.7741113298936457
-127.0,3.5697029525279964,0.740195873448578,-2.8295070790793853,-2.1814482268452693,3.168744104411079,-1.00904849646657,1.1477662463510725,-0.438743201735336,2.5777869645797984,0.3723300619555008,0.28099087661185373,4.577440347791738
-126.0,-2.9950923047938365,-2.383507367597529,0.6115849371963579,2.65420335319335,-1.760539940566259,-0.93015549768709,-0.6917881405485802,3.685424596121096,1.0145767000999042,1.9728331269136028,2.1995799929120516,2.546070251780298
-125.0,-7.681226471622197,-1.0493375959306155,6.631888875691621,4.402462793945892,-7.115693984452029,2.8228103517772283,1.8636973493527231,1.4885057757678088,0.5609000512756018,2.6889153745066854,4.162707627736772,-1.6492297724902256
-124.0,-4.341291769433672,0.13756859544049221,4.478860364874164,2.05780645404681,-4.44640816008131,2.3355312520840603,0.09809154232566103,-2.886558806206549,-4.420089734530631,-2.885549469129986,-1.7678733816310155,-2.7913248101646673
-123.0,-2.361978990060141,2.78389747492961,5.145876464989721,-0.17387154429546714,-3.7859524964500437,3.90902299884195,2.8504537871435423,-0.8356638723768488,-1.813321182737587,-3.0010742970169066,-1.588485789434098,-0.605049431374642
-122.0,1.8128662376846216,-0.2753001366677257,-2.0881663743523884,-0.7249124748573138,2.0028343062848513,-1.1626512929259702,-2.126189865718268,-2.9345840734065174,2.613293819324091,-0.08511660049154246,-0.3251643317593409,-3.8451393250431596
-121.0,4.6364801718098025,0.24947064045265488,-4.3870095313571715,-2.4685474295480203,4.490510147173491,-2.0524336118017006,-3.4632979139153917,-1.9991914510906594,-1.2002270554106294,-2.593461930082279,-2.042268496156611,1.6010448826543358
-120.0,7.9853611912498135,1.867187881797734,-6.118173309452087,-4.942693605357852,7.033924883289655,-2.1109323538406146,-3.4028364193439518,1.384325790532581,-0.8668748381005054,0.20595048370076824,-0.7701895292339994,-0.241175700060285
-119.0,5.849633510389349,1.7144739032117937,-4.135159607177554,-3.792003890789134,4.975321188094352,-1.1970696312356142,0.807493945907241,2.3676754061327143,2.1242257609963615,3.6519083267225456,-2.239448833492995,1.6008996060631095
-118.0,0.4527082833161683,0.19497025980729932,-0.2577380235088522,-0.3314560456236361,0.4148930009160534,-0.09816626653339822,3.914386574012227,2.541395030192893,0.7859061265173388,0.44903850872117834,0.9036316059423061,1.3869156992082448
-117.0,-2.575116369193985,-3.4981369213228612,-0.9230205521288555,3.0272811537902617,-0.8495006363231803,-2.2000295836103834,1.3179459010072492,0.3357553745487536,-1.4234151665000379,-1.06865552344462,3.2531374121111365,-0.04898384857094129
-116.0,-13.472621979262385,-3.248028205561896,10.224593773700478,8.346546040081764,-11.878058567545363,3.497814915396261,0.8707080072781996,-0.07598848703168737,2.3815233583306585,1.3656752299173973,5.207489090547421,2.3795846064135966
-115.0,-8.662988625347719,0.4774563126895832,9.140444938037273,4.152439998514906,-8.859151677015413,4.818770519038563,-0.7068566697501905,-0.8860255434607345,-2.4144315909112612,1.228505718804295,-0.05838501548730868,-1.7041763827899217
-114.0,3.8624150076166037,0.693439033912743,-3.168975973703894,-2.301800165918623,3.4729186598108504,-1.2255731867344175,-2.583167502859585,-1.7431331029222406,-0.10495415363951643,-1.8013427865097131,-5.017196002619317,-1.5417012162609907
-113.0,4.472498042306729,0.8286930542111288,-3.6438049880956136,-2.5997614829290616,4.088397970087385,-1.3907132673785005,0.06527879376055457,-1.2170409604484989,2.1461720171739085,0.767591566545268,-1.550938407252846,1.8040080618123575
-112.0,5.448794935993754,-2.172274156849338,-7.621069092843081,-1.670286604308532,6.5607803645164795,-4.952257903045806,2.1201598500314702,-1.4384441421923957,-0.10565410563048755,-2.4609825255783484,-1.2878842139172202,-2.3644818242807433
-111.0,4.311777224256405,-1.4325777739358045,-5.744354998192181,-1.477021536499017,4.972296902436637,-3.5585337050943466,2.6476430394781336,2.329652368382979,1.5926917897865325,2.079229551109369,1.6784345638793252,1.3427016686481363
-110.0,-0.889484835647127,2.2347459041226356,3.1242307397697866,-0.638650360126551,-1.9851654764048074,2.7151591880995305,-1.7482983706099766,3.8826822463592685,-3.111794202354255,-1.4881864179979734,2.6499638068999554,-0.6316121899521019
-109.0,-2.5510463306604323,2.7520021777391057,5.303048508399542,-0.1539718879796642,-3.9050350125927795,3.987869203754166,-1.0443904358141491,-1.510157456538796,-2.801729443080357,-2.055167672246858,0.034791020074660395,-2.3964489228909587
-108.0,-2.9360808182564186,8.960150931925828,11.896231750182228,-2.994999051691875,-7.470905276602389,10.38895266309898,-4.294784412283163,-0.5812333966680171,1.9010525317116234,3.654342014106016,-0.7215475525687277,3.897186359745577
-107.0,1.6890251882620788,-2.899065940423896,-4.588091128685998,0.6168940835746509,3.1662206492890945,-3.7065413526360302,-1.1675388995631035,-3.9530472490492206,-0.7372843704447476,-1.2523780164567289,-2.1012244629265924,-1.7621627350243823
-106.0,0.15376794046143272,-6.568352845556251,-6.722120786017706,3.2192363019356516,3.470708469329739,-6.6127403836167185,0.34059371145329687,0.012770676503697675,1.1595790112058706,-0.6785875345189223,-0.8164692757025109,-1.3334489026306604
-105.0,2.2211281693237854,1.3605575208444032,-0.8605706484793982,-1.7727948408907648,1.500777363416991,0.19832209012194468,3.5031124176182957,2.8233964706136705,1.5341527418320589,1.4607248179839591,1.9299635749929513,0.8639583018525364
-104.0,2.776067609037365,-2.2702244952201642,-5.046292104257534,-0.22376193942918632,3.955573146912516,-3.636321746419328,4.389189314039877,1.4739117590565012,0.37822241282302516,-0.5605853337803043,1.0284968145851558,3.1087646301713816
-103.0,-3.908800155279372,-5.822411277790307,-1.9136111225109267,4.829609888686657,-1.0275784174424605,-3.8501041247786887,1.1593234375551322,0.5973767858206347,-0.2767643080962546,-0.3097184926531458,-0.4662774114469884,-1.3421986720928698
-102.0,-6.019788794513226,-3.137517826180492,2.8822709683327536,4.55568863263591,-4.4788608492336985,-0.11219608880826298,-2.034199701166929,-1.7340300351541105,-0.46930684493823016,0.4686256648171856,-0.9892486579829745,-0.9648325826208504
-101.0,-2.782804624909408,5.344266119706519,8.127070744615947,-1.293657776246263,-5.404340080560507,6.671552171243385,-1.7291717825931352,-0.6023719846143079,-1.011214730210891,1.7879810378363037,1.4021784703961733,0.03381246935007298
-100.0,3.0116472379508976,8.797638024335935,5.785990786385044,-5.911613940829781,-1.4176162509167727,7.307354228202591,-2.545759935017292,0.6840085832493609,1.4634000798787807,-0.2041208591963316,-1.5234414937935101,1.7707098195474662
-99.0,0.029011076126004287,1.8988419155116558,1.8698308393856586,-0.9687863296585668,-0.9540105136422525,1.9024574999155273,-0.6425687795391135,-0.6956281991765012,0.7177432310180089,-1.026806706561538,1.4588732235507278,-0.22478329464571326
-98.0,5.2125412805775975,-1.6832206147102382,-6.895761895287821,-1.691584787294734,6.09658837043205,-4.267272709549923,-1.1073019452463662,-1.211880839981603,-2.3181468275401595,-1.9611903154683592,0.27399273995132006,-3.766764254543875
-97.0,5.821915514921152,-1.5908161350417553,-7.412731649962879,-2.1241711385822493,6.658496101614387,-4.553166188522939,2.0382912419039743,1.465819222038939,1.1377342531660215,-0.5414750589297005,0.6068533854746769,0.18486605794336697
-96.0,0.8474652507602314,-2.1252382296675694,-2.97270348042776,0.6254141736465342,1.87301468442285,-2.516308930901213,0.7077507902450091,-0.20283017203205722,-3.130671473025549,-0.15032455453576604,-1.5611652689461089,1.8561544687616773
-95.0,-3.3581039228180596,-5.740188915028783,-2.3820849922106784,4.528729821120189,-0.5232186949941725,-4.024173349496993,2.5553717023804086,2.1826438409679794,0.23939412020423212,1.9096448707721576,-1.6433672441139329,2.2371400521115095
-94.0,-9.40256365233401,-2.1793326364416066,7.223231015892444,5.761414414453657,-8.267066432248907,2.482318357463473,1.2702354749925924,-0.2822479355614528,1.4615512475912622,1.1092224514626756,-0.9331191761649238,-0.19830995975550958
-93.0,-1.0130277025740249,2.4169742731114114,3.4300019756854554,-0.6635328490201244,-2.25278729480638,2.8831814098551236,-3.6159239641285663,-2.7816989955017473,3.4572288411575585,-1.1553668737469815,-0.8210417090449785,-7.176366015094164
-92.0,9.622201314124311,8.739722559268149,-0.8824787548561788,-9.153703328275341,5.299912726498734,3.9636926179667107,-0.8782712207480814,-1.584829268337164,-1.6987522188707556,1.4438281106822721,2.9456947288193205,2.811291270405698
-91.0,-1.0307944925797972,3.877257725721233,4.908052218300985,-1.4845254190015984,-3.00254464422721,4.422692185757716,1.744254359431879,0.8988640272049996,0.7321356355344241,-0.6290300035188394,4.105173844577024,7.395877771332909
-90.0,-5.799586965646943,-5.192399409298616,0.6071875563482649,5.506918015427887,-3.2403672743243144,-2.3463275547843563,-0.661785106776235,3.326804995004571,-0.6473490628760235,0.33501983782866074,1.2674091299407877,1.141919652387235
-89.0,-1.0637080656922746,-3.521843222315267,-2.4581351566230554,2.3018892968151077,0.7339948888644392,-2.968070171881036,-2.2766748248146444,-0.9203480255188254,-0.772088111618854,-2.783604921104461,-4.257515278350516,-4.381435979522287
-88.0,1.1526906115523736,-0.6831989822667865,-1.8358895938192061,-0.2222908647503925,1.52622625450734,-1.237292647109252,0.5463100366695095,2.7026140873589624,-0.23273222617552536,3.0910050790854373,-0.16179082218287144,-1.5814824361561295
-87.0,4.3699067819563675,-8.001675818229199,-12.371582600185581,1.8358639774509244,8.320650190883574,-10.238625246501648,5.811996421684214,-0.7818762987989872,-0.3195451890883726,-1.331478940882252,-3.3303057750765257,-3.098391969066045
-86.0,7.041547960214013,6.634883839771942,-0.40666412044205114,-6.80880715497329,3.7522470804383303,3.149104259383863,0.05843444309661816,-4.77728046045451,-2.5142838975627004,-1.5406841182948174,-1.3244679349322974,-3.4870454487805733
-85.0,-5.537038306682679,6.838515204820808,12.375553511503528,-0.6916307891776068,-9.003982526690212,9.652342980747587,-2.401278268046827,0.05830813193611606,3.4697928810383925,1.3067778012080864,3.512435000512678,4.47794932127049
-84.0,-6.84464745765626,-3.906402499907891,2.938244957748398,5.339706603274262,-4.85414289495257,-0.5076937883383499,-10.787938140844476,-3.134008105685171,-2.8832975169080335,-3.195311612838852,-1.468162072350728,-1.5817564703505176
-83.0,2.789505993837989,2.079613845194596,-0.7098921486433896,-2.4696242098776575,1.7954959063300282,0.6679027336841532,4.051271130101296,6.508770336493065,4.855038305533534,3.197808357452024,-0.2914196427860024,1.7091032002517084
-82.0,4.348190799698197,8.666904840632439,4.318714040934213,-6.46664493921585,-0.00935638936131028,6.477540228134405,11.474729529595445,6.245754030519248,2.685003282593417,5.434118779044987,10.11081156614037,13.368581919358018
-81.0,-1.6694396757144772,-7.5487910885352925,-5.879351412820861,4.645658094686544,2.0879013105062563,-6.732763403038096,-0.9145641854356237,-4.945524487335399,-4.4388007507865765,-1.2207183870783744,-0.7600201337888306,0.788844560843414
-80.0,-4.818838980411822,-11.998982896125707,-7.180143915713935,8.441656330483946,1.1671576730692244,-9.615185960600652,-6.37960066813574,-4.944688046221264,-4.148466197811157,-4.055553709051602,-6.962985011720907,-10.47738777760952
-79.0,-0.0009192451412811664,-4.930022782730956,-4.92910353758972,2.4177232029620033,2.4502379906446863,-4.8842354826734145,-2.0490573803615253,-3.4215282317462252,-1.9879538363568765,-5.7587097764185975,-7.7217413832402775,-11.231820883503927
-78.0,3.3419499320310044,7.713408397836327,4.371458465805289,-5.574590621646486,-0.5319221182172249,6.081564144802597,2.616691024957335,4.32031025830484,5.506324087693324,3.826534680714858,4.982146434173556,1.4117403501830026
-77.0,1.9215300161515436,13.94785849318896,12.026328477037401,-7.899797417131437,-4.995192932826938,13.022897197880644,-2.6521822887490725,2.9599011660985757,1.761234053811881,2.172050526357342,1.8610682537602372,5.240881552039506
-76.0,2.4502629599752184,1.6636614085557921,-0.7866015514194267,-2.017842416254129,1.5933770283507425,0.3949000986838387,3.8166659324040744,-0.2402478129517185,0.9641405643396337,-0.6465832533865592,1.2908495861529456,4.358175299949224
-75.0,-3.449114091989623,-2.5943255392560447,0.854788552733605,2.9858995924702247,-2.099783319149635,-0.9125886571230484,3.0076982585697185,2.3009926724682987,-0.480225581884661,2.995127947108382,0.9834773975568611,1.7255475796887287
-74.0,-3.6429682394360205,-7.436554748366445,-3.793586508930389,5.584297528157794,0.04913476734375277,-5.656720818678116,-2.887059337651392,-3.713146925820518,-5.805042383502587,-1.6285573596097518,-1.6454046481645879,-1.505710154399047
-73.0,0.9987258984887144,-6.532225615398058,-7.530951513886743,2.730464908151714,4.240026630547233,-6.9934735119939395,-1.6129134359497734,1.5370589586730137,3.932604687207118,-0.5561629043134894,1.0344303978995562,-0.10773020916324806
-72.0,-0.38078936184403944,-4.780295685563448,-4.399506323719404,2.5379627590315694,1.985583125841229,-4.5509220378336614,0.8635289510704782,1.7064168379950506,2.845893101488385,2.1470736833270285,4.220179735111728,2.956064226863412
-71.0,6.973852214428988,5.609390765215569,-1.3644614492134355,-6.265219804443298,4.223885268928893,2.162139657257925,0.4190467547446793,-4.254815129552817,-1.9037742799549446,-3.074784734376829,-4.508395744167667,-5.109276220872945
-70.0,-2.2430652410878205,9.664714946229127,11.907780187316929,-3.6957380151181485,-7.10128176139551,10.747283846546031,-5.985867444482413,-5.026814836079556,-5.343060506399304,-0.6236080806483892,-3.019937013854487,-4.300995077026094
-69.0,-3.118364601997916,4.09979753768384,7.218162139681731,-0.4859679056219828,-5.197234846172844,5.618880847034648,7.866139843779264,6.0561189067194325,1.7708085862291327,0.38007776218903705,0.4180122103034827,2.0085643783038485
-68.0,0.005518929394748184,3.0692291148057316,3.063710185410958,-1.5396288643770892,-1.4830375158415539,3.1023846112583486,-2.149426580232203,0.036233532246153555,0.7603088007642649,0.11676951566227789,1.665429734448156,0.7445508866029513
-67.0,-3.251679141225839,-5.472621941792497,-2.220942800566675,4.35780160473553,-0.5517591771502893,-3.8935112706069432,-2.366488366264907,-2.45564946848104,-1.696017687867407,-2.226882716980285,-1.6995040062289228,1.47256193579224
-66.0,5.062339600860068,-9.052017361410318,-14.114356962270403,1.993779026315405,9.627281369659425,-11.554919399389032,3.315938230589788,4.391210663111131,4.565016439375112,1.3671506664595094,-1.9852805134992697,2.576542473207713
-65.0,1.6155167293949737,-3.093035101936519,-4.708551831331509,0.745732346061386,3.19759231385895,-3.874406981008951,2.0590183932156085,5.49455597890676,4.5837302686333805,4.017982445657981,6.196955390782251,7.262239921050874
-64.0,-0.739153298094283,0.4551703140718004,1.1943236121660568,0.1602203592953494,-1.0136835586552808,0.7738522633943563,-5.245345956178982,-4.87562151886107,-1.2591229806504955,2.9295498544298173,3.7824363035808037,-8.219349001302383
-63.0,-1.493711477479916,-1.8945749085849246,-0.4008634311050432,1.6461011978822613,-0.5976074025140223,-1.1144680910623066,-0.4952347171523399,-5.207341191119147,-6.608112260229284,-5.187068208402355,-4.262739433595279,-4.038680120439189
-62.0,-5.107738431342886,5.262799822526822,10.370538253869675,-0.035120149998875694,-7.715644767813704,7.858567840652128,3.1347994391860072,0.3061688438132637,-0.4078461567479841,-3.1104229805050414,-2.8921337745508566,-3.893787078595085
-61.0,-2.323062525704006,9.856780372634734,12.179842898338725,-3.793857190613132,-7.230487121026844,10.991543044592104,-0.35447186077659254,-0.1779135964110613,-0.9534782538493192,2.8788068677455927,2.282751544262729,8.411760330165965
-60.0,8.782226519396454,4.947612711622358,-3.8346138077740957,-6.885869869207386,6.329956760045248,0.5388777405085037,-0.31250130031196743,1.755125104391377,0.07177449962102889,0.7109271293930758,-0.378917990033828,1.7301547476134136
-59.0,2.660796064692709,-9.976742581872525,-12.637538646565229,3.7182716153064326,7.5965678711373075,-11.318618702952513,1.9376343327537013,2.1448894801205505,1.6502046968174122,-3.656675897868446,-4.04273408985453,-3.4056764789505
-58.0,-2.9195663114313515,-6.546630133257646,-3.6270638218262956,4.713884511026979,0.38827798188116125,-5.096223182397021,1.0409480513437563,1.781961161019136,2.9580324593920313,1.0017087819439927,-2.438925953186443,2.3225591285528178
-57.0,0.053575741680667255,4.972092701852931,4.918516960172263,-2.5354134456720754,-2.3874694988768326,4.934221998169174,-3.6443578395342415,-0.2534950565696311,5.674833735329929,5.178544008383317,9.136433227735324,-5.545262120554339
-56.0,0.34300638308923537,-1.6041915602978074,-1.9471979433870445,0.6028965806033888,1.1212367931208824,-1.7123484780153952,-2.305403329523795,-0.3969431420125182,0.30934834616106066,3.046519465218742,-1.2440541826851956,3.225296858695111
-55.0,-2.5935526692273916,-3.8646208034820084,-1.2710681342546202,3.2741110329996688,-0.6786040812264289,-2.588649028868585,-0.16499982107035538,-3.2704571735666494,-7.540456418450709,-5.1418563980436005,-2.536819316325203,-1.7890213515840045
-54.0,0.315504760751085,-1.5414030918877866,-1.8569078526388836,0.651619313588955,1.0701999839667142,-1.7251297613879517,2.9470645067186867,-1.6112116726386123,-5.868975072652246,-2.2794270015803493,2.833959258240782,0.5450228105176587
-53.0,1.8951759275360747,10.486765394208067,8.591589466671978,-6.237498286586198,-3.367893389035587,9.587838163488195,-1.3753180431335768,-3.3649390385646076,-6.607002690267126,-5.863360002674468,-0.5432368921660551,2.9835011437600767
-52.0,-10.21048763870985,5.719381616190839,15.92986925490067,2.2712862600957857,-13.096495410985378,10.791852218446762,5.662336485066833,4.278523243713955,7.970320742092975,2.2098349256103926,-2.4441692284170435,4.669619245126775
-51.0,6.09719069069944,-6.727001514250253,-12.824192204949703,0.2556221272953227,9.506778390717235,-9.809507260042572,-3.6069433403232463,0.6815938504363932,6.063373677564517,3.519582499435744,-4.150008302614873,-6.1682137430476764
-50.0,5.958188825099095,-3.438641719428258,-9.39683054452734,-1.2455864423516667,7.720491890301333,-6.3724894546621424,-2.0970521241226168,5.5915432478274125,6.995189508662241,4.809382854784836,1.702533139623896,-1.5702076677283334
-49.0,-2.7479934816358353,-2.762291071032713,-0.014297589396846,2.766197021165594,-1.4011633187493189,-1.4199874072993834,0.5152924181696183,0.5831563536989401,-1.1920121779743211,-0.9358334868939,3.973082708018484,1.3802636692416073
-48.0,4.883894789990605,-0.8739582148024387,-5.7578530047930006,-1.993856786026013,5.370352197744914,-3.266062575456586,-0.6078154937040273,-6.523557528986943,-5.161440227401642,1.361993567199732,-0.4431049403905758,-2.3320249238121447
-47.0,-5.634058118743316,4.006134383903878,9.640192502647214,0.8286057699281775,-7.6606214335892915,6.797196575247531,2.606093705505569,2.232672876395003,-2.5855202805326516,0.9308766488700997,4.523625008690683,2.105733972923934
-46.0,-0.08803150536098814,0.1971064547525474,0.2851379601135342,-0.0337180960958681,-0.20709297407456617,0.21711758521992985,5.058694069302943,0.1712185326760971,0.2284649775375054,-3.8300509918223984,-0.812568671252635,0.9716347239223383
-45.0,-0.5428872745231876,0.995376430745134,1.5382637052682924,-0.2771541130792211,-1.063540619936014,1.3214053517264162,-2.5955478255098647,0.2594000219603062,-0.5110463773012237,-3.2083378424149087,-2.1532827155561147,1.2681220925134193
-44.0,-6.2350685258774545,-5.101253205909382,1.1338153199680336,5.701727490840457,-3.71596826954638,-2.0109128214389655,-5.146663084688209,-1.9240718577295934,-2.785156466994282,-1.8138764264330083,-4.441916981914765,-0.5027352879370178
-43.0,4.985819590113834,3.4332608433404213,-1.552558746773426,-4.251982474723852,3.303335748635286,0.9072907014237679,-3.3363138535230634,-5.2952127731074565,-8.873775532631361,-3.7132786683009806,-4.171609782544466,-3.090709351581446
-42.0,-0.12396495526566054,6.107751191741897,6.23171614700755,-2.9564589259514893,-3.158149585174994,6.207722952471293,1.1576388288779913,0.633380934195253,9.740554825338883,4.012927136979348,1.5012067343127462,-0.8386232752543106
-41.0,7.532256469506677,0.2681929954300919,-7.264063474076574,-3.9474070498016545,7.405448101275477,-3.546398012959339,2.193880455524043,6.489325947271964,9.735211318096152,7.914300079769909,4.728319614721062,1.7880775172396959
-40.0,2.847800746207086,-6.36775251797955,-9.215553264186623,1.7862824739836909,6.031133171579769,-7.7669328131778,2.8692957070031433,3.6684304577508002,1.5730103480400182,1.3563731703293729,3.6401434113223203,-1.3495444006751938
-39.0,-1.6811348655376506,-3.268329514471895,-1.5871946489342084,2.496350620682616,-0.049862366890783605,-2.4047941606231586,1.6308759490756681,0.2788170045135958,1.254868692774952,0.6419907302046401,1.080620215279458,5.353500466744393
-38.0,-4.364801422075534,1.3408601910459534,5.7056616131214986,1.5311339996779003,-5.035710831985448,3.5488311298513904,-1.7194246737344951,-2.3489971676073518,-8.752386984798274,-2.8199875526366807,-1.4380846515077481,0.3349777991424072
-37.0,-5.542544860679996,7.043959587385151,12.586504448065103,-0.8096302236712369,-9.05967669819787,9.768134784921614,-0.718114766583805,-7.072563028327857,-8.704299359778389,-6.606365577173302,-0.8357036073940272,2.265381361104028
-36.0,-10.281266793958952,-1.4138392351084446,8.867427558850403,5.8711472944915695,-9.56343252687483,3.7660133881881195,0.6293835507994355,-1.7852703648762858,-5.331977638634708,-6.731071978204458,-2.712335462431305,-4.628576421088406
-35.0,-5.343559696921995,-9.268624975334177,-3.9250652784122906,7.3357933268377735,-0.7719842600520459,-6.629719607376044,0.0663313069847623,5.033412193613719,6.42732686239798,6.344121614587103,-3.402403539474327,-8.513718146355066
-34.0,19.002666138062335,-1.2690823074653768,-20.271748445527784,-8.908598510965113,19.656617919566873,-10.799507777546943,-4.699984191690642,2.084414466776861,8.884936154483979,4.624615654654306,-1.7099625835995138,-0.10100231550793737
-33.0,12.07911246325898,13.941543294475888,1.8624308312168756,-12.966257791262905,5.129720754468671,7.951618129677384,2.8361578714144065,0.8541007048568572,3.9882720273903365,2.42358367203375,5.9472575096193525,6.846956351178783
-32.0,0.04365418789937259,-4.520566882741221,-4.564221070640607,2.2099054048440623,2.3267121774316766,-4.57505670738756,5.439619121268219,3.9207670497698897,3.827076450161232,1.5661810646775836,3.2238644999653494,5.77060305787405
-31.0,-2.3965340401589597,-3.285520942940943,-0.8889869027819688,2.8174068641855423,-0.808113095979853,-2.0468875829500237,-2.9345163438212034,-2.882455925992888,-4.004757850971415,-2.186642624411015,-1.5449795017796841,-3.3315280677287595
-30.0,-8.874806242122762,-2.06526783709455,6.809538405028234,5.450654033235556,-7.8156176698668425,2.327845563905937,-3.566556369773962,-5.796457265290059,-8.944485387537368,-3.144995526455078,-1.2479038753208027,0.0026228311650757508
-29.0,-6.68990398371644,6.520368031030376,13.210272014746849,0.14853286838249868,-9.921376740312393,9.89584825113795,-1.7906825082696838,-3.6727326508541602,-6.621121117272729,-2.71045735139007,-0.8698956589489988,-0.9612629872697283
-28.0,-0.43009674356959504,2.200932584814007,2.6310293283836064,-0.8952662730515013,-1.5007671269687002,2.367603695219903,1.1561576746284872,2.7652732716652184,3.5603997278752484,0.3588131434719184,-0.12501594256959725,-3.3987566866292234
-27.0,-0.6825345317593445,-5.491248338758152,-4.808713806998827,3.082676146415923,2.013047907340185,-5.11507295978892,3.1493780989057605,7.073140919388473,9.478521583666693,2.1246365494977164,-1.7517042882838476,0.18169552134303668
-26.0,3.8363211614489754,2.94380578682254,-0.8925153746264933,-3.389360615397764,2.3107789700487924,1.0693850397240725,0.7208207756534946,-0.9969251820491412,-0.9085365519646871,2.257740988380314,4.90419671030444,4.660160610688716
-25.0,5.743366029895075,-4.12139637279416,-9.864762402689285,-0.8079149599444153,7.8240318114632155,-7.016752132358888,-3.1978043949197508,-2.381832210416192,-6.039810647699175,-3.1307809336264336,-2.398871774359149,-1.6961879894332477
-24.0,-3.1915834875840328,-6.004097703295989,-2.8125142157119916,4.598952234371638,-0.17412171467611515,-4.420897828259649,3.0087650252286475,-0.2634242301287071,1.207725516987294,0.4712452388528509,-2.5664105971555036,-2.4297371093992015
-23.0,1.8945492267885151,4.626091791237115,2.7315425644485916,-3.2664318899591986,-0.40458810552368707,3.6741876682513004,2.149204954618818,3.7320172256566995,6.800104633081312,3.5399142584524625,1.7264984361677969,3.0020157909017633
-22.0,7.982005287146304,6.218968668355963,-1.7630366187902884,-7.118611940957893,4.889647537858085,2.2262069594983283,-3.0373804670012388,-4.261966939699104,-5.439279591113197,-4.684810851124196,-1.0278387858344378,-1.4056634867732616
-21.0,-6.328583054254262,0.320543639420368,6.6491266936747015,2.971106680446615,-6.463701614018375,3.4804740082495362,2.6888771786805314,-0.8176158874774235,-0.41856533606702584,4.750529922529205,3.28539848463365,0.6193368690718943
-20.0,-3.5619107435626907,-4.484721656607528,-0.9228109130447955,4.05467385217713,-1.3619036267404314,-2.7148329333371835,-0.02081867977469609,0.5150290900243701,5.9248856321339005,-0.5655345223960127,-2.1728451012792287,-2.38280282486053
-19.0,-5.945643804994301,-6.221368628293564,-0.2757248232992997,6.103855968128603,-2.865531707499914,-3.2677535315236304,-14.08726739803786,-1.4544360243818595,-6.950083797994152,-5.197033014396799,-0.3161373025073092,1.4248187564563322
-18.0,-1.293157248729941,6.0144523822226965,7.307609630952531,-2.3457121004301857,-4.2427047478889905,6.7140411486922345,9.82856949726142,5.5601610456918635,3.3602410686495885,2.397571576293359,4.924366659849313,4.0226582302453435
-17.0,5.746867871079235,12.503908570145176,6.757040699065812,-9.109936781827898,-0.5209945080281638,9.602127854170801,9.832509309804381,4.335292663999043,2.9455997558422067,5.519536445457081,-1.5768412876000446,-2.9224425717421068
-16.0,2.790273353244614,-9.817434447739846,-12.607707800984548,3.455239851134883,7.683229716325181,-11.1601005796005,-7.568876193552798,-6.629824280899588,-5.087589894683981,-4.657200188462582,-4.798377950617056,0.32196276938593515
-15.0,4.298988779687292,-5.36773654771279,-9.666725327400073,0.5615016055323623,6.9631401547720255,-7.5378335265068,-5.3636588785588994,-5.198471735045185,-5.171750349840556,-2.293120675476913,-6.916915548428816,-3.4572253451768686
-14.0,-6.366229416241625,-0.2850503002676579,6.081179115974065,3.358360485585662,-6.24926820235924,2.8843461929385965,-0.5545988716376471,-2.138617756170177,0.07643955233320576,-1.7182341863233104,9.877085840313107,1.5309787672303456
-13.0,8.897440299494484,7.287460557570803,-1.6099797419234962,-8.136125710454479,5.301855977023331,2.8303561982263576,1.397391094765077,0.9931713007534446,-0.5827683269967279,-0.6550930534938896,11.046822254756798,0.7486461150970369
-12.0,-2.9116890473302446,-8.539900248623402,-5.6282112012929915,5.6805640870679035,1.4042574630995333,-7.090716775380599,2.177403106383243,2.2106873502165056,7.5231878627370365,4.841350042766397,-18.844995567757692,-3.6342600152261415
-11.0,-4.36949291115887,0.7481673099346386,5.117660221093594,1.8396200277700743,-4.775018117691817,2.923687525841619,10.029519042146918,13.690425903228153,13.241357157187013,4.80333984637522,1.3164570134475015,6.8749850023745545
-10.0,-7.870867261398047,3.9316624877084987,11.802529749106482,1.9929660939686633,-9.864553600134618,7.851794555271356,0.06252877978591576,-1.0274143862196867,-7.88477255366611,-2.529765083915797,11.994061494878519,1.050545889410653
-9.0,2.1572269275966085,12.817678282152167,10.660451354555315,-7.468582832621172,-4.197289191987987,11.794654573935166,-6.372852428590674,-5.532429261374539,-9.215269405042624,-2.0284459875874066,1.6882870020388268,2.2162208888595085
-8.0,-1.1793289322342067,-14.003763329331342,-12.824434397097423,7.608443667866823,5.798735238495356,-13.445035993498953,-9.759400017160331,-9.202882538685941,-2.4935010236861954,-3.597396907153406,-17.46219495844702,-15.803399879051776
-7.0,11.31982546657245,5.490118847023495,-5.82970661954919,-8.465958514492431,8.546966807093217,-0.12839831422772274,7.256462476982521,6.5137818043801365,13.204428104325837,12.195170930116678,8.290466940060739,5.428956201013165
-6.0,-5.558875727733369,-3.7480997937504097,1.810775933982967,4.674311186200749,-3.7212847722201596,-1.010722018853675,3.984021273949799,-1.103027642255848,-6.243115949490394,-6.64378083443217,1.8343375979005414,8.20401668534244
-5.0,4.126182864931709,-10.034137451370723,-14.16032031630219,2.978900588980788,9.173944636187393,-12.063983111894999,-6.458844279332825,-5.697804975852084,-10.827615643723709,-11.235601865868466,-1.670837431378732,7.523759993497277
-4.0,6.518978810304564,12.170008133561986,5.651029323257784,-9.39436419762962,0.45307884464526493,8.862016599249559,-9.098288220388723,1.1399269749718508,-1.2120287781374088,0.7973762817741665,2.280384700007867,-11.898455698679088
-3.0,-9.806142880730466,-0.039119867813191433,9.767023012917592,4.954465412850196,-9.776006451076588,4.890969230925457,4.5947023506489915,1.302676593306705,7.119176742394533,8.229407589990469,0.23751178007279494,-10.739581893878059
-2.0,-4.8388949833443995,-9.505031236707175,-4.666136253362623,7.2054349619095985,-0.07917253145407255,-7.062212405376963,11.15844423200753,4.674497199729999,8.898080082184208,0.8084492794044493,-0.7938627171794368,-0.3162510243784551
-1.0,-8.226747963794796,-2.5627222424220637,5.664025721372721,5.350095749534006,-6.9358203558695175,1.4916378467819036,5.064534100949162,2.8616564055854696,4.997940497653525,-4.959388058166515,-4.669828559694573,8.308267255102809
0.0,19.42140358024609,14.375017057015219,-5.046386523230964,-16.942311469400252,12.171894114468568,4.681328728996799,2.49713788954369,5.570036906874716,1.9819669996712541,10.973393144060843,2.768089411013205,13.572147662836027
1.0,6.512771224145852,17.069140837390393,10.55636961324441,-11.754679449766321,-1.9949553243665186,13.828980969708782,-12.27468580274636,-9.161177232993753,-20.746140817078153,0.6043518852650305,7.775081931516309,3.278821674256525
2.0,-12.218004727182763,-14.742322688460536,-2.524317961277865,13.520081080790417,-4.809309934061708,-8.615255629053788,-5.196405135284852,-11.499099409948764,-9.483261925101559,-12.663375407515069,-1.5929255927089883,-4.067693728668374
3.0,-8.038446811832705,-14.077980703681076,-6.039533891848438,11.02506642470032,-1.0315815056193127,-10.036191295676748,2.6858976918273996,15.015725356976791,24.226800116626567,9.620114112922916,-6.380599055913803,-14.256973401461096
4.0,-11.827690143862176,-14.892364845177042,-3.064674701315009,13.412196277004385,-4.407779996868397,-9.028167501159194,4.916336218274644,-0.7067447351543397,-1.720905324058097,-11.128162935288756,-6.072874660462455,-7.553009818427841
5.0,14.603563641742038,27.41351295536088,12.809949313618727,-21.02972447749462,0.9511226537517177,20.069637686756657,-1.9422562696586336,-3.3174065257892913,-4.881151052133024,5.120302107567149,8.074944043205365,2.3185979242764576
6.0,18.72932424622803,11.621377673312228,-7.107946572915795,-15.194382300688176,12.892253394695794,2.300832689630975,-7.168764295911746,-3.75083766066839,-1.4594336553649796,1.7853378648025375,-1.5153452116561876,12.558601079284115
7.0,2.9765238505261005,-17.521268009690854,-20.49779186021682,7.251224320808776,11.706203780645993,-18.9591417023412,9.905961020227975,-0.9275700398411655,1.4672142445889877,0.9970437879853038,-2.3560168234662178,-2.825090594459727
8.0,-16.806860841502715,-8.150466850442712,8.65639399106017,12.451840688959454,-12.689232289353697,0.22861052719257646,-0.24714785347960744,7.042477331388788,8.57311186221964,4.821045300006441,2.9987903831914258,-0.2739516834461724
9.0,-1.2774972393269337,1.9084973810692119,3.1859946203962313,-0.2704116596087385,-2.272384698681315,2.5237311987992572,-1.3829487332850345,0.2875797761137693,-10.685863693155133,-11.230111973685968,-3.245815575521213,5.007280896071136
10.0,-1.9819589042568664,1.8389973761221736,3.8209562803790424,0.03301763975717775,-2.86498718005756,2.803719538151417,3.258331873938518,1.7085934825006304,2.461386440263128,-0.7474707778379912,6.535595526375161,-1.8366218923418298
11.0,6.7259545027885315,7.582021702652539,0.8560671998639222,-7.113811525858425,2.973074430930681,4.2656018053788305,-6.6617788512695855,-1.6135166105462238,-4.6618209825621735,3.5531738370801627,6.933718026020025,2.3939510311713703
12.0,-18.05305412569168,9.607209880890794,27.660264006582338,4.268554742465068,-22.892639732377194,18.59361469142142,4.8763223029058,-3.737402764214248,2.3682507175254477,9.402951988405192,1.3758201881261833,1.1807746356047366
13.0,1.845955701805627,-8.797050590686425,-10.643006292492224,3.4519914344405493,6.215089003646856,-9.689628019214837,-5.303691610660762,-7.584453001683788,-1.4323084549733327,-3.202433625872656,-16.051971715924992,-10.763432484035002
14.0,8.826230612029672,-12.108343428744947,-20.934574040774727,1.6277749977745224,14.858278630330235,-16.49786153926969,-3.012221282803716,-2.044391412554751,-5.1487720207644525,-11.394646556985998,-4.103020166840496,-7.796066095980459
15.0,4.307489731471046,-4.534861456674008,-8.842351188145038,0.10729036839244621,6.638312970816621,-6.74782304963934,-1.170579253243274,5.048096687278959,5.098346276589462,-2.888939448183244,-15.183189770490372,-6.888832172954397
16.0,13.966341824465138,38.88185730657345,24.915515482108468,-26.43028455677427,-5.484715857338209,31.917518684764378,15.54953669531889,12.482097568887674,9.194240238581482,10.750766739891777,35.164017886416,33.94826664781895
17.0,4.922001058286149,-13.337835384750441,-18.25983644303637,4.194014723501306,11.583518166675802,-15.777539119233744,5.161228465267644,9.292377436305431,8.244567240473849,12.230201770970734,2.948598751610577,-4.285250625842796
18.0,-11.947338879662771,-19.187671130779854,-7.240332251116963,15.539210948209076,-2.3615408384736867,-13.188057107389525,-6.985826032552671,-5.612357177503489,-2.1315536879490153,-3.405092101054005,-12.290892391784496,-5.600418506310046
19.0,-16.748109539365103,-8.834475350205988,7.913634189159053,12.824022093501375,-12.34349266911022,-0.5078950903252144,-20.476146833609207,-8.098620593095001,-3.086312231385509,-1.867281852157546,-7.108299545583128,-5.751365490981882
20.0,-8.994716087731565,-0.938015679794252,8.056700407937115,4.982323384694266,-8.468143344204366,3.5951207697009577,7.772431027142275,-2.281340265126767,-7.774042711256367,-7.650645811228222,10.381125247415344,0.3379573154938784
21.0,14.584658636398071,11.10367043327914,-3.4809882031191286,-12.840193126085461,8.999837887286013,3.77109608887349,4.654193330487853,-9.501751645597622,-9.10259452945477,-6.002890299151542,-0.43978499143725447,7.522976378911101
22.0,-0.5113580604690195,9.52673503691733,10.038093097386273,-4.508687082392892,-5.321099170897229,9.74306780723764,0.7839119437858697,-8.002475145198664,-14.943019083712693,-12.084925389792074,-17.61244275997885,-21.75145521488529
23.0,-6.283655041847432,10.800744685456387,17.084399727303836,-2.2573781506506565,-11.664188518053123,13.981752969259238,3.1609788760672655,1.6085314714646994,-2.7512021616084392,1.4073527261108767,1.0137020461606365,-0.45108976632796693
24.0,18.634720486162294,9.548629513696753,-9.08609097246546,-14.082977614387824,13.871297624136362,0.2700004387610977,2.8181480273223527,12.126694473860733,17.91038744254737,13.424325556784224,20.616654281161704,18.212274096030402
25.0,11.185973067173425,-9.391924445525081,-20.577897512698442,-0.8782796582701593,15.889696830153529,-14.946392928619462,-6.56922706263806,16.580819963475253,25.960223892012326,13.704927775820572,-6.3926228900657165,8.319199949097705
26.0,-3.0255536869929722,-27.58366922477017,-24.558115537777198,15.254342955796474,10.777603137200886,-26.111266181869695,-5.0822151439623955,6.439684595961828,11.81212638107174,11.534599718483257,3.579374996013676,-11.11841948099893
27.0,-23.93666142723564,-18.772904214192003,5.163757213043603,21.312123414484745,-14.529572906595051,-6.845420252207328,6.403846016138642,-4.854282689410663,-7.363930848006578,-4.835290532242252,-1.5123277206295267,1.8210132550228972
28.0,-5.398663503994474,5.112747625210696,10.511411129205118,0.18418775845361424,-8.000670395676995,7.770411517389232,7.740851067971854,-16.77864765036167,-23.67610687139764,-23.391085908926694,-9.188751510588178,-1.3350006648400294
29.0,0.3900275095860932,32.20257820012874,31.812550690542615,-16.251511496293965,-15.66597801542963,32.04410649792149,-1.9072583271646169,-9.566421390057881,-15.85993372120823,-2.1701791483830704,4.68809987757219,5.861705884424868
30.0,7.149456498300332,21.850889288275127,14.701432789974719,-14.53076491360287,-3.8008823112419723,18.313328479300797,-1.329962078172823,6.338931927460887,7.327554537052931,8.538170981674199,4.599663302752333,-0.27867176540990257
31.0,9.78461876557795,-15.549105895467813,-25.33372466104581,2.8558915269130907,17.537232847094785,-20.40207077082588,-11.764617404901026,3.3944416248610705,0.6129851613870422,-7.594883186009788,-13.96401082222718,-19.75924979856458
32.0,-0.143550796823944,-2.7161305091746266,-2.5725797123506595,1.487587959330882,1.1898048003727926,-2.6806449346650787,1.2353210115637658,1.7052468084070194,2.754675480401778,0.7776445523774862,7.939094556232582,8.259086793392704
33.0,0.9936578852750773,-12.427392815630155,-13.42105070090518,5.7016140116482275,7.254693763503937,-12.957908787261768,-2.140922289708193,-3.9741729354517528,1.2468694567948244,4.350648854694077,2.0385104739000757,-1.0762161159754586
34.0,-4.145719291497542,-10.827705995174313,-6.681986703676735,7.476220701612025,1.2290950949822763,-8.70925762736919,9.20829500458728,7.074131133321127,14.266483179221016,3.9375670598838535,5.03032311649655,8.576543711376964
35.0,-0.21033598487587657,5.532589447254116,5.742925432129982,-2.669373690806929,-2.94238835075944,5.60220884817605,-0.21637307156648156,-4.6546663226993505,6.44848563847846,0.44501163382097486,-7.860391412538407,0.38803342716234823
36.0,-3.9445954175455826,4.4783744387309845,8.422969856276508,-0.2764922391849742,-6.150781420239981,6.410219192835135,2.9209580306733574,-1.044152813170073,-6.032917771856056,6.7255364745652475,2.7480423672545617,-2.5011380295050984
37.0,12.506875187911113,6.555288970513834,-5.9515862173973275,-9.545906857513415,9.186870414017392,0.33427962752254015,-0.22116188953199245,10.458210605683032,-6.154996922197752,1.9967606881831492,6.052790573879033,8.099957452439758
38.0,-3.0158801762527685,3.1305006325719367,6.146380808824705,-0.0018930363700908615,-4.53795334456125,4.666120622093243,2.1424035801772643,-0.5282992768375947,-15.398979660814277,-14.634805549971448,-6.911975399904248,-1.5850240562867437
39.0,-20.738445599734163,0.5270850420311777,21.265530641765412,10.07173558098222,-21.029570833116626,10.922112354624279,-7.953631818827521,-8.333569429953723,-8.60190308919621,-9.45862543028207,-8.276760120070882,-11.495446482479533
40.0,5.100584672987753,3.490869406576791,-1.6097152664108956,-4.26216759050903,3.3345864601038837,0.8893903887942489,-5.289135886508198,-8.567278619438605,10.912038898834627,10.895781796868281,9.164357852038187,3.199166908224038
41.0,9.456036785785523,-20.928486782026592,-30.384523567812117,5.680672168220268,19.904482857409107,-25.623939699778475,3.567459697809374,6.931325190148998,20.837863612257927,8.96762631774961,-0.7307158593355139,-3.199677853420299
42.0,-18.032169419120592,-17.910740030726675,0.12142938839381223,17.98655295994623,-9.090108680699515,-8.933832379156486,6.968815907684285,8.311646387971518,4.298763624282028,-4.667798260674728,-6.545036911262493,-9.914772996779377
43.0,19.30073494216879,22.977949809152143,3.6772148669831166,-21.129072303083646,7.878372566484247,13.374611712938458,2.5772361874581238,-6.06552537632555,-10.905233182181561,-6.093712216249795,12.846414716996371,14.372296210629662
44.0,28.122775611141584,18.233190130444434,-9.889585480697454,-23.168932647885537,18.995160625801546,4.146631909186697,-4.12251400697183,5.273031550021598,-0.7704070329428587,6.0618739223133495,-6.892749020995321,2.7618816599336267
45.0,-12.316875581586938,14.24631008995528,26.563185671541902,-0.9538218874565398,-19.449099384437297,20.384432109572824,4.75165767912476,5.805987803976682,1.3292117026449262,6.951174365233329,2.0436194894719404,7.655527721654956
46.0,-14.97592245264805,-2.706582260048507,12.269340192599316,8.855708573320161,-13.628729174574378,4.764109181833117,-4.403289285575876,-9.609462638351175,-11.558070689953828,-4.715085955386444,15.585868529532505,9.492644276988038
47.0,-20.636395132709044,-12.674202759519726,7.962192373189331,16.594548587140697,-14.30185709167775,-2.2929148448349244,-6.54689700934652,-10.28206999281582,-6.574460794332836,-4.273150284476819,0.2533325605550245,-2.0606557793297022
48.0,-5.842164691128607,-31.810995779354393,-25.96883108822548,18.846599806042203,10.064040372609556,-28.904935131037675,-2.349720577213559,-2.54346035744835,2.4997956134274797,-9.945834103063726,-26.219862376280687,-31.170392192352892
49.0,24.035201953198616,-8.33666764821588,-32.371869601414076,-7.829502031451398,28.206346060490134,-20.369433044633283,-0.06094301236336952,8.68141544188715,14.81878932485896,8.047039107734431,-14.869384384989614,-13.630286370499563
50.0,16.923011605595878,12.194310661117623,-4.728700944477959,-14.541160695642658,10.828859268849031,3.716509582551268,2.888011118286113,5.647634459551899,1.0692279527751918,-3.411892874670688,9.90817492580593,12.950607883353312
51.0,-6.065695198597039,17.003966210559646,23.069661409156645,-5.533412595646398,-14.566802059644775,20.096684254441666,7.441043014710459,9.002118164160468,6.3524086636408805,8.644109602446624,8.799674428877358,9.971248544399145
52.0,-20.97936135726035,10.518741483928991,31.49810284118909,5.242926555718068,-26.242256709102108,20.98510314254024,0.17585177740407154,-11.573325488183569,-15.003109829790272,0.016713678275817045,10.89457769125001,13.101113710740474
53.0,-7.323613931364922,-11.94419538333666,-4.620581451972029,9.647894547154905,-1.361171443125352,-8.311957820063684,-1.9519361280668819,-5.894044179126318,-7.881834924092979,-5.455732512960696,-2.249341453238346,-3.672627476523214
54.0,18.27365076599512,0.25198863844514063,-18.021662127550186,-9.242787731237431,18.13110313033911,-8.921715146855338,-2.3888300391039614,-2.7138956998235866,1.0417198620993284,-4.612356419847548,7.474019636449466,-0.6474943698469307
55.0,5.544253574558516,17.812496332491378,12.268242757932823,-11.647455191137581,-3.306311254199265,15.075243706715678,7.637974770828147,11.590666529412092,14.476433284349875,14.28349729430125,8.694511695185568,10.560972942119143
56.0,-12.966162763134554,-9.20777303784324,3.758389725291344,11.053584285119491,-8.390440310445367,-2.6950337443095655,9.174436901412907,11.40042415657509,14.137843765369023,4.574825394124655,-15.681781570459531,-4.512025238397165
57.0,17.55585785028442,-7.155628251349094,-24.711486101633508,-5.217878634829703,21.10246062711363,-15.90645653462674,-18.60547428744212,-4.5771484999036804,-8.361885337935014,-9.495102877094483,-13.416149631691354,-10.963094409342617
58.0,1.6360549383137453,3.919061522901636,2.283006584587884,-2.781292172717867,-0.2768611148852651,3.049347463638357,-5.440171193909635,-3.598169715994019,-6.864681542263483,1.5169368902964369,8.648996455161626,-4.575119139938233
59.0,-12.081254427673645,-5.7170566517909975,6.364197775882602,8.905424584934584,-9.254195152529393,0.35206089203471524,2.327044088834022,-13.195945972873762,-15.129997283186185,-5.841875447413903,1.944907073070707,-2.6287038565384733
60.0,3.7105182542170745,6.474928373074603,2.764410118857538,-5.08215919932938,0.5215370610817844,4.570839684592677,1.3896726194979878,-6.433706889495407,2.583691183040596,0.04787317775657973,-13.442768184899723,-6.142525192594338
61.0,11.455936510645644,-11.118523718471955,-22.57446022911747,-0.16032881687080686,16.985353335640564,-16.81641065203094,-0.8547806605467909,1.8258960186425064,-0.3267201829855241,-10.682288317144513,-6.6617455136329795,-5.570686857543089
62.0,-20.6193586274415,-14.510123047269298,6.109235580172421,17.564601609488932,-13.395658985632615,-4.172143623433431,0.8439631260820941,12.345025606121364,12.384512141081343,4.806419810716951,10.627794054473702,9.847626041411836
63.0,-34.856289641066624,-6.633857732912167,28.222431908154704,20.731154652731085,-31.49599680925756,10.740201936415193,8.026586198595618,2.942831400181298,-1.3786975985135594,-5.148798335835238,28.85157148670283,23.59627672040309
64.0,10.911692852879902,27.383219896572623,16.471527043692884,-19.178504782527618,-2.8215610523687946,21.947361862484208,12.814395437257959,8.348548258802818,9.230311664656107,26.948862102010924,-1.6521864600044651,7.114910035658692
65.0,33.67418043279941,32.08907681648139,-1.5851036163181051,-32.85189648099306,17.65934071398941,15.267610032592945,-9.162129403211743,-4.8413759728727035,-2.507183249477193,5.223041569890034,3.2000724200182677,18.731854803506614
66.0,17.265690420366266,-12.114086559935021,-29.3797769803015,-2.5622497783188543,23.345502972269948,-20.73377234581013,-18.98503480558268,-12.551273083925153,-12.42358534965178,-9.395408954233538,-36.07174355243805,-40.93949992466888
67.0,12.493901023096301,-17.224584939028162,-29.718485962124674,2.3666861294915043,21.045545705757956,-23.536237914522797,-1.9694432241712931,-6.226294749054492,-14.433463038456557,-19.05259612396256,-6.954087965635647,-23.416490980219393
68.0,-19.910009190240746,-10.553970562608253,9.356038627632362,15.226413615355884,-14.615805223448017,-0.5797785900891181,21.65795577961512,10.261297876733012,13.632307118984476,-3.1344396288360006,13.842677402121035,3.2302211605974165
69.0,-34.62606570020003,-4.809625857126983,29.81643984307301,19.7109624633946,-32.20029859809294,12.5319085076245,6.0019099818672075,13.416290729419583,15.747517529238367,10.482653446364067,15.27637660265761,9.805862012602768
70.0,-7.7648285311198535,0.77485374251693,8.53968227363681,3.491886007420968,-8.123150675279696,4.697899379463648,-12.067384128887214,-8.351033471450098,-0.3419135751830451,-0.3366194955176538,3.3810112583348513,14.907513724566394
71.0,35.08397604981374,12.359958915975913,-22.724017133837755,-23.71731768012519,28.865544182865232,-5.207757192992819,-12.515412931420219,-4.245394619669285,-2.6099363094228627,3.961899316463983,-23.482134821515004,-2.650998443817077
72.0,2.875352828252172,0.5515747507797517,-2.323778077472383,-1.698566495611372,2.573020491265451,-0.9022816705740223,2.115543722549175,-5.054627695350645,-8.84848924968569,-1.0626733439643337,0.8551332853222249,-3.709911787060787
73.0,-9.245124968325113,6.1771357560085525,15.422260724333656,1.481234493474493,-12.271640024227985,10.787612525284784,11.265964236118254,6.619673678621601,-2.6767463702610543,8.390942706426372,18.826956875514412,15.22724646543329
74.0,0.21655950818332237,13.399313217925162,13.182753709741808,-6.771729580987641,-6.494574158501386,13.276421778575376,-2.0316320703998922,-0.10654403781327049,-2.5376881155492166,1.4582869129629397,12.390450201048436,5.1331302337957645
75.0,-8.866471911583655,-22.31445840795797,-13.447986496374343,15.634314648311394,2.2781889498888446,-17.904311681131098,3.17374186450704,-5.340251334364977,-2.6834282101840405,-13.44783117749485,-14.220532778452322,-16.408417177482146
76.0,-0.7005117938709957,-19.32819461626748,-18.627682822396473,9.983027696176771,8.94339655273722,-18.934551162087196,-0.19992309155899735,4.192286839879083,6.864980354149096,-9.950904641633281,-15.671874324838296,-6.772911943074548
77.0,5.84874535686721,0.4944416494674915,-5.354303707399668,-3.204345648260949,5.568691884207091,-2.399832764082147,-1.743916105684856,6.239922450342528,9.188853501986753,7.784347809830123,-3.0419169154905976,-3.2923418250070737
78.0,14.22752532458108,24.158895617662086,9.931370293081065,-19.153579824533423,2.179248546708367,17.06343819912262,-3.5626743878658877,-3.9593933638985055,-0.25781701719746675,6.759276842998945,10.069995830591832,3.2663440870624685
79.0,-2.39439279929005,17.680657632418978,20.07505043170905,-7.692244867910779,-11.216962715599413,18.80887506306545,-1.592503415846308,-5.19785881623168,-6.862866685122887,1.3428196038395193,8.004738229686833,5.961660606160805
80.0,-18.584869165126502,-13.631748076242342,4.953121088884156,16.126748181033495,-11.760519977040376,-4.333800596940147,0.42640374483603005,1.1973925780786954,0.6311932820815374,-1.1403108887458306,-1.8958352633906963,0.4682941288200837
81.0,9.80333499537862,-4.653597571267502,-14.456932566646127,-2.5658905679021657,12.13469709284179,-9.549252666256493,0.04973019536072104,1.1328886340911875,-2.3651948320449163,-1.836827047085718,2.7101354605535057,2.998489452624653
82.0,2.531541000204743,-5.1360964850311355,-7.667637485235874,1.3061481425284969,5.105043976572531,-6.390560523686804,1.3884430295699497,2.2245696144538285,2.110852324478997,4.063789861535395,-1.8103347853509952,-1.670134310778137
83.0,-0.8537248916967515,-6.426406240246531,-5.57268134854977,3.644677472337297,2.368710456425127,-5.978652966291083,8.082185425763578,2.9046597388095563,2.666813126932952,-2.2585983862728067,-7.193727037235492,-1.513271028872555
84.0,0.6777369321387785,1.8566438011694548,1.1789068690306936,-1.2560584853707053,-0.3157597426865768,1.4726289330196094,0.11679172513878644,-0.8069830733223737,-5.856756285624721,-5.554480997305763,-5.658852321548435,0.38056321975357865
85.0,-8.085986672964374,0.38678664003636554,8.472773313000763,3.8714777556110302,-8.26263188473106,4.477451250215768,-8.14241375044388,-10.391608888089959,-8.768136759206309,-2.4594976963655486,1.7179220594048674,-4.392975515009742
86.0,-7.135514498299935,3.4214356625398827,10.556950160839815,1.8126921261696451,-8.828025566675889,6.9714163731914525,-1.187642057695402,2.1344511647365314,3.124415723129831,1.7913432086306862,6.73880523075804,0.21851092195400157
87.0,11.024490594568741,7.632175524903225,-3.392315069665547,-9.360868783639628,7.22703125387376,2.1126511629463764,4.870649091599073,6.971493780847894,14.757863315519012,6.83650632088889,5.362464823925103,2.8590826240502207
88.0,5.349054968659518,-5.154181025252608,-10.503235993912156,-0.041921808973883756,7.866852289383512,-7.829777863493749,-8.47918816422682,5.507299666602481,16.187224163317687,5.78701866700464,1.7936971071262366,0.2704197441058884
89.0,0.7917293756384955,-0.46618969404412947,-1.2579190696826164,-0.17997136089361732,1.0470132140130417,-0.8617582424769621,1.5988281027118583,1.4968676177330411,-3.4204528698997416,3.0576967393188195,1.0808877231488516,3.817403180606005
90.0,0.7273565453777879,6.750338747033643,6.022982201655886,-3.7530971567737113,-2.6201892977488237,6.383974534535698,1.9600263175147505,-17.15787942882345,-22.648953569725315,-11.927751594672088,-6.767503963894635,-2.2933891304308176
91.0,-8.628183555554962,-2.276984545144181,6.351199010410821,5.43894161324452,-7.454381614109801,2.028458225326398,5.3437512413688815,-1.644969582754201,-18.09311366102512,-5.279451465696283,-8.072680925086809,-3.660194748706468
92.0,6.511086838520461,2.565885028158519,-3.9452018103619046,-4.474322454063023,5.1928646517231325,-0.7054756638956268,-0.5100858227123766,3.714664059855601,-3.653235245000162,-7.455700542815114,-6.191742900047199,-2.8562817734148975
93.0,-5.058280634616089,3.3299536727025627,8.388234307318667,0.8475394653851677,-6.752477567791593,5.915231477266419,1.7397527966125657,9.562448081480104,17.322703175853896,2.653606227156196,14.811334350549291,11.235375673398387
94.0,-3.727811366252056,-12.054018788695519,-8.326207422443462,7.871165632123134,2.350266590424853,-10.218291101948939,3.542194739570239,6.065653278223698,25.20306350758655,22.412039309672565,11.534694976345143,3.543072724225774
95.0,7.007734478072335,-6.056280247791551,-13.064014725863895,-0.49993724789621075,10.003929806536213,-9.513956296669683,-3.4787144508674075,-2.6585810353491075,1.6105954957099282,1.5670750485040887,-8.445496362985443,-8.452189801676598
96.0,0.5918572728359148,-4.051782113085276,-4.643639385921208,1.7785589835967275,2.5762225428297767,-4.384115578199687,-5.185272607807011,-4.439139587387041,-8.166136169180522,-7.942391795477368,-6.3195565580805715,-7.341719656904905
97.0,-4.098014331122913,1.9469777123118626,6.044992043434749,1.0381750907196559,-5.04690153543939,3.9556534281796156,-7.075248139313299,-4.989021471261169,-7.94227639576196,-8.328574865867747,-8.463582175938754,-4.245728540563299
98.0,-5.1633171701312985,-1.3646362194171786,3.7986809507140986,3.2976704739874245,-4.468628430797239,1.2514587191594568,-4.01186882194208,-6.446636753752144,-10.348773254101147,-4.919548961971471,-4.786137293896099,0.4417484459839569
99.0,15.657271072263704,17.86588328154073,2.208612209276998,-16.81373771967739,6.7283403464185145,9.989739935567204,7.277796761949242,2.917134710094109,-6.009400717449317,-0.22248035700252666,14.827726854316989,10.140072480790165
100.0,0.33840827653873795,10.25729340499985,9.918885128461064,-5.276464412214241,-4.78836984227465,10.118187118314598,5.436603476901755,1.3136674865037032,0.7149409918552334,3.6617268212955207,7.462174477613369,8.40570626848824
101.0,-16.298227715530885,-4.436413021974524,11.861814693556335,10.386469629069708,-14.073673416186283,3.7446105489962838,4.84132815687531,6.8794787338453105,12.675980066886908,9.886681196148169,7.850025513116722,1.354861628248151
102.0,-5.988800471928698,-9.986474936801502,-3.9976744648727816,8.007942394423761,-0.9797978195838981,-6.95553250405433,6.032550295345766,5.906822100046517,9.512668607025725,0.8238502710527422,-5.619322131103097,-3.1464964671605102
103.0,21.400316170746354,2.3897313018817137,-19.010584868864584,-11.949368139338066,20.232392706418224,-8.346506154974334,-5.85154703400761,-6.0150862278769495,-1.6146233728878991,-5.006532488934608,-11.367337980007628,-10.218800930514128
104.0,-9.837039966521877,-9.894350084785021,-0.05731011826308219,9.895895715425889,-4.932231661391674,-5.006270129970185,-2.8266876134039336,7.27260429836933,8.566704776434523,9.841157103275197,-8.925375557723921,-2.8102156816327613
105.0,-1.0806224323328224,-1.6314418464200502,-0.5508194140871945,1.392024592754734,-0.30201723174083694,-1.1181706461487968,-3.2323248738310655,-3.073286023872246,-10.07241280394032,-10.613093177059769,0.6200192462153282,4.2745785011611686
106.0,5.326296574045161,2.04792059192921,-3.278375982115949,-3.725687172882962,4.2658092995517425,-0.5631445675633393,-4.9951873718608155,-15.10416104575841,-19.094957597153627,-7.422759150048867,7.785984854447735,2.4857469475734044
107.0,-4.1686302599662,-0.5873746145083882,3.5812556454577975,2.3410247670692357,-3.835272104830094,1.4680042372999105,-0.022812152447700296,-1.182192660295887,-3.79587222407571,-0.08041019672946392,3.0325778206032057,-1.3512837239456452
108.0,7.973280412879314,7.686782311223329,-0.2864981016559929,-7.789194738263399,4.166414499924916,3.7463220492604705,0.2828343082907273,5.134476099164494,8.254352099939682,1.2160400217941265,4.821035990170389,-1.8601848003834802
109.0,3.4967594303895213,6.393306600780546,2.8965471703910364,-4.985413038101674,0.3350520716380605,4.609026155154886,-1.5021893738302983,1.671764104218198,10.724883880569225,5.127910436715251,-0.651332217873005,1.2407983042786324
110.0,-3.912567319453105,-1.9099323818655263,2.0026349375876116,2.9471165224611555,-3.000711860599133,0.008962615622163383,6.871528420179919,5.016066097015301,5.8059485128424555,2.4750514232719882,-8.077228427104684,-0.3529393421417548
111.0,-12.863151544709153,-9.048236175025682,3.8149153696835008,10.99032379357417,-8.301358579338164,-2.5739945921801697,7.59446356998144,5.140598464922091,2.75553418504568,0.9049856045427274,0.8177334064692947,4.511418167321347
112.0,-8.037965496237351,-3.5897376930994644,4.448227803137903,5.770343195450187,-6.2826776108803015,0.4760086242311923,3.150008416320973,2.0865461507900793,-2.5092114536969072,5.208810739829095,3.3212438183149566,4.160955042960077
113.0,2.0021010152509153,0.500547688748775,-1.5015533265021401,-1.2138918046230032,1.711453895334964,-0.526641555395333,-4.605513859541585,-6.595900805575781,-10.377455152121367,-2.958465504441363,1.809157739427851,-4.531019635646409
114.0,11.641356837239993,4.761992389624024,-6.879364447615982,-8.240072775820376,9.294976706524373,-1.0789812575080286,-8.53844548713951,-5.319891601919814,-6.513065162268596,-4.871780080490156,-0.118984078481089,-4.212253452118837
115.0,14.81345374574143,7.084442660776613,-7.729011084964846,-10.984696741930966,11.299868431162832,-0.3385176249461699,-5.693370065550446,-3.3596455598101587,3.143292364729885,-6.527094630089751,-6.866502921287458,-2.4176910474310818
116.0,2.797607796683068,3.2171240094641975,0.41951621278110185,-2.9628115114564846,1.1326657086116692,1.8032592299288464,0.24666134512363147,2.1807301253801814,5.244394169098088,0.7882314777116326,-1.0300757985556142,0.34959598500289313
117.0,-2.7527983654726094,-10.51809394461867,-7.765295579146086,6.679887608294646,2.5245133986748898,-9.079808754514396,1.0294891608180663,-0.5320037035810752,-1.6445394571357914,2.304978127735829,1.155967273191477,-1.183269946441013
118.0,-21.885186098612966,-6.377437277188305,15.507748821424634,14.094894213698996,-18.67802926311978,4.544373642917028,11.085301797874557,11.632297952471266,10.152699200243061,8.711126163755855,8.362934836488055,8.865053740946099
119.0,-14.318312595201888,7.244525199662104,21.56283779486397,3.4963447201473166,-17.916668174267343,14.378325188469264,6.683910629714117,1.699988979173579,-1.10481702956859,2.5107390759034574,4.0427206039122705,3.8351039967927774
120.0,8.196770580834187,2.938539180372776,-5.25823140046143,-5.535177503736477,6.682889949013493,-1.1888418225807387,-5.50876718645777,-6.788083364589698,-8.764526326991351,-5.642378361945241,-2.984877834753653,0.691192596152002
121.0,14.101251049507152,2.044776141054287,-12.056474908452865,-8.046896004290458,13.125971797198536,-4.9576029664264745,-4.922714201388535,-6.267244869295529,-5.765808408270438,-6.066873951850861,-6.924272846130537,-7.904448177847919
122.0,12.876041819455299,-5.525711161007245,-18.401752980462522,-3.733459194661923,15.620009572507572,-11.914541586534856,-5.441466428922741,-3.6655898197167827,3.1098439855329802,-1.8365411361225394,-5.970397878446672,-8.865269046445341
123.0,5.0868918203058655,-5.2653312646355,-10.352223084941329,0.10608280243503243,7.710215510375858,-7.835677206520346,-3.769610581681588,2.890718252278218,2.2819753152053113,0.6335202030250529,-1.4734910329915634,-4.045523277603412
124.0,-11.657857003760313,-2.736383093434425,8.921473910325906,7.2134243308874115,-10.294758793195912,3.0685702767351466,1.8216661312334286,6.150374551027284,4.604224032527978,3.7357157866901534,3.6810395386717363,5.56359178350334
125.0,-8.521714257997974,11.393921349132272,19.915635607130238,-1.4171531543689917,-14.225340256025097,15.632581209728286,6.617833754338748,4.04316759715155,3.654336450270395,6.667545184866075,9.081391298991267,11.537970346249251
126.0,-4.004033075836624,3.99735743484948,8.001390510686072,0.027379552392845286,-6.01559428126026,5.977135425201059,6.810113994977028,1.4423487777345332,-2.7011072012668236,0.5593962495802969,6.456038671042434,7.972105885361238
127.0,0.7520073150548834,-3.6182969007992045,-4.370304215854123,1.3845544765252251,2.5397876592802664,-3.939367399595862,3.774412819471729,-3.370701186727307,-4.058626202748252,-3.829119057237669,-4.069655479136253,-3.3003014065103224
128.0,1.2064648435491725,-0.1147498279588659,-1.3212146715080775,-0.5888004513929429,1.3130619780141042,-0.7440331598794934,-3.4390697171404643,-4.543846169459169,-2.0669501893583018,-1.9840032486216348,-6.0269221175028,-6.300572390156675
129.0,5.265125607118955,-1.9281664836187817,-7.193292090737776,-1.6285223048658883,6.272331494215476,-4.510062199208908,-8.904281627052184,-2.62749104886445,0.1095042560151489,-2.0620387619091898,-4.031620227325028,-9.209791625631626
130.0,0.7585447077018346,1.2881402315524988,0.5295955238506211,-0.9810751193628663,0.07502860453247262,0.8793148000131135,-7.413737855837046,1.56700807130989,2.125051180385208,-0.29945081923615224,-1.8201872265648222,-3.6040883975149534
131.0,0.05320181490229814,-7.477887170016876,-7.531088984919219,3.6765360638260525,3.828757271146292,-7.53517984203989,2.075607918053457,1.9748169961136155,2.3654124765235527,1.2937954855468963,2.603479248209183,4.171529658535851
132.0,0.4515833958725486,-1.9408526405900268,-2.3924360364626245,0.7083530491552497,1.3766506614610399,-2.119966636361493,3.3404727452356324,0.2884681783203582,-0.517520118984582,1.7181681474864288,4.832164012003442,5.669890989974643
133.0,-4.604090139960573,3.341113061767275,7.9452032017278,0.6728477225110684,-6.32478630541024,5.6089347529009075,6.302156411640976,1.4230780896878688,-2.7773902822704066,-0.3316003910481564,0.8872475374668798,3.6535369088886656
134.0,-1.3321437555334628,7.0060114445128505,8.33815520004627,-2.796938293923172,-4.812550763034757,7.713556789641232,2.642704051112935,-3.470158744914721,-1.7694589862109673,-1.5137087175842876,-1.7073728737844693,0.04861060457428845
135.0,9.901736237407206,5.766129041979433,-4.135607195427795,-7.874114480796412,7.0356448244896335,0.7745103312510526,-2.748730512239152,0.2166701243830239,-0.10211514237810382,-1.6468318818423762,-0.841975247277138,-0.3920390294997096
136.0,5.667419582834583,-2.9940843450632593,-8.66150392789782,-1.3782270918613198,7.178287860567566,-5.871366330322487,-2.0703388892520325,4.025283761516664,5.803290703438858,3.4583351889554317,-2.5115685293482226,-2.4950738972013906
137.0,-13.479577322210393,-10.779241869352914,2.700335452857548,12.16550066037609,-8.075295894707605,-4.005139492374506,-1.3648300481037432,1.0033288448755018,1.2680336402016306,0.37464771920725215,0.4606065848600873,-1.460549451899472
138.0,-15.142311163647424,-1.1686637917160274,13.973647371931479,8.191192461371935,-14.538321900117781,6.438776844174276,7.708418780597436,3.4253006590904045,1.5837278251132303,5.313945513785342,6.235416436546378,0.6267115214955661
139.0,12.559746178393807,9.811369249213437,-2.748376929180319,-11.227720383905421,7.602924274945624,3.5724082208155132,2.89761991267779,-0.5195254029549364,-0.9517876766924491,-1.3187399454228992,-0.42698886718373785,0.2994166105644266
140.0,16.725301177091243,-2.822810561070458,-19.54811173816172,-6.9907902063394936,18.17319866444943,-11.217384767763386,-19.143434956136147,-12.83161489504758,-9.944767349979498,-8.647737587596303,-7.336065712375801,-4.861858104009486
141.0,-6.83455071076216,-5.507802210498684,1.3267485002633972,6.2148451841816374,-4.115135627080617,-2.1172159215834045,-4.9529702667775375,-1.783367478505304,-1.7929985055404596,-1.822681689331679,1.3899685479161705,2.1741590219700786
142.0,-3.850036364014508,0.5126968933443472,4.362733257358752,1.7181321574342419,-4.135539308435089,2.41403535235733,11.875719938824368,1.5250767511758785,0.7566648824834787,0.37751508086428953,0.6129086146519185,0.7705443035793695
143.0,-3.5840381557123555,4.886838118499526,8.470876274211799,-0.6748009632760024,-5.975327293226319,6.655660582537413,8.106804767621432,7.571659989234238,5.318799511195079,1.213962884921945,-1.19847327031794,2.2507222798900592
144.0,-0.9110875600090633,7.2581370110871735,8.169224571096207,-3.1926179958830874,-4.566601967836899,7.768253880356093,-0.9376018170815623,5.78074249850282,8.220209783615799,8.800826375269981,6.940451659605998,4.727743215215374
145.0,-1.4701034828990744,-4.831261613968592,-3.3611581310694896,3.1328486778707134,0.9964417548518543,-4.121027611720905,-3.654901240882938,0.065186980937737,0.14519391601964093,0.4921545892235075,-1.6929215890017568,-0.01935781545636983
146.0,4.254322344781457,-8.489202745543514,-12.743525090324924,2.097196158867453,8.468907632724383,-10.56115027247272,2.278348256562243,-2.720212407942742,-6.1842872013752554,-4.276311219326844,-4.138313620448658,-13.121514816979447
147.0,-3.184050573048669,1.2436194504167037,4.4276700234653985,1.023142501864311,-3.8382461464419864,2.8159251085577477,2.629797729837404,0.4184191879482162,2.527260853011518,3.458627680494844,0.7637347687104037,9.4340543627573
148.0,2.719295434731179,8.991920370484047,6.2726249357528445,-5.888770871419627,-1.7323833379881046,7.618358459501263,-7.961003249383035,-9.74779338115184,-9.590177516229426,-7.435635429653798,0.44554404622848587,-0.12296606532737009
149.0,1.7883175551412909,-3.853470673946517,-5.641788229087878,1.0708577484713153,3.6792138121523834,-4.755095101219183,-0.38489604742047767,-0.44768678777294024,-1.735201809602017,-2.034803385115299,-0.6423325308418243,-0.6213609302835996
150.0,5.999870413645037,1.4123560438255731,-4.587514369819554,-3.7522160057628233,5.336308116617153,-1.5894724631912682,-1.1379195388887606,1.972521877337475,4.689497394577167,1.8190029551387894,4.020769465863383,-2.57167509197658
151.0,-1.7108885054198095,-4.976773030558883,-3.265884525139144,3.373614205109196,0.742346335806251,-4.119668885235368,2.707762454604793,4.911953081071251,6.804749933479773,2.1791782546305436,-5.164104645463022,-3.7589135880469726
152.0,-1.7145914132855535,0.8365203334280225,2.5511117467135365,0.46912074907579915,-2.165850950794587,1.6965190372632155,2.966041564721846,5.274512862908278,5.820620049543823,4.884554164286064,0.5815869300027159,6.7730344878093085
153.0,-6.378425567363557,-3.2317487140002266,3.1466768533633287,4.759623703781682,-4.714071038973186,-0.04115356621749533,-1.75507917620151,-1.04381110463153,-4.499669554597828,-0.6208905395176267,3.281956751722757,2.9732848504149407
154.0,2.5642033163801243,5.889017903351434,3.3248145869713333,-4.266729623376814,-0.3296996161780541,4.605184029556062,-2.886470113736027,-5.6421762820437324,-9.271549615192932,-4.781373853383046,-1.474132648706009,-3.7878302484635626
155.0,-9.349777138832494,-2.946081621234076,6.40369551759845,6.19296319954631,-7.90496054061099,1.7228576793873547,2.3925195393363947,-2.211428283520362,-4.042265380786681,-2.000437254636351,-2.0127534538852094,-5.233073922993514
156.0,-4.046150999543375,0.05211642486093926,4.098267424404344,2.0481781688308445,-4.1041718729357894,2.0644421231477406,4.934714956961106,0.309050863387589,2.5799000623575337,5.479158105034985,3.4479030533997053,3.3476198713433036
157.0,10.505190279665086,7.093747650816603,-3.411442628848473,-8.822672962747777,6.918440380622178,1.9039260019377837,-3.6433978072738444,1.5480372893522878,7.44871896125643,1.9625947161804518,1.1493545286002291,5.476848085300053
158.0,12.197901830532963,4.187736502059189,-8.010165328473787,-8.214627885246184,10.13175594061746,-1.933021362282442,-0.21949472068220266,2.5943504684867666,3.771917314985344,-4.796930598267167,-4.0008588784344505,-0.40362355301487507
159.0,5.774624638208925,-1.1367851429378983,-6.911409781146848,-2.3428143859773796,6.358604476733303,-4.0525593251372305,-1.7568123666227748,1.2265706891152643,3.2215325965565795,0.8380315856191132,1.8292682384821783,1.1845379899685364
160.0,-7.433518221350457,-14.873538152808305,-7.440019931457873,11.124700644954967,0.008534344843103003,-11.192567802915622,-0.6510916701321587,0.07491307362153954,-5.1609289928765305,-3.4496105999884676,-2.865305746163545,-7.394564801467687
161.0,-7.503656387402561,-4.676783154768732,2.8268732326338206,6.133957407787738,-5.166067338488001,-0.8892328482248946,0.04036144426336841,-5.499305502713344,-10.755561781497047,-0.8259254316769611,-3.9488352952289727,-9.261140513075228
162.0,-4.479331299755194,2.3664653016610053,6.845796601416219,1.0945785100324912,-5.6640621049831275,4.635892998571987,3.620493690681217,3.018621448165425,0.16040487550977112,0.9218159614715598,4.774252074825073,7.887482524022734
163.0,-7.923453113011605,6.800229742199962,14.72368285521161,0.5172309533794441,-11.320747728584363,10.709391234606825,-0.2642054485681522,-3.0985117688753205,0.4752392909598284,3.69252707212858,4.252106594927188,6.426171519217726
164.0,8.339792522137252,8.734480436859958,0.3946879147227582,-8.504656929037097,3.982941202597341,4.590016953696636,-0.20427848529631454,-1.4168979335877494,6.06080300475109,2.3725087042090074,0.4755389469931943,-1.5443169097900737
165.0,4.193296397314276,-4.456413942621192,-8.649710339935428,0.16304217608589333,6.440146046391621,-6.526120526466866,-6.0369314672087375,2.0514455611985856,7.699706981929946,0.3682962476213647,-1.5274883510381647,3.294467697597695
166.0,2.7087059683647583,5.178622965834214,2.46991699746946,-3.9924396737352534,0.06571200802222776,3.8534788813820664,1.6956974049394526,10.269961441378543,1.9905479845140186,5.920931273127829,1.9362594091232748,3.3897207650413397
167.0,-4.037457841679819,-5.270297282538724,-1.2328394408589416,4.602135259641283,-1.374254493508114,-3.299993826148822,6.352832813961783,-0.5752232218445195,-4.9881669467849505,-4.189037268263311,-2.962124816966169,-0.06409581694666795
168.0,5.469161889990665,0.8701005900438852,-4.599061299946834,-3.1469255028463463,4.982785488859363,-1.9144372768061717,0.5174042995107118,-6.004159263843917,-7.084687193487073,-6.9829183933010315,0.9973684669390508,-10.312989934346975
169.0,1.0260763907279329,-5.481344146399493,-6.507420537127439,2.245861969671873,3.791111360157604,-5.970158242254416,-3.1543646133511016,-2.837695065165424,-0.17958324537448878,-4.188730325530667,-7.995031931557257,-11.004848076836792
170.0,-2.787777236915598,0.06452702990794723,2.8523042668235843,1.3767290298272605,-2.799253684951921,1.4758864156602218,-6.72666875477164,-4.4677068037380145,-1.3812693132733476,-3.857170368065356,-2.057904142924597,7.450008117380093
171.0,0.19779253802091912,2.781767709863324,2.5839751718424595,-1.4754177410182838,-1.1746667415891685,2.693018231128916,0.7614742847384735,-4.907888478561493,-3.02672095541555,0.9291683370389269,5.092821619321078,5.074383415031695
172.0,-5.906779582851593,-6.9033833459400995,-0.9966037630884785,6.421067894145011,-2.4369983714094796,-3.9461417660163343,9.28860089224894,5.008112651198977,3.3794957029686237,6.678115111375552,6.292699834594615,1.0268791444754246
173.0,-9.005507846648204,-0.17499635760263246,8.83051148904553,4.530465544789969,-8.977275346154107,4.327305057279968,5.027520903947073,13.431419076973386,12.592742937625156,14.05541727578476,6.385097033798752,7.462621539398054
174.0,8.575740774744805,15.097369548553818,6.521628773808899,-11.814728219480294,1.0486005257648698,10.806840948157042,-9.132912973015369,2.2150783305991,3.063756916337666,6.83194223759018,-7.032422801150842,-0.40595312026136243
175.0,2.1653944288137916,-10.028008890828279,-12.193403319642169,3.9546537867881444,7.202453034552826,-11.114028998045454,-1.9882179632355292,-4.515307434509536,-11.783780362442213,-15.51181037559217,0.04912641820289432,-1.1187333659548737
176.0,4.027790896755251,-1.8423069772617775,-5.87009787401708,-1.1484573723630191,4.893398625993376,-3.859449399916255,-1.4737575183257343,-9.714684104620584,-12.141851445846282,-13.75428845883906,-10.739843085419945,-8.672202920662349
177.0,9.146200648831448,8.777911342068663,-0.36828930676276617,-8.940757297789416,4.779137158896582,4.201779078650491,-0.11264103493169297,0.6050165533821019,7.373529765278381,1.6223766810847895,1.0100542702737556,-7.856975833507451
178.0,-7.135305886597301,-0.06330056097945391,7.072005325617864,3.6185356040674916,-7.083946464136061,3.501556450233137,3.0349987553537296,4.069909919679995,12.635611550876487,7.820721704631192,7.884603145535087,8.737019831303918
179.0,-0.38772302695474625,-0.8359829883911026,-0.4482599614363907,0.6300154901444603,0.047954930761525905,-0.6442648262534385,1.2838750831476664,1.6369658111702627,4.268377630535225,5.034494086309659,5.47270954599113,5.6165474147400545
180.0,-3.8754575036391565,-7.72961119420649,-3.8541536905674256,5.7429352427333615,-0.072455972128733,-5.792273864372659,-0.31965837629109983,-0.6248084504672515,-6.8219537780643815,1.3862777704980358,-0.4476142568766681,-2.9452922837723254
181.0,-16.757479325054575,-3.0436882114556436,13.7137911135988,9.92319765986259,-15.217274268268536,5.338084815759801,-0.10325860706779816,-3.6954785003720207,-10.80145902888791,-0.7246174770246432,-3.977528485237766,-1.2335395784820917
182.0,5.471748227712239,3.7360362288435547,-1.7357119988688154,-4.575762135297554,3.6259806000691297,1.0083507564344396,0.3108124016832834,-3.579950425563429,-7.941971211135199,-8.294801137542798,-4.997783217509843,2.299378111225288
183.0,12.579754353646951,4.005748526267449,-8.574005827379567,-8.258253110195593,10.605033635150761,-2.2697350539324805,0.2522210172527237,1.5903654991876341,3.2814985281226674,-0.8777818119467065,-2.307232299002759,-0.754455136240405
184.0,13.375162438288587,3.2247365939986907,-10.15042584428991,-8.338566633283294,11.718879246465463,-3.4424949264560825,-3.405809685192402,2.8304782216224345,8.10771063473709,1.4893135982054968,1.190523416139943,-5.379952021574761
185.0,-7.2001285864457625,-6.86703721440601,0.3330913720398163,6.99857648322249,-3.7259630615720365,-3.321092530254778,6.065936119044889,5.919801792111591,8.946578361730392,0.07881583785919566,-0.5077920640318456,-0.852434873897153
186.0,-7.326443160782408,3.544681167448599,10.871124328231122,1.857097533709986,-9.133372728912779,7.234259309087964,4.5975903106631355,5.145127138305704,7.256839316758159,8.837042384766516,11.213790781306795,12.106517910668707
187.0,-9.637559223735813,3.7752460409016346,13.412805264637525,2.9756689243066017,-11.559139942867148,8.540985296599201,-9.9952808287692,-3.7270819621529583,-7.074443697990583,0.12835863800813385,1.5059736374023607,3.8852245192484234
188.0,2.6933781615223635,-2.5021584914883777,-5.195536653010746,-0.05191700155530454,3.9875479498154593,-3.8248873503675007,-4.016290584295113,-7.47864961095169,-6.360296112549859,1.1753458408576487,-1.2357650418656196,-6.751593339082268
189.0,6.112813378672758,-11.254530856245339,-17.367344234918182,2.5357598420351346,11.701861313502988,-14.28800260180184,-0.6040843468882362,-2.5502481393861816,-1.2406822991650142,-4.823000034896871,-7.760011616167989,-20.41825085495917
190.0,1.2956939643951904,1.39826821255593,0.10257424816062244,-1.3021605659219568,0.6354643321168867,0.7745868341377706,5.236295262462885,2.670339118405843,-2.1587952287792205,-4.888365397588901,-6.011015529253731,9.280137520627012
191.0,1.6254018837799002,16.04710870244582,14.421706818665822,-8.868084795294541,-6.358562838576853,15.183801919503484,0.28424542694044064,-4.36854897927961,-7.479700001835278,-4.736530254188988,2.9515450716758624,9.37820072893201
192.0,-4.107772252769772,-12.576968560339516,-8.4691963075698,8.31300763066093,2.1450793784212605,-10.489052311109695,1.6877145780510021,-3.6509468616659007,-0.6912054059453199,-2.1296997430119893,-1.6669938278819159,-3.933695729186258
193.0,4.659055206372648,-4.463408875723787,-9.122464082096482,-0.12471941973210354,6.861151820403351,-6.75301166705942,3.8672239579706473,13.36569301651151,14.836858996009259,7.760796257633456,5.282551574248247,11.0370796469123
194.0,4.605529485276758,11.006985009379862,6.4014555241030715,-7.7519577410820775,-0.9199964068668758,8.669091960485641,1.6315422680340248,3.6240400877575834,3.038753125910186,8.754791292213543,8.52023931858135,4.716426284183772
195.0,-5.915376902783734,7.641375462232109,13.5567523650159,-0.8849749959205662,-9.671498468633233,10.563894624986611,-2.7737768090057804,-2.3435808920657974,-2.3073404544945095,-1.487494716277669,-1.9987911128617561,-16.842058611699365
196.0,-3.0256676096276522,5.406178481065731,8.431846090693478,-1.1312909742739679,-5.736280803065723,6.879967290481984,-1.1722273166815742,-3.742232085947149,-1.963595836295621,-1.1960446009962502,-6.554790010898465,-6.878042965114627
197.0,-6.600036474408063,-16.523882406004557,-9.92384593159639,11.543230135796243,1.6583241255509988,-13.190399118794236,-14.971450803469356,-4.478801865363337,-1.8505961333096135,-1.437792519439059,-7.400459929949516,-1.729731227260757
198.0,2.4654464951022748,-10.066986270801785,-12.532432765904025,3.7808979167470698,7.495304807980819,-11.272493802054054,5.304699515317488,-2.0759182201998985,-4.798035637698934,-7.636389596567774,8.854210076410318,8.764773814080431
199.0,3.372826438848872,3.0062912311106906,-0.36653520773823445,-3.2133916300606367,1.861429484154269,1.3429388461410152,7.068618977978654,8.425564155767253,5.44867358371044,3.348892118777071,2.368929273866897,3.5859431774385353
