Time(ms),I,II,III,aVR,aVL,aVF,V1,V2,V3,V4,V5,V6
-200.0,6.201136330165625,-4.963934795691142,-11.165071125856834,-0.5638406117446673,8.74360123970667,-8.059226954212466,-1.16085108255557,-0.6582165159936489,-2.225164737000109,-2.292798374423879,-2.7179949123512435,0.30295457852541174
-199.0,-0.5772707649677047,-2.5251939665492396,-1.9479232015816028,1.5272667128148858,0.6678726771028001,-2.2215317689332794,-0.5144770268535743,-3.042238461818111,-0.08279408914224218,-1.6277606808510017,-2.3628519489256554,-6.112207775207883
-198.0,1.1509819999296629,-0.051005016583926754,-1.2019870165136326,-0.49647602286436876,1.1603166109644985,-0.6788363442846892,-1.5768506960874742,5.437044148765496,3.6817026596920353,0.7784476904409461,-0.5871828562980572,1.4600315680652058
-197.0,0.6398207308335365,3.087539689448428,2.4477189586148844,-1.8916641814126627,-0.9184010100825377,2.804593832384226,0.29800718705872353,1.4341844195461337,0.01375269612137986,-3.880799386254434,-0.5829688766532284,-1.0748395931445598
-196.0,-3.9147993107638883,2.2680760243489893,6.182875335112886,0.791384135810739,-4.983206630418142,4.19154175629516,0.8624535816925032,-3.990774899678753,-0.4752730384060707,-0.8923367904285989,-1.9598580917579156,-2.668749815359645
-195.0,-3.804393640549378,0.4997831996301694,4.304176840179583,1.6159841085038238,-4.067814367765379,2.450971952410552,1.8695929797599211,1.5361394791042042,-0.7412903344042892,1.7781368118395762,1.706154675159451,1.5962745970182346
-194.0,-4.599868754861453,-2.2470417106510885,2.3528270442104198,3.4626775099871137,-3.4933828103757483,0.02360051715134248,2.032552831560366,-4.380079220230309,-0.2779713985661817,3.6066572800713135,2.5747858584324472,4.293978206922805
-193.0,0.4362295602381918,-2.002120033463889,-2.4383495937020134,0.8216184938023634,1.4130554288744648,-2.252030583720214,-1.5877135483800282,-0.031126026826854947,-3.60371948828471,-1.8582801440301764,0.2789796924049528,0.051638184217652316
-192.0,7.835681362696105,1.6312196477608156,-6.204461714935245,-4.770645803969585,6.985692960804565,-2.2439122227538366,-4.593834498881823,4.4166142961481185,3.2014829686761113,4.088879265861934,2.7544857541187753,-0.1813646391478655
-191.0,10.51071999490798,1.8310063429233745,-8.679713651984587,-6.123516074614845,9.628622892329059,-3.3862538312713983,2.2611287047977897,4.023356820200451,0.3332856567203858,-0.2310148769614111,-1.834089241380257,-1.272230446508303
-190.0,-0.7740653222068712,-2.1195389775657487,-1.3454736553588935,1.4223042906338508,0.3101788321654517,-1.77687063352057,1.2859897064618668,-2.2161053463689564,1.7928100400648703,-4.530058489746461,-5.207183638941651,-2.1327194310049316
-189.0,-11.514558328753498,-3.8529494630988395,7.661608865654624,7.664763436114617,-9.567949200649744,1.8581562239578466,-0.7948101818974691,-1.8884328832954185,0.561224091725674,-2.199733172205378,3.0022022945400955,-0.8686364860858957
-188.0,-5.016947410787063,2.325566816698919,7.342514227485936,1.3284370229039348,-6.236752836177967,4.867401600540106,2.588503837664149,-3.4094459192682787,-0.031456584139527524,4.119938439042114,2.422499774640468,3.671170141331312
-187.0,-0.6387119387849309,-4.195241147314249,-3.5565292085293496,2.474992370202285,1.4878458157988197,-3.8389460356023593,-1.356812731565672,0.292729394857157,-2.940143782389554,-2.6018767922208452,-1.5966815426156762,-1.9720782270587955
-186.0,5.504083804594489,4.77412387085287,-0.7299599337416266,-5.168573871759758,3.1569122981993054,1.9861221088958843,-1.7689612776929466,2.688672109018885,-3.3237185498036874,0.07911887638737555,-0.7670776623391293,0.25240321643533564
-185.0,5.027675885698656,6.025893126383787,0.9982172406851418,-5.5687677480077715,1.9877232185922968,3.561671705956777,-0.17879320677644417,-0.2965429737143557,2.1877010028802637,2.3854585623931146,0.10858551968389207,0.970545245006394
-184.0,-2.0777864003657416,-0.9841088088418926,1.093677591523869,1.5541171694732197,-1.602896176246277,0.031698964091205095,-0.9001773149406394,-1.194653262840677,-0.44889284424292797,1.9672958484793015,-2.523397921728985,0.5369373002450419
-183.0,-1.27943564074346,-1.85793170337074,-0.5784960626272693,1.5803873274221718,-0.361824318336768,-1.237589038744857,1.7011479894367807,2.8906066279790927,3.8533965721287085,-1.4747851758464505,2.3903857578855834,0.37430902598914884
-182.0,1.6296666434585971,-2.105709960724636,-3.7353766041832075,0.24317989185265243,2.6724469193674096,-2.9392310634466363,1.7413427248532785,2.0643482079108875,4.743050351250796,-2.5622134534575887,-0.029740002710331392,-2.2068150348761453
-181.0,-4.50073997636921,-4.7603901823459855,-0.25965020597674693,4.6355805217859,-2.132838807195661,-2.5305326871200586,0.04567395406406993,-4.939396154647243,-4.9274560420797595,0.1730975283252143,0.19994857800701227,-1.703592198843681
-180.0,1.6655248275771037,4.433091096626619,2.7675662690495235,-3.038318631418289,-0.48835059338063846,3.6556642844173974,-1.3815282585192419,-2.076554496939666,-4.176386460138495,-2.3191394578393068,2.427892779746292,0.621618487461531
-179.0,3.9195414754394458,2.4610607975829035,-1.4584806778565582,-3.16912510933097,2.6694704066084043,0.4754924768005986,-1.076608892690758,1.9670970887504926,0.5789009282211255,4.391785337218991,-0.7189401370809281,3.969576380351567
-178.0,-1.8188968784576514,-2.9001369371354717,-1.0812400586778468,2.3135233745169184,-0.39045568208359493,-1.9386935153636302,-0.9212372938289631,0.8535695925734423,-1.1238817664368732,0.3766544841914128,-1.8950841103541913,-1.1566872989732804
-177.0,-0.9736849632643085,-5.097465931568407,-4.123780968304124,2.9997804736961324,1.6313396853176112,-4.637175427386322,4.441522959330593,1.2727059631851434,2.8153034471823197,0.46217257400437384,-0.5640518876008,-0.9905387219579068
-176.0,2.434827353332851,4.897103039374468,2.4622756860416075,-3.616128609826473,-0.03680637363619221,3.6531766409894635,-1.8187198250724594,3.238716112520833,3.3842258032939236,1.6372281859339615,-0.2666530536279632,0.2516552681060069
-175.0,-6.2770274828613095,4.61933116560259,10.896358648463899,0.8027362544904881,-8.611515530340272,7.808197188140186,-0.5767160865687065,-2.401392235953959,0.9775071711992218,-3.8246007883542164,2.9124049998100783,1.2037004056333096
-174.0,2.995276489057916,-2.65546219543457,-5.650738684492487,-0.11827244656759278,4.294491588811515,-4.186670534352107,-1.6171889008657268,0.6008803017088722,-2.304935412012021,-3.420766174957976,-2.6401837736001714,-1.1675518927013784
-173.0,-1.5396866245661869,-1.514517289473344,0.025169335092849687,1.4961351448108962,-0.7376940333598565,-0.7869695615732147,0.4775866917429511,-5.074965526209198,-1.3279218226022806,0.16749986696088914,0.023555119909628552,-2.2317616066518196
-172.0,-3.6000757958440674,-2.840299226752023,0.7597765690920582,3.1838135650873975,-2.2201294260822753,-1.0149730662970673,1.5881849964002077,-3.484140042336451,-3.272028568549948,2.7392546578067214,1.1070250338337855,0.7058038333358132
-171.0,6.987901575764008,5.209173518063199,-1.7787280577007853,-6.06177001109455,4.416599914397149,1.729114894064331,-1.8996283351126093,4.943115386095728,-0.5024318942130475,2.4206192692967865,-1.3125235908041741,0.1830705139584486
-170.0,8.164861283242875,2.761965884335318,-5.4028953989075355,-5.431278615683932,6.814264787528925,-1.315626117683496,0.0839784365076025,1.0834360453868035,0.25498993505815937,0.3571495472290276,1.5177185221951437,0.40766173233422176
-169.0,-7.165877404752209,-4.686224232074036,2.479653172678186,5.876594802736809,-4.870929210236674,-1.1030855893195355,1.793514359514277,2.2519186136148948,3.632633185597559,-0.11916052097930879,0.17884877558576434,1.742956824582146
-168.0,-2.886079435713613,-3.846594370794449,-0.9605149350808386,3.394972921792723,-0.929048610831682,-2.402632783002671,3.063268456861523,1.4482544571573248,4.0678708061698465,0.08332991195004769,0.9368129149323627,0.1733339015615355
-167.0,0.30966672714184096,0.8837589208657439,0.5740921937238747,-0.6452872627599122,-0.17201368650604687,0.7355619647853148,-3.911734179656044,0.4040307709263601,-2.4740983033449244,-0.6244925610181942,-2.1178462691273214,-0.7484808817143859
-166.0,-4.693292723985907,0.15400539464398913,4.847298118629837,2.3032424981307704,-4.725327119072908,2.5165741484969293,1.0672490960553567,-5.626807597499067,-0.2329986916991228,-2.9765066329648016,0.9996706639115137,-0.5883564078579459
-165.0,1.7274535624328369,2.2507399939667496,0.5232864315338408,-1.9508410183519662,0.5738520046341864,1.3351442673795295,-1.2984560699994456,1.236395522800978,-0.19370743195262707,0.9603428535993321,-0.01908000987210283,1.3343724674821367
-164.0,3.7238004063723418,1.9584144917412039,-1.7653859146311937,-2.8766816427519473,2.7204634466455317,0.1343095961198426,-0.7666629574148658,-1.8507609575297355,-4.217730718194062,-1.9496242199127014,-2.361949185854444,-0.7538283592507864
-163.0,4.278983358342495,0.64537686584965,-3.6336064924928597,-2.493710691247533,4.0130595784872805,-1.5252585174140987,-0.22360305338540476,0.5203652872055021,-0.06781194352220155,0.8218719148208552,0.6102875152275595,-1.061077373796616
-162.0,5.035481629225142,3.126060788748073,-1.9094208404770139,-4.031420281368685,3.4506480038572396,0.5855852158435584,-0.4427719160732101,4.375905666820468,-0.4399687746002931,-0.20431635591199682,1.6968156139100494,-1.4063980248048866
-161.0,-10.033663857009678,-3.4929861284803563,6.540677728529429,6.733485772306425,-8.310338464269476,1.5870407940841447,0.4703475801831658,-0.12625334939471555,3.9296862664594068,4.14967073193938,0.4470194418854151,0.276744035344285
-160.0,-5.234931040011235,-1.763342743693722,3.4715882963176385,3.5449446826304642,-4.378688859749571,0.8446726627440413,2.4266947949915907,-3.538201398643655,1.1897238522511573,1.3008054300937228,-0.972268206722519,-0.33951247515055705
-159.0,-1.6273315304180769,-3.583557843126545,-1.9562263127083936,2.567327578630583,0.2152030369621205,-2.774559601278837,4.086428206741074,-2.519631752112842,0.837905676128656,-0.908784794419708,0.47516422708221584,4.2261472173288945
-158.0,-0.5603402344864794,-1.7704579668300924,-1.2101177323436274,1.1213084041474692,0.3730139228364129,-1.492181526601755,-3.1187920102075495,0.9035486022009438,-1.5618713578863739,-1.2381488340250177,1.147953725846825,0.9196737510305002
-157.0,9.336175752842644,2.323578125819702,-7.012597627023033,-5.800272425764978,8.140874775574527,-2.346445863585036,-2.9383770769462982,4.636976186229688,-0.06627780247867265,-0.9852685941560959,-1.518544168741383,-2.2839522356414514
-156.0,4.16701004699682,-0.10445778955253804,-4.271467836549485,-2.0041876022663265,4.182268269966598,-2.193214638719867,-0.3392133279902916,4.422170746318319,-2.362082490774521,-2.438423667229303,-0.4581882778956782,-1.5459149519068982
-155.0,0.5157839088055636,5.805588614583524,5.2898047057778514,-3.132718603876856,-2.4279537190641824,5.536112931153589,0.3237578481909903,-5.378418763142376,-1.3453679909381422,-0.6042876929671784,1.8576521787323665,1.0097660396889585
-154.0,-0.28881148610620816,2.476530654582522,2.7653421406886673,-1.1406958234465232,-1.493087752567414,2.6010368789677165,-0.40387295906122195,-1.3246078784660562,1.5847938585400296,0.8859115992087834,-2.927584497343564,-2.0196001730896977
-153.0,0.48753045879235524,-0.16676856399020035,-0.6542990227825607,-0.12287596140732104,0.6022225476399701,-0.36047285059585343,-1.3600183943658566,-2.311119540763182,-1.6324730279585287,1.357386351454745,-0.7030438457176789,0.16772719656389834
-152.0,-12.821633440608124,-4.624999242036661,8.196634198571514,8.687340116142583,-10.478720058846275,1.7493171905142042,4.510279153020216,-0.03997201778908033,2.378644151653465,2.822683132027836,3.5023483685412553,-0.4650666868420941
-151.0,-0.5475507402256206,-1.2309236854476793,-0.6833729452219881,0.8563941345379789,0.020300167997445495,-0.9208494649290735,1.084940532240684,2.7158406034475777,4.547930122788524,-0.8263739060098446,-0.9841421136491155,3.479515607608666
-150.0,-2.7139882880995967,-2.916548014588317,-0.20255972648866594,2.8610464244782126,-1.2231868845711626,-1.527246171682901,-3.121697117763894,-0.061815172050783795,-1.340519990028318,0.548063663453862,-0.7651685644038688,1.2213636971192794
-149.0,7.958904131067588,-0.8243838027187842,-8.783287933786346,-3.525079948251645,8.32569438099634,-4.852780823639531,-1.44508277837167,2.296106904727,-3.5210318425987346,-3.352535197569166,-0.46620731664431236,-3.9457841653489316
-148.0,8.459458078257928,5.637097187082789,-2.8223608911751468,-7.091191183900094,5.673675094471173,1.3568705615327334,0.6992010760508929,-1.6483263316227945,-2.584642429188756,0.8923081106775961,2.132568610274716,1.1005777485264456
-147.0,0.8206264327078108,2.436239597692677,1.6156131649848269,-1.678872261772712,-0.4454449457083607,2.0534087403728023,3.3213731465770895,1.3319752619700926,2.451572491425293,1.0310635677992885,1.1447707734889205,1.8708682073520897
-146.0,-8.810507547362812,-3.2593822233262477,5.551125324036517,6.056698708309057,-7.152447362433929,1.1736187631249417,0.07721911985400043,-1.3947153185395735,3.479943048662074,0.13994894399260013,-0.056969019197018134,0.11117925354127972
-145.0,4.1830318714520205,-0.6375230147410894,-4.820554886193146,-1.7544140630671285,4.528729898608223,-2.6996560519664854,-2.4732532294663336,-3.0681859686359556,-3.9283231538737278,-1.618848155140713,-2.796615507084498,-2.6707498255353093
-144.0,-5.652857177975802,-3.95273387213021,1.700123305845582,4.822256412551182,-3.727348316235426,-1.172638328922753,-1.3532670274650538,1.0763893696435487,0.10116213159003673,0.09777275786289036,-1.853158792998345,-0.5921891056119034
-143.0,-1.5523928678333525,3.821689716919105,5.3740825847524665,-1.1096044261049487,-3.431269638607615,4.634328291374389,-1.071543110379556,1.0486622954740696,1.7697186492008452,2.3040641614500377,-0.24410471576943726,-1.343124213235834
-142.0,5.939422345147053,4.334523006412566,-1.6048993387344752,-5.182288765218787,3.8110423807586327,1.3268519081128451,-0.23696460103289468,1.9941079140050884,-0.5834575132398948,-1.8798236118215934,1.287879379687371,1.9617589290949708
-141.0,-0.3775211214619789,-2.1421584966912217,-1.7646373752292372,1.30180699596076,0.6621504433237355,-1.9873589616733125,3.6760984106868455,-1.5207671016542161,-2.1769879895176274,-1.064526178955579,-0.5417305693520902,0.1407458317004482
-140.0,-2.176322184337433,-1.5784990345907395,0.5978231497466915,1.8466818785662356,-1.410380051082119,-0.44246106675321983,3.568040558257908,1.3997400046964525,1.8878976663175961,-1.7124450371296627,4.243640726850718,2.4972726928124387
-139.0,1.904433993442689,-0.9378940628083041,-2.8423280562510014,-0.5119415750140173,2.355890558577474,-1.8405686902765124,-2.656422927776129,0.18568452424594606,3.3816614371450546,4.409191875335526,2.9069787881142544,0.2120652232962622
-138.0,-4.415387519214001,-0.5453932500752896,3.8699942691387,2.449967284847121,-4.07928861187727,1.632844668933532,-0.7117535346936186,-3.309061597473325,-1.8831350841791625,2.703118065087504,-2.818251056699527,-1.6944917195957976
-137.0,-0.29315089174267994,-0.33881914119249057,-0.045668249449823506,0.36048682982054336,-0.14115629675390684,-0.22413008391620726,-2.8549555769022597,-2.0225498582288015,-2.8437448227403457,-3.306681659863464,-4.508853560268402,0.72472241256695
-136.0,9.039620664604122,3.295647906342966,-5.743972758261165,-6.1266063631414465,7.368534994065825,-1.260352467995992,0.058615989431459736,7.508879593392878,0.7048473294900215,2.25593801565055,2.0556146887691877,-0.12207290664307657
-135.0,0.9292497900020007,-1.072196210587285,-2.0014460005892873,0.03263196798235546,1.4337971908027511,-1.4993886765415962,-2.052128222808475,-2.2596144745578606,-2.337203097399565,-3.4673289531028266,-3.31628796824119,-3.4305038850001166
-134.0,-5.27878734086329,1.3322008956839362,6.610988236547228,2.0152138176840353,-5.9064596600833,4.004577968443426,1.760505810543515,-4.8439789470091466,3.266123027274488,-3.848363739619563,0.33128004995521454,0.21956535569899982
-133.0,-4.375359263561261,-1.6000830983476277,2.775276165213649,2.9554036500511014,-3.544093594011768,0.539384477010781,3.6674321317151843,4.343849093459409,4.413735821691471,4.361847408227715,6.2395489286146795,3.2089668039525043
-132.0,-1.8924431104872603,-3.6715500307038393,-1.779106920216555,2.7550513610458083,-0.10831647538830902,-2.694700595707136,1.990940988755753,-0.20290741360216114,-2.0734004848596204,-0.16461023043522727,-1.0839553036949865,-0.08592189160904051
-131.0,3.3979915368790863,-0.4143894762596725,-3.812381013138743,-1.4357099260865944,3.631778255124912,-2.080672669353368,-0.9030898037038155,-0.703775003101617,-5.818664026164329,-1.6663888153565327,-3.8901236505970354,-1.8363819135620727
-130.0,0.3535596204660436,2.8120597349800436,2.4585001145140004,-1.6038042254490514,-1.0233234205663215,2.5919042550493527,-3.7854741935047733,-3.3598450404899505,-0.8210687855847905,1.8954736822686116,0.7199920518689662,2.0358363142252816
-129.0,4.712578114823425,3.8160016173350826,-0.8965764974883484,-4.286827852977661,2.759234565911143,1.4966500593467948,-1.763965418689821,2.4231295429269277,3.3684483552012257,1.5926428389217129,-0.8135590144616435,0.027035386751541712
-128.0,2.923097602425316,3.84394768477099,0.9208500823456477,-3.4102235942082864,1.03886391277327,2.339922819209058,1.04570634671799,5.754647701385938,4.618262975764985,1.4367692787693969,4.622377258957722,-1.8781510294128176
-127.0,-4.4085208673338,-4.356121691185853,0.052399176147906665,4.429140903846292,-2.2683599932133065,-2.19720004447815,2.1356011735049227,-3.51814489985005,-0.0040433227039908815,-1.4358394406732407,-2.099721610518877,0.5788494885667914
-126.0,-8.755460889270168,-6.812491215447237,1.9429696738228808,7.747628242717923,-5.385758502214868,-2.4051816188071053,3.4802269925019327,-1.6856730405669489,-5.098316945755123,-3.2918736420351675,-1.7689316363252394,-1.8867825316529876
-125.0,8.47659858299649,4.720506692346857,-3.7560918906496514,-6.558386736814536,6.15842157364024,0.508800376365544,-1.1809614885264428,-0.08555202866110312,-0.6789699874995547,3.3155214203091776,4.154623534648851,2.5299941596709776
-124.0,-1.616901115632664,-2.577249896293676,-0.9603487806609898,2.137416412180711,-0.2871250660645377,-1.7429180777900433,-1.875331697699332,-0.6198885404601351,2.1893706893527023,-1.0737018376927971,-1.9735233863136812,0.5522903406105295
-123.0,3.0459334717917783,1.3717020361704284,-1.6742314356213113,-2.24562533996214,2.3213736376508884,-0.12352497843176566,-3.371374737140018,0.3321170663425251,-2.931557691045981,-2.934545468928375,-1.140808091665207,-0.5211915031814425
-122.0,-2.8984565919729484,2.533455785731767,5.431912377704746,0.14707720116128686,-4.126207594361171,3.9352038650204415,-3.9117631512081212,-1.6641004077722557,1.9507239015834152,0.589573839919433,-1.8841546149262007,1.1995164880144678
-121.0,-4.2115772912453355,-6.320368005420754,-2.108790714175469,5.309077990710795,-1.092267409785719,-4.258334045156811,1.5523891530281413,-0.12426441784854303,1.3889159551594572,-1.5601244231737434,-2.3331084849050505,-0.928819933519399
-120.0,5.325160151391486,2.3005691276316647,-3.0245910237599025,-3.850679298981522,4.132743102159909,-0.3243117048965495,7.490870468097204,3.18990957143737,-0.4895370846843268,0.7699851650280167,-0.04556247959640991,-3.6208939413252423
-119.0,1.9339504281432032,5.775998075906387,3.842047647763156,-3.8959467900434297,-0.9188281294867049,4.769207106983304,3.588792884807588,3.532555779083856,2.5090231851264457,3.3416802752013166,6.4496291925259435,-0.09886189666088341
-118.0,-3.6288853166828656,6.159899211991503,9.788784528674405,-1.2300423046439313,-6.675073600947885,8.01331131550275,-4.59005145289496,-2.9283760685140594,0.5613921925939955,5.359695705344787,4.610534664647783,5.412422773548326
-117.0,-2.3469580410779236,-6.130674907681539,-3.783716866603522,4.274564662191104,0.7505568768841016,-4.918842809802124,-3.6441719170389897,-0.9644017368161889,-4.214514540631185,-1.8825761742611549,-3.9894819531321217,0.49523840745458236
-116.0,1.9799656737542968,-4.116423251469099,-6.096388925223284,1.1075205604440514,3.989685628758465,-5.1476656577330875,3.9824071115964204,-2.4978603014969023,-1.5945808822956982,-1.339347855560423,-5.047158444085363,-4.140712237895085
-115.0,-2.2799979843916782,-8.653174960870206,-6.373176976478451,5.433023765741357,1.995770474341725,-7.476627701207225,1.885309963091894,2.966796708711812,1.4770626666360382,-4.02163650953897,-0.4065337597698129,-0.17672986881658748
-114.0,5.681002356830128,4.431502553681247,-1.2494998031488542,-5.0837147878543565,3.4908336685033836,1.5479503795165455,-6.1303174703365615,2.2922190498281654,2.1833088636843136,0.055314870388973425,4.966868861339574,1.786451053180499
-113.0,6.969574323940945,6.639664352256197,-0.32990997168478353,-6.828226889813984,3.6737996788419003,3.111555055925107,-2.8732065216921927,-2.8007485684990767,0.08141072437789654,-3.3383330512808236,-3.8752178368965393,-1.4636266363769412
-112.0,-4.96443426323108,0.5861190403143466,5.5505533035453665,2.244157118131038,-5.23323872012741,3.104887717418944,3.524697816908436,0.18764095976097306,-0.11690092931859097,0.9161081155421498,1.3861977766050082,2.434304552506983
-111.0,-7.967451594121951,-1.4513263013322923,6.516125292789578,4.681060975024712,-7.293934671058235,2.572207334107466,1.9318870797265888,-7.248994009729377,-4.999501819726991,0.9317127984505582,-1.7156272219107462,-2.3761924511649575
-110.0,-3.018228133648494,1.5551641930192783,4.573392326667705,0.6951533386364712,-3.765061481750469,3.030763471204749,1.7539724670751082,-2.4635057436769294,1.7883479688387793,2.0134941399904553,2.190735463166255,1.4581500150198794
-109.0,-2.0563108568279813,-2.2169711212419347,-0.1606602644140096,2.169464898106158,-0.9122263722026325,-1.1370349507947934,-1.0093419141426951,6.940744270331577,-0.2619263389870791,2.3339042674653623,1.0556727606308005,0.8870065158984999
-108.0,5.935332103078876,1.2013353162096523,-4.7339967868692545,-3.544245747063096,5.295611013845431,-1.7876129750062435,1.2498616713226993,9.336944351571404,4.756558594432795,3.8054859983812936,0.8854965227488482,1.1543313328512634
-107.0,7.789810376978841,-1.7267979494609818,-9.516608326439826,-3.0134293693410132,8.616217880921582,-5.64033360357576,-1.8293326665054659,4.057321489306524,-0.05212337581925697,-2.7456046416118305,-3.408113673174358,-4.090022623942183
-106.0,3.29602465519694,-0.2880613593919532,-3.584086014588874,-1.5669107603052561,3.4811979062560985,-1.9565177095300679,0.08144249534721404,-4.057700162723469,2.720514807782844,-0.9244809950896702,0.6692837890790375,-0.47680919985655
-105.0,0.2656503583004195,-0.8731286210943859,-1.138778979394763,0.3210847126678137,0.6614522007340751,-1.032673486463579,-2.5659330932512883,-7.851830980921887,-2.6603315923500865,-2.271350185448684,-1.355937556632236,-1.9063115307010428
-104.0,-9.28359225585761,2.3443494757561614,11.627941731613827,3.491447634913633,-10.422806565715229,7.028937517775028,-0.7344999685804846,-4.091923342422522,-5.022419206399374,-1.319949990837621,1.6956838385317825,4.055806044125088
-103.0,-9.215733824756661,-0.9572388614855674,8.258494963271108,5.114369016100984,-8.710305783066774,3.6836364061624893,2.932877546999741,-3.0798804812340483,1.4846542734045305,-3.33304423819643,3.3558489334957105,2.71508056059199
-102.0,1.0606219398932586,-3.113004386262955,-4.1736263261562385,0.9814092542230233,2.6371751767612297,-3.6969405953502625,1.284113960522199,2.648385578156505,1.1711123925968723,3.919627635287858,-0.9395421979879046,1.1804616885190653
-101.0,9.631898178650362,1.314922746100008,-8.316975432550366,-5.513357487859356,8.908726591089467,-3.4801955691924995,-2.633060167467671,7.510664294640629,-2.0199490201174317,0.7864943451647783,-3.097481427454682,-2.497812728814018
-100.0,6.330514098399657,6.359608849721993,0.029094751322290335,-6.303371724781071,3.157036173657577,3.214996987344277,-0.6972472976710854,1.7801968244954471,0.17747761728235367,2.691624599962047,-1.0570846475778921,-2.7237413153313397
-99.0,-1.3087864621843162,-0.0001972484244769923,1.3085892137598054,0.6970423096242739,-1.3076932890083541,0.6781321874465711,1.9610130963348746,-1.726177693878081,3.2368247652550335,-1.741373868763755,2.190030156802023,-0.1295609102921842
-98.0,-3.204078104432572,-0.818462090745676,2.385616013686893,1.9742590478655102,-2.7962356374124058,0.7341548543805095,4.114224980418603,-3.2540086862758657,-1.1699514888891183,-0.8518603044924581,-1.567352076073564,-1.5249401769136584
-97.0,-3.8404114249585115,-2.205626730114278,1.6347846948442997,2.9840866398768897,-2.736877008823416,-0.32886214430998617,-1.2850489472389537,-0.1229930711838314,-1.3816583443419184,0.33581402282270667,-0.4602938241840206,0.24557439319747593
-96.0,-9.445719453337928,-10.700795821071095,-1.2550763677330596,10.110654853691608,-4.087228170016611,-5.937209277949626,-0.5457040810682345,-0.6059933942703192,1.3608297153591962,0.7582625540132076,1.461405707523053,3.7005544092342917
-95.0,3.177362876691114,3.607525915073941,0.4301630383829393,-3.357433411195048,1.3936976631647011,2.063770573195004,-5.7287909419360385,1.1159788396493884,-1.6747847530484687,1.3060460571804249,1.9341111095236805,2.556833030737634
-94.0,10.284981114284708,3.6596346679575733,-6.6253464463271,-7.018029146682419,8.489719147810389,-1.5140227439814424,-0.20352002151283477,2.604458664064714,-0.16020058478852717,-3.156763384977686,-2.106805616854415,-4.267117915160107
-93.0,1.4765632151194366,4.770304668679278,3.293741453559802,-3.0917421736635844,-0.9390682112163171,4.0017774447079075,1.375804479087627,0.2962631408141308,5.66609305301112,-0.11975692726342624,2.936533813093012,0.40050397021409645
-92.0,4.446673723442775,3.2454628948096076,-1.201210828633266,-3.8935554612058483,2.803336271434951,1.0696912717123992,0.8878962410332223,1.251293557518867,0.6363363238655073,-0.8233766807945436,-0.046258384362534405,0.5158967157900232
-91.0,-0.513201366223188,-1.652632190562475,-1.1394308243394096,1.1150576787075817,0.29678185405307533,-1.4300105265588219,3.5501746716462605,-0.49351236005761656,-2.54300110942687,0.5245016298586463,-2.8805585643117397,0.751536636724888
-90.0,-13.240913935593518,-4.486380578492658,8.754533357100824,8.819671719664958,-11.015024087353483,2.174436359503451,2.047404864966407,-6.613373073365627,-3.437014446954773,2.92902062599417,-1.7778326929373824,0.7462955248276524
-89.0,-4.811899961112419,-0.8580154040624501,3.9538845570499883,2.874311909077358,-4.404068831984049,1.504095585858161,-4.6387376508425735,-2.90880855755288,-1.1107671805720307,1.0882784703562092,1.0084367429338443,-2.2943499100484956
-88.0,4.168837383163097,2.574264211089647,-1.5945731720733185,-3.326089364648082,2.935731675486696,0.519253426064381,-1.1565925055146933,3.6622912986644236,-0.9581471777547548,-1.3919624557153703,3.199072146794486,1.587669667356415
-87.0,8.438192484122073,-0.38977088908234014,-8.827963373204215,-4.051002952978159,8.68652145250552,-4.662458458932058,-1.11308555851324,1.5403274200914954,1.1954036225494828,-3.0038555516789565,-1.622263238210761,-4.08290774914192
-86.0,-2.544043480599578,-8.327386517793903,-5.783343037194183,5.414263582145752,1.5975614029132705,-7.0318910752522985,1.1562235673990333,1.1308301827005929,-0.2349804211123041,1.2134629788478621,-4.056372393095058,-0.3390430165050021
-85.0,5.803530835098855,4.780885162316466,-1.022645672782326,-5.310813174531373,3.396775645116656,1.9042575414567806,3.5238097217340854,2.6453745332578666,2.8680980441498463,-0.7711873975426078,2.143220066704865,1.6291354635202078
-84.0,-3.913362629666497,1.9986173538886174,5.911979983555107,0.9385156684380549,-4.923261854781082,3.9852087207056517,1.9358049031202107,3.2660140240119517,4.619777926076013,0.9266585181405833,2.513130055027716,3.671859551148479
-83.0,1.0371633293810125,1.671522766576698,0.6343594371955978,-1.2975605008238718,0.1937607703348263,1.1105796046853245,0.4129229393625341,0.3626972911396499,-0.27758672466444834,1.5534690404556928,1.6671879343963982,2.1482239013983486
-82.0,-8.367127215211797,-4.195558994062778,4.171568221148921,6.254159615601473,-6.278460932331516,0.030443876324382835,-3.3171438882062145,-6.103309739625277,-4.354868258329647,-2.0717478902047013,-2.864483627697027,-4.085574588215961
-81.0,-2.31972645681486,5.064653720027712,7.3843801768425035,-1.3274233838295117,-4.867004398694739,6.191838757261845,-3.361463237768208,-2.141629163118198,-1.5734546425089713,3.2575480742942773,3.9843941336937014,0.8500414402370722
-80.0,9.560035553199281,8.374188347385939,-1.1858472058133773,-9.0080917518574,5.4282408826117035,3.5617791931193765,-7.18206357364637,-2.523811585112533,-1.0354241806826212,0.3995124336017206,-0.6712618721574308,0.6582655304566648
-79.0,-0.24433950394938186,-4.521662663679665,-4.27732315973019,2.4131636944397736,1.984618854368403,-4.434334375282423,2.6048322451511203,-0.47283591856459983,-0.587888702564532,-1.2110480773370367,-4.608858447091635,-2.1454497942450104
-78.0,3.4225081599546137,-6.697228488386801,-10.119736648341243,1.5813557040246942,6.733770117224867,-8.367916131694061,8.33530551064151,2.4695675340127017,4.200231434179664,-2.820218853118042,-1.0213263939227126,0.7856719515387891
-77.0,-9.690628634752127,-12.743411392282818,-3.0527827575305393,11.2334124934037,-3.2780081758369977,-7.859680249972747,7.604919750078068,2.2036258262408905,-4.141179198946983,-4.036538728525685,-3.1300322542489853,-3.7389932896901525
-76.0,9.6895779057357,5.582490676075456,-4.107087229660191,-7.623767702891371,6.944252553447798,0.776328540408628,-2.6585903222591254,3.6279856254581544,1.5125978790136259,1.3809682609567846,2.9945923177071463,0.8635872550833336
-75.0,-5.34359526771496,5.537372464836504,10.880967732551403,-0.08541907235951873,-8.135987650413906,8.171239796931175,-7.158444575121101,0.2913027634014107,3.923431406859698,2.721074028657437,4.412193180432675,1.789886612828173
-74.0,-0.7787620143088709,8.595317947163156,9.374079961471871,-3.893690610290587,-5.089759995092259,8.949289091499727,-5.654292370916716,0.16605352353059893,-1.7445474353368102,4.9187647873643945,0.9854231137278884,2.081207348464428
-73.0,-6.579720558260119,1.4523635075182266,8.032084065778122,2.506299123553538,-7.311055324539933,4.786430047712031,5.953581565132617,-2.61885227838835,-1.18525631207972,2.2840078332052878,2.903679706430877,4.135991481189742
-72.0,3.9068419260598803,-0.4380658327292619,-4.344907758789296,-1.7037305815544124,4.123944448124819,-2.4280509625091478,2.2127375773237103,-3.1918654839251905,0.8094944608700234,-2.3099077414137557,-3.500448515634207,-3.245713210413945
-71.0,8.154080450336288,-6.789151766912059,-14.943232217248351,-0.6419426347342169,11.543802870243077,-10.907482662732079,0.32573518774519683,2.753743975398952,3.1147473460177117,-4.904763438543001,-4.789733966794416,-3.4011919058846516
-70.0,-0.9333512109691444,-8.164217817605957,-7.230866606636702,4.518658381988493,3.1356433818038694,-7.6659585348244645,-0.7702722043904275,-1.8477655465532425,-4.215079237397237,-3.473535641436219,0.166707704682449,-1.4893203708655698
-69.0,1.4627704481753827,0.9116011590436539,-0.5511692891315825,-1.213168743857287,0.9827597368208458,0.2070003302891772,-2.906474299814618,-0.8851865302844549,-0.9320549328352374,1.551723315829824,0.4333253608923374,0.9466534394795718
-68.0,-6.472299737139856,2.3400029557564217,8.812302692896411,2.1177179787173928,-7.598378598092915,5.601070847153573,-1.290429233256348,1.0310779441643763,1.2717951837615136,1.1524523308603827,0.5765435493400226,2.237547339362166
-67.0,-1.2462152530322017,9.207380848352736,10.453596101385008,-4.014295130848486,-5.813156953450456,9.778353602542666,-1.7321937359516055,0.20196954112140797,-1.841614197349572,2.544156128147547,0.29038868439179466,0.747875360155522
-66.0,2.2675608912545018,5.053787541273347,2.786226650018871,-3.704633748102883,-0.3034237398395505,3.950996477734999,2.2385976721198317,-2.045538999468146,-1.1226108778757087,1.844464686313392,3.4608415139821385,1.332398629488058
-65.0,-5.960474588513327,-5.912472244580442,0.04800234393284386,5.960233634851626,-2.9666717267969176,-2.89624218174385,8.450148691461484,4.288784678457039,1.919406871813547,3.7262351851615314,4.276286053223056,-0.38744752876574273
-64.0,8.078671698863118,-5.981595328860874,-14.060267027724029,-1.0331931924217996,11.03463073767237,-10.060427462017632,-0.9321405863844854,4.5611745003555075,4.43907555698146,-1.9953881777371711,-3.119907893025207,-0.48326554969298513
-63.0,5.025885175644271,0.2734069308926963,-4.752478244751604,-2.6373981149922723,4.861781144342266,-2.2791867018329794,-5.850364086208724,-1.931743965404788,-1.3102208344541613,-4.167809028109772,-2.626768283701013,-1.4622804530040794
-62.0,-10.099961613127112,-5.437566270553443,4.662395342573647,7.784234811692897,-7.323644733301383,-0.3522275916869899,1.036360450875383,-7.697199787817812,-0.7636529019424888,-7.023884472351318,-7.100145464064424,-6.103271180497245
-61.0,3.41070066279741,-1.3453215441610018,-4.756022206958432,-1.008758641683709,4.06534536926066,-3.099865384124323,-0.4562926864351986,2.2982277485629705,-0.15955323179258707,-0.6815557084637875,-2.875896850587259,-1.1375096444286374
-60.0,-2.1412089108341315,5.312605333931337,7.453814244765477,-1.6295553757171946,-4.816050473211206,6.407550686968605,-0.7324556944599137,1.6067673268023355,-0.3035291095537268,6.479281935663117,6.034011056690678,7.161515581362932
-59.0,-1.246586001708692,8.23279058301978,9.479376584728493,-3.526833826612302,-5.385397815308388,8.878421731697914,-0.2012535344094808,-3.144825366722511,-3.557488889309242,3.8389852392447024,5.927185149792371,3.490685905637869
-58.0,11.122099728907287,8.128523575746126,-2.99357615316113,-9.57375488847261,7.108243116833557,2.5924348035454177,-6.308792643978754,3.4835332605458498,1.8200314122610548,1.6345274017115465,5.331626716739805,3.212525277834019
-57.0,-2.658984820277869,-5.2362043976138315,-2.5772195773359554,3.92204029818033,-0.07540952940241841,-3.874969730381614,7.1549937029716855,1.6014736134915548,0.267605464310426,0.44330184615177803,-2.0989785870584283,-2.9507890824870016
-56.0,-9.085509231712953,-7.621044589630518,1.4644646420824041,8.324855315785163,-5.2354821014735204,-3.11647517272235,5.106556658978879,0.04247606916928981,1.0242624946768992,-2.0152147409204835,-3.165739384492699,-2.329980214521595
-55.0,-0.7925000652827219,-5.945209203118428,-5.152709137835782,3.4135921983034496,2.1387533606582805,-5.579015662830571,0.8373639386722056,-3.358939739300291,1.0677668583792093,-4.743428869014813,-4.753227650427059,-3.7223683327947894
-54.0,1.8851502874531534,-2.3784882840070316,-4.2636385714602625,0.2067706515577079,3.112614047861931,-3.345772332539612,-5.441243560386837,-1.3129562019660836,-0.12058333356462059,-1.6967711445137401,-6.187497928646783,-4.903589811235119
-53.0,-0.9707564935700774,-0.5145290723961116,0.45622742117391324,0.777469132382996,-0.7508065007725275,-0.0519435719101109,-2.7636986789143396,0.3745967391931678,-1.5158771715150017,1.8334868655625627,3.579550322739379,3.853527405175191
-52.0,2.7968559690284254,9.973443686592248,7.176587717563808,-6.351372697480828,-2.1439988672931496,8.630153542556545,-1.1440415434722055,1.8104533732974746,-2.9041372957306257,3.1545587228475758,4.53738665146381,5.58748051774933
-51.0,9.550634476402642,8.070536339629243,-1.4800981367733828,-8.853867258380676,5.486652080012954,3.348049590430236,0.12656563452620184,1.5542526165931039,4.585822510575376,1.0762121238610531,4.088756727576392,3.0285437105743815
-50.0,-2.252202044803396,-4.4405430832677,-2.188341038464289,3.384966979424145,-0.058102108127827234,-3.343239200790534,3.3282152851523508,0.36859657055909634,0.7036104404289956,0.14398473142903612,0.6938722785370035,-1.9466390728346923
-49.0,-3.9551676694211904,-2.111472931495471,1.8436947379257365,2.9960969822031904,-2.8468203988715417,-0.1659254255160192,5.4926325808450445,1.8801347212480282,0.05222412036536106,-1.5028870953782916,-2.8047972801763645,-3.599904212955755
-48.0,-12.617950591436115,-11.071928322086624,1.5460222693495118,11.809348042839893,-7.110804152039256,-4.7200675764515365,1.2202315446227634,1.3409023674651444,-2.3616215565258623,-5.530887348763112,-5.776383383922762,-4.1090042955821335
-47.0,8.527181090867504,1.4492126321291359,-7.0779684587383445,-4.944755983557565,7.768843635534168,-2.854711207766356,-7.032296817848492,-5.721274664496178,-0.36479862421209674,-0.22670261452165885,0.9668398713475943,2.0458468085488044
-46.0,5.723545345311048,9.483261653404561,3.7597163080935267,-7.638803596044003,1.0207332527228812,6.5766463749181465,-6.017148429075862,-5.10144479633516,-2.736038325010852,6.173345871966163,3.3888708978484963,1.4226255028804826
-45.0,-6.421770204401679,-0.07869305491506084,6.343077149486603,3.294563157183764,-6.350002888003109,3.162789497420743,3.345054408870672,0.37852897796239704,2.8383313869684708,2.201850723398953,2.3275439662910786,-0.2149859156570626
-44.0,0.9480065253696672,-0.15972740029446308,-1.1077339256641698,-0.42537411161662797,0.9758602285418672,-0.6039192996756346,3.45044082302531,7.647974731560935,2.909587069023501,-0.5006559498238743,-2.940328126429429,4.653244011668947
-43.0,0.1206918519518897,-2.745792235260334,-2.8664840872122572,1.3656279158292577,1.5159576670242458,-2.7739785995178163,1.3577393317806992,-3.0126460222106495,-4.043924105381974,-4.890304050591714,-3.8972306185504886,-0.7715725799911182
-42.0,4.229404487472073,2.1142476115719178,-2.1151568759001513,-3.19053533197435,3.191910417522189,-0.042193825954138786,-2.1894723043216904,-2.3457352145027484,-2.06091311835101,-0.9547068204033278,0.9267509112740067,-3.6039289842640962
-41.0,-1.7669262180885472,-0.06230549538472885,1.7046207227038725,0.9024680866441913,-1.7958243193686212,0.8637718935278063,3.537463460632221,7.871289275870982,3.7781329165944326,1.7235125049031115,4.630421475156241,0.5001864817601147
-40.0,2.0996091579950082,-5.579443846806505,-7.6790530048014585,1.7320092520585275,4.909014908601945,-6.661146651757127,-2.5084672938442063,0.5993146200130735,3.2024236533902406,5.201960599817966,2.766368171857055,0.9662586026742379
-39.0,-1.559082328411871,-2.1276474751673637,-0.5685651467554591,1.8360805377605414,-0.4727186337400857,-1.3786221982483622,0.4291295257663639,-2.0489874967488495,1.5484458445681293,-0.3822811209235659,-0.502120155702414,-1.9476362235973648
-38.0,-4.529186493249091,3.788659623996259,8.317846117245361,0.3597449940683709,-6.396601220209324,6.021118349853349,-1.9012796472048867,0.02686432023826746,-2.04168761424832,-3.0148896027977092,-2.545450586051011,0.7007974597578074
-37.0,3.162166633050952,8.831263522637759,5.66909688958679,-6.013594087941616,-1.3001273837930167,7.293408639073096,-3.124514175975185,-6.506938249720186,-4.379244400789924,-2.7111310335944747,-4.166760554855923,1.213082176632447
-36.0,-2.1575516343272563,-2.6691783584051105,-0.511626724077896,2.466949315915481,-0.7858218821124574,-1.5503935625761565,2.3428168779711434,-2.87316936485921,-2.4631764375728284,-1.5008642724000076,0.619749559090633,0.6243982610906371
-35.0,-3.361718937243549,-2.7988732512784433,0.5628456859650457,3.1247338713209722,-1.9997340590402017,-1.1581677968962774,2.4064306278234757,2.501191926361214,1.7576695331560321,0.37675433681447634,0.7215986222513009,0.21089006528387105
-34.0,4.584535276714634,-3.4613084351341934,-8.045843711848882,-0.6053002100097469,6.280635978281178,-5.714026206423419,3.7966247580365424,3.827876783831641,1.7237402947501028,2.527416095881162,-0.39521408991136253,-3.065594516530489
-33.0,2.4904206252492793,0.10540498212539506,-2.3850156431239338,-1.3508224107309168,2.4835948997093253,-1.1764131257079642,-1.3206309163352536,2.0312933164896063,1.6395202224829295,2.879961794988854,3.545389309038598,0.6149478630561211
-32.0,2.0810289298216933,0.8747120323870252,-1.2063168974346716,-1.4605396203352496,1.6901871923452443,-0.12106439649569567,-3.465908623642782,-0.951553474667219,-0.6322373399411803,-0.35795090772984084,-3.0598234280557857,-0.734695100224785
-31.0,-6.986029610245693,-1.409024190008551,5.577005420237166,4.208039511984982,-6.314142644630973,2.0508011957007675,0.31808190856402385,0.7004758811685079,1.9412533209056193,4.1882686827507944,4.57729439689712,3.6234347533508475
-30.0,2.611243489118315,0.9362940443322616,-1.6749494447860225,-1.7672048166008556,2.108874173156897,-0.4045558049428206,-2.8908359701262656,-3.8062984082422626,-1.7248140890587471,-5.1928237383495,-2.284467600694263,-0.7803107945454735
-29.0,11.88712584604042,7.033008039820185,-4.854117806220195,-9.453728329487657,8.412221330431528,1.1282202031187694,0.3438746792349774,9.053083030722961,-1.9340394608313365,-4.29478418705449,-1.174748615131326,-1.8510594026395448
-28.0,-8.343645824675043,-6.035239649826066,2.3084061748490234,7.199332063686632,-5.367180793231206,-1.9094394207579193,-0.9555444981600502,-8.604868355680242,0.7731922313061395,-1.0395679834758869,-1.2134886040525137,0.29947573477629363
-27.0,-7.787420547077337,3.0556878812130113,10.843108428290376,2.3821936401076393,-9.281984880099975,6.976873919628068,3.3692670414372046,-1.5945920618597778,0.4994958539826436,0.7368681534631917,1.9928258363082194,-0.6708435498369094
-26.0,-4.242713312006076,-4.209167184131946,0.03354612787412714,4.17127509264964,-2.1871170178115116,-2.0629088238835,6.358853087756274,4.787714998572694,0.924617076167326,3.694435972056484,1.994324313319593,1.7255380413659793
-25.0,5.725893383455962,2.8823828794254256,-2.8435105040305766,-4.2727132311629505,4.312787070057955,0.04527411684427696,-5.446210376648342,-5.118101746159471,-3.3321530106339377,0.916328010696327,-3.17818355362271,-1.2126023349763648
-24.0,1.5907458717772123,1.0233344149905104,-0.567411456786763,-1.3488634518927172,1.1078002972082364,0.17891930991634508,0.11888050188807431,1.830968516884806,1.097521857420445,4.904407752500115,1.3079464362754614,5.096338958797412
-23.0,1.2737785982073841,-5.628195517196662,-6.901974115404096,2.2169516251824644,4.119147837879376,-6.230283575513388,-0.20563664095917256,1.9441334006431947,0.8988429808682769,-2.087586513613679,-0.7754938832561656,-1.415021827370222
-22.0,3.6974617262580827,1.0303037684152807,-2.6671579578428184,-2.3242537668686936,3.1381441196132647,-0.858145502662774,-5.157284650839208,-2.7541654846438135,-0.672263275366323,-6.422472049675571,-4.28669596496474,-3.7611436200237764
-21.0,2.946751229210225,3.106542425319411,0.15979119610921777,-3.0685010860407678,1.3520568244837874,1.673987718427036,3.4040494763285003,3.067917112713695,3.9081737180902305,-0.4517173414464204,3.3661118279584166,-1.7215509228574437
-20.0,-2.6047036632104126,3.8502482595493346,6.4549519227598005,-0.6691202536473608,-4.491161657216155,5.113608058774787,2.880226297661136,1.2055989162463228,0.9697753979376889,3.421176018580613,2.4403351461419893,-0.46391421793361776
-19.0,-5.9028655084562605,-2.1479556653313874,3.7549098431248753,4.052897351266847,-4.869000417549241,0.7615008858898444,0.019644512370515566,4.1982730664019074,2.719975461912126,0.5257536087154575,0.7691178758662167,0.42209144553448075
-18.0,1.4426418842396704,-4.085135340223112,-5.527777224462864,1.3449228183122695,3.523206758706811,-4.772743386952696,-2.1632897638815574,-2.1972069264395935,-3.5838427589991895,0.24053121095400476,-0.9494307824274013,0.4708870678126147
-17.0,-0.40829222851058344,-2.672514558248314,-2.2642223297378554,1.5625864441352593,0.9656872490224514,-2.43596427558909,-1.0702872201312976,-4.951267649842682,-7.394150060116696,-1.1077087519840205,-0.8054625137430544,0.497658873818994
-16.0,-3.180726331737557,-0.08914106751841544,3.091585264219072,1.57963526191406,-3.1764159818631486,1.5348607379668648,2.9833175877097364,-1.6807284216393752,-1.5426612111164477,-0.8923017235655031,-0.34996816640006134,4.140487992697719
-15.0,5.435115804644969,6.398208312802039,0.9630925081570713,-5.8896706071017135,2.197662858226177,3.638515424326905,0.015795287720222873,-3.997028436837974,-4.212684944298981,-1.7156996025956126,-0.7372774220758838,2.7903229031496166
-14.0,-0.4849969924084965,3.868262775071271,4.353259767479846,-1.6600739249909373,-2.3761587126328205,4.149968854324433,-3.313015450841591,1.6912418570516856,1.8830172092863249,0.671512491792599,2.230831608348205,1.7545827861247056
-13.0,-1.8719322996798977,-4.486492677824243,-2.614560378144218,3.136062630971283,0.4165948273288806,-3.5903236547183313,-2.1457606975520687,5.676682400802566,4.825047185374619,0.3089330406481427,-1.2162522112845175,-8.739883841590732
-12.0,3.832160054100686,0.36450290256738627,-3.467657151533163,-2.0604938103253523,3.617455089414178,-1.5960625155652683,3.0629272486250017,3.100751437213958,8.313468788057236,2.264538630291956,-1.0927024122750948,-3.1041699533549574
-11.0,-1.1517405157460898,-4.5561629142952835,-3.4044223985490474,2.8130275044608357,1.0928955035632317,-3.955007958188342,2.857637679144957,-0.6824609769699854,5.709748561938032,2.84162598247044,-4.685024021659693,-1.1785887205326175
-10.0,-1.2412930473243233,-0.14941883414797186,1.0918742131764567,0.6528234150109102,-1.2029914493390759,0.48520913469102567,1.243690379755674,1.5322763427297628,4.891925893439224,3.927804332434171,2.1389605298501047,1.9089691864435727
-9.0,-4.022939244512268,7.303951892667753,11.326891137180052,-1.6059871652803677,-7.636644013563356,9.318917314785569,-6.22685283227788,-5.001827236341934,2.2221157754770946,5.116298729792915,9.968334534415362,9.699432479894606
-8.0,1.3399192707416916,3.6951120728058284,2.355192802064103,-2.483171790065,-0.47327582178156113,3.0222262643520565,3.64548776825302,-0.8309907681841939,-5.035900104750345,-4.238024111224231,2.9653014913501634,3.200457734835411
-7.0,6.463722123743574,-9.885216024284539,-16.34893814802827,1.7472657243894327,11.437968050924276,-13.120065364857709,1.1444509779879952,3.0755332502673682,-16.169100117076226,-17.401234761322314,-8.990763146881939,-9.401270561387985
-6.0,-3.025783898289021,-9.76007250059104,-6.734288602302238,6.354751826038517,1.8059636080958361,-8.243260569493284,2.4904289478034323,1.1454744430825228,-17.391191203508168,-15.153717619858554,-9.604884413165431,-5.335705719558982
-5.0,6.083267301615464,4.081674842479014,-2.0015924591366945,-5.116301799359583,3.9942325848059674,1.0565128977913951,-5.0256110132535285,-0.04012818054714962,-2.6638307912736474,4.039041966220884,-0.5234203836497366,-1.7288276617653726
-4.0,-6.308181322443953,6.354143554006712,12.66232487645054,0.02459499560338707,-9.453953834040282,9.539953918828452,0.35419494022684783,-1.7222367791346957,14.711089431108835,24.315368166069497,6.506795429212191,2.7909307909316423
-3.0,-12.89710535730277,4.803600952884697,17.700706310187485,4.0150260148985115,-15.266896811451106,11.219375893849445,-6.082984623364747,-10.885981049578865,-0.797147608116223,11.557626052968356,13.619568061769996,12.24624105386453
-2.0,13.617640294594551,12.791639558287807,-0.8260007363065727,-13.240611369499508,7.253858251060952,5.960088956487073,-0.6324051756313274,-4.048492492924921,0.6482563342810153,-2.5914461743178308,-0.7536749704514296,2.5220658072008604
-1.0,0.26989552748358436,-8.771803157348444,-9.041698684831742,4.286463014771891,4.608002126363664,-8.925237719961356,6.270254695034293,2.4304782750339107,2.3487410607842767,-8.130393173066222,-7.200454669789692,-6.776087062389627
0.0,-7.113256617236187,-9.545589139508861,-2.432332522272528,8.356147716987744,-2.390378198935621,-6.008481899739018,6.361613868673668,9.960022218343536,10.469102871540933,-10.876241545236619,-8.004230358162719,-5.223726064422426
1.0,1.540756548863563,-8.891824723543508,-10.432581272407203,3.693794233227256,6.013121356784515,-9.607022708024356,4.72199519839346,15.077171856857523,27.54274672317623,-1.4664801019780995,-6.538331502827529,-7.564402020586828
2.0,5.605379343237686,4.330685317197988,-1.2746940260400956,-5.0349409236028615,3.4651547978645927,1.5002412342389437,-1.043056967489625,11.853015910061059,26.36107023989278,14.444419574599799,3.096578810800789,-0.2994342945041737
3.0,6.180962892715849,7.825584321525258,1.644621428808857,-6.994432711537166,2.2942765544506654,4.783937363783013,-14.081311311131545,-8.528136640731656,-15.77474470693877,7.825978748274894,15.917370781850622,11.272697623191663
4.0,7.190431840737774,6.157043532428753,-1.0333883083094308,-6.6636434707717465,4.063192651054813,2.532272343070643,-12.174551284724433,-22.008816294586467,-66.30880403369372,-10.823609310655916,11.936890720407783,14.377280394006641
5.0,-8.852262622858596,3.865089867242383,12.717352490100943,2.5092358037258142,-10.748293057074235,8.341973841628201,5.335870030296872,-17.339689753273753,-36.648320506412304,-6.961139773201021,-2.334614269060374,0.9197239754109994
6.0,-14.881790596862412,-14.014430154077107,0.8673604427857189,14.472642960726965,-7.909101332847439,-6.601240976813941,8.550316459244032,1.0043677172092362,-6.399629050975822,-19.754032463299705,-23.429055885228642,-16.30003780322294
7.0,-2.075328081810131,-10.40308980498936,-8.32776172317824,6.195223811120227,3.1774842914185664,-9.39647681810347,12.182991992534859,11.172477265252496,27.358662675712594,-6.610735847894864,-11.77605114730544,-14.103852620037394
8.0,3.392502307846004,-6.3292013804782385,-9.721703688323053,1.5121219898319498,6.534104300983373,-8.064512926893542,6.906040437374884,22.435793452216796,67.23159395197261,16.44771550630004,-7.136944119243324,-10.562216348624958
9.0,1.8386552773240465,4.853912095692259,3.015256818369142,-3.375933596387923,-0.6106464751147493,3.9625765364977354,7.882284653607236,19.322781341799402,58.944484812023234,25.463944029099032,6.950015767827894,1.48021943622313
10.0,-5.492195450756963,24.117132028191115,29.609327478947854,-9.342049981849918,-17.576464669452847,26.878571539739553,-15.57890337598415,-25.969648421120144,-30.54089076346974,5.625777640864152,17.793036178722673,21.65728009526012
11.0,9.75245656451622,27.305892534428935,17.553435969911217,-18.48539144157343,-3.853812322555381,22.434886121244492,-23.105349782114605,-25.993173571974303,-54.69040378102052,15.364021013500473,32.929251792231206,26.476986455691847
12.0,12.82602212683374,1.3019041004467873,-11.524118026389178,-7.108511752004475,12.135399323041128,-5.110527240457998,-15.397298594769605,0.3980563478488275,-33.927542370553695,7.719365041632698,24.057229540967857,19.78736368978378
13.0,12.13638190929162,-34.52680709575317,-46.66318900504655,11.217942633592791,29.43189306892774,-40.59220050462957,7.464037583894686,28.68581199591464,9.345870542664159,-28.925162485547954,-29.799338017576098,-23.3394284173006
14.0,2.02729120983644,-33.84345983280686,-35.87075104264417,15.920099973644497,18.97603067213076,-34.845863030012424,20.01806932536944,16.40360848385746,24.73972683104651,-30.09279815407357,-41.829675028833165,-34.160333822258785
15.0,-16.85499772265378,-5.837716620092076,11.017281102562393,11.350645985134088,-13.91201018252275,2.613268883808507,16.44025268762872,-4.307399840208687,3.9116970528781856,-19.77435014053958,-28.392973763635865,-20.973911952545066
16.0,-22.60695873576581,17.283801070402845,39.89075980617024,2.662412906582434,-31.30445729071898,28.544625528817953,4.499202026506122,-18.85160278047381,-5.4949335489666105,8.717171436069364,3.8251305211696245,4.573186134806109
17.0,-15.278987059437473,21.266555378745792,36.545542438184825,-2.99193502424626,-25.96732137299695,28.872995952565702,-4.367439337002178,-31.38023563699954,-26.239879576982972,12.61650807475118,22.320610966072188,15.424217401954117
18.0,-7.78033500267073,18.510946650656095,26.291281653327697,-5.358631795188401,-17.010054882407143,22.451060202017267,-10.14826224736088,-16.92803690048748,-32.53111428621801,7.704924806930443,28.311018667631476,23.714070697988333
19.0,10.680052948812783,12.950628464212835,2.270575515400502,-11.879891315127644,4.234367810641448,7.579895187073671,-5.632210795914583,14.48171448289196,26.263480556824987,10.53336945098918,25.965195721300194,20.92058430474593
20.0,25.98728797730074,-22.119836485067815,-48.107124462368475,-1.9105337664331756,37.082538445150405,-35.07273371639317,2.218097644473284,37.3621853649521,55.7204424704941,2.991898880073121,-16.525565725055646,-12.899450284078448
21.0,30.724417067924758,-14.51856882485395,-45.24298589277851,-8.070549035156581,37.9469505144644,-29.929520462685147,-10.351050462392415,24.23778369840193,25.32188312829355,-1.3313653258377895,-25.285087274491044,-19.365655075421063
22.0,8.799747240664551,-40.409528379756395,-49.209275620421074,15.845243733329236,29.052314040993146,-44.79100053614204,4.521952960499424,17.59989010698274,11.648765776798664,-6.68921717349304,-32.204131598595595,-31.07375235998964
23.0,-6.125750909826318,-9.412153030680809,-3.2864021208544543,7.735869078987587,-1.4478983866752992,-6.340787958822201,11.805103914388193,0.8130933852607485,4.862889130848142,13.673732791184282,1.4845500555049043,-10.455723850391784
24.0,-16.278280936726674,46.095371226939925,62.3736521636665,-14.940135034550146,-39.35618375291537,54.236701801720585,-7.50373830954461,-25.10674834873793,-32.983067451963564,16.186466057423747,40.362358896194635,36.920265695793006
25.0,-34.23807116020662,30.015417528514817,64.25348868872072,2.077055583990142,-49.2829055492937,47.13478609716334,-3.1655767700066653,-44.256442845669014,-66.9260202823622,-24.945108775789308,24.83336831269395,29.907900807514544
26.0,-25.146921385335055,19.231095922259456,44.378017307593396,2.9962227684311955,-34.73117715856908,31.80708445516263,8.084634052906605,-21.88574621606868,-33.08886483162937,-16.15180688404113,10.131351217943946,14.707750567225037
27.0,12.406182561577209,7.054369554789391,-5.3518130067883085,-9.700145023834342,8.899178481877865,0.8586810432711305,-2.22928512102642,7.428336563946492,22.62912200238399,53.08988387622364,8.212961241005662,-0.3699168034128035
28.0,35.257749917495936,-1.8559233766538448,-37.11367329414966,-16.679262587555506,36.19674148293372,-19.471648657781017,-18.834151021973632,9.661197852501006,33.43915450770279,47.21717412965554,-5.245402980536117,-13.560307427308402
29.0,0.2335532482298177,-60.42261610490642,-60.65616935313556,30.03010748957319,30.45051604952771,-60.599940265906625,11.320356763057834,24.864576898986925,15.007042109683049,-94.23417125012222,-63.772179943923,-40.43781570878742
30.0,5.769851488472591,-34.23211400607267,-40.001965494544386,14.24028858690837,22.8903564270189,-37.095247315878495,11.982290783626558,9.441526604788486,-1.2572555298038068,-70.53105102797709,-32.71697363232624,-18.161768054778147
31.0,4.5941288347065035,6.468191004356264,1.8740621696505286,-5.524505105761492,1.3665923788407444,4.19525992436953,0.3013300982448581,2.4021769119799075,-2.9562355331989476,1.7119948822870228,7.799854204407637,7.505899117700745
32.0,-12.03423458914668,15.325523116991068,27.359757706137895,-1.6388566733483003,-19.765198770883437,21.290031517654693,0.635887931327134,-2.7652437483471095,4.793085092066656,34.83275780342055,12.192025439643615,4.215144333110221
33.0,-18.52101497242438,7.441810922194705,25.962825894618756,5.548501134261995,-22.226826471311163,16.731131746886646,0.3109674280123951,2.227752586392067,11.887012216561462,38.75571484221425,10.020740952192153,-0.2538701352550099
34.0,4.974472656717014,17.316944449578447,12.342471792861026,-11.133954743304349,-3.6646066749956674,14.862262334442956,-5.763324840916076,8.845348539273267,9.048586748859849,31.186118542561495,25.430424268929976,14.60196319263626
35.0,1.3965954582616886,3.431778809552032,2.035183351289998,-2.4003228366532383,-0.29617345096968783,2.7702756370992248,3.9106811512523585,-0.402567398819178,5.269103717304251,16.803996664726085,15.921971218943302,7.1929063994552696
36.0,17.891596916364232,19.820671101137787,1.92907418477329,-18.920819711502965,8.00746864048627,10.836306284665602,-0.8761942596559207,-16.57473288710343,-14.078187403409302,-0.3456959306867997,34.762905581206034,31.83763591526309
37.0,7.5319824747965125,-0.40351182572993327,-7.935494300526618,-3.552158762371446,7.683706014097863,-4.206917889324199,-8.160201481267901,-15.808766237001127,-22.719630341120762,-20.289047207955463,0.49079545651831147,7.942758592695821
38.0,-6.661627853451153,-5.40105629304871,1.2605715604022851,6.040086946874506,-4.008947192641684,-2.109289459616832,-5.488537968619109,-2.058860066822639,-5.674744956892535,-21.34032753439439,-27.34692482728639,-13.215313969533497
39.0,-5.744172824762882,1.7285676568341213,7.472740481597027,2.013559604087467,-6.575252700808646,4.636650803763475,-5.43228307726355,9.685371368614694,-1.9153022420367813,-19.72391774928485,-31.661813029651064,-17.52419509170698
40.0,-14.105304917239518,-5.499091746895946,8.606213170343961,9.807178660794266,-11.31975460924285,1.5854112516665992,1.599835670970912,-5.337356368865722,-9.130638078631602,-10.946022071638762,-18.25708275766265,-11.988952841431189
41.0,-5.465424899880063,-23.7589025845083,-18.293477684627724,14.619892270708146,6.453268735286542,-20.997196158679543,15.997712135286843,6.310364687687693,2.2866797859045525,1.3936809718340948,-11.097302971414486,-20.29676081269181
42.0,4.762660843502749,-15.095730757638792,-19.858391601141335,5.180796558488865,12.274047484733128,-17.527321233232122,7.306824637398426,1.1127307285972972,11.059658540557871,9.850313371829367,4.072910154536455,-7.154761747966554
43.0,0.4172067409153666,-6.64963401971859,-7.066840760634159,3.0611247180868957,3.7074576939053374,-6.827791583131361,6.365911573593562,9.372198413284707,21.115431817532908,19.797210025146867,17.168510426857495,5.9113987764856
44.0,18.331706727483525,18.199020796162934,-0.13268593132080853,-18.231311114087333,9.19782931594615,8.988622555047588,-9.740255088353504,12.865261600082977,14.18599147378797,18.273107546639345,24.11905514644474,20.086403618596968
45.0,5.19074312583823,10.020781148431748,4.830038022593244,-7.562693057898489,0.22328226687572217,7.464164135087032,-8.058283275314636,-4.264057346039801,-0.7695927717534605,-0.1574150989668759,7.396574891345452,10.4529445779553
46.0,-10.54484603695279,10.934706736907026,21.479552773859663,-0.22521003064598943,-15.971792473821738,16.17146288123073,1.2140938314944503,-8.083676739426457,-7.946852626889112,-12.255395091150824,-1.7316149584915408,6.486723334991137
47.0,-6.258175269637004,7.517345914255278,13.77552118389236,-0.6595033390046852,-10.058134286411706,10.692817466517003,-5.193724434950443,-10.481478595667548,-12.532634550993619,-8.591513794510826,-1.7265836040201998,4.377220913478446
48.0,4.485448770062563,1.717472746938847,-2.7679760231236985,-3.1361283120043275,3.6611448892673906,-0.5558838912445356,-4.344672759633326,-6.475027348001495,-16.58782747107154,-11.12562824198242,-12.97399958322463,-8.865087277606227
49.0,0.7795011130257956,3.6664305994834248,2.8869294864576425,-2.187387313520962,-1.101210306845061,3.245923143866313,-4.850958101831179,-5.495724272999006,-10.887087418491012,-0.575544804507409,-2.6696697255821586,-4.4594391460013405
50.0,-6.875000191024139,-14.058351811885831,-7.1833516208617665,10.492274276192429,0.18185273809119584,-10.57495518478888,7.391574292122983,7.49808528266433,8.120906921459135,8.822375481911768,1.0006277701146473,-1.4217674620647607
51.0,7.444072477197217,-13.784175573045369,-21.228248050242502,3.186564410797372,14.359709954508387,-17.464384214385838,10.583763182054843,17.039887168239257,19.33464382163614,4.3181784360469635,-2.086417999842978,-6.3721630302676004
52.0,-2.6744557141258345,-7.365198051361702,-4.690742337235717,5.029941007557172,0.9484452927854106,-6.070774956677942,17.044564607742746,7.298278889788694,19.235846955313967,3.9393073465938513,-0.07519444985440682,-1.660828645785699
53.0,0.28544050254146613,5.172480416655285,4.887039914113805,-2.800313390166604,-2.2860238553698577,4.979776462333993,-4.0018899667718,-0.9983274878717259,-6.449053179915419,1.0146344445488773,4.2861696344485445,4.3376122044454135
54.0,-10.687353982059781,1.1292881298906852,11.816642111950387,4.787734267532793,-11.240409905868333,6.494306704919001,-11.534506020056334,-17.77741442648733,-19.987780590907164,-8.859059047750687,-3.2262743328584254,1.1238082847306705
55.0,1.1947524602692008,1.422444814936651,0.22769235466725846,-1.2947232803130868,0.4938345254432779,0.8402006428330875,-12.377873672194612,-9.364765340405446,-14.683052407098073,-5.98243017902394,-3.118795108247792,-4.372796941299789
56.0,16.077679412001565,14.583091181727276,-1.4945882302744131,-15.308131683438035,8.797482370491267,6.555772191824784,-5.539757743843389,4.240888240971827,1.9320597260600039,1.7264344199000758,4.029044007011535,-0.057267605785370046
57.0,1.6211345393399421,4.437732470881531,2.8165979315415237,-2.9968680013663223,-0.5831065095799386,3.6383921559750405,7.17674215533222,9.253186331680297,18.098444093737058,9.334185462299336,3.3026084441316614,3.727495298439182
58.0,-4.769568042497971,-1.4406470706724566,3.328920971825587,3.069415617734655,-4.108300263831039,0.9581326473305785,3.21429716055692,2.0373628309615546,11.459192159067156,5.624863885520928,5.119997202150538,6.007702506283166
59.0,-0.9552392191050187,-9.879851872237847,-8.924612653132634,5.390736199286184,4.010779789842644,-9.462243186956366,-0.7773251832019223,3.379880768167294,-0.5540479620465817,-2.7151924594940193,0.610122699505788,3.327318458892754
60.0,-6.179371181804971,-5.947340598205846,0.23203058359931017,6.042541737339494,-3.25093036856192,-2.8336413515293124,1.0605343978112751,-3.5516944337518512,-7.56281199714092,-7.425877241426112,-8.049998619694673,-2.3796216748277157
61.0,-7.944176035092934,-1.5901607198691963,6.354015315223867,4.827757694021596,-7.107395704403793,2.4104820160411453,5.617677570445958,-2.8104098733251783,-6.003969078528667,-3.566521865816428,-6.344485978193255,-5.962259996030424
62.0,11.805717798369756,7.9539634645257395,-3.851754333844043,-9.898406411769876,7.878763969540444,2.0039975678496544,-0.21597066675892185,-2.4259416756678216,-7.550225677897559,1.5002481382252197,2.359151659397078,-3.7957086914923126
63.0,5.496661341347073,2.1013729753008668,-3.395288366046312,-3.8203622369990615,4.424581957227472,-0.613730002107167,1.8436712116779441,2.4251660381833755,3.935633393221824,1.8889138949081534,2.715122507688659,-0.7468017826022084
64.0,-8.148165783016179,-1.526736965830874,6.621428817185109,4.890460538691036,-7.401322721876435,2.5024105337682725,1.3529807907158002,0.5436931659312463,7.084655802460363,4.68716776335458,4.069086445249445,2.904292998048108
65.0,0.25165726859796145,2.099296383876336,1.8476391152781708,-1.2065618473034228,-0.813244194857841,2.00762689639232,-6.14366981089527,0.04713056870322091,0.555509060017739,2.212595625933779,4.322896932902829,4.874605363794284
66.0,6.335585737623787,-0.7728987928734117,-7.108484530497338,-2.8181418611706794,6.704326902403614,-3.905815863140421,-4.006149906614169,2.7252665421458775,2.6898165400936955,-0.719648379158625,-2.534413171302283,-0.761909186568531
67.0,2.3252898964008795,-0.8185341052461419,-3.1438240016470944,-0.7169547069082933,2.7117693944681966,-2.023765609196509,-2.11555954875162,-4.294470747990317,-5.375739427154697,-4.038585397423081,-6.228245671769549,-1.771482536548179
68.0,-8.850554022935137,-9.187107341096882,-0.3365533181617606,9.05046312646409,-4.206811425163636,-4.724013864401401,0.27139700252908283,-0.3537801551055303,-7.120639189954362,-7.274106384800435,-4.231209047745017,-2.0154132241643836
69.0,-6.845025434043219,-0.5200597729459968,6.32496566109724,3.631895289861384,-6.539349815703529,2.863210666719195,8.049096436597328,-2.9548990291573016,1.5896458856083293,1.9874205197139916,1.5608010185342556,-2.147886481305229
70.0,8.95943129762082,7.96881343455772,-0.9906178630630134,-8.437827135889908,4.939756756348968,3.451473879049093,-0.24144920828083505,7.14593378959433,6.879796249300219,4.5705201485685025,4.280345064613752,2.033132415343281
71.0,-3.636573452152148,0.6278287475898843,4.264402199742053,1.4521756911538306,-3.9854570553838253,2.4890216219449237,2.6107335791070065,-0.9263113984557405,1.4368987420491455,2.15676435621603,5.020640661461735,3.109339349657671
72.0,-1.160825391876958,-1.9612209753685055,-0.8003955834915211,1.589959895711969,-0.1344218110721319,-1.3355473799129696,-2.833587704018206,-0.3433245951082237,2.338274432095419,0.24968914561855238,-0.6756629769690083,2.281565603318551
73.0,6.721090117321157,4.057833921850297,-2.6632561954707903,-5.356501567371363,4.661853744079504,0.66702606822001,-2.9252776130617453,-0.14690987532180433,-1.4264947276774584,-1.7155694664644636,-3.0042075555463197,-1.5135434299666164
74.0,3.6914434920024526,4.373678596106722,0.6822351041044281,-3.995101537755427,1.4765489530942502,2.501804299394105,-2.3621260356192213,-2.221390930787334,-5.092901134874488,2.201928715626397,1.0722028526710905,1.3794205637309818
75.0,5.071097469327602,1.1682762867069199,-3.9028211826204733,-3.1575745928605046,4.538842498735248,-1.3886794434661494,-2.274626901030454,0.651196964108357,-1.2185011212299912,0.2623274736599257,-1.9556280555186243,-3.972559104452133
76.0,-1.6769493697406326,-2.9394702076401398,-1.2625208378993096,2.2713660170882566,-0.23438014325892054,-2.038712404178617,2.230974261310731,3.264544149765335,0.8964322759768797,-2.807584646205264,-2.940073230085389,-3.563191167797072
77.0,-17.888689999412353,-10.813789058916663,7.074900940495725,14.312903983895692,-12.432190999454779,-1.8814038810119296,6.349727426452647,-7.57241354503957,-3.8135596470391073,-2.685261240272826,0.8728525535164999,-1.1490388906792253
78.0,-5.06074031691767,-5.470002680102763,-0.40926236318531073,5.302942214413804,-2.358490756483829,-2.9483124381007553,1.5897210612531354,4.455213777835331,7.392964888326276,1.50064746404117,1.596890042707634,5.983788982897139
79.0,7.525625607392279,-1.1987254303543504,-8.724351037746985,-3.128040351176049,8.087463673048049,-4.9689708553837395,-0.8145840795174095,2.29994703166089,1.6553210051259502,-0.5126711240966737,0.3286717529126939,-1.2781586073606248
80.0,10.076882373195584,11.982750311765441,1.9058679385695125,-11.072802854376464,4.121776592318726,6.9355285142890555,-3.5485880395748457,-2.2529634985455242,-0.5663486345394981,1.814236153414506,1.3803595153826214,2.7719934332151115
81.0,-1.7207443934559379,6.83595851321965,8.556702906675483,-2.5183696953283663,-5.184994656543294,7.683475818912141,0.07816904369945998,4.311243530213607,0.4841739221572755,1.3136868309589893,3.0565147939872217,1.468447440139815
82.0,1.4988799068538454,1.0512812184100122,-0.44759868844368267,-1.2303305223033916,1.0043016329885122,0.3612500480220904,-6.473263942586864,-4.801073404369185,-6.156258770574664,-1.301116886925376,-6.6522871387409985,-4.559078844225405
83.0,1.4909055581392843,-2.498890290396377,-3.989795848535432,0.47514015969387424,2.772788902337539,-3.2719373782795187,2.8020458528500174,-2.163208904687691,-3.1937989744896544,-0.8045759218743976,-0.006548492952014318,-1.2838045346808242
84.0,-4.9326545350695294,-8.351145280933043,-3.418490745863359,6.615196869901741,-0.7212423997952097,-5.921573198904076,5.899695287870897,1.2775760036775172,3.2902312184833353,0.701567367517651,0.6958543757644652,-0.9047168721103671
85.0,-6.91296065630744,-2.7828149065996364,4.130145749707812,4.8188172554978035,-5.560791807267297,0.706592451251578,0.1650025811837934,0.754207299822413,4.905477266114483,1.037602798011795,2.7994098638180027,4.049146137940473
86.0,6.243528294790104,7.465638595671586,1.2221103008813543,-6.8900425797567,2.4734659847192164,4.368887733088828,-1.2281896898913816,2.5152455062444816,2.2215139562854382,3.8050413487004535,4.380042831382425,4.863653151781847
87.0,4.834831611729405,1.9317435104615517,-2.9030881012680103,-3.347988217623471,3.8308533750038882,-0.5451903571479608,-2.060114945860682,0.627033506284336,-1.1010967401777414,-4.240682248687724,-4.312288664458461,-3.7650122018697196
88.0,-5.1134119820614234,-8.304642871739183,-3.1912308896778914,6.73798239293427,-0.9240762973676879,-5.731652573982859,-0.06297181920060713,0.7448736620024384,-2.0667720999235257,-5.570850682704279,-2.511967067853047,-3.95828118413024
89.0,0.39027221029550674,6.016370420176301,5.626098209880789,-3.17650196860105,-2.58615725095699,5.837614481843991,-2.9826444378666146,-5.527854784720242,-7.569028335450421,-0.687879205882711,-1.3772877586222356,-1.51447650790427
90.0,-0.9186362111478645,-0.5786910935507671,0.3399451175971775,0.7782999078947311,-0.6029826005865491,-0.10029796000770763,2.41894882346239,0.9933740216999292,3.147148609492356,6.795497376926381,1.7467798660057643,0.8809390089535301
91.0,2.0130090392990034,-0.39611477112472115,-2.4091238104236177,-0.85103156319732,2.15402187756829,-1.3793114353162619,2.7343227999551662,1.2785920165472784,4.448292997289252,0.9292453650701913,-0.12970127945286047,-1.9374349794205337
92.0,6.330006452614186,6.320938745136362,-0.009067707477711795,-6.360254382961994,3.1878217935359308,3.104933592765016,-1.5272844511458472,2.976686896692596,-0.1631496057177091,2.794207868377671,4.044064415083409,5.376652658667728
93.0,-14.489639989560844,-12.374981077440687,2.1146589121202943,13.404151697722412,-8.286315278287951,-5.177585240345569,1.0229997036610636,-6.864908105888116,-1.6102845838864446,-4.018824608619058,-1.8869087097128525,1.4825632724698776
94.0,-1.8222721270257245,-0.7552515705408696,1.0670205564848738,1.343226215923814,-1.4306600915073604,0.18948187522153548,3.5229838802785465,2.096769352311514,0.3631343199144007,-2.3214978399101778,-1.142600837110365,1.2975027370141483
95.0,13.219136506575857,7.822508984343523,-5.396627522232417,-10.544424885783755,9.241771088691795,1.2476187904602347,-5.382304846646977,5.328747238799264,3.1701154087318786,0.8107677325115124,1.4982944742273783,-2.6326968706722402
96.0,5.310065262812786,1.7045777519836158,-3.6054875108292883,-3.454265532591998,4.469984556850257,-0.9156079997573031,-4.450417707442838,-0.8510924133452835,-2.511603355237807,0.4306332009622794,-5.329045576247012,-1.4878452879270043
97.0,-4.965631657717806,-0.6448839146541332,4.320747743063541,2.7755497160049214,-4.62965816170653,1.7933896597170274,4.621826157476104,1.2070404198315496,1.0483106297983118,0.3795041958495786,4.521255561450433,0.016055377879301336
98.0,-9.197611151760118,0.4917797873617392,9.68939093912174,4.3182871040001585,-9.42608972807633,5.044505345819444,2.8859572833786866,-7.265454309523475,-3.4852386490520364,0.6841704255303416,0.4947542668549114,-2.2409850286522737
99.0,-2.398024817216986,-7.1119573350576655,-4.713932517840764,4.794332869557043,1.1819882079809725,-5.882802243621479,-0.8329852382427105,1.4582646291693728,-1.0299375526676637,-4.847616187601277,-2.800591337404962,-0.21029277968580784
100.0,8.244321712577715,3.4741365325054976,-4.7701851800721915,-5.902336728469707,6.461131746764535,-0.6213576954671771,-1.6236190852367618,2.2610566605571836,2.3875882539771145,1.54477993193359,2.081746803002199,3.2008546065170096
101.0,0.9969344052780649,1.8599720997697837,0.8630376944918856,-1.3948380606265525,0.10850552385315648,1.3838956824659023,-2.2894922568350813,-1.239225881324059,1.3361468330197135,5.269150089689772,2.8164814844840294,4.527603514734331
102.0,-0.14630144448775328,-1.1768055712544698,-1.030504126766402,0.6948068521250239,0.4121434520894307,-1.1648708647592816,1.595413872305961,0.902083075398309,-1.523739675474569,-0.6743363004268899,-1.801827366943182,-2.2852335618022934
103.0,0.4664824167812489,2.878700810143517,2.412218393362574,-1.7174583650426707,-0.9990968288999846,2.6579023415890854,-0.23178526401720684,1.7568925118421919,1.6612462142380384,-0.2636851257673246,-1.9659103012714734,-4.102258604510788
104.0,-0.8778115494094273,-0.46771625417898877,0.4100952952305803,0.7071748469438794,-0.5922984734086838,-0.02115182487707834,2.213116677602218,0.9721418376481857,-0.8292539283038001,1.0401696848506998,-1.050486992315807,-1.1408179000295369
105.0,-5.975249230775458,-3.943323122113471,2.031926108661832,4.914354873143135,-4.036243055233351,-0.9518489040978034,1.9822264269939982,-0.24758008637955464,0.971061094996388,-2.477058376564157,0.494282887314595,-0.48632844807522013
106.0,0.8938991403812069,-1.7937588600413137,-2.6876580004228896,0.4816027024944449,1.8275431059120746,-2.2391071924853225,0.42908923315367575,-2.547786881709451,0.7840259288512968,-0.5837587500213675,1.9950522050153832,2.13810422902569
107.0,3.3136985929034615,0.26686312789290634,-3.046835465010879,-1.8406552914649499,3.1269887417907842,-1.3887796798071668,-4.526188279287722,-3.480028032588328,-2.2901893784218914,-3.240568034620065,-1.260427473361071,0.8505457115231541
108.0,4.946306237861149,5.753683492185551,0.8073772543242972,-5.324983109494134,2.0840703975582047,3.283121413399937,-0.6652803073135296,3.1544741267498146,0.6810795437985112,0.18668996756597106,-0.43870623833703726,3.2715426740756537
109.0,-3.9293203499668787,-1.8611941358625645,2.0681262141043564,2.9180966651397906,-2.992073943086209,0.1088882737064214,-2.3654130336161514,-1.0781742845027695,-3.64888098400517,0.1797277913776506,1.7420705629816058,-1.8558542261125015
110.0,-1.7112659462942905,-3.0540612662779902,-1.3427953199835911,2.4053317354333186,-0.1807001486526627,-2.1890755198206087,0.5703655966382616,2.4115893822047787,0.41103327075549734,1.524702641869403,0.4218237894759333,-0.44586898933455293
111.0,2.6611381030191663,3.63443522213314,0.9732971191140986,-3.2020908251978355,0.8499584060747873,2.2393844145447126,4.0769384155035855,-0.16238089394332045,1.1302142258684837,2.467940102154125,-2.599947913249662,-2.357597554168327
112.0,-2.9771756131333538,-0.17149719149981002,2.8056784216336443,1.6015871372297448,-2.8779722839635813,1.337448150260728,4.0388673182452095,1.34905354483128,6.197771812184244,5.745666609989846,2.0856103344057577,-0.5777421006182486
113.0,4.801388214134764,1.5159441060876744,-3.2854441080469856,-3.1290044800547614,4.0671838445057755,-0.8568607162812939,-3.324870819610538,-1.3608650666884037,-0.6536992623259335,-3.024783226044049,0.02044879048464783,-0.1930441092055729
114.0,-5.644072712516831,-3.4080306623765777,2.2360420501403846,4.477645251693122,-3.9845163084970534,-0.5492007843495372,2.150712729312059,0.09663079456108992,-1.36512219053519,-2.003082185429268,0.1655420675114734,0.9633019739410837
115.0,-0.3468585451421593,-0.5366407577239962,-0.1897822125817566,0.47040183111757194,-0.1147160958704293,-0.3956109155168448,-6.243912648876519,-0.3143893839019166,-3.0038157605214604,-3.483647727065307,-3.4878668880881714,3.309495812902682
116.0,-1.1716484789846844,1.5578711161434615,2.72951959512815,-0.24682176078062923,-1.9034315163090691,2.1201810598869804,-1.5329336402710827,-2.8191868263738122,-3.789245594214515,-2.179194048406834,0.5659020937749917,0.7994978685728107
117.0,1.3999484774322286,-0.37101109274362376,-1.7709595701758931,-0.49342408293844464,1.5545703899310002,-1.0878548813797098,1.8569982212107843,2.4845055927151054,1.9460039209578177,3.190239876928469,5.155168758626171,2.5789188042662157
118.0,11.213090112230043,5.61555740670059,-5.597532705529567,-8.395534660060116,8.45093919624091,0.07391777445726189,5.730687029822796,2.438752319179871,3.6055707632946787,0.3325607744277814,0.6875187616388261,-5.135419720343675
119.0,0.6137305886392435,-2.5786460045863713,-3.1923765932257444,1.0026000481830049,1.866234482168304,-2.900805456663602,-2.47036153811554,0.545965400192735,-0.6778133285643353,1.770209282534702,-3.383029300503373,-1.8532437259666568
120.0,-8.82885460403706,-8.27315455039727,0.5557000536396804,8.498150600249337,-4.653936592293038,-3.880025360357402,0.23738962681909484,-3.9551594434843773,0.3028278240315534,-0.9199661679973914,-1.6523983989329822,-1.800470537490436
121.0,-12.348021294643502,-3.2811351622079314,9.066886132435487,7.849851613819485,-10.750062775348573,2.861901243764894,2.3163940206290103,-3.4815438948043456,1.1805456889454409,-1.5995378782663572,-1.553431812444853,-0.9466569204478278
122.0,0.7653326594830245,5.035081401636777,4.26974874215369,-2.8542525851788474,-1.7160487808808478,4.688701414158541,-4.5864208176424865,1.0112212455027114,-1.55349513068819,2.2458837475893416,1.6547177527912154,5.438774930829618
123.0,12.275997661432816,6.141502259690451,-6.13449540174239,-9.23282785540075,9.165207479059013,0.029040106319728753,-2.5781801489941625,3.569522048611454,-1.4805486459667672,-4.410267980092955,-5.312028869640164,-2.902002024448055
124.0,9.290062630299925,4.360434067052073,-4.929628563247833,-6.845703292070152,7.15343901442467,-0.34512097171876155,1.4803193822204426,4.315025799534221,2.041320810827127,4.728992622213861,4.175289890357933,2.4393896463035856
125.0,-8.876167607112773,-4.909260254160047,3.9669073529527976,6.869034293548985,-6.450183217487373,-0.4546309206831043,4.1416527013919815,-3.238074464858843,-1.6045156502867612,2.1385428301477503,7.0139316235174105,-0.7198377244925283
126.0,-2.933596250025418,-0.38855499541535643,2.545041254610151,1.6278070267433566,-2.760976653984673,1.0998074427837574,-1.9406789240750721,1.6684147617753426,1.145749269658678,-0.42361896970583646,4.598028028423281,2.76449568734604
127.0,-1.337344956821814,-2.5137870496608663,-1.1764420928389552,1.9578136162412658,-0.017380246841334657,-1.8123033580632026,1.5255431422512398,-1.0971959455347375,-4.75807647028763,-3.5121877104192807,-4.718758592661341,-1.1422064725981338
128.0,-1.9235530338277682,-0.16713879599631865,1.756414237831545,1.0647413747202932,-1.8522781821266125,0.7641144553968675,-1.4232099072911821,-6.1511515943332284,3.423474128265637,-1.0121812159488885,-6.560886784541154,-0.64698518281822
129.0,7.865457880055027,1.1449641813518536,-6.720493698703076,-4.4944003334059595,7.280192919169904,-2.8019168406931363,-0.37634651837832467,-0.31663229931829573,0.7791888276485573,-4.02317396035762,-7.166956291612433,-1.9777413934447534
130.0,2.877045969394807,2.0873894801299473,-0.7896564892647986,-2.473296096389546,1.8157665446396314,0.6484683466128947,0.2048672481992534,6.519611649495627,5.408759390461257,3.7055291626708504,4.096876832714935,0.3385910268718195
131.0,-6.2418767298813,-7.309827096345971,-1.0679503664647843,6.789888630542338,-2.6128591103344236,-4.18122808224256,-0.39646103018275775,-0.5257352544310234,-1.4348777172577005,4.7531030655553925,7.831250833959933,-0.6846265065794708
132.0,1.4322289247272413,1.786583035102443,0.3543541103750546,-1.6636607577156561,0.5820039667288397,1.0785735105404717,3.5597163296470398,0.813933992055604,-6.297446593165629,0.23046232294493096,0.20257043076369463,1.3953069534534808
133.0,-2.6012593815597587,6.700469127574932,9.301728509134515,-2.01218206531705,-5.995744660955061,8.001657475980123,-2.783042148397343,-0.6416876973054627,1.6164547727819047,0.4395396660091849,1.6687438733673583,1.9078230449380544
134.0,-1.368491894295926,0.41542414392482385,1.7839160382206907,0.4474773006203716,-1.5466382218295205,1.0859705560746917,-1.2941082686398504,-4.470481732473074,-3.0133501055206398,-5.351257973384262,-7.005972056718097,-3.579232809596602
135.0,-3.648426851407778,-2.502002913573769,1.1464239378340437,3.0551972398922382,-2.367968957181235,-0.7097115885432153,-0.5314282906945512,3.8992091686825607,5.033389711050112,0.13023927180147954,1.1078716600399514,2.328005865913373
136.0,-1.7787741871873464,-3.878462181067657,-2.0996879938801993,2.8915962627805087,0.1941016588911767,-2.960757161001097,-0.7939306560541339,-2.386019650129695,-0.7356737511537559,-1.11352916346051,-0.08073434280193115,0.2724181333163287
137.0,6.02290818715978,1.069306946083033,-4.953601241076724,-3.562832745493602,5.4496405791846945,-1.928878865727237,1.0964051738778302,2.2719962919045362,-3.470400114266088,-1.2513497894624785,0.10421493307064883,0.6236791034705196
138.0,12.23389897691842,0.8957713002054237,-11.338127676713036,-6.587011853713648,11.753668302630597,-5.216634845885361,1.9511482375296534,-1.0994289375472936,1.8180695116989336,3.2313464414915867,1.0416106302002075,-3.923394806103936
139.0,1.4439455586736036,-0.2878941875793317,-1.7318397462530126,-0.6085146436885056,1.5597024742066576,-1.0064548555510866,3.335685015349219,4.284853230898402,6.470300910067129,6.579037798550688,1.3189020268657408,-0.4025663739538755
140.0,-12.585797853841889,1.8642282527720782,14.45002610661394,5.400110110910553,-13.465808828526278,8.166452334009955,1.3226912484886115,-6.345471631463125,-1.9084068641605318,0.3633396607628323,0.42643852921492487,4.0664280156429875
141.0,-1.9671698093324155,2.454445568459122,4.42161537779148,-0.21156866435423893,-3.22122156490059,3.3794745401997406,-7.152792408018527,2.9319401994894183,-5.383683436672076,-3.4472489049230295,-0.30781055930795337,-0.14222384624162143
142.0,2.6921710998584265,-3.1955360888978603,-5.887707188756396,0.20119849999796435,4.262756710321773,-4.5086335442356384,-3.4146965071743005,2.4428123042457957,0.4455217464728536,-6.988458164537717,-2.1112732976191384,-2.858639576011551
143.0,-4.329230556546829,0.515837924203709,4.845068480750447,1.935410976966806,-4.534914043938476,2.724884618600039,1.5166587265672957,-7.637409449271427,0.6920168707023489,-1.3107734512916713,0.23539407190882322,4.576024776555474
144.0,-1.1291317599281678,-0.6903562768383869,0.43877548308975345,0.8640400540914472,-0.7300395159859758,-0.15284130549440905,5.670832259594805,1.262199772022031,-1.7811522052341013,1.3927070929356935,-3.0158879598572312,-3.7812501840629746
145.0,5.802960706771422,0.12893230304123504,-5.6740284037301185,-2.9261982805571405,5.714943810937918,-2.7982160626085855,-0.6182718686976072,2.7145419925978693,3.3741690773235513,4.265933629234041,-0.0692834781174253,-0.10994126006338201
146.0,-0.5090800019917832,-1.274233475204431,-0.7651534732125267,0.938062688010445,0.10325513077884363,-1.0499540949412631,1.778680182589563,2.1401513135023236,1.1744364494937531,5.650315753941446,7.8692502524568795,1.7497781271669408
147.0,-1.2923462888228099,-2.8819865112665837,-1.5896402224436086,2.0586569518755526,0.11854707194864345,-2.19627469911446,-0.9526541355985758,1.1449238181188965,-1.8117345778150968,-4.0371994485818075,-1.9541072397879837,-2.805827820476599
148.0,3.1576135155583285,0.9856998909043118,-2.171913624653872,-2.101438922777009,2.6253974604032684,-0.5640158528084263,-2.1206175599110813,4.301372918881149,0.7796586846144863,-1.8843525467593296,-1.3758775175111815,1.75084513904732
149.0,4.926797946100442,5.37623716803213,0.449439221931721,-5.188547828598454,2.2670369688857623,2.854462517735414,-1.6969294035343787,-3.2714905363231512,0.62745270611857,1.3860146086637657,4.041024175206339,5.599660443765453
150.0,-0.8739406486982102,1.208919460934207,2.082860109632292,-0.13792043487641314,-1.459331599461764,1.661892128979214,-1.5440417096245875,-10.545016988657324,-5.405459500563734,-3.8792680385840486,-4.215386375857811,-2.741861127131872
151.0,-4.4029067334563905,0.42638463494203915,4.829291368398262,2.0035873858443236,-4.601232562776694,2.6449966336736486,0.07751412221762594,1.2898047046775059,3.487792021547039,-1.1813340270939883,-4.544720786846176,-2.9479701737585873
152.0,-3.195796230319309,-1.4502530414461634,1.7455431888729804,2.3257096333515452,-2.4531651460155386,0.17079578945077578,2.4353661932966335,5.631760899268064,1.653965681641753,5.195365869536974,-0.9982388208923072,-1.5607572345724465
153.0,-4.642942768063074,-7.733213825236938,-3.0902710571739203,6.183178102064681,-0.7499445340570052,-5.380199570155984,1.8901500650339738,1.1138411924841614,0.4395136202524884,1.6493623615328545,0.9290154646898994,-4.416085435758282
154.0,-2.315025945889595,-1.7157645453635304,0.5992614005261161,2.0102022247798024,-1.4970513735261355,-0.5980217435912176,5.663230683222593,-0.19504979599034433,-1.7489699726845083,-0.9054340895082358,2.3234793981048982,1.0664503977257476
155.0,5.005120066349735,7.081583954649544,2.076463888299974,-6.041136527667892,1.4367323835438564,4.542769617083302,-3.616436617024786,-1.1224425499665496,-0.7010753215333658,-1.377784133723318,5.115923405494316,8.220852788913842
156.0,11.80953987464139,5.59581612944011,-6.213723745201055,-8.686920897863756,8.992840513532524,-0.3469637226280279,-4.688107967041833,3.514998981567807,-0.5698669139070045,-5.487551420508398,-0.24141228444582685,0.22480141633031137
157.0,-7.140502693373838,-1.1976159285771613,5.94288676479683,4.201296146890215,-6.4784235634731315,2.40712146135818,-4.653000743576083,-6.505243376741707,-0.16879805453662977,1.334239058215842,-1.1619099201068592,0.04824528965142916
158.0,8.433771012398386,1.5856619085591013,-6.848109103839256,-5.040788691662412,7.623126612039975,-2.605065522792505,1.5663668102485224,2.2726921854031508,1.8209927687622682,2.7344614594121954,-2.1083973023387728,-0.7440112508518966
159.0,-3.825216418059858,-4.612490712432395,-0.7872742943726119,4.198599253227203,-1.543214768815302,-2.6811906977640234,4.433340985753629,2.2128413003527623,2.7493043219331703,4.157139761404047,-1.4705295826183005,-1.5501744389658367
160.0,-6.328079173940219,-9.6354223238476,-3.3073431499075796,7.96561543321622,-1.542417378278462,-6.457010346009732,2.874101008696967,1.3609673319241387,0.4250434197474183,1.8014796177026102,2.7716048413341823,0.06378953348364158
161.0,-11.903293691408075,-8.024901113260782,3.878392578147051,9.945395585967038,-7.850286649403464,-2.1378324792719714,2.6430173994132797,-0.4036585391564141,-5.099891803158094,-1.7257261028292834,-1.6062198350529757,-4.193973751903542
162.0,4.647441886063564,11.3138213398549,6.666379453791162,-7.927963176928127,-0.971059833174142,9.00779317398268,-0.34798862776481143,0.2483627618664822,0.34780436907405066,-1.8434580170696084,2.6686946050462357,3.022194909190323
163.0,2.820952467097665,5.678556193364811,2.857603726267135,-4.285223241067019,-0.05603575495860258,4.29158951692639,-2.269687937265,-2.541641728651733,-1.201133933925533,-7.596179123201446,-4.663005176960214,-2.9859358582748694
164.0,20.150839468360193,14.444184874853073,-5.706654593506967,-17.263057536331768,12.976138367964897,4.398445008077877,-10.748651860779415,-6.424434076599865,-0.4977408342735194,-0.4666897821384457,0.9895102656737718,3.125949581212324
165.0,-8.478627084899216,-3.6334523428573666,4.845174742042051,6.083685737705103,-6.685624617106697,0.5614522101410849,1.3774606693046918,0.5471276980034725,2.309949967720308,0.8383102079719945,-2.339053222360696,-0.23492318660538247
166.0,-4.374934978039767,-8.031157326675316,-3.6562223486353833,6.22605867174503,-0.37694281474246727,-5.8861314738617265,3.569530265111549,5.754122116308148,5.609933152504905,7.77785717014975,0.4990986036068486,-1.4134321253033568
167.0,-0.5080043623716599,-7.2358222577802875,-6.727817895408577,3.8131374158201057,3.094997225402746,-6.946358841719601,3.016729342800496,1.4002122292991075,-2.8829759437111204,4.111626161175108,4.748802690852179,3.7384187671338016
168.0,-7.403816017149641,-3.921480276282347,3.482335740867261,5.602066982808848,-5.459144263366968,-0.18687487596127994,4.406050136827568,3.041809725792631,-1.8850730936142823,-2.1192332319768417,1.9877322858653752,1.871675747411603
169.0,-1.0054197185244305,3.9763419346650157,4.981761653189329,-1.4673220120827533,-3.0134346461193617,4.42977328561612,2.354471135087205,-0.29815116576508216,-1.0810581749206523,-2.0737818814386006,1.9461427624179803,0.0991754977020316
170.0,4.10758069900596,1.7738981481550775,-2.333682550851052,-2.9195373093837316,3.275198990935251,-0.2527251890910147,-6.494656460098033,-1.5395711323530692,-1.5404184621095114,-3.956694611861006,-4.793312829732304,-5.760041505966043
171.0,0.739764401034241,-0.8392892481967369,-1.5790536492311424,0.07827922738217108,1.210839998658539,-1.1825975802668185,-1.9514561702866504,-7.077037815587134,-2.310286722419846,-3.253657146884181,-7.9464619213197105,-5.9050368209555195
172.0,8.896973790290977,5.507866715882138,-3.389107074409005,-7.162470594818059,6.114406831587465,1.0082590320666267,-0.12214527738871928,2.129710453740925,4.604644813866813,2.420086969581992,4.793133433034212,4.111790611080622
173.0,1.630582971620457,-0.3618307811346444,-1.9924137527552097,-0.6596250763830898,1.782711503128008,-1.1476522410853316,-0.024206888355013056,4.07157127578961,4.439877840911952,4.06145610521826,4.204589511913786,6.506592033819159
174.0,-8.811242097470393,-5.380357098742414,3.430884998727997,7.082747722790395,-6.150225065731373,-0.9439671912869518,3.116070586887555,1.2973691783676544,2.5137233416524403,2.0460115049287064,2.890842379489424,2.7904438091306867
175.0,-3.15049397429857,-1.624194836754022,1.5262991375446973,2.3813883279135792,-2.2907081937824345,-0.09743084060616075,1.6732084527815279,-1.5570781402304155,-4.515641994709766,-0.5146112248176085,-2.023400128728727,-2.3073987782741168
176.0,2.5575507980532577,6.351481564347459,3.7939307662944506,-4.4610578114113775,-0.6533258912216651,5.100068514637269,-3.2737564761674047,-0.4105997455772466,-2.83369195299968,-1.7051014541631875,-0.8049158085542171,-1.0819915884651565
177.0,-2.330533150087633,4.187182357577485,6.517715507665353,-0.9434866065469896,-4.386580488051511,5.296228314923336,-1.9615291814060933,-5.11060311951781,-6.692725516841316,-5.661176488402087,-7.59602757888302,-4.772208546919455
178.0,6.73409702854333,-1.151495434149659,-7.8855924626929,-2.820989151363872,7.261417235543368,-4.501223528344923,-0.24436086350651398,0.2191395690039586,0.8477556304491927,-2.246883206668891,-3.869219395691313,-4.705642828671066
179.0,-6.181250729564205,-1.6329360778740147,4.548314651690116,3.9396745766777093,-5.341669706104333,1.4715248790514588,-0.1509049478011621,2.7319782639123016,5.131982274189178,6.744768398016058,9.34672538686732,2.8308391791530276
180.0,-2.3140096867498166,-5.0364559213045474,-2.722446234554895,3.693806617781811,0.22121008678243936,-3.865616920470714,4.72045846258456,-0.8739648493579637,2.69168289502826,3.3891339170936394,4.050852088036968,4.047159809891831
181.0,7.088912421315506,-2.7045719112935576,-9.793484332609218,-2.1817497387453963,8.4538423485297,-6.2311201835690895,-2.4168358546317177,5.566476025221308,2.752999389012536,-0.48177641300885465,1.4942079138233981,3.866832161363448
182.0,1.7845161409954389,-0.09287079198928883,-1.8773869329848716,-0.8364569549571161,1.841268928659317,-0.9599667830320238,3.5978969407301937,3.2674188515716764,-0.46015013816700456,-0.9525531513989984,-0.6457374623735875,2.7954934016913295
183.0,6.841529195383403,4.963193140388891,-1.878336054994624,-5.888090467932592,4.291249838550434,1.4972825315378258,-1.4659966022192585,1.5373719287286778,-0.4696174684066796,-0.07170834458554443,-1.7271304360728545,-2.165872965813015
184.0,-17.556960550582872,-6.093083655771866,11.463876894810879,11.768513461956813,-14.49832856315362,2.6477010698964802,1.6302234353512528,-10.09530618828151,-4.08346496347245,-2.8937250923189457,-6.008762548604276,-6.572364183310047
185.0,-0.7123028685523076,9.764808732399857,10.477111600952114,-4.496455705653858,-5.577870041384838,10.167058470448094,-2.223998907069168,-6.869034721947996,-2.2321425125220498,-3.3412443153349036,-3.436618691804965,-2.4995010021749815
186.0,8.567382525529947,2.265416374450948,-6.301966151078941,-5.461075006572236,7.459429187148738,-2.048437086561232,-7.538404198907671,1.5693760468932907,-0.3692258736826419,0.2644771331710394,1.2705220380790205,1.3864722303877093
187.0,7.518405202248046,0.001793235142363292,-7.51661196710549,-3.7264620513473474,7.474564007272626,-3.7866723343282302,-1.216793801864434,6.899502297624195,2.3925956962822954,3.454982980369474,1.6103173737322831,-0.17608918219257264
188.0,-14.635085139245438,-15.62486591029817,-0.98978077105247,15.158705349933742,-6.773580519231087,-8.25713566249911,10.651220104597025,3.082740487484874,3.1959381381732825,4.840376470643669,8.028722986600986,5.828462822754677
189.0,3.758409939410261,0.29994535591101545,-3.4584645834990564,-2.086878842007856,3.5923658198479593,-1.5275867197697544,1.6004165636754877,0.5202928328107754,1.5371484388929197,2.7433220238478397,7.137124667932174,4.601213304629612
190.0,3.6536468553746326,6.850460350003221,3.196813494628613,-5.238857243281874,0.22376859636050095,4.99888814438249,-0.4853047151318126,3.1232939672770943,-1.5582901479289057,-4.961592532563264,-7.7648183823129076,-2.09300245926718
191.0,5.004835400122786,9.638351345659682,4.633515945536779,-7.3136581237182074,0.18770132797501465,7.11361167357324,-3.6479983649504906,-2.99099867759465,-5.75707327442807,-7.888196123243054,-9.18170118002151,-5.631289171370466
192.0,-10.248499633603187,-2.386875657662884,7.861623975940095,6.3250460156799235,-9.052881268198206,2.7166883660398238,-3.1562396106590254,-9.05059659242624,-0.2572561146191321,-1.223540420972991,-1.7259315480903767,-4.906060284632859
193.0,4.547235472165572,2.217615066022584,-2.3296204061431234,-3.370240349498964,3.4337733248808684,-0.07618030384152563,-3.0483009895646145,-1.7666843231547391,0.5513304834811834,1.4541604813396474,2.717499264388868,2.5879290487208
194.0,-2.82430960871124,-8.194020737921365,-5.36971112921013,5.530623141422388,1.2555416353132114,-6.80225142363971,2.9021503247428226,5.532836717986431,1.0692307507394236,5.029107641651518,5.7769975444397454,0.6014130419745718
195.0,6.3947219353451175,2.0913607907795035,-4.303361144565472,-4.288975107536761,5.316570454790491,-1.0478675044691523,3.373778120640692,4.824097049199512,7.033402088939912,10.300666949504542,6.294948746845309,6.6622946480215575
196.0,0.38610408061342283,-2.2917778928632355,-2.6778819734764903,0.9961195021248654,1.563829936127521,-2.426776033923021,1.198876498747618,3.995232575554568,2.926835272369183,-1.2253027064141717,-1.9354655576988065,1.7370454560056756
197.0,-7.451114855531362,-7.288316817467246,0.16279803806423843,7.341257431607503,-3.7853539777038363,-3.584198656465432,4.011216187899418,-5.828442045660925,-4.974363786652971,-7.09045790400956,-7.155209679337735,-3.8256886937163403
198.0,-4.805200356892205,1.077945563127621,5.883145920019895,1.83745082976997,-5.326747325604851,3.4561969471642873,1.457237078535804,-4.14249073228098,-3.400117608228236,-4.295682657756585,-3.8191101288248728,-5.562498813237209
199.0,5.4692568903149725,5.89914579201686,0.42988890170188165,-5.712413996749147,2.538734325926534,3.133908214576905,-9.607994529680603,-2.4581002659203506,-4.32662059849916,-3.0599544228880977,-2.469931071010846,-2.81530606989708
