Time(ms),I,II,III,aVR,aVL,aVF,V1,V2,V3,V4,V5,V6
-200.0,2.1445485175990333,2.4011517781767986,0.2566032605777133,-2.311061348773791,0.8892061207228208,1.3384557823879075,0.8257421787002848,4.808350691628129,0.18565701024849246,-2.874963172267541,-1.2812237393131893,1.427328562713398
-199.0,8.13049797295071,10.655887727077696,2.5253897541269206,-9.34748015413677,2.825682267124513,6.607040169295008,0.5816102185766592,-2.827035781446069,0.9205692114813397,2.2149360947724777,3.0792024777749267,6.503553245073161
-198.0,6.795996755157665,1.5140771321517739,-5.281919623005947,-4.105796192948898,6.061061215794227,-1.8593734577808936,1.4164026221591304,0.9163802566064656,4.511153162902392,6.28368042194269,3.0733176682181527,3.438312875430501
-197.0,-4.221303843793438,-10.577705508129547,-6.35640166433615,7.370689903824089,1.0897837312758,-8.51448190285932,-8.582492264511691,-8.798037603660843,-5.006805683786323,-3.9233830992417738,-4.182521630868963,-7.571874529745181
-196.0,-1.6864814070476273,-5.069154939465638,-3.382673532418029,3.346252815593611,0.8725154273796112,-4.2700616603509225,-2.283877827415318,-3.5406043233727766,-5.13189457152816,-6.5700264544311775,-5.511449949020709,-4.620396259039876
-195.0,-1.091195036773222,2.0736562909443705,3.164851327717593,-0.5286524018748433,-2.1782243466393902,2.6529700490559143,-1.0862984824609485,1.5495334488730845,2.7436914608008043,-1.95214420523739,-5.017663655294825,-3.9558276782028887
-194.0,-0.46151612162151756,2.426706355146407,2.888222476767946,-0.9488490853984433,-1.6413372525662335,2.6871494272363172,-2.0146983405535885,6.213773866380865,-1.068265547668102,2.502582020762161,2.613910620031925,0.992880049651854
-193.0,-7.387318256786245,0.9032057401780225,8.290523996964302,3.2685035437553003,-7.879886744767627,4.542894087738405,8.718008184610342,7.9875008118177195,5.628247266455049,7.178918360535593,7.509025031560167,6.729845641053059
-192.0,0.13276006421118547,-3.135616252265276,-3.2683763164764135,1.5227446543441765,1.7404404726347766,-3.1803802250185136,4.291976406084224,-2.096928963645036,-0.18336960210271824,3.890755030110104,5.474374858094707,4.676423780696826
-191.0,-0.9961959927559363,-0.9533608657027488,0.04283512705321835,0.9154558568354491,-0.5592293785201228,-0.4331012597811357,2.9593699826538424,-4.616823966159754,0.41911065442224427,-0.23014445236152725,0.055330600927127715,-0.4280777048259594
-190.0,13.078701492183036,6.802968307064258,-6.275733185118769,-9.920104233977003,9.712662363850356,0.29058909692365076,-2.192885351865568,-1.4594632570992543,0.24784585869972608,-5.620947285833673,-3.418537507912603,-0.036397582328574624
-189.0,8.709858702675449,5.596161100079626,-3.113697602595843,-7.128850966913401,5.863165763865773,1.197434269313431,-8.41722232117677,-3.8684957298573646,-4.303145795862792,-3.9914473640781862,-4.716640753154245,-4.5478838251310645
-188.0,1.237862132949202,-5.56953463425584,-6.807396767205084,2.1938935454857953,4.047302158637786,-6.144692950354035,-4.155793120025933,1.2269808538535756,-2.099245819035773,-3.112708509644687,-4.167307928773089,-6.444470249885411
-187.0,-17.347427937268687,-3.750575527717559,13.596852409551097,10.501097185203504,-15.451551455576144,4.895173885333512,3.5980004456560772,4.336509413538114,5.942167753997674,6.121828651634021,4.84454471463113,3.6468920267564395
-186.0,-6.7970417477790965,0.3788971925028566,7.175938940281924,3.1620554745673557,-6.967621249465984,3.7527667961188347,4.800856407960161,5.86237821447827,3.9805830732657146,4.876664722206389,7.055159415824952,8.06745162062286
-185.0,3.4825681141744362,2.4607096554760375,-1.0218584586984223,-2.9404865112781526,2.193098129824882,0.6940225486332672,-1.7375025788142127,-4.999794349404942,-4.4677727766230175,-2.294474786907834,-5.1727504021574875,-1.6222376777786511
-184.0,-0.6974087558105537,-3.257703178831019,-2.5602944230204976,2.0081588939749517,0.9536102149462062,-2.8591754490326347,-0.1472708045209672,-3.9264645312303403,-5.112674263595256,-4.506927939130934,-6.049613897264485,-2.124989610731698
-183.0,7.385998640407773,0.06247730577259464,-7.3235213346352,-3.771059197436877,7.379962374993909,-3.6633620676581224,-2.852950261417191,-2.939916354681851,-2.7904965382384397,-1.6243400276852529,1.477864466571673,-5.206296283053561
-182.0,0.3922430350814814,-0.2065555898620599,-0.5987986249435591,-0.05646764972404039,0.5229125533515768,-0.3586093479249446,5.996231998353809,2.8069030349932467,5.076183982452991,3.3455900265851968,1.903838439128251,-0.5827964920958957
-181.0,0.9856834392668712,-4.783847157157249,-5.769530596424106,1.94296853358175,3.326717446795186,-5.309608701104167,-1.075203053615529,0.12084037182942398,-0.692729472387299,-3.486753043759602,-4.1511495105996765,-2.0564254776057718
-180.0,-1.91502449421323,-2.306583567853465,-0.39155907364019527,2.0850172988574,-0.8137811511237978,-1.297876111787692,-6.094780564793211,0.6052253779899679,-0.02711224691183567,-2.5475558439823534,1.7711462213366624,0.6083221978643665
-179.0,-1.9409222319838704,10.647727749288222,12.58864998127213,-4.370949489524493,-7.239688469675152,11.598066231935737,4.731363450331282,7.588646346536445,4.565698486624299,9.522355002935328,7.324296988782132,11.822946225874226
-178.0,1.2321206480554463,9.130597115564974,7.898476467509531,-5.1938290544188055,-3.3083475926599215,8.501439410639199,2.9251049174214163,-0.01737701483341869,2.9703166475274,4.604549190342746,6.384770660989183,4.184947703830989
-177.0,3.3710848809688647,-1.2064551150145837,-4.577539995983451,-1.09416844246378,4.001648624194543,-2.9009420341509244,0.7909587717045409,-5.4732495187806025,-0.9676333639251848,0.1311211718958718,1.0281877033944056,-2.2619477871203024
-176.0,1.6645732194120129,-8.843254591521676,-10.507827810933708,3.5738466647936384,6.119058468628139,-9.684751093716269,-6.624549409359285,-5.281703780191576,-6.004839607891559,-7.029672351048286,-8.379004305179425,-5.91342914759604
-175.0,-1.435349690162298,-3.2810110571848137,-1.8456613670225206,2.4150505777553835,0.16664094296702237,-2.5773432899634745,-2.7088154512221636,-1.5002194150974217,-2.258388125554417,-2.9225645586203006,-6.000772663863575,-5.243058184637344
-174.0,-1.8954328636449997,0.8017747752570217,2.69720763890205,0.5179704035936092,-2.3276167783066866,1.8061819413071674,1.4612827060695723,3.680339550150987,1.9236935255886745,-2.476640083294366,-3.21688192418873,-2.9822582395579245
-173.0,-3.168477092870266,-0.2246650251680098,2.943812067702307,1.7409226369734467,-3.0823213159611087,1.328371423968302,4.428381383935838,6.824825072748131,3.7459738862013303,0.4868142325471114,2.930776455596894,0.8707695864928076
-172.0,-7.893220209621148,-2.1243514588834342,5.768868750737759,4.97167819638777,-6.776574133116876,1.7831446346077473,2.4869055569378453,2.436596344943613,0.5365879045774387,1.9639606526327031,-0.15985636918102752,4.4695069795433655
-171.0,-1.7415941548868836,-2.639501962619125,-0.8979078077322362,2.1541213912261896,-0.44752625255016465,-1.7340154585658438,0.6751115882023211,-2.5335928546649455,-2.033942860697536,3.108354370373279,2.3001751166052102,1.5483130943446386
-170.0,9.006704372413354,5.360206871902952,-3.646497500510451,-7.13733262093061,6.375736202119656,0.8901272792596597,-0.41865700299901015,-7.1855017367918395,-3.8230903136383683,2.1885077808551596,2.3918103495360037,-0.2951917318236381
-169.0,12.728981008066167,-3.4480174232240675,-16.176998431290304,-4.6672609854433125,14.418207144953056,-9.777924297850626,-9.279402187821777,-8.06329366609521,-3.659867682132542,-3.368196530936861,0.3409527260466283,-4.307678856503319
-168.0,4.341389805333818,11.942558166206208,7.601168360872341,-8.083902035418774,-1.66953684325928,9.72997246931656,1.85175790008832,7.490781854236289,4.630570329633394,0.23949345488373658,3.6497653190509283,5.439529672758036
-167.0,-10.161246502445255,7.201387918090427,17.362634420535667,1.463374741447903,-13.725852342927531,12.241574890509872,6.641164397582965,7.8690915277782425,8.12639799897431,3.911228542896529,2.4306922288101864,7.238688405020402
-166.0,-9.72695636736416,-9.485114035614673,0.24184233174949465,9.58957474238716,-4.948213494482393,-4.66225972941157,-0.8394488697150626,1.4878063518244256,0.1856029683775997,-7.5354527257370165,-8.0301262603445,-6.268279430659483
-165.0,-4.4199836277485245,-16.585430980228796,-12.16544735248027,10.481238562353827,3.834026778980819,-14.338593858640097,-1.5918681322929926,-2.837284428952952,-5.11310342589627,-4.691204626854373,-6.206279397674008,-6.705426487644451
-164.0,3.6795375541218007,-1.6665711347958325,-5.3461086889176475,-1.0375568914781113,4.481546152622638,-3.4703949886585566,-4.518072540448321,-5.17898375056613,-5.83096322562335,5.893781514147722,0.8123067239515249,-0.6574732280153919
-163.0,4.419113984844153,11.642536508338232,7.223422523494042,-7.995242343040914,-1.3447802755485796,9.469837401707572,1.6995514679752517,-1.034313228899078,4.168225211096067,8.718750799110088,7.916023241074209,6.250246422068462
-162.0,5.421933307584187,9.774374221333083,4.352440913748842,-7.574074565394551,0.5238423995622199,7.0248071071121565,2.517393014192798,1.9027671156218728,2.24952932350882,1.5060999420944041,5.815784260366566,4.112138861959687
-161.0,7.516474270958835,4.418944291965262,-3.097529978993633,-5.951493902656356,5.304720287847928,0.6272499658044612,4.373004072202735,3.459682250992149,2.4350654796331113,-2.3559823994210616,-1.4814999645287426,-3.857851100847044
-160.0,-8.39663474204522,-10.955095995859459,-2.5584612538142886,9.611202796283626,-2.91701450152018,-6.70574733768493,-1.4412959364102744,-1.321605118777141,-5.359918731902326,-7.0017691548367615,-7.479689642156449,-2.8426520883651096
-159.0,-6.787227594962689,-9.499249190650595,-2.7120215956879203,8.161496485270074,-2.0371505073239957,-6.12838551560694,-5.7014700811400125,-2.5465320548358923,-2.244529572793998,-5.022657801918379,-6.072267248595498,-5.448151115294141
-158.0,-5.280170620457584,0.30281861108408936,5.582989231541676,2.5162413578161944,-5.4390299946588225,2.9234294786229604,1.9493635805829972,0.8493700624433691,2.1282059502525383,1.5881281930888576,5.714726354170669,5.127078570165858
-157.0,2.238552072835083,4.252066327535401,2.013514254700333,-3.205995102587719,0.09235355614210894,3.1147077864062194,0.46566900147239343,0.7217505328130166,2.238985570880883,3.318267464703771,4.892893682106561,3.007380151888456
-156.0,10.883704730654456,5.9108693917018185,-4.972835338952615,-8.426114509092178,7.89365384176603,0.5296914005555133,0.6043431064492124,-2.5557508591997897,-1.056572134496036,-0.4972133163744443,-1.1781582141708946,1.067988855977569
-155.0,0.5159994589356014,-3.4040403979292893,-3.9200398568648662,1.4212747480063181,2.249820055493977,-3.6806200079560805,-0.5728434220873044,2.5187554086068378,-1.4401254387133087,1.0612841722960178,-4.035151529735566,-3.393637863973524
-154.0,-0.7486446808653291,1.4651684654508408,2.2138131463161974,-0.3814539737967554,-1.4563273670795631,1.8207437405782545,-2.2131707295655616,1.049518773817592,0.9668170128948737,1.1255812516247532,-2.8687791953896085,-0.5618199361676676
-153.0,-3.4781040375011862,0.026688511668422524,3.5047925491696375,1.6956661752510542,-3.4665168259300487,1.7476717775068231,6.470079371840769,5.148903220464893,5.087287977427922,5.940180869256788,4.38520695645583,0.519636028269036
-152.0,2.4194748230964853,6.4935867983201305,4.074111975223668,-4.418952109314038,-0.7963844617740317,5.346056434044924,-2.6203658967290426,-3.7787963709798973,-0.6666517324779193,-0.3851633176551086,5.737594344429844,3.1500183862164644
-151.0,-0.9493599935932902,-2.505552333888428,-1.5561923402951248,1.7527843484863204,0.26459270681071634,-2.045547407406124,-1.9491443394924792,-2.752333436474056,-2.6618807260185324,-3.3874185502678995,1.9587263360487897,2.0919958307580835
-150.0,-8.9117234165585,-5.147504267925925,3.7642191486325727,7.044476983282442,-6.3684924307701465,-0.7049102478401363,-0.7848014696583646,-2.8048145475280313,-0.27478273508670115,0.3259696270012613,-0.6866121343638005,-1.0308501471112972
-149.0,-1.7317299595288738,-6.919919670386955,-5.188189710858101,4.3337093254778125,1.7025263524059098,-6.0670811692993345,-2.3682349586708833,0.42884992014692136,-0.4855072135305224,-4.781573029399942,-10.065361249718144,-5.924872966412997
-148.0,8.23423044060685,3.65306062977154,-4.581169810835325,-5.938954350550615,6.382448778826165,-0.47824030913801074,0.9177233228676989,0.5831376479026138,-1.8182333293792219,-0.6505184094904564,-2.7584824663130285,-1.0369792298437606
-147.0,8.681275785115854,4.320830468608375,-4.360445316507472,-6.575123757626249,6.57147559510152,-0.03623190486217148,2.418280182520761,0.7973346444486078,-1.8548005605719733,-2.0393618197048142,2.4864105187737486,2.661139299094793
-146.0,1.2412294787173535,2.3029706964164975,1.0617412176991785,-1.7650233520169265,0.13617671976910906,1.7419316348049856,3.80565129958652,4.130885796201167,0.1655054756672178,-1.0951270817907455,3.735446881423603,-0.7883984623157718
-145.0,-9.422570788062888,-5.757757246414782,3.664813541648149,7.601536978757888,-6.579622314445646,-1.068594742755129,1.6748184706822473,0.5243490925519749,1.89384658002965,1.575976939276833,-1.3859757779211725,1.7324488943391703
-144.0,-6.265137682510025,-2.3524563201418713,3.912681362368167,4.326005310668859,-5.048197130860499,0.8333340375919371,-1.0292461888614997,-2.5535856120351808,-0.022939994872126945,2.431304836227311,0.36434763537908843,0.9976948549774041
-143.0,-3.4206407589111953,3.7678296370437314,7.188470395954885,-0.14965529565369806,-5.34323645601663,5.448104595104193,-2.232362334101444,-0.2623952048602467,1.1455878793520866,3.9996959091320896,-0.4165923149976236,-2.26357126133333
-142.0,6.542505896731404,4.541669025824275,-2.0008368709072255,-5.511726961165078,4.23329376476769,1.2343192533417935,-2.883054345668964,-1.3691298162191274,6.605225872333958,3.2507210127981736,3.3855941128179445,1.5865866033443163
-141.0,6.992184515283736,2.944213696392661,-4.047970818891182,-5.012007121823412,5.561298224788374,-0.5950836738750371,-4.76290548444716,0.302579608562063,-1.86314989920389,3.2092009635357175,3.203203396762893,2.705952187341052
-140.0,3.7358401579954084,-1.09866878020622,-4.834508938201699,-1.36080612268191,4.249039912917965,-2.9376535286220893,-4.512767307871426,-4.202447194591387,-5.254140481699817,-4.1290538148594536,-0.540043921527507,-3.6295605590802866
-139.0,2.4960044188302493,-1.344132597994207,-3.8401370168244893,-0.5408565468806062,3.2128962663143126,-2.567245551994433,5.229883804768178,3.203039203475937,-0.19747570497413536,-1.734624195799709,1.3726997193646167,1.4923503652055419
-138.0,-7.302695589768346,-6.813055717569689,0.48963987219866034,7.011035118671018,-3.9269196008394953,-3.1367721658112053,7.164436767721491,4.434410121793486,0.038629207261419385,-2.5737236420978298,-3.9966954257240657,2.0102256975430413
-137.0,-8.471696531085477,-1.8172354424398205,6.654461088645675,5.173704425991344,-7.511263856838172,2.447795698482718,7.686156683709777,3.3213825163125503,4.3610131565742645,-2.6324416983901884,-2.026682327001601,0.43951132152401884
-136.0,-4.008732271987569,0.6394908450455797,4.648223117033163,1.7138264383162745,-4.351794522963152,2.6012479969126625,-0.5937263528644463,-2.2298588756971522,-2.2956642247514187,-2.0122499869555397,-5.025562845808843,-4.504643258475828
-135.0,5.973372258626995,5.290300804924284,-0.6830714537027234,-5.598968482686639,3.3072408073990998,2.268213224347571,-4.588583057574866,-3.423811220860338,-0.6171353475467003,1.4297698874912226,0.6525004979995221,-0.8080093980743139
-134.0,3.1622917030259923,-2.596871876812145,-5.759163579838165,-0.32177679017151695,4.439950434530571,-4.129593616387805,-9.997834001133683,-5.787329171702417,-7.801849214554406,-3.407951985394252,-3.0050362478779955,-5.06596212034836
-133.0,3.5288555991984913,0.46887121282284516,-3.0599843863756746,-2.0298993769943863,3.3502520179445354,-1.3242986517254554,-1.9315354618841427,-1.0445105347587242,-0.04421567365310186,0.439959999580704,3.9178307251379145,1.9468574044088167
-132.0,-0.45280649783936644,0.6407871683917497,1.0935936662311025,-0.039595350689198394,-0.8000387971351386,0.8366575598295959,2.690062613681147,2.9318451531966128,7.685281515911866,5.96676435438757,5.7247040069537185,4.304340086772884
-131.0,-1.0985330610079835,1.3217289273650201,2.420261988373,-0.1328689538666049,-1.790735388458582,1.9154982484838299,4.300239948893502,5.76803252482995,3.234695990213284,4.044975195295766,4.21933134808204,5.453274519920515
-130.0,0.17309878546936264,2.7124497587165988,2.5393509732472372,-1.465699553463498,-1.1393024184430522,2.588154666850872,2.6129419595603727,6.233427534838814,2.5273771737102457,4.805293736595806,0.31070503784723225,3.4361802864256665
-129.0,-2.0589602299701992,-4.199352633842062,-2.1403924038718634,3.1002033698096354,0.004407486189073939,-3.130210447924398,1.8239079939391765,-6.682665218748051,-5.057254558535327,-6.254618815486149,-7.149336268860408,-6.63394802550658
-128.0,-0.0778414107959624,0.8732171960601383,0.9510586068560986,-0.356539869668151,-0.4705811955724384,0.9536015755712746,0.2774747897779162,-2.8938616087920375,-1.9940520505088895,-1.8094203152569577,-1.8532584900028954,-2.9959557454546393
-127.0,2.556102860758259,3.2679895697337193,0.7118867089754707,-2.8796328155058597,0.891044292580787,1.9573563313214926,-3.397519916198141,-3.274379627724104,0.8420373303856774,-0.7261001402820781,2.3375297727833146,-1.2730659628923457
-126.0,-0.49759419186316667,1.4763163191275974,1.973910510990779,-0.5420314670047451,-1.183279531127513,1.6989795196856354,-6.6200949268861535,2.1625790855442673,1.3862251712355464,5.106792348902967,6.2479131339029665,5.296779844217909
-125.0,0.5102279735318266,-3.6457286654468617,-4.155956638978688,1.5916196491679946,2.3106037848898606,-3.9202104169237306,-1.5723722293606133,1.6834433415433936,-1.305998979523203,-4.9212240033934656,-1.5980530669728072,-1.3693301905704447
-124.0,-5.0342632942387935,-8.522165835050084,-3.4879025408113087,6.804570759696987,-0.7946133074534292,-6.018462080379902,5.536398597046922,2.2822521757738903,0.017584669540456344,-5.070426121639459,-7.436971962209832,-2.042707767579414
-123.0,-4.3002093357556035,-3.1390495567485264,1.1611597790070605,3.673822644511998,-2.7545159771533037,-0.9192400555204481,5.854581290652365,-0.12534433178843818,-1.1460696465106732,-3.635130682433652,-6.947040806044885,-4.414049197831175
-122.0,5.69496450410295,9.220068900945172,3.5251043968422096,-7.415375253130261,1.0559011628490236,6.365850263872078,3.6927057595067434,1.5022866230225924,1.2907401413851447,4.691751618058025,3.875335841894955,2.8561930351942064
-121.0,7.2473346607184235,9.920782181749821,2.6734475210313713,-8.610774990163069,2.3303724793857157,6.290135731293702,-6.166861175944245,-3.7592013930714163,-1.4114052861992261,4.242517059793075,5.397593668375045,4.523173135247822
-120.0,-3.2063235310960794,-3.701456738460603,-0.4951332073645536,3.4358954071020027,-1.3176799327333,-2.108383564099206,-2.452796212865959,-1.5735216325574062,-0.12176775277078211,3.908767212273134,5.284344792640539,0.06564154718807602
-119.0,-0.5210348346974418,-1.7394344237354233,-1.2183995890380013,1.1183172303226754,0.383002270902003,-1.4947723921724339,-1.0215482948443282,1.407969680759702,1.5082739158778729,2.102721123410419,3.47191861904217,3.2946275137444623
-118.0,0.017783006837034265,-3.7556857724292745,-3.7734687792663215,1.938250756328313,1.8495776880228774,-3.787834990484783,-0.6913907324713202,-0.07969078263958268,0.7951522650774709,-4.028158007154255,-2.7087110726681107,-4.899800740876591
-117.0,-2.9125451190338834,-9.900810254092807,-6.988265135058948,6.395625259638381,1.9915331163557164,-8.396326275445427,-2.09344224029149,-2.399901659596495,-2.8154157097518064,-6.55054573472788,-11.355308019652872,-2.93964348460737
-116.0,-4.974635216145576,1.4406104725875757,6.415245688733096,1.7504109536151216,-5.662039514809982,3.892229661060282,2.981797820254073,4.072446200165231,1.950753093924162,3.0339635724721212,-1.00873224224547,-1.5764799684822774
-115.0,-0.7555477965764366,8.801334128624013,9.556881925200376,-4.048094603785884,-5.200829902756996,9.220659046145176,4.687899651023633,2.4301735703308593,2.4253837968264906,4.522077816579163,11.556249192364401,3.3719124516575034
-114.0,7.170024916845716,8.888002394517295,1.7179774776715209,-8.06409523100416,2.7626812130584835,5.2684228975679925,0.36074642631137044,-2.293912565183112,1.2533927086483327,1.1313147014790759,5.451240887318734,2.6174918952588984
-113.0,5.9321982036208105,4.201620085018707,-1.7305781186021267,-5.032059829567428,3.8723861397856028,1.2856250170134205,-1.4435789208136125,0.6706062252218616,1.9972889335022022,-1.6674126805461287,-6.017632097638627,0.5537293976784885
-112.0,2.5767452958788857,-6.64571131173996,-9.222456607618827,2.0637209204245273,5.867908301643024,-7.95547018653138,-1.71377334792259,-2.496911842796657,-8.218815515378042,-11.243057363156915,-22.14946533231609,-6.102913063722925
-111.0,-5.903842043227046,-15.299094991600349,-9.39525294837327,10.62937035139478,1.7207420569016598,-12.36240604967344,-3.1874711315119453,0.2750769850453809,-3.6401233002402273,-0.47921189265000264,5.8256165174151775,-1.2955253326442628
-110.0,1.5362648326521158,-0.5570240335854475,-2.093288866237562,-0.538030323364568,1.874112016660403,-1.3374850696616232,1.6966159486010357,-0.7137140626781304,-0.6724967051307049,3.799813469057063,14.307579461939078,7.4884944184012445
-109.0,-9.2700401331274,6.076763797297309,15.346803930424683,1.6313315038042302,-12.325570139565697,10.697916065335328,1.0669953026393597,-0.22828409727238722,3.73169914616464,5.538429453098943,7.6303013588668,5.433300627094945
-108.0,-10.36892447107917,2.986152464067704,13.355076935146858,3.651192288723138,-11.881739282473188,8.229548724948076,0.7753235224688073,0.9135914793197111,6.495392416886194,6.190948981033843,-1.277201268261254,-2.9312026275637217
-107.0,4.925932337267262,-2.6045520864238796,-7.53048442369113,-1.1206744168589917,6.200730967900374,-5.096568613843755,-1.320234646818837,0.651191960168961,1.6687479695433263,-2.086860788903202,-8.738649270498346,-9.352253211364882
-106.0,11.971230542075885,2.8810043562121663,-9.09022618586368,-7.466370466049329,10.570536872127896,-3.1443752805072176,2.866185293770659,1.431835823403059,-0.13631069523979933,1.8904640536940192,0.823359648881496,-1.7034848890367704
-105.0,9.36604811849879,9.897592413523393,0.5315442950246592,-9.6754783830495,4.366099152423811,5.243317846544448,-3.1987885401558387,0.23459611403922365,-1.7543969325075226,1.234948300775565,5.170720814544542,3.3480422471685904
-104.0,-1.6619425984907474,-1.1439443797877873,0.5179982187030308,1.4351303946217602,-1.071593963957719,-0.2924385880498463,-1.9503379233196885,-2.469949585321015,-4.135011759072043,-7.206003167804768,-4.955899707217663,3.0090948487486813
-103.0,-5.49620137621903,-6.128076441419913,-0.6318750652008165,5.844601700885693,-2.416736849239871,-3.3649486941919515,2.0202850498543325,-0.9743808289625924,-3.880602044780304,-4.978066721724616,-4.422828578010879,0.8565071507174356
-102.0,-9.110710975349495,-9.20628113586741,-0.09557016051787554,9.196169784654753,-4.487228027032597,-4.638964018169818,2.890723506536058,1.9888834790063865,3.334410189572374,-1.7902659196325645,-3.485329376585969,1.8385153514547599
-101.0,1.7013666498089188,3.0294694649338156,1.3281028151249052,-2.396367653939061,0.21892139696546353,2.110506516901739,0.535287511417588,-0.3177373148737938,2.8544397286760668,-2.707977979364422,0.1939586374825123,-1.8107183766751471
-100.0,1.6272488473978273,3.4394425573872347,1.8121937099894034,-2.551119458743063,-0.12311369870830902,2.6354950660794847,-0.2225426643968589,0.2866778013017328,-1.4868801735358035,0.2676983898989691,5.3899056623863935,-2.3794279914907
-99.0,2.4920885278642944,-1.3523466127156825,-3.8444351405799893,-0.5744902844179092,3.152820105726796,-2.5892444602743145,-2.1230011563672604,1.419470378055819,-0.5225593560934272,11.37578919889395,6.330565257520638,1.3155903435239713
-98.0,-5.04009024411031,-3.9125354980451736,1.1275547460651119,4.48152014684775,-3.0890087747477484,-1.3835587979258814,-1.3436858999722794,0.7367212743538396,0.4472537700011695,6.517673607683457,1.3451189489681492,-1.5333016213420607
-97.0,4.340975882660517,4.029679320227313,-0.3112965624332428,-4.176261849141036,2.323525365124619,1.868471372416523,-2.0607816176783027,-4.319771615189328,0.748183550399122,-2.505408792920873,-4.49249402727491,-1.723462954126911
-96.0,2.1106341323463624,1.515128708256967,-0.5955054240894408,-1.807247999897012,1.3450413928134717,0.4701054573247996,3.5802717457729583,1.8026089713878763,-2.4065345931904414,-5.090780131624346,-2.843331862296445,4.287592635130229
-95.0,2.523060703681013,3.009777038855808,0.48671633517477286,-2.771139639854263,0.9988533044403195,1.760051039337376,-1.7465088061557899,-3.122598870862592,-1.7482462411823894,-3.8074445804409045,0.5341621229680911,1.4594479716568038
-94.0,-4.353404187287492,1.1335390687501943,5.486943256037712,1.5900650890841195,-4.87412221042454,3.2450023493822657,1.1040869879109725,3.875232162509721,4.986392843695315,1.4847299175536421,0.6111837200301795,-1.1397455960980754
-93.0,-4.561890424726406,1.8622183919984943,6.42410881672496,1.3135787937466623,-5.536999661154127,4.158373635169952,2.4439407580463866,-0.2986153848223525,2.242555181362828,1.6498303052856822,2.2488916459157453,-1.0035187323977048
-92.0,4.8466619149415,-0.8988236848887257,-5.745485599830145,-1.9449316414302014,5.3247656252476006,-3.305288955444099,-0.8899516216067787,-0.1584823649033077,1.2384577546410436,0.8770414874330397,0.04717363627386861,-1.3334988922050361
-91.0,4.535469479069738,-5.127665175606719,-9.663134654676382,0.31793188192910615,7.128300837497363,-7.376948097512267,-2.2708165412180037,-2.04197696659363,-4.182372208381869,-3.0142794086264892,-2.451180932445805,0.8310472900417759
-90.0,-3.138773004338031,-5.245047024389509,-2.1062740200514334,4.214524643141393,-0.4818144353047451,-3.655927523241707,-0.09728927736249027,3.0047361380736177,-1.4625070970768155,-0.8714513241431258,2.78750020506054,-3.7984061494406873
-89.0,-7.979509779562874,-3.586191808716499,4.393317970846365,5.813233128317014,-6.223146900600317,0.34505290937214017,-1.4088199057543858,0.4606281083360287,-0.5662831794164078,0.04608851763704147,-8.352852364059004,1.6276978407219178
-88.0,-5.06228459293423,1.3784606747358537,6.440745267670017,1.8051459678772621,-5.78189217206573,3.9291109878052057,5.690848867526053,-0.24571146288162263,-1.7220168751115381,-3.569376831156033,-1.7646765124320403,4.250187729694416
-87.0,13.354237531808417,8.506677791747173,-4.847559740061332,-10.955940700140077,9.073411091249046,1.8469887951161161,-0.22921423897980464,-1.434640973537379,1.9307593977532405,10.80362618204359,15.845134190714576,1.2399578500986386
-86.0,7.292869241794248,6.405914037102398,-0.8869552046919136,-6.867521944118762,4.0616573160058165,2.7739995965341784,-2.998010270028665,-1.6631955547802102,0.8106406520914571,0.7686493784398571,-3.867958862780311,-3.9116982307614734
-85.0,-5.506297603389069,-3.5396927222908943,1.966604881098146,4.50638489759598,-3.688685387605658,-0.8533063441508979,-0.7368573304469839,3.5647070293590817,2.006716076323946,-8.518469594357397,-13.591435580004891,-3.014071233838366
-84.0,-1.8455325845999695,-2.5705578116358967,-0.7250252270359188,2.2660207808588106,-0.5147138322800477,-1.6362532891295198,1.4682077046160553,-1.2973177790505754,-0.3048011989507957,-1.9251673077286138,5.359628901335841,2.004804088627699
-83.0,-4.585969266435484,-3.176908028673921,1.409061237761589,3.8525548580510662,-3.0306266701030844,-0.8690652987498038,-3.9737784089067967,-2.513862299818397,-5.123488792340625,-1.008283152625179,5.103103335168725,3.9848230287876327
-82.0,-1.5233069630902643,1.917173067525935,3.4404800306162286,-0.1566641531573425,-2.433597146289933,2.701687802228163,2.131615420207535,2.7629329039157122,2.074706089637226,8.241014072971362,4.502859612662007,2.0565676911526483
-81.0,-1.8352972555181486,-1.3509535835255557,0.48434367199260997,1.545896633986409,-1.1864515974913536,-0.39826246181576874,0.8173663074576429,-3.786760718757551,5.200314276126144,4.040670511372968,-0.5974836841928888,-3.0183978374165124
-80.0,4.528705769584609,0.5680730414496836,-3.9606327281349256,-2.5230974813506135,4.220788712254452,-1.7256785078692243,1.6498027384823943,1.5890693068351787,0.5550639338025909,1.0264712889584287,-0.6840825831878699,-2.9118707253799876
-79.0,1.6885858725583476,-0.6963872420687274,-2.3849731146270896,-0.4737406116851104,2.0126574570964793,-1.5566690600614106,1.0693541290475133,1.461449178475743,-2.1572405052708246,-5.944028533923025,-3.1677853468704207,-0.9828400993033177
-78.0,5.670417113010046,5.5646700415254,-0.1057470714846589,-5.673649899393123,2.9388434321601986,2.723015804909238,-3.7953748336562456,0.612136017567507,-3.8083158928846323,-5.619594307796629,-4.350663996884995,-0.07013884985767127
-77.0,0.41221144607500104,0.35324254555687684,-0.058968900518122036,-0.35731479657811427,0.2011489212896742,0.1444802673926926,0.9311531671641171,3.162939767775371,0.19701308830589692,-3.0466414913212327,-1.787571273328952,2.244178195382668
-76.0,-5.319102282806103,-4.837067234507948,0.48203504829816646,5.107625761896903,-2.9416524199629075,-2.1823661938348344,0.5322975898897415,0.17332318844866013,1.1165548459072787,0.9868204710120929,-0.5084195268471635,2.2483521918139613
-75.0,-2.367552604816603,-2.5076457435980113,-0.14009313878140794,2.39264668112206,-1.0800452561843983,-1.3354987442376234,1.3444352504545902,-1.8987679727677045,-0.4267294256843537,3.8634126234520028,3.2589803228478034,0.11365349132331426
-74.0,-8.013749694028125,-7.023820114869442,0.9899295791586695,7.555903748786758,-4.467372376460363,-2.9587108781003573,-0.23225266681286,-5.625509737062092,1.4112852299849765,5.158450329519502,4.060925280449026,-0.7894781120019426
-73.0,0.9522499682783185,1.1086366442969766,0.15638667601863698,-1.0703228588681575,0.4382773505625266,0.6037775775456682,-2.098658348885612,-2.5015591994653095,-1.771777665948989,3.4044041217129486,1.4481458558743765,-3.059905323769725
-72.0,4.91355752533036,8.96478215610348,4.051224630773101,-6.900151340945882,0.40197546275623114,6.474047202162015,0.11830711004632366,3.5980377861842805,0.8106565008303265,-3.1145605759864536,0.7273208623001519,-3.0151062889825537
-71.0,11.276227161475141,9.823557122387726,-1.452670039087418,-10.590494810622415,6.3445883606931375,4.2293523293611734,1.2774428479403188,2.4625645152378732,0.5992532777296644,-4.88534747530409,-3.1833305329687756,2.789484593126958
-70.0,1.68128841137362,0.5246900495805318,-1.1565983617930646,-1.065690080789584,1.40517383555789,-0.3472982406331018,0.8965731580834907,1.9591521819942905,1.8984303465833932,-3.147422772861051,-3.8418533600843476,4.238928741018775
-69.0,-3.7420410746068415,-5.162176180573846,-1.420135105966962,4.411022365622946,-1.1740199051795097,-3.2371649573516503,-3.176359407060162,2.5398431791827374,-2.8854384948038465,0.8951833639379809,-2.750010567539087,-1.9531570006921126
-68.0,-7.766110854741692,-6.550129763180852,1.215981091560869,7.198304640426506,-4.50897650134408,-2.684487999095363,-0.7990032707990277,-4.071473843255009,0.6369140006478353,1.2249752793628021,2.8275519931853497,0.639952299551786
-67.0,-4.109452062850572,0.04805598571363756,4.157508048564212,1.9971306363348358,-4.081400250261736,2.090808617120783,0.7817504643425022,-0.5037007171463974,3.075287489524919,8.429515964833096,10.608175015210168,3.64786886867154
-66.0,1.8711486605117114,-0.16202218412559533,-2.0331708446373327,-0.8024272448741021,1.9156176192223686,-1.1081236757176507,1.8909176884733532,-1.914947729317287,0.19618851112501656,1.3708305253021553,0.2831327826756578,0.5193636102370339
-65.0,3.5261574468815424,-4.199910321381877,-7.726067768263467,0.3178601697543589,5.660012324201555,-5.976786421190518,2.6493305525105555,0.8133900371058742,-1.2640765841912844,-4.045783017197338,-3.343424115628998,-3.654637580553645
-64.0,1.8406710716492864,-2.1096222571033474,-3.9502933287526716,0.12197797685836775,2.924370280552704,-3.050809334366154,2.8204075888465163,4.615830954708925,-0.7794953184832941,-2.582264796380553,-6.068337958804742,-4.218246469561925
-63.0,-2.114192022615613,-0.6147497437544902,1.4994422788611006,1.3558531713537394,-1.8580349718406963,0.491610610866565,0.1684516613691887,-1.1436238048221612,-3.619075512323232,-6.594635097820625,-6.005133223493768,-3.1376655350537552
-62.0,1.3151008466811274,4.403710898026121,3.0886100513450065,-2.8676579593605114,-0.8577783566216328,3.709018150031075,-11.430901979828151,-7.090599381037668,-6.826884085712685,-6.459014017046851,-8.062082254825787,-5.907029179017583
-61.0,2.03366587687851,9.415784312058856,7.382118435180388,-5.736098693695548,-2.7212843551458468,8.435726862745728,1.1658208406314126,2.75861823690626,5.849646844949788,5.027026631106342,7.502216355918426,7.035878886238091
-60.0,-3.1230716380240553,1.4369770233043906,4.5600486613284925,0.9045961535264861,-3.8074518191061455,3.033670422207857,2.248346290818926,0.3815759101143822,4.352014196789109,7.77130781773649,11.303217062701918,8.776328738730715
-59.0,-2.890109789044209,2.5032172884512462,5.3933270774954725,0.1688843345043508,-4.1066046680086234,3.9051187366513234,2.664443112716722,1.850721584097685,3.7279759855220673,11.078432683159715,11.873980436745997,7.684379444743728
-58.0,-1.2217027645263363,-2.8544007125901536,-1.6326979480638395,2.0058195518799082,0.16111467983320982,-2.207526378855404,0.31849392204191584,2.9673557041584213,3.5018720657082354,2.453627202364185,1.497399987809107,-0.08390753441372656
-57.0,5.998565226193974,-5.841139437276446,-11.839704663470474,-0.03909957462259106,8.872785041588822,-8.884623565866278,0.18816646065399012,-2.8497845216533877,-2.690358989058261,-9.769656156411628,-12.262614162640908,-8.357520426089192
-56.0,6.411228931256432,-4.621026543525139,-11.032255474781637,-0.9395552597705179,8.75216411962891,-7.874894496972433,0.2047294615373524,0.7951966034604452,-4.380754244342941,-8.065158973700196,-13.362891483496929,-9.085363065107655
-55.0,1.532489874336223,2.158414950406576,0.6259250760702981,-1.8144180555840381,0.48305348359521405,1.4170004762798225,1.4552773188400265,1.9972939603195643,-4.233708422094234,-3.1193775272843878,-1.3861271200712038,-2.356094992825719
-54.0,-2.6348789617406236,-3.449824873313614,-0.8149459115730093,3.072211804062754,-0.8787561604144914,-2.112663555060471,-2.501892779745917,-3.595502587664699,-3.80573474321434,-1.764672299671798,1.1443200490481904,2.695629407391676
-53.0,-13.131453835102858,-4.105512884561623,9.025940950541246,8.570119013401069,-11.122967147983399,2.477685365331971,-1.7942832526608057,-3.86806742866435,2.665991252998693,3.096993846588676,5.702340581513702,2.0030025101389217
-52.0,-11.429085116419275,1.4462259684256202,12.875311084844952,5.023413738725038,-12.11377434339439,7.180144364727299,0.6905415712047918,0.8300911969326898,3.115437500340991,8.480402448547796,8.45662026088893,4.808100526345655
-51.0,5.735927337135653,6.205715448056225,0.469788110920657,-6.01552297903181,2.5959486263391005,3.3629085528728746,3.3632135689797145,4.126958726098571,5.232663997481671,3.512762852800506,1.393071050119154,0.09861068132207906
-50.0,15.832240279817945,7.92927579783488,-7.902964481982978,-11.844587384182429,11.832071098244159,-0.03237433285326663,-2.0891895971148484,4.277803661232684,0.812545665736423,-0.11703174191836929,-0.5348290597903476,3.7553881319555567
-49.0,10.440882087012184,4.340789970228484,-6.100092116783637,-7.431466850385575,8.313834587360148,-0.9168779094337225,-2.366345729722358,-3.2963129274101197,-2.7072377698195402,-7.646062219277294,-4.825229303735511,-2.1916760949516436
-48.0,-3.7911928386212344,-3.1851904799386612,0.6060023586826109,3.527834837299115,-2.2342047194234382,-1.3198711984547957,0.40159759635436876,-3.5075141272421213,-2.8747804261744796,-3.883438658027761,-5.108123490736583,-3.042337302595635
-47.0,-9.757022318491037,-9.110824236476473,0.6461980820145923,9.47420529022925,-5.157483061640956,-4.179005838741741,1.679887340361343,0.6114577720067071,0.7019610692914655,3.091477135066364,1.1981068666556909,0.3912241219597483
-46.0,-4.7142476723777715,-5.714365363293715,-1.0001176909159228,5.1749508433962985,-1.888402380169282,-3.3013844931593357,-0.32490210931775887,-0.5820330571890691,-0.6191411046088828,3.2673564145813048,-0.25406650189247826,-0.7638754789122264
-45.0,-1.067900469461259,3.768063086267542,4.835963555728806,-1.392348957274054,-2.8988827011570963,4.27934599348316,3.9657650121653805,2.6342198484394697,0.1407910298236036,3.4957227431358886,1.1565142694139012,-1.530587316162992
-44.0,5.6972639762101664,10.167246850461636,4.46998287425145,-7.9006213674196255,0.5947090549970606,7.293763264062121,-0.3927870628934236,-0.5360722102722759,1.0509274115505578,-0.48112992280178135,3.484804006733707,1.5887362586507117
-43.0,0.7402259657494221,-1.2945140044133616,-2.0347399701628217,0.30292072657163915,1.3743062021207877,-1.6939451049719012,-3.6581347347479665,-0.1774612505847986,0.4058249743933799,-4.8724533025292995,5.101535762659872,1.6621493444363202
-42.0,-1.1774705085040253,-6.051383734343691,-4.873913225839704,3.556238481936209,1.837460084415894,-5.419221590052587,0.3535532015836418,2.354356610804463,-0.7788206901885948,-3.863547898734045,-2.506756169729822,-2.6463151954668875
-41.0,-3.9849984287263824,-7.787408366404565,-3.802409937678201,5.904113337447448,-0.10463561714666891,-5.836267688373168,-0.4436783827276445,-0.662634216521621,-3.8435558166362087,-1.1891952796233827,-4.2017548251872165,-3.2269295243549614
-40.0,-0.03525175584022722,-5.197586191791677,-5.162334435951437,2.635790026415225,2.621014819319442,-5.1466463271436895,-2.189097213188518,-3.5835827621317997,2.59060889490281,5.306005981885032,-3.688660910673151,1.7655763617842006
-39.0,7.237042035737193,9.756063427447394,2.5190213917102335,-8.471065618384088,2.3256337792024846,6.091820962144894,-3.2254496863244477,-0.580895719804362,3.364916448601037,5.654890443135166,-1.3116559795140612,5.9006543813043875
-38.0,4.783693565978333,14.275098450269224,9.491404884290912,-9.57271875503456,-2.4009039732963373,11.92070360833286,8.870069286648507,1.461207301822121,4.810321847556468,1.4938488576235054,7.104641437514129,6.832665279114218
-37.0,-8.201922826147552,-2.6243076411248074,5.577615185022743,5.460202649221712,-6.869875170819826,1.5226396859450357,-0.48590791680056666,-0.21568200114734482,-5.21000241825834,-4.1692269502486115,1.38001174606172,-7.399890665077493
-36.0,-6.380379380749343,-2.9227234348593405,3.457655945889968,4.630469477137059,-4.9057575666691555,0.24511886038118513,1.6860848718856245,5.172109313794102,-2.228606242962585,-5.9414081993119625,-4.08238251356323,-7.729771823154044
-35.0,4.653835161435601,-6.103480776282705,-10.757315937718335,0.7106090353397274,7.719383527190983,-8.443744030659083,-2.9968261539111567,-3.1149825839113987,-2.8636003105118077,-0.8617156354494333,-4.548574265045357,-0.653130352178724
-34.0,10.672048158667371,0.9258137675386919,-9.746234391128697,-5.811619564703626,10.230450717844349,-4.419226759284041,-3.2624030267155106,2.213598602211062,0.2846278045748022,1.02403401471672,4.014644740479179,4.892344401481978
-33.0,-4.813408246446211,-1.5005087248435545,3.3128995216026604,3.1403161335602734,-4.0300385485201025,0.8948371281637999,0.32895239825176503,-4.4335958274256955,-0.31939843544524726,-0.0199342941441647,0.34926321660095505,1.722409035683791
-32.0,-7.090417148097584,-2.0655736943077057,5.024843453789892,4.631990953301249,-6.091423228232782,1.4593339148108893,1.4389474459351432,-0.6908565626140504,3.2596981340463342,3.3399430640357544,2.156792986645125,-1.54663783817628
-31.0,-4.547164872229216,4.819074700338545,9.366239572567775,-0.170714109670548,-6.982933787530892,7.137781156497251,1.2039295521966071,-3.029032836857645,2.2641347085386574,3.506930515401821,4.407236629621297,2.5241062159696117
-30.0,1.2260314204208225,1.4030510407067793,0.17701962028596885,-1.2799650636834061,0.49889117425671703,0.7424067335026474,-1.860045422975216,0.4118720516794716,0.536132191060017,-3.3388090489014046,-2.8719750284337335,1.3896369670089943
-29.0,11.056621809861362,-2.7355260619375583,-13.792147871798893,-4.211520773747119,12.392471679057266,-8.24336722720866,2.4486377865052074,5.110900367702044,-2.5617565704429026,-2.0248044434892796,-7.253167553842815,-2.96724877539026
-28.0,2.492671610921832,0.8681220579773522,-1.6245495529444165,-1.655707773241446,2.0948257719789387,-0.36198069811869726,-1.3278258788562969,4.8428709675057195,0.8066725278782243,5.631380171939824,1.8383672051123194,1.0147526617929152
-27.0,-6.556841820224704,-7.020271057894501,-0.4634292376696778,6.8138177635284,-3.0215218995934667,-3.7223391330149127,0.18862405409853106,0.4656189760164575,-1.5856929199839136,-0.21878839039421505,0.060638530793432954,-4.61330742631031
-26.0,-4.021763515501951,-3.2520282636800717,0.7697352518220434,3.6653001653246124,-2.3785021915925686,-1.212042724462927,0.24630019233233838,-0.5915429267932545,0.6802229301581073,-2.317256798595021,2.8058250368899635,-0.40215353124225195
-25.0,0.9251277312629012,10.425529054076032,9.500401322813294,-5.721601501572149,-4.273531850283513,9.926245383890976,1.1277743063092915,-4.074679082758844,3.8711395578331698,2.912584732862122,7.0872329338741515,4.61062029416607
-24.0,1.5563180305934199,13.373277839872594,11.816959809279249,-7.5075125597788555,-5.115099047900475,12.571099440933091,-3.779188895578397,-4.1865541469670005,4.345868809839563,4.047226764585065,7.190528881474993,9.85343374037835
-23.0,2.477723846434648,0.5622280992272497,-1.9154957472075296,-1.4814951777596392,2.1363064312536197,-0.6909595313427488,1.3747626831844588,-0.8320749503151488,-4.691859813300173,-7.035846731735536,-9.141029630108836,-0.7581262808630012
-22.0,8.064942525524586,-10.436369638291016,-18.501312163815893,1.1471818740812343,13.304412379627115,-14.477604998212717,-0.5460789073511947,-1.5936384896328337,-11.303003971100305,-12.14564990579401,-16.496973473329575,-14.108093709264464
-21.0,-2.7500230238663974,-10.119807441781447,-7.3697844179153265,6.477150964680621,2.2532741000509606,-8.751583285298477,3.627266069184837,4.290875614670478,-3.551651062372886,-4.996965064773946,-6.988465847468696,-8.893737093045498
-20.0,-12.189991576743914,-11.710391869655338,0.47959970708845034,11.995585724766128,-6.31385213755059,-5.543573190492805,0.7968151538168078,2.182270304383352,1.9184287691235031,2.518401924524614,0.6974859604591643,-2.008348619194713
-19.0,-6.4771077397251595,5.435280474298532,11.912388214023842,0.4920579728588077,-9.175865063531232,8.666013988761392,-2.5873601436680627,-2.94092341198315,7.784579778575689,13.78855776003126,18.04970220240649,12.884398400096813
-18.0,7.805350260030961,16.32319866954752,8.517848409516766,-12.087799891288757,-0.33866812605936136,12.411604129536933,-4.317607108640442,0.4454601759376464,9.664845523560219,12.832907874508791,13.072906046656414,14.003091094565299
-17.0,3.23653259495659,0.07430677880935121,-3.1622258161471226,-1.6736567687104467,3.217535168551688,-1.5545169962785694,-1.4102950546354844,3.7299471833370283,-0.3961649059104184,0.11403691630566204,1.6746902581326442,-0.950103828622237
-16.0,4.833139321083976,-1.1664972860627492,-5.999636607146571,-1.8471387745697885,5.437150308845988,-3.5965410434006704,5.428394113037091,1.2300404030487464,-4.350509613788901,-7.299538632522384,-7.983222470208126,-10.585908328717025
-15.0,0.4892374599255791,2.073194232324755,1.5839567723992092,-1.2133638315746904,-0.6013201143884301,1.8103876660741935,3.69322995907613,2.5423412059799935,-0.5579583307689173,-8.842780904598335,-17.166194322742854,-5.817037986217884
-14.0,-3.8616061998951245,1.7604335577567822,5.622039757651833,1.0405904167657982,-4.791089813406277,3.7454046738388196,2.264207334553119,1.252312148790236,1.1223058983454353,0.8872371122502756,1.85064211718087,2.5402809230742625
-13.0,0.5317339265320844,-4.051400989514137,-4.583134916046532,1.7482558330510105,2.591910940789111,-4.349119280384057,-2.5861965646113947,-10.904980296788203,-4.646682237923759,4.223942449008133,13.975289186569825,7.887110797369981
-12.0,5.588102749153951,-0.7329334223877266,-6.321036171542085,-2.4434909207608233,5.994408532558692,-3.5657478588691904,-6.460906309365871,-6.582731985138965,-5.0664964778280766,-0.1811356492693389,3.269902152258901,6.9149806353308
-11.0,-6.570807690916331,-8.973565898738181,-2.4027582078221084,7.749421719267426,-2.1170972142145805,-5.653530271812605,-2.399795377620552,3.485646785691391,-1.0909439925389726,-7.139009885689633,-8.032544777823546,-9.05233515417672
-10.0,-4.936811224544413,-1.2111123796076684,3.7256988449366952,3.121403987291174,-4.27957049224829,1.2887752492874314,1.3569373254430355,10.342409310604706,6.814302279078888,-2.9341752032701436,-9.747504366206252,-11.251337851402045
-9.0,1.5620166237970214,6.109477629250486,4.54746100545355,-3.8759331911712076,-1.5144450957219007,5.358772316493191,1.918273505545654,-3.2270252063654454,-0.9348478818315864,-1.1686466935065596,-8.409115067669063,-4.191326255978614
-8.0,-2.6810257193739337,-5.420668587370038,-2.7396428679957627,4.081706681166866,0.011235346034137228,-4.128826000901091,2.6736652592431547,0.1953775322441096,-1.4257180509974465,2.365139593143029,5.369360135973121,0.5968418772801436
-7.0,7.339409625096039,4.824005441812294,-2.5154041832832537,-6.056071667071565,4.910623407290126,1.1051181607127165,0.35829666275022,7.446996405269446,6.900464444162429,13.836068816886812,15.846786273834063,11.856669927289534
-6.0,5.216754703053253,13.904327887687579,8.68757318463483,-9.615520966684086,-1.753154186397572,11.323901049803013,4.803064709965397,6.746824061745696,13.465321168930167,17.802179836223292,22.887851211535175,16.841857111377024
-5.0,-4.539763093248125,7.421014568746891,11.960777661995344,-1.4149837096733995,-8.191594836403809,9.716082235816438,-1.3454560023128042,-7.327135628286575,1.7907194678765208,5.280669324592401,4.053118731991802,4.425453176074475
-4.0,-7.28524742785972,-7.4936672611753625,-0.20841983331567704,7.341814910552385,-3.5609401685521758,-3.8291387951680655,-2.130524101072976,-18.009377625499777,-19.122296965823775,-25.77168434754898,-23.735784397591292,-13.554298695295174
-3.0,-0.8571461697051439,-12.135668436999698,-11.278522267294964,6.535808321128042,5.186623825034859,-11.766783204069807,-5.212083278708681,-15.298602835469701,-24.46848377686556,-28.991326584364664,-26.481230369475888,-10.801175120221798
-2.0,5.292880938300005,-13.767164450022484,-19.06004538832324,4.286148194311332,12.23090746982639,-16.3960225265889,-2.421703125509242,5.737961227246057,-9.688194855028193,-18.311373841692657,-19.92800222203497,-14.78250321908326
-1.0,5.155161231407382,-4.5444237687927265,-9.69958500020079,-0.32637461711826976,7.403700692223786,-7.103937271419827,4.691562428899681,17.919362033063738,11.33671976477138,12.858515717300465,6.416702860287362,-0.6066004784199528
0.0,2.1426846894002542,11.189326684927133,9.046641995526631,-6.681467833997552,-3.4751823386551597,10.13855635963634,-3.9649261851392668,9.875698568018912,23.51967690682388,26.985711660160188,27.944301600946428,13.64688964271124
1.0,3.848135595797946,3.650838487794206,-0.19729710800349043,-3.7642060166326683,2.0773749963830115,1.6725311323072285,-2.5582711066982227,-0.12214695627803174,12.483413593526878,21.143304056233646,19.43221504498105,5.5470866889115085
2.0,-8.912731433059252,-2.131187449384017,6.7815439836757205,5.503092199534327,-7.874220740904121,2.353932527425486,10.930084010127203,13.099759666518157,13.621212605045336,11.19797763980232,5.034374871301797,-4.993093619943888
3.0,-10.65535527186545,8.693161483247806,19.348516755113625,0.9548522244428612,-15.033908054071663,14.052758023097693,11.354418442797943,16.16877122005276,12.325782041674007,4.552026958751505,1.1724899207911643,3.938901000774
4.0,-3.0657027845642295,25.534217230614402,28.59992001517876,-11.18948800594369,-15.870250270682725,27.021079919319867,-4.64403216025853,-14.082401476719053,-8.459643540099345,-1.7167802306977755,4.219781271497025,22.679202874611043
5.0,7.585111389832493,-1.6521345787038122,-9.237245968536396,-2.9268579914196406,8.448469587803181,-5.4140842047417035,-5.099665189977354,-25.067732204810234,-27.30067805487391,-28.524279061608038,-17.212361127325288,-2.0469125114325886
6.0,8.221933329896734,-25.03650880812395,-33.25844213802084,8.367499814148694,20.776708767031337,-29.200560396662034,-12.120494919832852,-29.387826772003603,-39.148317926361855,-36.011413330376186,-26.311866609502047,-17.144148364077658
7.0,-1.7860816956553283,-14.620087508597207,-12.834005812942042,8.24597069297982,5.56354386256603,-13.707979185199207,-7.782560667230921,-18.953324079365856,-17.012131390794142,-8.410610756253917,-2.7940497440372987,-2.7278695305831206
8.0,-4.544700184348495,-2.2872508621032974,2.2574493222451046,3.3870748664233092,-3.4344648250729684,-0.0024027257434404703,-0.0699990877548553,9.520265988773291,10.06725689158268,8.791436529098673,4.669124592564016,-3.2681879714481337
9.0,8.614532685869824,7.9586445171100895,-0.6558881687598981,-8.308034421791335,4.6078934038039225,3.658930128872049,7.644600291125548,29.93969322501625,29.60736459854299,23.186598618273337,8.446349135652357,-8.423142880767283
10.0,2.685199430895714,10.029277374031311,7.3440779431353835,-6.373367243988485,-2.3530995168844986,8.691780982977473,5.737895181020935,28.12318187626197,34.65364021690492,24.421741342317027,13.261354474789055,-0.8242085308634258
11.0,-7.046750481999663,15.652510552162582,22.69926103416212,-4.239009403218832,-14.81858072995482,19.180890519774007,11.252117114942164,27.053599549692024,30.1046597463476,24.529150318076724,13.65099352840753,16.258047661379585
12.0,-3.4280086724576586,-6.669803624722984,-3.2417949522652876,5.030456415991556,-0.12283189962074914,-4.9495218643675045,5.330664722188277,4.906801978309848,-3.7582469226058492,-3.6404611531940407,-0.1978268593010153,5.968644116370319
13.0,2.4489952308648997,-21.982551375240032,-24.431546606104785,9.740548295619792,13.401580538259228,-23.199326994247514,-2.104226246363599,-15.257178867116444,-30.279727514174965,-28.870971124515265,-21.154558735329992,-14.810958640387902
14.0,1.0707282419983586,-15.02076695696664,-16.091495198964765,6.938679776829542,8.61093927442228,-15.62621040417758,-14.960386553708659,-44.08802222726179,-49.323470854143714,-34.10496566944652,-20.789402425276734,-12.168142906600986
15.0,-10.391332241380999,10.087190771448373,20.478523012829562,0.1847415016165468,-15.414007322457813,15.292337442834055,-8.594485488170868,-36.78432017867368,-21.258679535547316,-11.769454373865841,4.082675446956031,6.863100124581306
16.0,-1.8880636737597272,28.32033746714703,30.208401140906886,-13.190131382661743,-16.032921073411977,29.27579914000837,5.615875464307042,12.46653813734357,28.767774442928257,26.66360527009227,24.170713532827257,21.095641623081704
17.0,9.709188507159869,1.1990480308064448,-8.510140476353396,-5.429922131978355,9.123421842489762,-3.639559969130806,4.15908811834152,28.958862942454505,32.182336637437544,23.43145661649048,10.770419085128694,5.599344645416868
18.0,10.36764518956348,-3.387774387868396,-13.755419577431935,-3.5412024355971554,11.998539810376204,-8.547776599118725,5.565046173783115,25.65823760786102,19.437050057398306,8.616285731773797,-5.929699068380355,-5.910648959139753
19.0,7.848930828012218,-4.171821469780253,-12.020752297792594,-1.8040270104005618,9.95483054718693,-8.062141831364649,-1.1456889220691755,6.643990848595443,-2.7514616149579716,-4.389939627730556,-3.6597068125825545,-5.714586476445386
20.0,-5.863833212367009,-8.490645351807618,-2.6268121394406965,7.1413994881566625,-1.5936106395728444,-5.592670681200216,-15.197334372968138,-19.71607519368219,-21.367144154448532,-16.0978535959769,-10.200229243655887,-8.723853661287617
21.0,-17.178707141961514,-4.946653970408343,12.232053171553126,11.11259477970505,-14.75496785430106,3.617084782985998,-3.5016153644845884,-19.373833136048248,-12.218277324718919,-5.365447837679565,-3.3563231910431632,-3.728187636407079
22.0,-11.815012772434235,4.05499631442016,15.870009086854397,3.8546102112562215,-13.810623246028651,9.940822830809603,13.998164602208227,-2.2135009362619016,-4.0289373501570545,-3.2628178537260277,1.8331187566419853,0.9592078528625274
23.0,-3.5541965293738933,3.7774919774459033,7.331688506819819,-0.138171253432128,-5.410277498899438,5.53181745085703,15.06954113172849,3.9909521708220916,-1.4710907028909497,-6.3606409636365715,-2.6959808724851255,-0.7504810570366198
24.0,13.47351521346467,5.613602617866095,-7.859912595598509,-9.575286645194137,10.619503114717142,-1.0724554786289116,1.35658212256706,8.501555561252452,8.075997134677152,10.733988332644788,6.879781393994191,7.1504687654083625
25.0,13.302534824805011,0.5360512403760871,-12.766483584428794,-6.879837587761046,13.063513404734248,-6.072261717167888,-9.510209231274573,6.858770047581044,10.259843769217557,8.726249288659847,5.697940033910489,4.513007875237231
26.0,6.831117476327035,-12.5505319533892,-19.38164942971596,2.891442008852324,13.053602396439867,-16.0102995569668,-10.7541685823415,2.187520398129403,2.7094121400296514,1.3817476785771108,-1.250157000484184,-4.93387007979305
27.0,0.3029392717600796,-9.72074941944171,-10.023688691201617,4.734605498201672,5.186884799326823,-9.845379180626137,-5.4882924602036285,-3.2666719941336155,-4.444171416435174,-3.0987322067259773,-6.730228526655334,-1.9247030469132866
28.0,3.302085629134475,10.35772559695232,7.055639967817865,-6.88634916573549,-1.8539919618000966,8.648675325885641,1.819363057270046,5.3900099417357055,3.429143071630535,2.6060951829033714,5.04283059446634,6.808786626411317
29.0,-11.438616267166031,5.775350141234782,17.21396640840055,2.853278527621955,-14.302314722398126,11.511457884378995,5.725429603280679,-1.1117221883497446,-2.095179390886288,0.4818781044834215,4.120592956726097,0.44610259191134766
30.0,-12.857922066437652,3.1742749757258535,16.032197042163105,4.7863800557823675,-14.497148485103658,9.618537000327667,7.186851518758248,1.1095158006247,-3.7708699790001137,-0.512257477410603,2.7680712086180677,0.9090032988353953
31.0,-8.308401237339076,7.7892538423265805,16.097655079665376,0.2862529795027555,-12.173368210272496,11.959667271576269,6.654976307136068,-4.112316673418807,2.53072912700219,-1.8220909342497569,0.2043060632366075,1.958989208104016
32.0,5.8285305344164495,3.878921025376293,-1.9496095090400862,-4.822729338771383,3.920674883033855,0.983781828933826,-7.835721523689971,-14.195113891718762,-4.4130562622561875,-7.061739065528341,-11.984852154223471,-5.5514637814217505
33.0,12.929331290133373,-5.000507066647283,-17.929838356780152,-3.9291702204010726,15.382421539431496,-11.520521703907315,-11.388541983041607,-12.533583458751153,-7.188198693079253,-9.255617897254796,-9.729506283722193,-9.57577560786007
34.0,4.611709152101378,-17.610159193231265,-22.221868345331856,6.458702968770686,13.36770760617484,-19.887520093974356,-1.9386899858621307,5.010692525433279,-0.4801537351350993,2.39866907347505,3.846767234138254,-0.04954974058906858
35.0,-3.7794105920877366,-10.897844155026686,-7.118433562938238,7.298860005312236,1.696480730305117,-9.052652394674622,3.130015409148878,11.329939165414746,6.958736966210279,8.047582203333501,5.983535436307047,1.187801736896329
36.0,-3.253922203805148,-1.88645155395665,1.3674706498487756,2.6074290835541065,-2.2855375450068873,-0.2186629113320775,6.017041111026381,17.869861223398047,4.863321844024604,6.444910278720067,4.404415208870455,2.4731693480883385
37.0,-1.4000812639170488,16.779659785455486,18.17974104937229,-7.734868845785474,-9.764332109659177,17.449428962036198,5.315337347409876,0.5805344778436812,6.003360764358137,3.8892525400286724,2.911614546220595,4.51097735085487
38.0,5.009860753571776,18.27358424917436,13.263723495602054,-11.612128605080123,-4.0984336287643774,15.825567161279205,2.8995065061736915,-2.196091254551149,0.9706296742931233,2.241344340684463,3.441062064709572,7.739403955502443
39.0,-1.737364819383014,-2.3473665852808807,-0.61000176589849,2.0687449166469936,-0.6094565031716623,-1.492397207289633,0.38868351864455786,-5.347836478186413,-6.476824105521791,-8.544904031452358,-5.87144375193027,-4.275998799472313
40.0,-3.041854338979971,-12.15551813832791,-9.113663799348398,7.623499523490342,2.9945424477247573,-10.642310209670958,-1.3989687960876354,-3.981852123438183,-7.207152963934724,-9.964202890819571,-8.887565775993584,-4.856713789624227
41.0,-3.6061039344100725,-4.5213402687993405,-0.9152363343892276,4.009812537052122,-1.30520931296568,-2.724138836009062,-0.7164139075312903,-2.4599153189787604,-2.820864748371868,3.032214363336256,2.6438633424763545,-0.27255447991164194
42.0,3.107725246494492,-5.412919137759183,-8.520644384253325,1.1783581614718783,5.776090123311374,-6.976288281078318,-12.785336182945166,-6.344475874791373,-0.13115185679602748,4.062633943049097,3.4701374549626975,-3.3123415830215235
43.0,8.595294139300103,11.55968038395912,2.9643862446594342,-10.1295539664662,2.854096727335795,7.243189048524571,-0.4123930395367834,3.9896923193467555,8.99056955115705,7.174022471044235,9.248763871070521,7.04824288054267
44.0,1.137271194084363,7.8510818649862415,6.71381067090222,-4.467289960967388,-2.753546636266874,7.328666909914976,2.8075202575464413,5.564574813852763,4.173781618406038,0.6871666634330076,2.9753229467736353,7.23961008887492
45.0,-8.176711623860022,-2.6365158243729594,5.540195799487349,5.432530875396581,-6.907451314040653,1.4038731936615019,2.5309783001609625,-4.6973104985761776,-3.113616443197503,-8.679706798095992,-9.804488898710789,-5.330214750721344
46.0,-10.764799526121541,-5.917545158403445,4.847254367718255,8.364672106546637,-7.781219600619906,-0.5183162517639688,0.03205636348208696,-3.4107945873991703,-0.9773543366665596,-0.1535313880422251,-7.764449147476853,-8.272255501221098
47.0,3.8348519199038105,-5.321353799507783,-9.156205719411647,0.683998900831579,6.437955132768279,-7.231375499319262,1.3483636578569778,1.319538209563966,-3.2276842352106336,0.20288806296152195,1.9043365566904153,-3.1833301683249977
48.0,7.977047170650882,-3.5682494240093074,-11.545296594660396,-2.190362825950995,9.781385223521799,-7.552235465453836,2.4802040438086816,7.848172432736275,-0.19729581467384216,2.1738167225984797,1.5525059481761052,0.9195368446189605
49.0,2.304907876085165,-9.01860495797088,-11.323512834056258,3.3645225946713087,6.837125444958037,-10.162403573033654,1.456120514161701,0.26063593039788024,-1.4237790232835725,-3.038644586323092,-3.656458667451645,-0.44299253031981345
50.0,0.8980799525156562,4.121731515566521,3.223651563050681,-2.5084526704375674,-1.1334305186513802,3.691133671189357,-3.0016543742247515,-3.2084816951197994,-2.655053349029603,-4.537994890616879,-0.6871724617234891,2.071468392429466
51.0,3.6421809939845096,19.051078540505934,15.408897546521331,-11.349885577398481,-5.923782315114014,17.182459669146464,-1.4734628170873514,5.5384887821704245,3.447784238837352,8.573816798572498,10.69931719144426,11.593398916934005
52.0,-4.449962340025739,15.615775314124424,20.065737654150137,-5.587947271693944,-12.210359647049241,17.884497232698997,5.110396208690064,2.7641838458061483,7.4581719582283545,9.607382413105094,10.907425856552713,7.666974879071749
53.0,-6.855540340827695,-2.88472666711915,3.970813673708591,4.86733614001168,-5.43784059269457,0.5173872571940494,1.530049807093776,-5.0012147050055695,2.615414893673075,-1.8993166325866788,-3.16779580755985,-3.77266020338158
54.0,-1.5921152180777822,-17.273510996563854,-15.681395778485964,9.436741549038636,7.021822728701087,-16.49871989668525,-5.441787127009361,-8.090657919136461,-6.479519105098926,-8.806910912998642,-12.279278287682185,-12.613966267282276
55.0,3.5183366307303703,-15.052881519695383,-18.571218150425665,5.781961405276259,11.018349677504222,-16.83422415186708,-2.563506810713847,-1.8313874695639125,-3.3779773057082925,-3.3118695358462125,-3.92939122436092,-6.347519978560167
56.0,5.372155041759555,-0.21549933016321887,-5.587654371922728,-2.5502249960161074,5.5243148824925035,-2.850229852992239,-0.8188649438907143,3.575373016925649,2.6600935344382926,1.3819850876665982,-1.3379250716887885,-2.025589938043697
57.0,-3.4753869267373805,5.463384080340157,8.938771007077543,-1.030612670127683,-6.250938953596009,7.244638606054408,-0.6972586365330427,-1.5319186129835711,-2.4792904059666063,-2.3214418102029235,0.008229380801167197,1.2064394858150507
58.0,-4.553824678583624,6.8866470136635485,11.440471692247154,-1.1905277247989048,-7.970063576857381,9.120009922162089,-0.4333195420518099,3.4506066392462227,-1.722051527756237,-2.128731777333389,1.8456083981969718,6.762658380989354
59.0,-0.8851989151975631,4.068876059050703,4.954074974248245,-1.606727309251657,-2.8958304560060855,4.460842422776557,9.538181912584085,4.231406839111652,3.60416710839909,4.142766330180108,6.466896097759241,8.100775407663566
60.0,3.6568509199906094,0.6892182468216319,-2.9676326731689757,-2.1042349551903654,3.338673203284968,-1.11535088701459,1.7345151988214238,1.166260133715741,-0.4694840559363245,3.5101685578286403,2.8480412684205936,3.0159582316310187
61.0,8.339788250511411,0.03104718840851617,-8.308741062102879,-4.195011966406619,8.280038468083534,-4.115407346252823,-1.7841247608918611,-0.4541907847891543,1.225601820947548,3.8933871750508717,1.226657218832399,-4.3164869963731025
62.0,6.918449562228839,1.6150131650816006,-5.303436397147235,-4.280194205746454,6.078281212446304,-1.8171752663656877,-5.416151223816381,-1.7101091056447926,0.8975141749961395,-0.4164603219105485,-3.965550693863556,-5.002165705413645
63.0,-5.7382643812645,-4.811571350702575,0.9266930305619145,5.254361693313387,-3.2742467240955455,-1.987438943951228,-5.562321139750452,-4.097499303592614,-3.799949357211216,-4.68765393544588,-5.645306713169155,-5.6741159044426
64.0,-15.394904668370533,-4.237739842469048,11.15716482590145,9.787069080630038,-13.286847006995288,3.5014720049056036,1.4160128427925756,-3.563136614096501,-0.3892118284976498,-2.447051880732167,0.8380389290649655,2.7891283832362683
65.0,-5.010497165925299,0.8298668201140602,5.840363986039337,2.1315104302119616,-5.431403402665525,3.305198940880167,1.6705184555096937,1.0625175572541479,2.31780980257584,0.23140924751191694,2.4611891946668614,5.597933553843151
66.0,2.226346233656416,-4.15952586966257,-6.385872103319002,1.0017450315620358,4.29886796216276,-5.2984294972163495,3.083529303292805,3.792533492749101,1.6091170053386714,0.5344533754964231,0.33626237748128285,-0.10670933216642675
67.0,12.700117493443452,7.901923924155236,-4.798193569288227,-10.347216116562613,8.73485923353702,1.605097181154031,2.7846530841561408,5.583034886349596,2.009109840538195,8.877200118248457,5.422022625040766,-0.65280242543588
68.0,6.632941667761032,5.9944275059323235,-0.6385141618286987,-6.280098806260257,3.610448043114925,2.6487618632423966,1.3452728824643538,-0.053186346320495126,2.3105501939001583,2.9580272801864287,1.79096750757255,-1.420684098079147
69.0,-6.290275399585579,-6.361776114821214,-0.0715007152356042,6.284813137716803,-3.067957018460681,-3.2521976875056,-1.8043030189574127,-0.24133651153285346,-4.8847226697176485,-9.819877421897877,-7.724564738235648,-3.5454521926456737
70.0,0.1863929799950519,-4.078728417218555,-4.265121397213563,1.9893155979910295,2.2570911846190858,-4.135849289511557,-1.8044803596023424,-5.468869049214733,-2.5774915110855208,-8.087529194369353,-7.428812014537294,-2.4094726917862954
71.0,1.6840585958618948,1.367059160281127,-0.3169994355807214,-1.5552687156874834,0.9471777062374682,0.5552945331821242,-1.2455715611303702,-4.877944169805695,-2.316044419858459,-4.051060552417269,-1.7142479729913318,1.9757660460276596
72.0,-7.045129106744349,0.829174692057672,7.874303798802043,3.083311901577336,-7.435244402021306,4.300257778955939,2.004379619407447,1.3509723812035968,0.21828933560208896,4.017334063318618,3.465133976976917,4.453578332001535
73.0,-4.259010804625065,4.634158673347089,8.89316947797215,-0.12996884454202284,-6.548166187474152,6.791250148024362,-0.6450899690255247,0.981638240089659,-2.8313691441307034,6.134268587649251,9.833219788226398,5.871539101967672
74.0,0.6987102788159363,-2.650968209133448,-3.3496784879494026,0.9567926025291746,1.9794270842101982,-2.969730629377331,-7.34798535986459,1.3419505307834538,2.540762055014153,4.473714256390462,3.4020181864872256,-0.8750135082659845
75.0,4.637609830479446,-1.7499705812217652,-6.387580411701216,-1.462838591460256,5.5529754108913965,-4.1127099160454375,2.31181122171286,4.985903812986407,5.087434257925583,3.002090768157433,-3.8992946046009895,-5.125911493620307
76.0,4.678390399641564,0.8557347605854686,-3.822655639056071,-2.786772255225822,4.216881644380218,-1.4449431511214477,2.7467591139041034,1.004623126952949,6.324418083698072,4.314279612571434,-1.514660216027233,-4.913495500332809
77.0,3.1378814865462745,-2.4816879324386547,-5.619569418984889,-0.2702224030519178,4.347008539089311,-4.08898007465227,3.7425958087530153,2.1475600097107677,4.878502374280547,-1.8561222934336357,0.537142425009351,2.050140663660654
78.0,-1.9629112837311764,0.22525517553560503,2.1881664592668146,0.8466376738221926,-2.0294080583230447,1.1680917314353576,2.0849143606469194,-3.7375799605092768,-6.471818266589423,-7.322645583852005,-3.31040381625936,2.7654751537649136
79.0,-6.401106894490327,3.4326415255423246,9.83374842003267,1.46051015372853,-8.152908214774628,6.671644527960721,2.4362246547231567,-3.5597540810713646,-9.065130118616699,-6.613235876913352,0.33184040493919875,0.3467535919797231
80.0,1.5504023384853394,4.872590768850303,3.322188430364971,-3.158683552357096,-0.8462239394215985,4.134129967107031,-7.009513290089609,-3.9525623908279335,-3.123491371560541,0.5374982235302488,0.9364309965968223,-1.2626726770743413
81.0,-1.194144478165002,-2.8915899825765257,-1.6974455044115233,2.013378027268318,0.2880099672468126,-2.336927467195449,-0.9685985469689293,2.586519068659074,1.8460826128869694,5.220798670111019,5.994561755238017,1.251885050918393
82.0,0.5305123789758033,-5.266994771688035,-5.797507150663833,2.3333440903373006,3.119183446569098,-5.494327749595813,-0.6783796729684313,0.8672401152531429,-0.12537251355306456,1.3425784707556834,-2.6730775547277434,-2.236674482007107
83.0,0.33693438477618254,-0.31834407062338954,-0.6552784553995581,0.027225323582392713,0.44995218581334995,-0.5243247234980211,-2.1261186592065178,1.112469425964062,3.480782758836372,-6.869541686932349,-16.80898663992984,-2.134928387555663
84.0,-0.2995944236028143,0.6717454285639237,0.9713398521667597,-0.1582598861689392,-0.6029681240075528,0.866771273337026,0.9538638706266946,1.960851213093712,1.7799542789540186,-5.391952987642904,-2.3714510488777587,1.0182139220854016
85.0,-0.005898944716920651,-0.36394352455710355,-0.358044579840157,0.12507244156109165,0.20981213284611688,-0.39128775808928395,3.124007135889674,-0.5227540074069805,0.9510618878799324,6.146015780231536,14.910077177263423,5.442857961814195
86.0,4.742632541508289,2.779165207035791,-1.9634673344724716,-3.749522924806791,3.3105745954716648,0.37870110142152,3.3348292724262945,3.159758954825465,2.4211213356711,9.601377700369902,8.471619987987587,2.238116827990318
87.0,-3.7877501470087442,-1.4978192455196195,2.2899309014891474,2.6497163858608173,-2.9991125058028114,0.44397045533331514,1.6799990762519885,-1.6804276962712432,-1.0116481512981967,6.112238463235876,3.47436455719264,-2.706730379469514
88.0,-2.2945186152418464,-1.5249173121007327,0.7696013031411244,1.9165758273890485,-1.5674679398823845,-0.41298307570352666,-3.607451970480536,-4.855168943770948,-3.242331556127061,-1.129550824594846,-3.30701842746631,-2.0024136410459863
89.0,-1.146313667523953,1.408317868581563,2.5546315361055023,-0.11946765813002413,-1.8043310247629287,2.0183844648052793,-1.9112212625391065,1.7041612595891262,0.6318733653920905,-5.52567501846627,-4.68178190549496,-3.6348129592623883
90.0,4.247875435125668,-0.42830522509483143,-4.676180660220522,-1.8896276429371492,4.430526729090743,-2.6013270062493716,-3.997169304282207,-2.616764755747033,-2.212481091491809,-7.6193916509693125,-7.969716494838387,-3.9297703758990674
91.0,6.020857908998804,10.137818328157831,4.116960419159002,-8.127212221589366,0.919419436741554,7.150567608364821,1.043592485318841,2.327820549879149,2.8680589877286766,-0.5580339482115706,1.994947184306417,5.063359843611169
92.0,-0.8390588146875642,2.227940689857878,3.066999504545423,-0.6531216256909986,-1.9097883692406492,2.666219992736191,4.831070887778913,2.2420986486396735,0.9078881583348839,0.5127095490320965,2.535356700836971,9.208556325145786
93.0,-7.8393827884803216,-11.176649978679155,-3.33726719019884,9.478575018170629,-2.2907794032706508,-7.239762531980852,-0.056620645494870114,-0.6767713457040592,-5.3783964382521585,-3.3203804740117007,-6.466767006047956,-3.0724875895128942
94.0,-6.409517927619408,-9.792656302199429,-3.3831383745800183,8.075813540261285,-1.4786994600323695,-6.647934012993804,0.6299403900821288,1.1637315852466312,0.4518302322617995,0.7064239704813677,-0.19427756544376523,-5.405997644489599
95.0,5.23729104661011,2.05731237205048,-3.1799786745596177,-3.593716987512444,4.238939360857742,-0.538387161356809,0.24868468320170706,0.09592684900177065,3.619544870401454,6.309416551445316,5.763252706374926,-0.7089556718638388
96.0,2.540920791725891,5.880880679584667,3.339959887858792,-4.2391879056334325,-0.45159019788730115,4.639566362729922,-4.309497934263599,-1.109323662571069,1.817477829418931,4.469575754768905,6.8871785318158665,-1.3255494269417116
97.0,3.6248911688956786,4.466297403403519,0.8414062345078621,-4.078721564734183,1.4151608540884502,2.611424339899456,-1.0841659378648216,-3.207157230419539,-1.8075440197835069,-1.7565327157566306,-0.14185962138450314,0.3995985366574548
98.0,1.7751826577467869,1.9654523856582546,0.190269727911488,-1.8296283982422916,0.8126832676590482,1.1212315273269144,2.182435457915517,0.5944750895727102,-0.7543092837169835,0.41164160281546547,2.1487498907162887,1.7989880178461075
99.0,-0.5759920128713685,0.40008436868942443,0.9760763815608113,0.12477935973871301,-0.8377236303722196,0.6585445454464496,5.312975325404367,2.920559564535227,0.9646201866516687,-1.1406824306506276,-6.948512650462895,4.743282494043181
100.0,-3.765994296180959,-3.2467150986887505,0.5192791974922202,3.461985200699776,-2.1283356287358166,-1.3895180864776648,-0.9785503057475373,0.8072409267200338,-1.7054572146145117,-5.785196256170591,-10.521272433021174,1.0918177160209057
101.0,-7.6573989306539385,-7.085838398970033,0.5715605316839033,7.404553184551306,-4.101859120427918,-3.2031997878815455,-2.282105341070308,-0.8483734299664695,1.077435888082666,0.3548639440766137,3.7827901425940595,-3.3396562596861474
102.0,1.6468911195048155,0.4495751707390596,-1.1973159487657767,-1.0952589339023575,1.4346794282236914,-0.4007710295826019,-4.214147809099389,-2.8388822369255,-2.3020506745545095,2.1929018408152974,7.931742281413533,-1.5794496082418683
103.0,3.572038724872448,4.229338138239942,0.6572994133674572,-3.870497627447729,1.4715436726401445,2.4900401235788783,0.22508657214068828,-0.14439966439063556,1.5701629939228718,1.2904502266714943,1.8495120552920787,-2.356936101138543
104.0,4.228788655095537,2.865377518495671,-1.3634111365998969,-3.597497829353891,2.812821869738805,0.7113723678089866,0.07042130940746733,3.267761743675,5.019339991052243,2.0488178273643367,-1.1125945000628983,-0.20978385835283397
105.0,5.2845524555711645,4.1119697322347815,-1.1725827233363941,-4.671571935852922,3.1689273366630326,1.4213653101391996,2.3568744428696338,0.74762289204197,-0.6663318364892548,1.5192141790828533,0.32592432206387845,2.6770590144337403
106.0,-4.22937603734165,-1.083149046424258,3.1462269909174045,2.6822011111232866,-3.66741395057488,1.0541260135718202,0.6349115846663205,-2.058672025757289,-5.315986293099943,-4.547707731751533,-3.2751854933373084,-0.713117455346415
107.0,-3.2146787703874664,-6.003988764837304,-2.789309994449808,4.63579017852631,-0.19237895067108668,-4.378769717949232,4.145411403507391,1.9634951028937992,-1.0597865507142985,-0.3737423272223006,-0.30142456028856235,3.3838564289467383
108.0,3.281813985750497,1.1400112542430718,-2.1418027315073775,-2.2615948354461497,2.652570511712714,-0.4829399220565618,-1.2837568134249286,0.03564075619929763,0.22666195172084647,-1.0031159688749616,-0.2166223648500268,0.31276772215241166
109.0,-5.0061212548623075,-5.497338139466956,-0.49121688460459956,5.281932765564187,-2.238158404945551,-2.9711484038534355,-0.8948887673927652,-3.4472290770683096,1.6902509142320545,-1.8097425257701167,-4.443942862026541,-3.584984231484584
110.0,-7.693745770420698,-3.871759281493853,3.8219864889268753,5.736304104818017,-5.7369275085109335,-0.071522196287095,-2.8516701863269778,-1.2306419521771523,0.43569719923093286,-0.8726354520756423,-0.6720356977328943,-3.362276003485088
111.0,3.447418580811284,6.509718673836981,3.0623000930257005,-4.944407579427679,0.21756647866739653,4.828437956089468,-3.7682222813161275,-1.5145061431322098,-1.2936013097822858,1.4085092934083998,4.788629444710483,-0.7042236445395544
112.0,7.432606448936701,8.920779919018448,1.488173470081712,-8.21944601501126,3.003127060054759,5.1769961661853205,1.770216534030319,2.490507956523963,0.8957883848880904,4.889539657873619,3.289979411857793,4.819407777929873
113.0,0.7043710728826236,1.640964322727208,0.9365932498445404,-1.134479368607745,-0.15775918522716204,1.2665141306388892,3.1033265188515755,4.222023199951876,3.359595377045346,5.875791702740975,5.0803703646223415,5.275477025246068
114.0,-0.14598713570808686,-6.552324542730258,-6.406337407022189,3.3900450823240114,3.0932449240949,-6.500833082855047,1.7948529785851908,1.911221372692387,-0.5775842857802473,-1.8031576195762673,-2.7835386199805408,-2.4439386710607325
115.0,0.83617664601742,-4.5153337848709025,-5.351510430888298,1.8046221563259395,3.059009784627219,-4.879253030095,-0.08214754624384923,-0.827772709384812,0.5368311936031009,-3.0109639069253014,-2.7477524890606277,-0.66760018630916
116.0,-1.1809425777798253,4.570339450618594,5.751282028398478,-1.7272198452723662,-3.42288789865081,5.1309285301193865,0.18804312502158427,-3.1222078172178054,-0.28306039119774706,-1.4885342552119107,-0.8383947621873422,-0.11209893323184539
117.0,0.44532612722334486,-0.8833833420096917,-1.328709469232965,0.26654563738609305,0.9273046862043848,-1.0627893800609762,-2.67803892110876,-1.660769857782127,-4.195476019632876,-5.520145136328493,-4.17902393522322,-4.12928635944535
118.0,-3.8447410559837074,-4.6853537340628035,-0.8406126780790466,4.233651719577914,-1.466274563978826,-2.8028206218798792,-2.3947539726426097,-2.0434109131710603,-3.074843378690723,-4.251069345904123,-3.0093839679701286,-5.13495928838107
119.0,-0.23744984165059702,0.7114338388117485,0.9488836804623566,-0.2697723516342021,-0.641670530598301,0.8669135243414687,-0.14957170883644721,1.4738120381656385,2.610262316016208,3.682955293322663,2.255139933332061,1.3702107713018812
120.0,2.611811927559125,4.261903192568231,1.650091265009075,-3.392860780530825,0.42627115489825007,2.9143113835450283,2.1373209478157866,3.477164137491222,2.840385255432046,5.134187826380282,4.5289543890644595,6.129258041616012
121.0,-2.4139671871524726,2.8918234252565895,5.30579061240903,-0.19677491729891172,-3.841498041156526,4.13851288734217,2.6889384017123397,0.4348969316267881,1.4409550460880365,3.085217864385209,1.829401523921208,5.168771335454709
122.0,0.2008378742981227,3.037804535504815,2.836966661206681,-1.65712228704606,-1.3039081907304397,2.903024555964649,2.4826470096858317,-1.3182268562452244,0.2562920797612791,3.225427911610226,1.348241579178395,1.0828824543944338
123.0,2.387955932535752,-3.748696676888265,-6.136652609424017,0.6422313668351458,4.27501918261853,-4.9706173858038625,-1.8606058139914936,-0.7393432492489262,0.21603953921328345,-2.0239596184831723,-0.012569444735525237,-3.441136692305072
124.0,0.11352424865084498,-7.047903708738669,-7.161427957389504,3.5083820107591386,3.652092916026857,-7.046088019760189,-4.8176086109831,-3.0552960227610892,-3.5379394066337233,-5.404102539398965,-5.861872206612045,-6.154590215080736
125.0,-3.2676357678882764,-9.220771155108787,-5.9531353872204775,6.208112108909956,1.3620842429387436,-7.598679674245074,-2.9390377206578067,-0.7522976203912037,-2.7276320556862843,-5.782131828651863,-1.3382235248460437,-4.63841576023964
126.0,-1.0525915001084012,4.56765676502758,5.6202482651360075,-1.712712292502018,-3.389828285647705,5.09018848514566,3.597659381473718,4.461201282976181,0.9052096731396548,2.198626743989899,3.036458799625441,5.0363018441680225
127.0,2.235972158560383,11.473515694862192,9.23754353630182,-6.886314202223411,-3.4701280291482117,10.357649508481215,4.663785012737359,2.6841291269532466,2.320026390927801,3.5659951908825414,2.128464860599455,3.7173780206666374
128.0,5.451831411681547,8.860103975345655,3.4082725636641262,-7.107088253001296,0.9765748952683495,6.138425419771939,-0.17746563998128373,0.3605294458314834,2.546784882458522,2.9553580489760742,-0.46780464408355704,0.11548785913526727
129.0,2.1878468904959103,2.409747714358264,0.22190082386235677,-2.328666914211206,1.0160095342158282,1.3171724501638735,-1.6866433120468796,-2.042804352253735,2.325152295423253,3.2619417415288456,0.829245384601013,3.1708145652509487
130.0,-2.4084321098497794,-6.13326176972107,-3.7248296598712867,4.238439880651845,0.6873275319190607,-4.935830008245746,-0.9114475843326981,-1.891710789630188,-1.1990217861129946,-1.9483224147569798,-1.4856631010791883,-2.3507911554042975
131.0,-4.667473761163963,-11.320487931131435,-6.653014169967484,8.035008656728614,0.9367225017165286,-9.00579895846131,-0.4466544994931402,-2.282843420258602,-2.270273774739294,-3.5042361066599947,-0.07902653778530949,1.0978653815586645
132.0,-6.610022465411807,-9.255496695979954,-2.645474230568165,7.8874973684152305,-1.967009769886587,-5.983539955154518,-0.26384448663680415,0.6523409376833973,-3.5835906307068384,-2.5298118038150346,-1.424897170715441,-2.9480916280832936
133.0,0.37358295294979094,-1.9603107572646468,-2.333893710214456,0.8182995518628964,1.3623216811230665,-2.114103452554743,-1.2969198336325594,0.7567223201321996,-2.3523911053943483,-1.2604107427962055,-2.8542578680176396,-4.3689495686330115
134.0,4.276252362355772,7.844051478431708,3.5677991160759515,-6.0432878561256045,0.35847592378974674,5.730235028620145,-1.2062428148761832,1.0051395102268914,0.22469847498264583,-2.3052920092485047,-4.020852625038765,-5.03076491677373
135.0,5.349674797555034,12.073578506724276,6.7239037091692495,-8.700995366743353,-0.6838464435786595,9.41970497214974,3.5110717493177495,0.9594834655548108,6.256683416052001,3.1658566276644136,6.134521653756819,6.767738179070282
136.0,0.4281941340479789,5.152723652397785,4.724529518349803,-2.783231533068692,-2.1423206072206025,4.96109080377465,0.7445817640175925,-1.7629693723253916,1.3237638706305588,5.76230417666795,7.598399596189669,2.9885077346207027
137.0,-2.125738347328584,-5.264193175383218,-3.138454828054633,3.6234899738825184,0.5178225467543202,-4.253242910835515,1.9260148391313305,0.715573720325265,0.36222957043639425,1.1764075595363703,0.5052458437795795,2.5468156016282832
138.0,1.4650681622353414,0.2882635467028378,-1.1768046155325143,-0.8655817495957534,1.2613508289593776,-0.4914388955775135,-0.5076889606719742,2.3985859532030354,1.9918371737051108,4.806323402669404,1.2395839505786634,4.695299310923147
139.0,-0.719911105286541,-0.6647277310066753,0.05518337427984621,0.7108488027016284,-0.35963770983378407,-0.26998692316940653,-3.6215503573112025,-0.19476226131237406,-2.8617153849700503,-2.2691960004145493,-6.171628421771984,-2.4509012726868775
140.0,-4.347641285153045,-8.825317586783719,-4.47767630163072,6.615177932411676,0.10182176353619952,-6.6158245114503424,-1.9533751551568341,-1.676007808377122,-5.585548272037823,-7.794642916496241,-5.482923838236455,-6.449880771954655
141.0,0.5979559740002891,-3.246470429558803,-3.8444264035591464,1.363909886188539,2.1875870692319968,-3.589552397170221,-0.23384627759939303,-0.6216484783144502,-1.4531470671761602,-6.77428571890562,-1.5003556243071419,-4.132196135177505
142.0,2.9770507103338733,1.346522975699973,-1.6305277346339326,-2.1918405985487475,2.2774163417677196,-0.10911558239501407,1.4031328213695817,-2.0144027028537503,1.3086746981426323,-0.34365513280605375,-0.7401739079551686,1.6171451826298666
143.0,-3.6495953117261193,3.001330429283592,6.650925741009721,0.2986537031103509,-5.092234712742566,4.779183107479207,4.3709729921498885,1.2316895296577997,3.0481777007045756,3.2555606041922682,4.412334954567736,2.277999285766078
144.0,-1.0507690376661656,4.577290915830824,5.628059953497042,-1.7899141851435738,-3.356498270460365,5.135160728830921,1.8120583846501073,0.0826803290528702,3.2693907935555644,7.037932327243357,6.2025379924024255,2.2542443904727794
145.0,6.202435891143034,3.5191965208098925,-2.6832393703331165,-4.893675021688619,4.427021842481374,0.45321622837921494,-2.6621747512401006,4.1648973444198765,0.660908255671921,3.0870298366728246,-1.2464796233232418,1.7615376991048695
146.0,-0.19122162671556797,-5.2346648395513125,-5.043443212835747,2.7501229606489743,2.4089777111914525,-5.178384711574786,-2.1543583871225738,-2.366482322756727,-3.0335012282648206,-1.3596455454930725,-1.4670523312351356,-1.2363898870816954
147.0,-0.9441196919800215,-1.3300507061718643,-0.38593101419183995,1.1662946018998812,-0.22131729364545993,-0.8143212374999613,-0.8772923367842591,-1.1487594401354202,-0.010441246965187112,-0.019338056110246638,-3.5815472488975115,-3.235611387992727
148.0,-1.2067554910603002,2.746429637473052,3.953185128533361,-0.7453043190421067,-2.606867553912261,3.317579571288625,-1.6412841642455438,-0.8746794146830517,-1.0725086727676967,-0.028801365969677972,0.10021188042104745,-2.33737824931061
149.0,-0.5746423478162007,3.676599773405745,4.251242121221953,-1.5269608286810081,-2.446983852851975,3.932290471612655,-0.337303982452827,0.6709704809992528,0.9764626271273951,-0.28148179654894956,5.4945206290286706,4.532281977222257
150.0,1.4700366469944028,-1.17789370261993,-2.6479303496143496,-0.1980577220842493,2.0965794223933054,-1.9460362302082133,3.2876422357518917,0.852247007091741,-3.2875547549695328,-7.564324066028743,-0.015650167446800145,2.0335919366934414
151.0,-3.8564475696676155,-5.387806401001418,-1.531358831333827,4.5742113318825615,-1.2093515000152553,-3.4165426745478853,2.85251829896069,0.1886441570110125,1.3393910847600556,-3.975721672177454,-4.09994886358462,-1.2637598224346287
152.0,-3.006151346911204,-5.571278572797994,-2.565127225886794,4.322987574060381,-0.19157186564610346,-4.0277298220611994,0.22207772830926942,-0.6699390344068359,4.232048616686576,2.474450809704064,-3.425671859732041,-1.390718363144818
153.0,3.5899969922895254,2.7822238153980723,-0.8077731768914207,-3.1502796688348185,2.227959588504603,1.0255972113721783,-2.392908767189878,-0.18450460762953988,-1.3704458025843955,3.781491040202469,1.2513022649447314,1.8552317289442637
154.0,6.285340264698991,6.215715372292895,-0.06962489240601352,-6.29407443043967,3.2093710477024353,3.030573603741006,-1.927317413735012,-1.145441251883873,-3.7803666534163196,1.6885819740305297,-0.0034975047946093074,-3.2021678647243967
155.0,1.3979035338461547,4.677465015969506,3.2795614821234276,-3.004790834011195,-0.9833706122868977,3.9331049850813566,-0.6985079539862658,3.962962418789769,1.2710669947127802,5.010475205289156,1.613384508977131,2.172903060469669
156.0,-2.665164963096868,-7.364722013433138,-4.69955705033621,4.966097836016778,0.9792376563716693,-6.002919242280137,2.461953840423168,-2.474243903006877,2.11771385309976,0.9635109342104868,3.8965965788931953,-1.007508019913808
157.0,-5.020956508641124,-2.2830622904103457,2.737894218230764,3.6793619434004183,-3.913184427712023,0.1733793921855602,-2.113256794755099,0.28838224119431766,1.2579599995273245,0.11097941527701338,3.1514020455733607,-0.9112846851807546
158.0,-2.1120274824991356,-1.4115449381572884,0.7004825443417726,1.7878542641647752,-1.3573063943072186,-0.3338783849763449,-1.2431109029062453,-2.317568884459672,-1.4420488709934571,-1.4875098169222771,-3.279015943820566,0.0687547245370553
159.0,1.0425263367518072,3.497029927079332,2.454503590327408,-2.2434469532462438,-0.6528037840724075,2.997819729872701,4.3751941178154645,2.8709281381212373,1.4347503918581714,-4.569462392333206,-4.942781456002027,0.4109960824003448
160.0,5.19314908260294,5.977513635820347,0.7843645532172916,-5.636181511565523,2.183583077349218,3.40790262366467,6.144021837666968,2.9315204415491958,0.8995199846904753,-5.358612978612438,-1.7632982783385627,4.158086636868326
161.0,-0.9882651006330732,2.823319412376163,3.8115845130092127,-0.9659849522190838,-2.4158698567737025,3.3531205545081257,-5.466093828715923,-1.8760327909753862,-1.8359648847046737,-0.22574255739385896,2.5274853882183415,-1.6253254314019883
162.0,-1.9156550539589996,-4.388798796200383,-2.4731437422413016,3.1852793225134937,0.2668439838851532,-3.463984559394903,-5.0834249808901815,-3.8915255205388797,-4.2312916265527045,1.8718178566925734,1.36874367049304,-1.3304621783102968
163.0,2.0292363104462896,-7.222733908117672,-9.251970218563825,2.632500372911667,5.630929995707464,-8.262130841020086,-1.9743583054365619,-1.738748421589764,-3.5065108817554407,1.0766997714711928,0.9333513518971561,-1.5001062523222013
164.0,0.47892632954737935,-1.3786531707351526,-1.8575795002824376,0.48766858134845337,1.158315035751489,-1.6390747402018642,0.12312649455870717,-0.21037454810759837,1.0395475332319908,2.365753490187383,1.0199636491607709,-1.5299286941505112
165.0,-2.3223399760551686,2.2144986715319552,4.536838647587169,0.01362559351050785,-3.3637274685615504,3.3532452371363313,2.425347799320046,3.9500887153661286,5.12310934303339,5.615559424158146,1.6375498201668282,-0.6408764812312044
166.0,-0.39308129831037664,0.4940951021285549,0.8871764004389315,-0.09213033818504873,-0.6583702277358214,0.7413175621554795,4.3137475715146145,0.788089792413692,4.243156982223764,0.03256035151469927,-3.293958068814306,2.4985375992500427
167.0,0.6329936325606313,0.9219223940279277,0.2889287614672882,-0.743495579455738,0.14680800849374265,0.5699894654362363,1.9122940138792064,0.7106728037338543,1.0330573482421288,-1.870315577256102,-4.198799034259271,0.8327559263021697
168.0,-0.568667863586906,4.890976364254023,5.459644227840871,-2.209814861873637,-3.0466743648559813,5.212194142440773,-0.00815718079361094,2.150842283942824,-0.9383478911940053,-4.161656824991887,-1.381203543276274,2.4518224696851725
169.0,2.4499880104212446,3.4716965053769973,1.0217084949556714,-2.9335091054819546,0.754539210899092,2.2798508579153354,-0.08665157350505193,0.9245839788991788,-0.5154191961787924,-1.455581758631685,3.085448672004337,2.2279359172195905
170.0,-0.9841006377745065,-4.050183422533326,-3.0660827847589185,2.5446071579311904,1.0000658802924187,-3.604528303884421,-2.7107531423384024,-2.677927359879153,-3.4460176140316943,0.9742828398521408,4.1340223730016765,-2.658805058875317
171.0,-0.2387613134929496,-3.6529998337700436,-3.4142385202771783,1.9772522608478473,1.6273575057606786,-3.5002852058171205,-4.886460127792815,-4.005398623783225,-3.6999926782089942,1.8212433780309905,4.310794535499221,-1.6753210418725484
172.0,-0.5420787198136836,-5.840470030119591,-5.298391310305975,3.151115656832417,2.4237116973190487,-5.614018903699652,-1.751946631104581,-4.591586943522886,-1.879451634664073,-0.611498623485496,-1.039956838345139,-2.3852589834147833
173.0,-0.45474129875849106,1.061187358910617,1.5159286576691633,-0.3345356705560678,-1.010201045615487,1.3215969975477155,2.429206859524099,3.021614915025007,2.6940365500663965,-1.1777387320960517,-3.9750683016378763,-0.35760205679535884
174.0,2.139888220593152,8.543148489038238,6.403260268445214,-5.285935908294169,-2.148607468312235,7.423462874013416,2.3587774165349145,3.084375444871844,4.326972025338342,0.4071707297535214,-3.2839755856847974,2.1621961211716663
175.0,-4.475721745511459,1.5748662997166116,6.050588045228237,1.4324769475913164,-5.275291828158408,3.8349832958942125,2.8695998616474214,4.683404711613383,1.6633001870110111,2.650713139297986,-1.1443472271878248,-1.5814090741845743
176.0,2.777366577111178,-0.7774290358984302,-3.5547956130094676,-1.0171055515014347,3.1538659529112376,-2.1521714370327207,2.3826371451475916,0.33119493644547227,-0.5654333839262138,-0.45890626227995757,-1.2864938642119201,-0.9318423479075331
177.0,1.8778057156705787,-1.5117253147899294,-3.3895310304604562,-0.20406122837806184,2.616498806198499,-2.4449252876860506,-2.9232751259451044,-2.447628842769374,-2.159265632663905,-2.0208112855585236,2.9513724711038027,0.18770930068866554
178.0,0.7941009649455963,-0.1892818289586624,-0.9833827939043664,-0.252279249339456,0.942082314589517,-0.5872133789056528,-2.7163372237126095,-3.781385478892939,-0.8265335481700491,1.5224502528538364,3.6115377487250107,5.9331930869936835
179.0,-2.0642753687151707,-3.3320942340952655,-1.2678188653803173,2.6602517622981336,-0.4326407335539898,-2.304618228205171,-0.6247677471526902,-1.6313408308743795,-0.4856056723387363,-0.8239331143273274,2.055312783667954,1.6340001266213948
180.0,-2.7215849524242692,-4.653299510688657,-1.9317145582646338,3.7197039939347745,-0.3578227070550697,-3.2975376271010965,1.1304014439912886,1.152900240322115,0.745030933672945,0.009139363978039328,-0.7672344466774017,-3.4110853772074474
181.0,-2.650593349060739,-4.797468622701341,-2.146875273640742,3.672024873286454,-0.2971811286225069,-3.4740352852830343,1.4819590872577233,2.6369061107623013,-1.4133494639165938,-5.32715369081833,-5.635050418791265,-3.2924840821314394
182.0,5.086219749068714,9.884910994684311,4.79869124561563,-7.459871446875567,0.17757597921522472,7.346383715849467,1.8030603138413108,0.16154537092906351,1.0075084894544784,4.312762739999071,-2.786680498163606,-0.4336846685963067
183.0,4.963810239109295,9.58113222726022,4.617321988151004,-7.243283297071279,0.21077044726059135,7.112961464403581,-5.115734343961021,1.3080177152906372,1.0987078559786039,1.117764922855661,0.18186791530725976,-1.095355493138929
184.0,0.7661522637598708,-2.343824526008338,-3.1099767897681483,0.8246344497103784,1.9022773273702254,-2.780933865944826,-0.27573419062741866,0.2602072440577703,0.04474066427829687,3.7333601913166663,5.675063996468339,4.035398847385151
185.0,-2.421642597717753,-4.686267942363279,-2.264625344645536,3.518215785483238,-0.10891979213553626,-3.439115838838323,-0.5649349249932192,-1.9851226080655342,1.303580698511396,3.767076027602192,7.157631987279202,0.6242354788324884
186.0,-5.298067356026348,-1.2809955475028794,4.017071808523442,3.258965405134115,-4.683924656802536,1.4150998254296328,6.859690984885921,1.3778561393988566,2.940809907012376,-0.8057084034054767,2.262419110554748,-0.8099314316971686
187.0,-2.704392103329331,0.8048673584168156,3.5092594617461375,0.9206782289053859,-3.0521041132143307,2.1335619718914023,-0.056687859769943394,-1.8068030281069305,-5.747120534011042,-11.212585162372985,-12.09710678777826,0.9448295434042078
188.0,-2.6459578637440444,-4.093069223060143,-1.4471113593160823,3.417002034385705,-0.6225980044120996,-2.7893242745003164,-2.6782936589731126,-0.8264712982442637,-3.503768899446737,-5.115265019430486,-4.5309924062003795,-1.3666013520303706
189.0,3.3564302055859043,-1.9895251970944114,-5.345955402680275,-0.7189099490887174,4.406595255599889,-3.6871370950004234,-1.3260266290754816,-0.17223641210487914,1.9904770578549422,5.713018732556764,1.2544729888791264,-0.7154415889041091
190.0,4.743311386380081,2.8011353149335703,-1.9421760714464806,-3.7326787474283636,3.3184618667687182,0.4062190630992344,-1.024858767659393,-0.1874253071732725,3.400090458441492,5.890970648220533,3.7076438755948757,0.3324764924934061
191.0,4.723730669096856,3.785211461021727,-0.9385192080751426,-4.29479533394984,2.8051930135536867,1.473082696631698,0.37417817441440415,1.27803948810629,1.2202802231702174,-0.4482527205204896,5.094961285304468,-0.1187221048132499
192.0,-0.21705018295697887,-2.0395482390231563,-1.822498056066192,1.1691388447195097,0.7744595697757319,-1.9654966369546103,1.3480926632163075,-1.641965463085307,-3.089859401470854,0.04149870607542816,-2.6600944515175358,-3.158396211457587
193.0,-6.308330196160691,-2.6697884034207933,3.6385417927398582,4.5349802677397895,-4.925784834388576,0.5251000980769907,-1.1189564960071585,2.254085321586814,0.06280195833166868,-2.0630565037776663,-1.5732114407524702,-0.002537500255336722
194.0,5.2191942746062265,8.359330175984361,3.1401359013780286,-6.8167207132679515,1.0053328967848056,5.789172965373034,-0.724551107465081,2.565464050754415,0.48856498618067984,2.2277967144090027,1.4454416933348258,5.543804798815772
195.0,-0.9214392547533319,4.758137408982667,5.67957666373585,-1.9430456354553993,-3.259275470788933,5.179577061037891,2.1807030702997263,0.9735751220473481,5.537611580581671,0.6139892572792702,3.54150160511838,3.6112268092690645
196.0,-6.256389452944786,-4.9769671404666855,1.279422312478029,5.590058424181948,-3.730530227537791,-1.8883922936382236,1.3314706118542137,-3.512654386450329,-2.398445538420285,-2.668834173036714,-3.848520994442217,-2.875278307016864
197.0,-3.281204900872706,-11.40205978472566,-8.120854883852871,7.308176675678064,2.373581914945408,-9.724521181242373,-2.080847319977941,-3.115933326729561,-7.0907303082872275,-3.5139497226232876,-5.07300020723012,-3.684745298312876
198.0,0.6178428495293302,-6.043899650627485,-6.661742500156681,2.748357774553909,3.587511635923931,-6.39920005887733,1.5638427748466956,1.1750026708839623,-0.011248876182785139,0.9587006795464343,-0.9363810615700776,-3.902665161302447
199.0,4.7594180361460126,5.020146338981045,0.2607283028352021,-4.8645396093621,2.2692027133575228,2.6665779163532055,0.29655725572948344,2.821160843066909,4.073727866636148,2.602042398740489,5.853360404105541,0.6680647425502668
