Time(ms),I,II,III,aVR,aVL,aVF,V1,V2,V3,V4,V5,V6
-200.0,-3.588403285424836,1.2871704364649288,4.875573721889752,1.1655169853662777,-4.177009646675732,3.1175283908306213,2.9160549881167657,-1.076980817177791,0.45178358821486886,3.896863428750281,4.278768566077656,2.790536888300572
-199.0,2.422159046975958,1.010998850811519,-1.4111601961644418,-1.698538245065418,1.892896971234188,-0.24218522050899272,1.6887488149819396,0.7722837891665588,0.9311240273606061,-0.8952540757419165,-4.7516876488196305,1.520873258519818
-198.0,2.423483843378925,-4.571814654641768,-6.995298498020683,1.0998869191477858,4.684728709107757,-5.826320703625271,2.2750263481391726,0.6099766705746277,-3.186156807522496,-5.3866167091412835,-5.383643683137915,-2.8294309979630037
-197.0,-4.920262649033617,-4.40224399288115,0.5180186561524796,4.697489273424244,-2.6670233159122,-1.9082221929601206,-0.604009685472065,-1.0961920031793249,0.588303579787234,-2.8764930830274578,-3.157360788873698,-5.571170907575227
-196.0,4.50407426576511,3.3223398475489825,-1.181734418216119,-3.945158464950768,2.813044024700902,1.1008861345729253,-4.071194869393846,-0.8390348187143288,-2.4195270227047665,-0.013596951722759654,3.317174168283528,2.923268780255369
-195.0,5.534123793697741,6.942404973784921,1.4082811800871837,-6.2625281738759275,2.1071826997157532,4.123273635845797,-0.8135880984463235,0.7161651121140478,0.7770161356709995,4.23214723703931,5.521156717165722,1.8915533383166563
-194.0,-1.4558840698028512,3.1265782764155188,4.582462346218374,-0.8566717117006255,-3.059555184172579,3.877418282252151,-0.7766210783955835,-3.6262759753981832,1.3360197595783785,2.205513621145185,3.2746363486114363,2.9440153112552143
-193.0,-4.181993033978508,-4.2681362470584805,-0.0861432130799682,4.20191024011811,-2.0947850926239386,-2.1573704425839084,0.9594953803326378,4.196455072776623,1.125733643704553,0.2623201125197161,-1.8443784622199408,-3.086399611766531
-192.0,-5.425970261532207,-7.929897372793335,-2.503927111261128,6.728726194612013,-1.434932219572581,-5.199414580108003,5.391603927781442,0.8397264994186642,1.0099620126225592,1.2132171047107712,-2.72630305678289,1.5527883408940062
-191.0,-1.5337003157068856,-1.5730612291395358,-0.039360913432646916,1.5203880407488524,-0.7247239412550673,-0.8689606190382086,0.4133500593041428,2.1562609138977678,-0.594321155525147,-2.898910878371465,-0.3290472051859106,-0.013934157183583873
-190.0,5.2885240576374555,7.047918342468883,1.7593942848314321,-6.12530214832782,1.7865837553325765,4.418751464991093,-1.703709709995108,-3.1161303270453775,0.49382995154885206,-0.3024322201054752,-1.0038236801947542,1.429395004046445
-189.0,2.775721300774323,3.3880257487203047,0.6123044479459824,-3.0385079076810975,1.1066583270432655,2.014835218583176,-5.056812516849462,-2.456909150417705,-2.107857468378583,-1.10823765011032,-0.606912318518158,-3.7535206681410163
-188.0,1.549460728968706,-1.4553390524485899,-3.0047997814172946,-0.07928225335113703,2.2288331597701716,-2.2153395085498073,3.339939566613181,0.3029526196314756,-2.925594448698341,-1.2974550858314786,0.14651714615318973,-3.013656421481177
-187.0,1.4978503857564416,1.566720967803093,0.06887058204664509,-1.560348492332428,0.6730253399332801,0.8331670117939531,-4.219332208324477,-1.4749840498232576,1.3776192935578753,1.4184373101427257,1.0535400932838903,2.8318929777674846
-186.0,-3.783824873671099,-4.553457747975898,-0.7696328743047981,4.1438358688999815,-1.4627657474815823,-2.72348855351595,1.0079483626106347,4.615736923093458,2.8490715456666966,1.7602830195600039,1.288518886854614,4.312329203903834
-185.0,-1.2026727163101747,-1.183800965702446,0.01887175060773172,1.1695573511587338,-0.6386311585876476,-0.5630418580454957,2.21674528769879,1.3021494059697456,1.1013077650204137,0.37976856747815235,0.4513240243349639,-1.9440444614083194
-184.0,0.3960795432236299,0.18786512283974643,-0.20821442038387183,-0.23821355390170296,0.358751749470938,0.013546080573654244,3.7272628831299452,-1.5454784132220396,0.12371045572032724,-0.134217964243313,-1.3294820437227797,-1.9304575791516747
-183.0,-3.681704701062656,-0.9509209177835454,2.730783783279125,2.3666337559059114,-3.22380257332557,0.8412258533517223,0.681111718555276,-1.2357164008125205,-2.118819681565726,-3.0237542498946657,-1.7127456339552298,0.09207088690475734
-182.0,1.1553541907920906,-1.3355383030042034,-2.490892493796281,0.05658761505731354,1.8086988625434164,-1.875031818417088,-1.4069987052620465,0.949849276774485,-2.164954076905944,-1.975387026720951,-1.079348887585427,-0.18232295713143154
-181.0,0.66757610295063,1.6436048345728616,0.9760287316222351,-1.1952974905370812,-0.16726569611228848,1.3569156570098566,-0.8734217046253385,-1.2760792877432083,2.1986973579149307,1.971833234012807,-1.6522439920619236,-1.8033480380070688
-180.0,1.8850252541847392,5.184897523566347,3.2998722693815994,-3.5025475779277295,-0.7209381264964791,4.218666009519957,-3.0631264404867653,-1.2001720650220196,-0.6540470527163703,3.3637734281782437,5.665706036227684,1.8502785429877369
-179.0,1.9311207417034293,2.841033502423926,0.9099127607204764,-2.438403926743324,0.573643719680868,1.8568283284004958,-2.567029978333573,-0.04395134249872701,-0.6109621187530031,5.383434448278445,7.396547786737537,4.447689827104368
-178.0,0.05220657290621422,-1.4633483046063624,-1.5155548775126018,0.72792770094643,0.7646147290897558,-1.5069742359612581,0.7508961357555344,0.8798840265071182,2.4920176587402967,-1.5126932399379405,-2.8522061495626763,2.1559106072786585
-177.0,0.12755558088537722,-1.797446140224208,-1.9250017211096035,0.8561644593271355,1.0026546419511693,-1.8811816699744932,2.3194870453969774,2.1537873693076173,0.7401873056241177,-5.590020351865468,-6.598098603910601,-3.906965518713728
-176.0,0.5115309801326786,-2.280114053215947,-2.791645033348626,0.907442189055605,1.6235748680722992,-2.559908235433559,2.3335729313158757,-1.9993741528777214,0.19325261244359548,-2.9532227441399397,-3.283861595606192,-1.8501004751478674
-175.0,-1.5769087223435654,-4.885571074869141,-3.3086623525255625,3.2584197006255478,0.9131095363077392,-4.045423174957006,0.7311353121997188,1.9146709737566592,-4.759741948054492,-4.197115408210696,-3.0459633299285183,-4.923437440313518
-174.0,-4.873921381176453,0.444838714585702,5.318760095762174,2.1673687772642536,-5.129682543653171,2.933707728701803,1.0464883253341066,-0.5917646933009874,0.4485083080139689,3.8550677519251746,3.6874385564046124,1.7988468021155857
-173.0,-1.6219433701904526,-0.29580402717689047,1.3261393430135717,0.914815012832201,-1.4284895971428637,0.4924531630415645,-1.7163733861203458,-0.451579787944935,1.9119880580404218,2.087464784628237,3.053604073474962,0.7452439615900435
-172.0,4.156811771758623,2.6855802744586867,-1.471231497299938,-3.385420644639841,2.7824542138788875,0.5913476945273237,-1.7965239158353388,0.36711682304409676,1.6544213221288226,3.6002520091659056,2.575675906043356,0.297785943545285
-171.0,2.7181294129349647,2.7380073465346504,0.01987793359967327,-2.771526099651908,1.3982507350603952,1.3703684239261553,-0.8467222506779455,1.2139729336673073,-1.2965721228505804,3.27924602887265,1.669956717283356,5.6334773619587954
-170.0,2.1087569047223393,6.803236115233216,4.694479210510869,-4.421491412666499,-1.3216419918080726,5.745335908930079,-2.029084077719378,-4.11776090372477,0.5718903437603995,1.5157005122417986,-1.3557814969860553,1.8919844973672073
-169.0,1.7907467352536117,-1.046924356653729,-2.837671091907331,-0.33728181149711856,2.2842086114906373,-1.9446720082078333,1.8217298432739428,-0.9070612266160354,-0.20337124603288126,-5.313483108916821,0.03135330258884972,-1.6051161355433927
-168.0,-9.564869225655352,-7.091671489026616,2.4731977366287436,8.364359770306336,-6.052286796679661,-2.3146357003536653,4.70630652366241,3.004566273296099,-0.05032286833176047,-5.129278165365592,-3.8468111641566654,-5.308150555623024
-167.0,1.411936095372389,-4.326891158657515,-5.738827254029923,1.4170846865368891,3.6166886990648734,-5.044313696656123,-1.8717132481467669,0.7780449126200482,-2.28971933774743,-3.3576148428952126,-2.341117967815679,-3.5700293995281034
-166.0,3.53553505056842,1.5695193354577337,-1.9660157151107152,-2.590819069360805,2.788615435440907,-0.21682667921752152,-0.1070940821687191,1.7806499160921834,2.095673320718956,3.141834522968065,1.7727926406362515,2.6925936878228685
-165.0,-0.4836291384892455,0.9924933318396039,1.4761224703288274,-0.2914414403308223,-1.0221133382487089,1.2881649024312751,-2.270631688358989,-2.3304855037632786,-0.03464991247596083,4.766087068708187,1.9325523586622384,2.5587433446958494
-164.0,-0.8337721388944856,1.657788807679239,2.491560946573726,-0.36969377602860776,-1.6248275065537987,2.123997855528356,-0.28713641388023103,0.01679921023165598,-1.0017078068124063,2.979329107464828,-1.3826150079103572,1.996966096035357
-163.0,1.257573799949498,4.900493965895228,3.642920165945746,-3.0361700898394806,-1.2302079045089487,4.239306659661423,-1.1645717097770163,-1.573568422766987,-0.05529103995342717,-1.9379319294697792,3.0593218747548425,0.5037340632150114
-162.0,0.12316256095203054,-0.8522163303676358,-0.9753788913196457,0.32983646056215976,0.5944355419805007,-0.9485617112512159,3.698371607347713,1.1899583214247376,1.7979280090716916,-1.6473369331998222,0.17514790234558508,-2.6146308116881114
-161.0,-0.007627612238091087,-2.9300220311144636,-2.922394418876355,1.514898888834555,1.4265309872816614,-2.9634837667050986,-0.9014340399257819,2.2277482693792177,2.4109022770754325,-0.8281696067520383,-1.3662891350522997,0.13129709552807456
-160.0,-0.8977009361190972,-3.610410437879766,-2.7127095017606493,2.2238393418613827,0.8767140713919402,-3.1225464217173893,1.1218377315378951,-2.677063739686263,-4.01951938929064,1.0071121560623708,-0.15207113368654246,-0.42587123725835646
-159.0,-0.200431870410465,1.0140086690016787,1.214440539412158,-0.4346683191794112,-0.6626941830004941,1.0733132870395055,-0.6615707742266606,-0.7454689942528433,-2.680705416785718,-2.862665955040022,-2.4628561133741917,-2.203907474459368
-158.0,-2.946806869773306,-1.661514161988371,1.2852927077849559,2.27815152540038,-2.156131570168417,-0.14854129120566434,0.7776426610505426,3.480367924421814,3.5950497470463763,1.0693649727111483,1.0576822630363396,0.7159166374991293
-157.0,4.273870602605993,2.959037013146678,-1.314833589459297,-3.562281724722255,2.825387064523499,0.8673181992788721,-2.1505029803163174,-0.6584766326103275,-1.4263794983298346,0.38068156754763555,-0.993165244721544,-0.0743185738487327
-156.0,-1.5235267783897553,4.604774016994226,6.128300795383984,-1.5640526167649067,-3.802290819728555,5.34220332630329,-0.4248393796158132,-2.193482088537601,1.7318007666900372,3.300936334948714,2.3319696003447308,5.855483711676681
-155.0,3.5719425765609802,0.2125552915390878,-3.359387285021908,-1.8361543582695001,3.4051644608026566,-1.5868623169511507,-2.2617508414052283,0.1502462673622491,0.6673178901525869,-4.1706519164713285,-0.9279411201083743,-2.5172657855611633
-154.0,-0.8279624507908208,-1.6367878977127608,-0.8088254469219667,1.209610271679948,0.006792057715097721,-1.2264834666328683,2.921776041897685,0.48144397614797607,1.6629952153756329,3.2924792314562916,3.4629890447128653,-0.8060577472255391
-153.0,-5.045056388988228,-2.5034773600170572,2.541579028971152,3.749833994002078,-3.7746420616342924,0.02121920784618636,0.8154480644249216,-2.46144393505526,-2.555841489926971,-1.003829482923829,0.19423173387871373,-0.5880235867496738
-152.0,0.9342546237656189,-2.923734508701842,-3.8579891324674547,0.9667511341515391,2.421041641902848,-3.3886487998127537,1.9164899648939149,4.8881143333663095,-0.30644490571551064,-0.7782928546262812,-2.9230504829905897,-1.1278181176330304
-151.0,1.333678106719686,-1.0453353001717787,-2.3790134068914424,-0.09841868531133335,1.8113608882710637,-1.7160350203931856,-0.7183834466087508,-1.2543827654893338,-2.30766171073472,-0.8434717718618985,-1.166049299425425,0.2979477627653261
-150.0,2.141339471420335,2.355373538535746,0.2140340671154375,-2.2865872065281088,1.0067529067472631,1.2700743402368966,-1.2223566281039753,-0.9469885796562547,0.7100647991122789,1.1160715229001616,-1.6413275044992837,1.1905259011540084
-149.0,-1.0498858998816116,3.6602967574435077,4.710182657325138,-1.2685242327721262,-2.908190922801519,4.157991079784993,-2.60492838713423,-0.30699427936113255,-0.3045654999250109,0.8574815235666309,-0.1083392847365382,-0.9801826441023748
-148.0,-1.8060504671121138,1.361073331639865,3.167123798751981,0.17935143432785794,-2.5109705575907357,2.3046130021871845,1.260464102389437,-0.4791008706104981,0.8945593053684893,-1.551731208500925,2.279313527226332,-1.0987846556552077
-147.0,0.1280051285899324,-1.4870058872992822,-1.615011015889233,0.7173279025679764,0.9250623640767024,-1.5167699411312252,2.8393435115182495,1.272545731184723,3.067750428716483,-0.32766887195425143,1.7129459704161338,0.46066959517897527
-146.0,4.977245292777308,-1.6922294535649844,-6.669474746342326,-1.599870614141358,5.793194537930012,-4.225182368548652,-2.509641540992517,-1.4978519378205706,-0.6973633003200672,0.8873531778683895,-0.6556350854289508,2.174731880562295
-145.0,-5.472233067086627,-5.204259089517324,0.26797397756926866,5.307786322039586,-2.907741594985525,-2.427128329902607,1.4217840701580888,2.2127591387734893,0.3065454838915659,-0.6126586793727308,0.2747439846356517,0.3665760997864178
-144.0,1.4563152725073631,4.86480939679344,3.408494124286054,-3.186694147188639,-0.9424917670520636,4.11023277211539,-1.5489315462083741,-0.7006461678125002,-1.6112406810273583,-0.8064660696610001,-0.15813687302852622,-1.2149196678212097
-143.0,0.3741667082056511,0.6443924480064711,0.27022573980081344,-0.5340854512528516,0.08056959842591238,0.44418693211210725,-0.9457874511597311,0.782084669824878,0.4763294144853849,4.410295869180899,1.3007796676561636,0.2696555296572595
-142.0,-0.6378445817262597,-2.3495238564520893,-1.7116792747258094,1.5454869895968235,0.4861203883032857,-2.031483929193946,1.595936722403414,0.11985035099743602,1.136810364616435,-1.8880053453697485,-3.0056144556847553,0.4973840020378564
-141.0,2.656932292114286,4.18151199144298,1.5245796993287206,-3.4508483855067418,0.598303399382218,2.8606642071943433,0.17083520904234617,-1.6961829999931468,-2.9967612260631107,-1.724053965568941,-1.333504346939138,-1.557461196218461
-140.0,-3.6833332932605876,3.202610190219615,6.885943483480222,0.2034254138243068,-5.244658033293536,5.054750899453273,1.4257301998004273,-2.571116065430424,-0.8963555706149359,0.49526172092215637,2.389804893424315,1.9513834198367956
-139.0,0.49138387092837876,-3.3424555082256147,-3.833839379153992,1.4634484056818562,2.1329121212468536,-3.5813590286010157,-1.280821304716055,0.8353103654232115,-1.1802522430151676,-0.869771916818558,-0.07899453752626406,-2.926854021025747
-138.0,-1.4951455023577973,-5.618717145875785,-4.123571643518013,3.593571016786753,1.2917855856244722,-4.874322603369147,0.9610792286034116,0.753979655256706,3.078940102270182,2.1442542078267346,1.2086939938618275,0.9922851778307131
-137.0,2.306831412189341,-0.7756610780443967,-3.08249249023378,-0.7278172073356055,2.675141043940175,-1.9470082579298058,-1.5263384725309632,2.6118016634927717,1.1488387315430757,-2.2781769606658315,-1.70203859171408,-1.6267063858532156
-136.0,2.308842526514252,1.2486402497432463,-1.060202276771049,-1.817771948469113,1.7410254413257245,0.05936133331933968,-0.26824539293581995,0.5132111942629929,1.3643126515531692,0.5616370341887597,-1.151084970024825,0.0498229106107375
-135.0,-3.8574921379552136,0.6620673651575364,4.519559503112725,1.5593920493827067,-4.218686944347224,2.618871111709922,-0.26669158064039844,-1.4046385928763714,-2.8163121457047033,0.19201840177596377,0.593990218192233,4.52232464481043
-134.0,3.441009436399302,7.080440697345425,3.6394312609461306,-5.300963582850033,-0.14042893797752365,5.376333099081482,0.47562699898248495,-0.1581811468410711,1.510605929864595,1.8917229899715258,4.069582318161688,1.8412519203375084
-133.0,0.9776203116491831,0.541395364120854,-0.43622494752828267,-0.7254915656539445,0.7333211799050654,0.06346093486831483,-0.09529232252410874,0.7778466781014761,2.0130231006965777,-1.054356081801787,-2.048361071877107,-3.088979122446025
-132.0,-2.6040378085015057,-3.4477539719957813,-0.8437161634942054,3.054271391398527,-0.8618093314980112,-2.134006001782992,-0.5663495623482848,-1.0457241663837515,-4.925495225679931,-2.1674086388473226,-2.986100914452973,-4.32172832525952
-131.0,-2.1244423296987303,-2.801666781486927,-0.6772244517881185,2.486723058654453,-0.7079641264655462,-1.7219460753066427,3.429459204278654,-1.1372540445086945,0.38589688809511014,1.5301306371014143,0.5642491050672256,1.9003269568675387
-130.0,1.242232147481498,-1.1670518521426856,-2.4092839996241207,-0.09461960613286213,1.8446861408549746,-1.8411980673851414,-0.18314587630184231,2.08836714647491,2.6030634184783583,0.8594653767182162,3.8042925937515566,3.980232904087593
-129.0,4.140073836656074,-2.787242216663425,-6.9273160533194815,-0.6529549048346595,5.482110839892688,-4.902140150721497,-2.7508474710570336,0.7458039350416702,1.4968129628297517,0.48725882807628607,-4.203425003923658,-4.2092354139456845
-128.0,-4.1265624229707605,4.364202710795298,8.490765133766022,-0.09014307319617088,-6.270490917206306,6.467713923529585,-2.594656181447897,-4.386701550820583,-3.2854787723390606,-0.42093818718096426,1.5313458805925289,1.094924729532866
-127.0,-2.215939808228031,4.263632339110268,6.479572147338224,-1.0664801389224987,-4.3770396136982805,5.415509646423873,1.7746940055418097,0.3736309352343119,0.8680544474647154,1.917557865825171,4.774656235956748,2.507909950101209
-126.0,2.7349055429489093,-2.840519498294266,-5.575425041243268,0.09666934589291754,4.13545492434031,-4.241922407828817,1.2536985551784379,2.6655187857560545,-2.0623685151097955,-5.636561356839587,-2.5985088950779693,-1.028830113576257
-125.0,-1.813507548199234,-0.6595408241664396,1.1539667240327058,1.207680926208984,-1.4967318345853482,0.2904183651467196,2.42937218648516,-0.2355625148729894,-1.0345448797232735,1.0501989692835478,-3.0828109733367213,-0.8865406204790974
-124.0,3.576415820504011,-0.37161883701655646,-3.948034657520617,-1.6283900416565145,3.8315051188533027,-2.198818316643494,0.33020059684932423,1.8169381165337861,1.3117741275755137,-0.27957226457512646,-4.557644250265816,-4.781544410103357
-123.0,0.9114911353245554,-2.8367340013399853,-3.7482251366645354,1.014528466872493,2.3208498908103916,-3.33571695492284,-1.6892688425413704,-0.8091534252897414,1.4349674757537831,-0.39192960282214384,-0.3265528322359603,-0.9453536505672713
-122.0,-4.204037012870449,1.387185955036441,5.5912229679069405,1.3776611542434603,-4.908933564335206,3.5211238729150787,-0.6919704294708936,-1.6239658438580404,2.4921525874189627,4.323705370238776,6.198308575931097,5.377646570615464
-121.0,-2.2988297747619315,3.6706010901036223,5.969430864865647,-0.7220515705450966,-4.150014643798086,4.850506604882431,-0.8504977483421419,-0.5187249634875712,4.053125670113014,4.5345914928656965,7.02404314957561,6.463581537835001
-120.0,5.469165807905579,-0.17836394890155316,-5.647529756807041,-2.607650207674055,5.5364165479336656,-2.959489573585556,-3.4835529875037308,1.143598430418626,-2.7318883514530183,-5.184553794047723,-2.7936577214524614,-1.0075544826902942
-119.0,2.7753106681943116,0.19082740028893497,-2.5844832679053322,-1.4477583664219376,2.7304749120413185,-1.1598524417126412,0.9487866506699846,-1.9737261049556964,-6.016734620579223,-0.7526274049828028,-2.755264316861602,-2.332978734951506
-118.0,1.205660704106562,0.2937019444180034,-0.9119587596885919,-0.7921917234584344,1.025766265839367,-0.26567040658686325,2.6672493581613708,3.191097754514131,-3.1818850860488106,-1.684443594264082,-0.48051695030813146,-3.030864567027236
-117.0,-3.233294226270299,-3.0170439079118503,0.21625031835839725,3.165529594514126,-1.7598897197947776,-1.42968476447994,2.0572423681642045,-0.7191776657212303,2.8956244615237403,0.06620535946395134,-3.6448729281691032,-3.7318409770974466
-116.0,-6.797716722514227,-0.27325413976146806,6.524462582752699,3.5032149814339775,-6.615995568672582,3.0996718839948203,2.7981486504750883,2.3280172226376403,5.4302283414117865,1.1080176986129326,-0.4724919442224156,2.8184178194334013
-115.0,-1.507828521776744,-4.792797103827515,-3.2849685820508423,3.1244101788389878,0.9382440405782526,-4.065253585932206,-2.0166254097313177,-4.197111914363223,-0.8219723616476498,-1.910818573769662,-2.2418486107617794,-3.329057724886166
-114.0,2.1807250936466174,3.022537053532706,0.8418119598860376,-2.5439152963567793,0.6464181778238625,1.9020233789348304,-1.1446672827274416,0.7487830513529867,-1.3750131216772732,-0.7385451374701569,4.016479907963526,1.603251375421073
-113.0,3.6087593519852894,3.734439812205575,0.12568046022028445,-3.690542580080411,1.7235897129139217,1.9733437126086655,-3.814972868338364,-2.1481091222337,-3.651533763945069,1.8256739075846937,0.5238562929753372,1.2904330060698093
-112.0,2.592357127187533,-2.2309276553316386,-4.823284782519137,-0.20084247754459916,3.6918254337195013,-3.488470056692988,1.339113570558479,2.7230037803241753,3.4661467386658877,2.8238833157429752,2.510974363810945,2.0887623232877868
-111.0,5.566387273082489,7.818408250943506,2.252020977861076,-6.716597058867091,1.6390064510422764,5.071373506891964,-0.28461060877354694,2.7008162585440982,2.690603083912285,1.572020317182185,4.718552650102774,5.632806775332496
-110.0,-5.807675506771357,-2.60599370623861,3.2016818005327914,4.255549927815149,-4.528562861633487,0.2551873657963809,-0.30075572884447144,-4.775480332771874,-2.8423916457191405,-1.7607829608033252,-2.354496543340927,-1.5911767751998898
-109.0,-2.9104505441657125,-3.5520386699127307,-0.6415881257470182,3.195047616772343,-1.0869317496063475,-2.1378867341466665,0.443135601776795,1.1655612641204447,-1.0508400786442962,1.4985385382878063,-4.418517070506483,-2.933057266790786
-108.0,-1.2265590186172912,-2.413009296025518,-1.186450277408224,1.8570762968855181,0.020624842286807832,-1.7598046107758045,2.618945492054471,0.5225776617218478,1.8793824759448576,-3.289844692271718,-3.016304835125064,-2.40055751677228
-107.0,-1.4904687653728612,-0.14185216234855114,1.34861660302428,0.8497593228707434,-1.462314205286534,0.5669910177545852,0.6062660773791677,0.5869078525187194,-1.1501718740309492,-1.4677557799963206,3.738070499842373,-1.6029200187343247
-106.0,4.822294855556805,-0.7775597975988894,-5.599854653155742,-2.0695331728549817,5.24489588280197,-3.2222428143467314,-0.21923672792414695,1.753172121271206,-1.6019485499659654,-0.7871828624122681,-1.4119763729016948,-2.447979910085469
-105.0,-4.4250587582852745,0.18423329318348447,4.609292051468728,2.072786925911895,-4.562340373798649,2.445818037056064,-0.9323529880381951,0.8456311513196252,0.7423251667865034,-0.36978691982434386,-2.1180268797803246,3.0999538480330084
-104.0,-3.5697249792706813,3.8671147304224993,7.436839709693162,-0.11649576852651383,-5.469144760225722,5.706022720417013,2.0627976202790412,-5.523359874951244,0.42089521945141506,1.8004766520413586,0.8893606302285186,2.0262971598620223
-103.0,12.04578285748584,-0.3201489525195469,-12.36593181000539,-5.8278639565967145,12.161564004572744,-6.362403635918117,-4.4223325398912685,0.6903957463387784,-0.36706338405786254,-1.6804812500572393,-3.0003129021331096,-3.552246109369752
-102.0,2.05839319291825,-2.3555569362927313,-4.413950129210984,0.10926177209747312,3.270215115892107,-3.4001402757124723,1.090823806244368,3.105720577298845,4.900791071404455,2.8953040746721204,5.6544525455686525,2.6165201432120297
-101.0,-2.482750155548762,3.4640478355730098,5.946797991121778,-0.44541635771069504,-4.260542303383659,4.690715244950357,-0.7985877343048405,-0.5451223665500784,-0.9538831596253399,3.9071475393787876,3.863820420599702,1.6282622336546995
-100.0,-2.581143928947454,3.4433215981519325,6.024465527099387,-0.4584649090384256,-4.271137449272058,4.715367620629422,-1.2488778259663675,1.2755867911824605,-0.9456887368325655,-0.1965157667169839,1.5705682690061264,4.894605909173527
-99.0,-5.377634198784337,-3.101429375765985,2.2762048230183605,4.2172035687328115,-3.7965263267844094,-0.4392910318319696,0.19263287194784579,-2.632071589064668,-4.785757257550713,-1.1345791040292352,-0.47968093371155673,-0.10919931720286957
-98.0,-2.998216770326056,0.5862044438537619,3.584421214179824,1.264873832690688,-3.2622312526760187,2.1263880688168526,1.9120478370251957,-1.0162387323352542,0.017942677910257387,-1.7235620592316492,-3.1110420508552856,-1.596687742476757
-97.0,0.7358496076460281,-8.456200571301194,-9.192050178947218,3.839027005204236,4.912637064650831,-8.794692427944307,3.8762637097110724,0.7311000602521069,-0.6568351267357648,-4.016378776921132,-7.327735424469474,-8.71380872133935
-96.0,4.373989167324403,-2.2572077967084065,-6.63119696403281,-1.0847753272655847,5.449180097215285,-4.424951507786631,-0.6362828547130193,-2.640758289890548,-0.21624497018966898,-1.9001777677728025,-3.057721342181914,-4.844070298422432
-95.0,2.1451828003997053,3.384827426324084,1.2396446259243818,-2.7997369968679298,0.47605668549956626,2.2455088317026632,0.6449763940904016,5.247166724746939,6.940972985907076,2.573648607663192,4.941530576843639,6.806478466036496
-94.0,-1.1785090742113038,6.057696733948723,7.23620580816002,-2.405182950241578,-4.185024936475645,6.655481926210401,-2.663382638235957,1.2143420484513232,1.5214100048871693,3.6925415559031753,5.975112102688428,3.4370523692247126
-93.0,2.2944806874307417,6.907746735352469,4.613266047921716,-4.575301405711301,-1.135875096499689,5.76948428623315,-4.251656125047649,-1.279209337146848,-0.38366788236362637,1.3976921373736855,1.021070515195503,2.13388426634605
-92.0,5.2644939864878575,-4.0062807310811035,-9.270774717568983,-0.6089913008650658,7.294900939927757,-6.6254248933065245,0.08668400496888307,2.0774496260450244,-5.201508549047246,-2.638149718738623,-3.7599297370761806,-2.8911803371393536
-91.0,-3.4723839441362614,-5.531527605418936,-2.059143661282673,4.441423667001721,-0.7522434186931524,-3.775116384581927,0.8301325096058771,-6.363397430508253,-4.272093087713142,-2.912322169571166,-3.611226044039467,-3.3089849585497664
-90.0,-6.372574458667293,-2.360839047583929,4.011735411083389,4.386533326368185,-5.230899325847669,0.7759968758627585,4.1353429352456725,1.1715470543758801,3.270103792083688,2.4396429831750317,5.072298409629552,4.486915813339468
-89.0,-1.8080338827782034,-1.7870545532257185,0.020979329552546444,1.8212098527596758,-0.8678650039700329,-0.8438742476768302,0.887169273877598,2.3753379967207513,2.9866315634468927,1.3689353310660786,-0.9487887411974059,1.4004348118279317
-88.0,-1.5581247634275204,2.5560780336749414,4.114202797102521,-0.4710136979953745,-2.862950153142785,3.3051029939535983,0.6642593907920432,-0.4369418411488555,-1.6485023663993905,-1.7029420760053915,-1.6650597741510353,-2.1962754467630736
-87.0,2.9039094448248757,5.464137635951562,2.5602281911267135,-4.23166484745781,0.2270645266513417,3.9904806753011224,-0.6984910307590046,-1.1252980804808108,2.2001766568847296,2.1657693493061316,2.112828717678809,-0.07275330546143821
-86.0,7.85236655335208,4.451571372009845,-3.4007951813422475,-6.198395846282853,5.603867725227192,0.5888284822156038,-4.19656207327686,-1.7424366101888287,0.46763550931670816,1.301508876151096,0.7891011707985613,0.7022351982323838
-85.0,-1.9068085836678357,-4.805088287902209,-2.8982797042343673,3.3879744197303805,0.4714556457085437,-3.8632048417875824,-1.44421812093734,2.1968552413024254,-3.8829964729914677,-1.1981908103500514,-0.4568565961116232,-0.5657198930255348
-84.0,-4.810880129307462,-5.227120811730874,-0.4162406824233913,5.050639649081676,-2.2249291357001812,-2.8326159137420515,0.15129609962148305,1.6265544258919378,-2.360187032599698,-2.6143552278668074,0.009505486506370175,-2.016968078050517
-83.0,-0.8727474950878078,0.2089479624706394,1.081695457558472,0.286014140799038,-0.9300995933852638,0.6314123317315854,3.3360760704446224,0.6269457281927179,6.287280512989662,0.765969995051831,-2.617131608257271,-0.7508010420274619
-82.0,3.9103546940702527,-0.10517753436268407,-4.0155322284329245,-1.8657904816747033,3.9277482888230852,-2.0806534645355246,0.9189352014830283,-1.4190592628267384,-1.44075935919457,-2.989884119354356,-1.8887591953489318,1.1791506223595674
-81.0,2.624098075126365,0.8334023829432641,-1.7906956921831094,-1.6854268119250302,2.2485078897353272,-0.4292234483947054,0.7286316895773767,-3.3758451099094082,-2.954682844285295,-0.8548310181688022,-1.860295564011901,-2.5294793916050713
-80.0,-5.116949713967463,2.0927863547679095,7.20973606873536,1.4844082244458763,-6.123700108060941,4.611568044922255,0.37800110296129386,2.7051252092561704,3.468125729542783,3.3080668157105158,4.701524768672716,3.902231669909651
-79.0,-1.615799852769724,2.246995420415382,3.862795273185099,-0.3363181682389485,-2.7797435013984737,3.083807643602514,-0.5784609898022397,3.2680341136031217,0.42211573225126187,1.502074390310712,2.778770749549336,2.443116407401538
-78.0,2.0274239886970022,-2.1390822769157047,-4.166506265612696,0.03949063084200829,3.0543637419581633,-3.1322566867066515,-3.0872154365282274,-2.8431607959453866,-1.344300822872961,2.8721903677490115,-2.508821522576775,-2.1448695687217008
-77.0,1.8643015219875145,-1.4320451964944636,-3.296346718481949,-0.23141554988933788,2.6131940480566613,-2.4276647661694564,0.15098427123559532,-0.23496479293139794,-0.36322406569593557,-3.0653641972832837,2.5352667216250038,-1.3902065033020203
-76.0,2.38033417145179,2.988522228883059,0.6081880574313048,-2.7015869344504937,0.8365208666538682,1.8125085025870842,-0.626181003912024,1.046604836255835,-0.1416647773966031,1.0102034965585502,0.6887301322288721,2.288615259060457
-75.0,-1.9128557028279791,-0.8973576034482007,1.0154980993798053,1.4629728570209366,-1.437519834734183,0.07670766452123029,0.8279864662498925,-2.300604858728226,-1.8825657010965076,0.32815793544883176,-1.5699162150887356,0.2525418157501374
-74.0,-5.981555708066427,-3.8568195773880807,2.1247361306783636,4.972405300079445,-4.026361080883223,-0.8406057769658216,1.5182644967858352,0.7459547143536417,-0.07693936058898448,-0.31581102304898423,-0.6666413309729122,0.29233219202524524
-73.0,2.5818467718488414,4.674191984250186,2.092345212401352,-3.658841066714491,0.27498231670939366,3.340817092057521,0.47979722392313895,-2.292182354096961,2.8086075250509115,-3.343248450953704,-4.439168718292877,-3.644915012826839
-72.0,-0.27081103402144036,0.12027161176516676,0.39108264578660856,0.038299665252408355,-0.3734442189714475,0.3038028887384314,1.5622957558425679,1.9884998722874228,1.9401088260362034,-0.8159908805150675,0.07366802698592911,-0.5001361403693618
-71.0,2.5099085136940857,-3.4749848047083116,-5.984893318402413,0.4384769695104187,4.290290737546887,-4.750273474540257,-3.1212801479109604,0.009741253352670065,-4.901771578119902,-3.0961398681099097,-1.9097025432030903,-2.8820833293295607
-70.0,0.9198172663195203,0.42325091948369065,-0.49656634683585343,-0.6442764071212084,0.6772075860974147,-0.050474425062134065,0.05877910251714735,1.8282831360912977,1.2277179541336818,5.32017762832574,5.853734009839554,2.6270054528336795
-69.0,-0.7568302098703885,-0.2034382253602564,0.5533919845101215,0.5009031392553686,-0.6847608807948884,0.16259164498645334,-0.1769664430385549,2.3337314175210633,2.152968669449128,3.9085697509753974,1.929350447105838,4.298905045809724
-68.0,2.335030502011599,0.3898518052826139,-1.9451786967289824,-1.3458138199711942,2.1077989778175588,-0.7937297152351641,1.75189191010225,-0.3124364260943159,1.496533936855568,-1.037253119640214,1.5394458366737085,0.7013339758035908
-67.0,-0.70279610749618,0.09113976649769584,0.7939358739939012,0.32149665503182395,-0.7076021854673424,0.49761273475002066,-1.4645541103268247,-2.5482713729518554,-2.37505344520079,-2.1722219951153123,-3.675158225731158,-0.34740325458497445
-66.0,-3.4995712116871722,-0.9522400774119036,2.547331134275298,2.164915838795085,-2.9895922768676515,0.7642753275783277,0.3767284382505665,-3.4825912737934535,-1.0201468915106855,-1.6682218244209526,0.05023001169546215,-1.007126761647962
-65.0,-1.6756750736269355,1.1351375018178516,2.810812575444813,0.2921049328879102,-2.215722529679125,2.0089872472747365,0.34134791454916613,0.7216820653639004,-1.698426738289187,-0.1499858691721634,0.036635794781954,-2.960893463289773
-64.0,0.46204965006209187,3.9753540250993247,3.5133043750372495,-2.1924585931644915,-1.581417406136567,3.6940614903451405,0.18366691098274518,0.6712330651713512,1.1661747514743093,2.1027193713372214,0.11692151444341736,-0.397863260015173
-63.0,4.114599842704272,3.0482784596440133,-1.0663213830602465,-3.5521819693552503,2.611211826317102,1.0150912857903773,-1.1576594355347916,3.0173276115301584,3.3007324742699073,2.22027839063894,-3.690921411458668,1.3107024649659111
-62.0,1.9457496182181102,-4.584703842889615,-6.530453461107734,1.2704211578349673,4.180475518257589,-5.534173926268222,-0.01034512102492069,0.4724099906010337,-0.6236081021436812,-1.5751612403506416,1.2595360783585445,0.4391925968208337
-61.0,-5.895978740999647,-4.8438578653121835,1.0521208756874443,5.318645621609387,-3.449869260257336,-1.948514410107081,1.4644690115795624,-2.1023591729354885,-1.741528160275895,-2.0321126630321666,0.5872603083117625,1.0988973148948809
-60.0,0.7861772020163948,-1.9176535208326322,-2.7038307228490757,0.5895873277141541,1.7748251984118864,-2.279474467805386,-0.8062446790659477,-0.6459411458374382,-2.2110484001706165,-2.190999258572285,1.6394425005894813,-1.1212723936733933
-59.0,1.2531559698953185,1.1791259438291002,-0.07403002606626974,-1.1951870295297935,0.7010897640692616,0.5900025768260333,0.5683489702503796,0.8449725274436578,1.152038985129294,-0.8801922819625838,0.18617539524713056,-0.2741435712707756
-58.0,0.7312696293284919,2.8777178984755367,2.146448269147011,-1.7836041385561603,-0.7402128824183617,2.476397873648373,-0.1297947347302778,-0.23946805717059355,2.6795629884027594,4.098118222666377,2.59299919201854,-0.5326567596187841
-57.0,0.9214824778556534,2.1480853422107122,1.2266028643550535,-1.5100665395459578,-0.17692208592568215,1.6553878689802182,-1.4039627883664973,0.3834196795217944,0.2761650348420026,1.412563956179595,-1.3979099848978014,0.36163502873900594
-56.0,-2.546504890904917,4.993750207005007,7.540255097909943,-1.270403873770745,-5.060905730604341,6.315062166409016,0.7429932576697863,-0.4502541050558957,-0.008259536249129507,3.6393079356949163,0.16734917589195963,4.99094233937719
-55.0,0.5147293539719731,-4.264798658140409,-4.779528012112352,1.9159118077702888,2.6345548787157584,-4.553729164056699,2.110047744065901,1.453446346777816,0.15310068410131347,-3.1280160414591522,-2.9976782481779294,-0.8436562469824378
-54.0,2.266270179992922,-3.1030387420623873,-5.369308922055292,0.3887927582806805,3.887084375629671,-4.269727933643653,-1.027485153317654,-0.45702518415904114,-2.1167713517065456,-3.4525977746359073,-2.6829577573427774,-3.3043621256253406
-53.0,-1.228362215585392,0.15376302500097627,1.3821252405863729,0.5134832710075107,-1.3132434492521405,0.8112345401905339,-2.4548313484051922,-2.0408383627519178,-1.8692744579733875,-1.1341083373512624,4.388056533895908,-2.956680237784762
-52.0,3.7504011948008076,-1.4650311973161907,-5.215432392117005,-1.1640683600356332,4.474678876693918,-3.2980645827085935,-1.2857607922033107,-0.4145101910781248,-2.389041136505042,-0.7394427493093997,-2.5466277943914735,-1.823565072971098
-51.0,-5.229274309202555,0.6081616937086606,5.837436002911205,2.3673124863837893,-5.543734310187544,3.1856321949081385,4.021443710766007,3.8590434869565513,1.9162451346075826,-0.875956040695093,-0.5252482742212274,1.1144309458882715
-50.0,-5.596598110615597,-0.931830208485024,4.66476790213056,3.239579463147654,-5.145190139340435,1.9069006175424161,3.0559683811352416,-1.0925986801406262,5.4104008168577895,4.579373794622645,1.853055822477977,1.8761471057716341
-49.0,4.697523498823607,0.7015505312983821,-3.995972967525242,-2.6489821136677802,4.326459363798472,-1.6885856562468116,-2.7618295707347436,0.6234863768680403,2.6301673346324215,1.1233909218328202,1.1333457901231625,2.287870407676953
-48.0,3.9690185908175795,6.2676792446750555,2.2986606538574534,-5.1502456562317125,0.8869724293878052,4.236128109751402,-3.6244981128604814,-3.227376760145832,-1.50757009247913,0.7592895387144699,3.9459547588897252,3.6575174166519298
-47.0,1.2055777731616937,-0.42656587930908163,-1.6321436524707915,-0.4248690778487081,1.3852716161883847,-1.0054218700013409,-0.5260554853931481,-0.7060213869128793,-5.192450358205636,0.5486377423943076,-4.665378013912455,-1.1753289856892206
-46.0,1.1941307176171252,0.5913396984492241,-0.6027910191679027,-0.8524268004871922,0.9377061003382885,0.009976522059367499,1.355409465326479,0.6572521443899545,-2.835859876811504,-0.4572331919843129,1.2055321229973281,0.2618235355208647
-45.0,-8.557206181601066,-4.491413316181937,4.065792865419131,6.48328614553559,-6.356029352707002,-0.20366567879496522,3.017229496406399,1.3764889241140172,1.4822343082109697,-3.9005591040464913,1.2220951877688928,-3.2111822959953367
-44.0,1.7569626791614068,-3.2439406901887082,-5.000903369350116,0.7792296437819468,3.4086642199113584,-4.116457368048145,1.1819354536124524,3.489952860317348,3.9701928591725197,-0.13949393291280732,-0.9303383794026857,-1.1470512366362011
-43.0,4.272681602274044,-1.1076104331195396,-5.3802920353935795,-1.5481544606843598,4.851602859602699,-3.2371699936626315,-2.4519266307341736,-0.1932755646161659,2.199434870058202,-1.5201094913339173,-4.161928731677353,-2.532190595665258
-42.0,-2.731615988709681,2.5868083540027222,5.31842434271241,0.027243644901548625,-4.083989189127613,3.9635882082116325,-3.425074619495448,-6.092641383611482,-5.104361128863697,2.0735337617371425,1.143054067452899,1.335809156022099
-41.0,0.9139975825355349,1.640818561462163,0.7268209789266273,-1.322866213466595,0.10718103828719694,1.1220751378538902,3.919829679345448,0.9648116398628441,-0.4615060920015419,0.4912553891127749,-0.5719644468545546,1.7208171738888114
-40.0,0.10117123120101609,2.237555836158485,2.1363846049574784,-1.1359286629726233,-1.0105030354890159,2.2099978703837317,0.7817636431492091,4.7892212327812285,5.404698082235374,3.387325362107084,1.5377960823587324,2.117989492433762
-39.0,3.9976589379994962,1.091426931432564,-2.906232006566927,-2.5106730423291195,3.453423552091613,-0.8799747073747246,-2.5365923988627315,-1.5058703186254079,-3.2923830956218767,-2.2420803959875575,-0.006763348007745362,-2.9956150307368596
-38.0,-4.000016085936709,-1.853551767045194,2.1464643188915336,2.9609576705500937,-3.075098465528689,0.1757124318409377,1.5683074613306929,-1.939157680138553,-0.47858804036680513,-0.7847675403173421,2.2082514566414937,0.5131975140570013
-37.0,-3.8536381590926414,-2.0026932909822897,1.850944868110385,2.8831096116190817,-2.8539878401668894,-0.12610788593250977,-1.0415700293545742,-1.1198713045062378,-2.967609633733339,-3.4993191361510405,-0.05588351177110806,1.1030609061248324
-36.0,3.021718311914861,-1.1002185849388912,-4.121936896853735,-1.0075632487841286,3.5743459418825054,-2.663525205630602,0.07325804565562383,0.6363211649263953,2.1238674605391687,0.4278292366640457,-4.954276974777388,-2.9451694962536688
-35.0,0.19337751234803613,0.3548764078789526,0.16149889553091334,-0.24507394002191807,0.02635542380788447,0.2827637661087741,-0.8539870569577175,0.5155553977850204,2.379516578938295,4.939608043849823,3.5065368021896317,2.240304499807421
-34.0,-1.9615994575188613,0.2596803104699092,2.2212797679887255,0.8769825887449465,-2.0707437598730865,1.2658956536857118,3.1878528779704602,4.202417863903047,3.5399913295168677,4.096729731976347,4.471166814711211,4.539261258750234
-33.0,2.943159701380368,-0.8891749643303803,-3.832334665710843,-1.0813904831065728,3.3404153920199455,-2.3308075227630667,0.020894119804200306,-2.484735673553332,-2.278407872540029,-2.8494095181916856,-0.7639623515548275,0.0893019380527198
-32.0,5.26309401715274,4.201989576896758,-1.0611044402560736,-4.707125848776033,3.202629490516607,1.6079853440646366,-3.122802240763685,1.8619113965309042,-1.8416835328071914,-5.211027081253689,-3.0845393636118197,-2.149342159504192
-31.0,-5.263896095941503,2.354452973663159,7.618349069604609,1.4844862591792112,-6.473436917865853,4.953500922792309,-1.4813006331856666,-6.8345903030045845,-0.9953746601091875,1.0091304168172008,-0.8029088711354988,-0.971977111806754
-30.0,-1.9982301163056828,0.2777166503015579,2.275946766607264,0.89697438920042,-2.1674489091125233,1.2498382942645658,1.7238389918506813,0.17369770084257308,-1.886977246073291,0.3243382132340943,-1.8509294402210341,-3.353763913128991
-29.0,-0.39783201904847765,-6.513638150343992,-6.115806131295398,3.4215097210639036,2.9055682444088458,-6.340665565060093,1.4073061628853019,3.1772737581398562,-2.7882915283608236,-1.235824772189038,-1.3268202339772104,-4.011053882968559
-28.0,2.8336815917784075,-1.2928762209003302,-4.1265578126786,-0.7980480383979991,3.5220606649251796,-2.7401698844647275,1.296324728310609,3.4157691380066058,4.032744994974211,0.21777747235069406,0.5228227765264771,2.6093986791557047
-27.0,-2.047219024784233,-5.901508108466426,-3.8542890836821098,3.950610369408795,0.8606469047688914,-4.838414050285129,0.9950737910976528,0.654450672806953,2.080317784722273,1.7761111269741785,0.37530331592399446,0.27544628517004366
-26.0,-2.243027116510165,6.4799571016403625,8.722984218150533,-2.1412616129894997,-5.531757576948481,7.630337697088863,-1.9604434236341537,-3.0610665668098456,1.4983475821974683,3.073113982349062,4.084500938461755,6.318896981147503
-25.0,4.796237841889376,9.169922989661075,4.373685147771648,-6.92826432832035,0.2373651394782823,6.790848918493225,-4.360736452005808,-1.9679741155937547,-0.4145652854564529,-1.2045305587209552,2.248639622362213,0.5225788264987377
-24.0,5.371536872272275,2.213152618058957,-3.1583842542133915,-3.7395265781612497,4.29059944141258,-0.4607867572527402,-1.8812583613122624,-0.2511373884677208,0.4628969050411925,-2.3030647264219604,-0.5963338904826003,0.10967978102017373
-23.0,-5.246683072708865,-4.165133676920716,1.0815493957880715,4.678009913665292,-3.1346557707683087,-1.6125518684036328,4.585692260355978,1.6773325695510075,-2.0269741429880903,0.07263169375708167,-1.5680392621721928,-2.1513371368799237
-22.0,-4.966240214979505,-8.522043467766744,-3.5558032527872907,6.714585508827737,-0.7466501914032572,-6.031379909116537,6.032796964045195,0.3856651758999644,-0.27051305937281,-1.1284967890876487,-2.821454894609822,-0.9712388587203253
-21.0,-1.2017630389563778,-3.746884554283516,-2.5451215153271693,2.4433216928082744,0.6408295237739061,-3.1358530421519104,-0.061747797021385775,-0.23056335489597524,0.44311457487795547,2.2146390705025767,0.20720373304190431,0.369641201772686
-20.0,3.1529183938485525,-0.19051402396455508,-3.343432417813101,-1.434763541834592,3.3072749785416113,-1.7516723427978411,-4.204942406685042,-0.8144739069215712,-5.434788930807507,-2.857863882440222,-4.295115731229984,-4.947250805975477
-19.0,2.574814517697383,3.9686803451243717,1.393865827427037,-3.305113041813719,0.5801851131981337,2.703545321812346,-3.86528804465003,1.286287021701669,-0.6021265157258566,1.230327443126762,1.13413183745158,0.9844314753449122
-18.0,-1.425444550693646,5.627560326949011,7.053004877642734,-2.056289024342827,-4.244265096857589,6.291600282374893,-1.333205652575463,-2.33116460866788,1.7346461146441774,0.8150442702390527,5.182315480265928,1.3911330944701086
-17.0,3.2346500529555784,5.6669128543564895,2.4322628014009484,-4.484934944387164,0.39578424748461605,4.08710071443817,-0.21751390177131869,0.7017586945329854,5.264490818477506,1.3869761437160046,2.465476001411655,0.312399161176371
-16.0,-0.9748155172469694,1.7938460566596175,2.7686615739065736,-0.3649563216373646,-1.8833429529034345,2.2459921059682326,6.330233362181352,3.25781783733876,3.3691469313785394,3.54806556663545,1.9908657375448247,4.045855206851022
-15.0,-2.7131653891281986,-2.3282884056729425,0.3848769834552135,2.4860911785813644,-1.571313776866336,-0.9245166601308135,2.151735904999867,0.8738345737983226,0.7296578156771266,-1.5858583816207503,-4.116547991709731,2.0041111365209563
-14.0,0.8473742156316186,-9.509406892410738,-10.356781108042403,4.294984674915372,5.646001256522074,-9.963519879362813,-1.4036010700003827,1.3810409948226985,1.578679825583749,-2.271401079882308,-2.3259096427155557,-3.0438100142376574
-13.0,3.035208743854933,-6.4643025728723575,-9.499511316727283,1.7545945240062548,6.2214176676640704,-8.013456819866057,1.3233912049731003,4.515510029488672,0.6396599524928324,-4.051422555336348,-0.7972393247148906,-3.3865354913313386
-12.0,-1.5154545010085116,3.812693331767507,5.328147832776074,-1.1125219928192576,-3.395781493939613,4.615050642452401,-5.50229744359416,-5.542675252982194,-4.927302420194679,1.8886188098125773,4.189176019525505,3.059658114306996
-11.0,-3.2750081393442727,-0.47657915453666533,2.7984289848077,1.82823352626807,-3.011515496179344,1.1238135055662857,-3.1825676211804153,-14.636388794150564,-17.858929328433117,-2.9890170238573823,-5.223406881323085,-3.3408690787260693
-10.0,-6.519046821532741,5.8406678199844215,12.359714641517247,0.36518323264346997,-9.409157498060335,9.139250923547994,-0.011762609877531638,-8.7482690658221,-4.177607311729965,0.21083129767587527,-0.9177226985464149,1.4966927079136418
-9.0,2.0320779296246907,3.872536063849532,1.8404581342248534,-3.009520281435762,0.05635483021774634,2.8937469359304844,3.651780128744989,6.776011914040323,6.974962852028162,3.3514633799734153,-0.5867675655787851,-1.3967011346168239
-8.0,2.266088110475583,0.7929549024979856,-1.4731332079776918,-1.510473942209662,1.8405714140442226,-0.3827139888230655,5.041042672545299,16.748039133650956,13.62677796150167,4.419272584889285,4.5214091155556515,2.133689302634181
-7.0,6.421023884026997,-1.4749604222928174,-7.895984306320055,-2.4535067140797615,7.1385647450662075,-4.72869843653699,2.01996565290594,11.153430196704546,15.767163231782895,2.457163588199995,2.9230479438079366,0.37163176436271583
-6.0,10.43335611009832,-4.816771394321716,-15.250127504420341,-2.785107834088301,12.906472912364151,-9.997827912722734,-4.131819802759843,8.480503155245922,4.258232783357212,-5.81853068850344,-1.5217186800378761,-0.8987045204293707
-5.0,-0.779749492766006,-3.7756297900262252,-2.995880297260495,2.3068372067965237,1.0960215757151746,-3.427469838819793,-4.6036153890022975,-9.625999793117469,-10.898780890715859,-2.8298383138998577,-1.1797537523779866,-2.415927533027559
-4.0,-4.468085066719436,2.9416790357130576,7.409764102432458,0.7201361464811575,-5.952661227280907,5.216197023764876,-1.2823806484620968,-10.676275299556062,-11.431160580670728,0.3463240126673628,0.9041069150567682,3.626551333925013
-3.0,-11.688297228387784,10.698467491926989,22.38676472031503,0.45713740270819714,-17.055536674996503,16.588777781174425,-1.7189905556931375,-20.081013045894615,-15.408366209705346,4.546658334178851,3.4164826496723766,5.06398143244661
-2.0,-13.32110415936502,-0.2636959558501877,13.05740820351531,6.83639784488825,-13.212561306863021,6.371529084615064,3.782983079600201,-10.28264831366958,-5.06779314356916,0.36349355767214453,-1.881953999234583,-1.3730942458509252
-1.0,2.280644639716571,-12.125955864471635,-14.40660050418767,4.888956344033916,8.394224448825565,-13.284234437055492,6.605080979617843,13.194806692852065,7.566916435848003,-8.539534493993969,-9.379324799767401,-6.660488933012311
0.0,10.159985214781798,-11.324563768004458,-21.48454898278593,0.5491161083789399,15.869372278489962,-16.416743716711245,6.348833033260272,23.6335247093819,20.337370178283813,-0.8908341161061353,-4.902074126094194,-6.552012452098258
1.0,13.769048056803046,9.681676962511252,-4.087371094291772,-11.677955519355894,8.894449493580533,2.7878199258098633,-7.245284915260619,8.896993211999272,9.901812253417562,8.421945019617684,9.028807347151083,4.12839468961384
2.0,0.4912924619373147,9.407731215308731,8.916438753371075,-4.897786638858042,-4.2476582379474355,9.152133412634054,-5.641820648606798,-3.6478383705779143,-3.8249414264560846,2.4699217175216694,6.110730565713897,4.659583144781021
3.0,-0.556860790673777,1.2294472528799236,1.7863080435530465,-0.35674883481559005,-1.2078719064246697,1.5727190256431447,-3.238131184550477,-12.840932127223956,-4.807619002546272,1.9728786401992517,3.9831405126386743,3.131974244596028
4.0,-6.558960336629065,2.062194974382503,8.62115531101096,2.235020600090549,-7.548985787659406,5.3209962419680545,-4.687994573513308,-13.794076437463378,-12.696610772986334,-0.26755822340004237,-1.0161371961271946,5.049433962097993
5.0,-7.340184401531252,2.652856116870902,9.993040518401848,2.3354104616975233,-8.627053862681358,6.293352834279001,1.6042290545838462,-2.640741638476099,-8.02554695463532,-3.5616544616442662,-0.00799988820409625,0.3266935294113107
6.0,-2.3511302417698356,-3.353635206214869,-1.0025049644447899,2.8450737097626884,-0.714989276352231,-2.1392131851150977,9.988006749868394,8.063443393128733,5.132400968406367,-4.61962118638412,-5.806572509921445,-5.01394263389421
7.0,9.993273113067152,-14.227527950658882,-24.22080106372533,2.105724112940648,17.14363473837156,-19.274790232801465,6.570499069435195,18.8421700417551,10.12243533536599,-8.783146594728127,-10.790870806343094,-11.136928485581185
8.0,2.827447009562618,-8.948053690999194,-11.775500700560881,3.0406107445699737,7.257667556978414,-10.34367286741534,-1.637129842838351,1.2885878640069182,-1.3114259894862856,-1.790515304414239,-4.970278194844055,-4.600060297081532
9.0,0.21961203091594372,5.922652968306482,5.7030409373912665,-3.0222702896533047,-2.7087488077172477,5.822838837147212,-2.051993890609447,-2.965632085857897,-1.0271464323646153,6.708177071613389,6.142702062963213,1.1795114812579484
10.0,-8.74099697441339,4.340774314512282,13.081771288925916,2.1610451676939713,-10.959352916293764,8.716013186167535,-1.8419275032946292,-6.38441390002036,1.3701392384514026,4.697896303032582,3.2666680748612427,1.419866130217347
11.0,-8.84122264850745,5.732171382938097,14.573394031445332,1.588603859431742,-11.678478549208485,10.155583162350263,-0.191414111943514,-10.243162000997494,2.651295959525372,10.591371485919874,10.787657510842942,9.502502787115716
12.0,-3.9346238884129145,17.6652556375065,21.599879525918826,-6.831878319975911,-12.739530570972812,19.636616480324186,-2.9553121371427973,-6.419680308324456,2.0371538229076473,9.135513718831701,13.752341571168094,19.041158160361842
13.0,-1.95477912923983,4.554218674641885,6.508997803881037,-1.3407955602038266,-4.282670760193676,5.539560293747094,-2.354228282388052,-5.362702135265859,-2.463528300998173,3.0376683529480224,4.580296216702914,6.7785019375206765
14.0,24.146269694404086,-11.803680659883776,-35.94995035428837,-6.2046091602752895,30.077862042693702,-23.94171965631001,-3.712760343041103,11.288845307003527,-7.129497725201886,-17.23300343642955,-16.077767450223003,-16.329444785670418
15.0,29.223873613149465,-10.223785847179473,-39.44765946032919,-9.445383172829324,34.36860460149029,-24.814605525174947,-7.463541042400967,14.32821095354722,-1.4955378597405025,-19.07358400653565,-18.52887063273413,-18.72446399634454
16.0,11.210103639366055,-4.093000990032368,-15.30310462939831,-3.574093874962858,13.21451017385778,-9.668919509903981,-2.4598204986960956,7.617123580208302,4.796796595955268,-3.6771526889284996,-7.5773555026651795,-5.926897498337443
17.0,-26.402985436156733,-6.599787664578857,19.803197771578184,16.491999617084186,-23.141334523366936,6.638703952886187,12.359654650458703,-3.326064369148818,1.7137423394234959,2.1083236620259216,3.590030641974133,1.7758450980537628
18.0,-46.54627027787444,-4.194731832110415,42.35153844576435,25.363932201442612,-44.40514364216565,19.043081896142507,19.762307299957776,-9.615212952210335,-3.5466090746312062,12.719658497534107,8.540890231697787,5.129840505310614
19.0,-30.08671162190688,1.9610501240901188,32.04776174599715,14.05566581925423,-31.021289319858948,16.972625647269062,9.441470359023956,-10.718384933222804,-9.247384191809422,9.788538872819599,5.423697298336772,7.072897887227242
20.0,2.2630577402683247,10.488198479739598,8.225140739471415,-6.386189443295205,-3.0129900968834136,9.403185489683647,-3.2890320200017786,-8.337444794675921,-8.99086710807918,4.097715381654736,6.773052184888823,6.760554985525467
21.0,39.33753599231617,7.65419793581693,-31.68333805649904,-23.432972991123037,35.47805698537939,-12.051486699038795,-17.31651658580715,8.69469808579095,15.074186103270424,-2.3545134438102036,3.1860799235064885,1.4015057258350083
22.0,55.31773115392167,-3.4931707709403885,-58.81090192486201,-25.934550777345336,57.03069230621464,-31.118187047230503,-17.57208320696877,19.631263862310995,25.79087389597826,-12.289193055451028,-6.623725680330848,-7.827207343887082
23.0,13.352092370777267,1.240701409514171,-12.111390961263012,-7.325725396782106,12.775593907740063,-5.489504265395823,-9.124052514619853,3.352900000049173,7.4512322926216905,-0.6665861587816586,-4.0817535557510425,-0.04667418829158709
24.0,-22.47620313958263,18.906216146506935,41.38241928608955,1.8270262365860859,-31.886099819298607,30.161069168902166,3.280463970160673,-13.907197728119767,-14.029995634904559,13.776834822650699,10.004063634450802,11.138565028441292
25.0,-28.8647709792693,-3.7293787376107312,25.135392241658394,16.253103329804965,-27.035578412344698,10.715949907485877,12.627118303043606,-1.8341775282186887,-10.090170121153129,3.4383471659761584,2.5717579235356585,-0.23386247952388917
26.0,-26.53160901578104,-11.109275701919866,15.42233331386101,18.848976061842833,-20.933693802105793,2.171344055708057,11.133760637196637,-4.786154991312262,-14.561841392208528,-4.5034981018614415,-6.6636229995228415,-4.858287902417323
27.0,-6.299876572742448,-10.20568437999837,-3.9058078072559503,8.198613518347686,-1.2335503740610854,-7.033360235794307,9.454938155654501,-3.5658076102065763,-10.324416644535114,-11.228414990282989,-8.746294425874286,-9.438836459830988
28.0,10.092383666751367,-16.445672844992636,-26.538056511743903,3.200923234052147,18.275929761805227,-21.536714583428886,1.1912151421908144,9.391324134580234,7.237087530660801,-8.429746590877137,-10.949941345253238,-8.105067397113189
29.0,24.38980503791085,5.564798338191403,-18.825006699719218,-14.94886181984558,21.642704479719146,-6.58377810642326,-14.667903383054174,5.703194531663301,12.423100036820406,-0.46401166122321946,3.227234582927407,0.8073838873533099
30.0,14.211528884392614,16.74429678476656,2.5327679003742247,-15.441131580334783,5.791832306208837,9.616109153330786,-9.187679250503397,0.7694925930165324,12.20254897901284,10.590598351228431,15.858106575849751,13.816447801024614
31.0,0.8004640579689042,6.095150734679674,5.294686676710792,-3.4788150764904433,-2.2179294504441884,5.67753776632643,-3.8220949082721916,-7.596915524187592,-7.205489635664456,5.364469017367747,2.083793163122822,2.309015015292143
32.0,-13.222798243165691,-8.756069977944174,4.466728265221442,10.969589147879468,-8.81389947106447,-2.1628476659466607,7.492379919496238,-5.682277517369054,-9.859121175288356,-4.4831766595067055,-7.040016494237964,-7.7130701031141005
33.0,-18.878278788548634,-7.048976365787587,11.829302422761048,12.952684852236032,-15.317169593254583,2.3663736240419393,12.805555616285591,1.879031829432376,1.5055359472874188,-0.3422975168653726,-2.5679213561954675,1.3038369606454858
34.0,-8.702508856365922,0.39408229685106255,9.09659115321729,4.1481682567585985,-8.933021751638424,4.792298490486699,6.681152383861283,2.9887673435759963,7.349365245380272,5.278510527522923,5.277955726568897,4.98689941493007
35.0,9.817744135117621,4.4233546526880705,-5.394389482429232,-7.126383243950851,7.581872082569319,-0.4461239099344527,-7.381953274799356,4.338796695864151,3.434729554888033,2.1059016789609495,2.5093166493220584,-3.0453221784991165
36.0,15.493107175320404,9.995984119326213,-5.497123055993972,-12.675842447958999,10.478342203862303,2.2050793608910726,-11.400857014081044,1.2835771849473123,-1.5635604020129485,-1.637742848605526,0.4817505120182731,2.2744393781544012
37.0,8.900868332360758,4.098939077224024,-4.801929255136654,-6.517706295619334,6.838368354743049,-0.3186654573509302,-6.0835652478703555,-3.0637443556821755,-2.6105661033896483,-0.26634806077421214,-0.8317850720368773,2.4034664867370883
38.0,0.9354450241607655,-5.458258088858606,-6.393703113019587,2.2335726203207362,3.729570908565365,-5.970484844423042,-0.5403588794831644,1.5398842734271896,-0.7143258100233378,-6.668720862628572,-3.297339833174454,-1.922060370808643
39.0,-10.077424593813971,-5.588756947933348,4.488667645880248,7.794534526366636,-7.301817790551177,-0.5126728922478199,7.329601729757616,-1.137882219322285,-3.871628908700925,-1.7260924074727342,-3.074146692326896,-5.201523650535457
40.0,-3.7222900017787923,1.533048965780483,5.2553389675589,1.1252019647008265,-4.516064596054109,3.356164771865091,6.572310403116449,-1.2164059865697066,-1.1448425749312543,1.5051540976748115,1.4565120277269112,3.294857294658084
41.0,-4.074003378718504,1.1148782421862,5.188881620904439,1.5033296993271552,-4.5906305449626545,3.1950294646783504,0.47329971952889416,-5.265274335613681,-1.446779881255587,2.4436283660394182,0.0807584423865529,-1.0154622593214335
42.0,-1.7265527890604364,-9.849483101657965,-8.122930312597479,5.808857290359764,3.1488489817564407,-9.02074742244116,-0.8839397567815781,0.6017102694755816,3.4443112362393364,-0.4687985723117851,-0.3986738178833882,-2.914871759132523
43.0,6.340914888852993,0.6425383356147338,-5.698376553237859,-3.5485462656996556,6.038510597021603,-2.5624472772243236,-3.639428051066451,4.706183703026834,3.9504850035704093,1.1121990344711228,-0.8126892908127112,-0.7645090221366556
44.0,1.0913676342168972,-0.3004263338269484,-1.3917939680433067,-0.3692718961766026,1.2521693835083991,-0.8020552401480192,1.489940733168241,4.060818792302878,2.1599595191859042,-0.400019437099297,2.6725094667294793,1.7368933780761613
45.0,-4.640270120505365,2.4866867278986575,7.126956848404416,1.1089205321387965,-5.878026773686055,4.851505227534217,1.2037725444172263,0.05312871488129001,-2.2745179051692768,0.32805779688061737,0.5990066851583684,-0.070006899964413
46.0,-2.2472524660706297,4.539740498138892,6.786992964209592,-1.1870042684927762,-4.512812949529751,5.631386386112703,-0.0523200861132902,-2.33532497308003,-4.724038160666694,0.530555984798776,-0.7726803894963574,3.416209309656198
47.0,2.6552770835899446,2.9189322462371776,0.26365516264705313,-2.823564775959844,1.2025072839386852,1.5630361274278988,-1.9572328143929556,-4.370635482423382,2.6077273770510905,2.0939826589019104,2.5201965113687823,3.7641625253034476
48.0,3.718310972283024,5.231138234558832,1.51282726227551,-4.430646472874407,1.0363455594585909,3.348859142896057,-1.3879842366975865,-0.8605371211102888,-0.0802241562142027,-0.19665793502200132,0.3491690659185152,0.4426273915070602
49.0,6.798833745385798,-0.7982434326300094,-7.597077178016038,-2.957277940049683,7.218645298180455,-4.135998488668664,-0.04580636926289483,0.542664387599902,0.7014331238218203,-2.0136718682543275,-0.7037760243268871,-3.3612295867775512
50.0,1.000256217883739,-5.2279670017076025,-6.228223219591422,2.0744161972954687,3.645083670849672,-5.739019607951897,-2.407173539513696,2.8146270717455106,2.504510287466814,0.7108074332944561,-1.9482330192521733,-2.9502127671760157
51.0,-0.8064225033839345,-7.065080698536017,-6.25865819515208,3.8906256240188433,2.7676152131770113,-6.6675247585439035,-1.3251926627875747,3.9291431532059073,-4.346328359959772,-8.29078195457386,-6.0184230909146335,-6.614465174847133
52.0,-11.74510333311235,-3.2378441498999706,8.507259183212447,7.518467493401536,-10.154065735170231,2.632326989648109,5.752001867291188,-0.6513210914143053,-0.666978575039531,2.580486240157543,0.6492123247909234,2.5400928129560727
53.0,-6.215726737513317,3.2221078280085207,9.437834565521944,1.5174189197939594,-7.8484329784801865,6.328038200794489,4.34356890909988,-2.525483683571119,-1.9141227325742904,2.9245550834347713,4.449240668487719,2.570544910150508
54.0,-1.202562598201708,1.571752015091959,2.774314613293787,-0.16911999645521747,-2.0082341028479482,2.1685125057038923,0.8170409080898,-2.9795826381827535,2.522959038823638,4.4662220604515,2.602238521536773,2.4564228508896697
55.0,5.318091538697034,4.367943505908306,-0.9501480327886682,-4.830856651691218,3.11171326865259,1.6993496295893784,-1.3445085717436436,-0.024225067698586678,0.20817409425102085,3.1386197026038323,1.9398680138731181,4.132514041044458
56.0,6.2969460571035025,6.323215633229066,0.026269576125590666,-6.377998763827592,3.185699690311507,3.159016358928615,-5.160171935205361,-1.4720384228026782,3.5642073075206744,-1.8698039014971626,1.0774247048557277,3.846696287713402
57.0,8.992846265855476,-2.566350965734359,-11.559197231589843,-3.201787434598162,10.318880632546302,-7.0054817978860235,-4.205885147316281,2.0780647693257253,1.601934242759976,-2.645748678235382,-2.7320775210762824,-2.854134387492057
58.0,1.4985542224051702,-6.27235411365408,-7.770908336059298,2.4008651091576945,4.591839744948516,-7.0469709983099,-1.8621711397370329,2.948544034949538,-2.259776042985255,-3.939632449430511,-4.146846141966958,-3.7144450133607783
59.0,-3.4368849486695483,-2.28762704605232,1.1492579026171708,2.880381906707976,-2.340681386441707,-0.5957568734898246,4.108670136151506,2.4310072596219428,-0.6318453119538474,-2.5215600604595645,-3.5966047826309264,-7.604521805815674
60.0,-7.963063020153637,-1.1644126016465075,6.798650418507073,4.58712478575805,-7.350846212152909,2.8707458442974327,5.20190218033676,0.2110727585731328,-2.3049359673557612,-1.1335659482946328,1.300351533501257,-5.1169113528255785
61.0,-8.887273634144346,5.066351390521872,13.95362502466614,1.8605312905973301,-11.38736482699225,9.488350782294711,1.043859494750424,-0.9887416473220172,-0.12013948045180367,5.619896514265689,4.521315286968955,4.969925698668996
62.0,3.73276540251782,4.778342970457911,1.045577567940084,-4.22219351078402,1.3048687156253784,2.8947900806644222,-1.5281300283931185,-4.870300984954945,-1.275697158764805,5.604441786978253,4.1270723946151655,11.721688323093206
63.0,1.311719046513805,-3.216273789077203,-4.527992835590931,0.9097183598620169,2.9692719055996206,-3.885005230784115,-0.30327119376646006,-2.510296028454132,1.6520426722521389,-0.4422344889177072,0.0955165035494443,2.3319048405102185
64.0,4.319380973757199,-5.630303977735531,-9.949684951492644,0.6924956988531046,7.114756203545511,-7.799780515218291,-2.5049919157979623,1.5753966043114056,-1.1907298595897224,-5.290794096222317,-6.061499231133158,-3.4329934771210517
65.0,4.20444885975248,-0.28555603913729066,-4.490004898889718,-2.002000696467276,4.334590657374596,-2.3178527329965815,-0.5694508594470347,1.8499826224433158,1.0458063562278497,-2.14501925294741,-1.704742267528918,-6.529442459313038
66.0,-1.747397934703696,-0.15813995786159235,1.589257976842081,0.9871228963292444,-1.678366889822016,0.7047856998104418,1.9847078954751938,3.143659072381092,3.867471556579168,2.01719617639806,1.0199301719061,-2.4362813619432315
67.0,-1.7586831236587357,2.5328350453463964,4.291518169005039,-0.3548370999784406,-3.0381034508245244,3.3960283235351403,-0.38863698677944136,-2.005955451752356,-1.9511021110180533,-0.60868883063596,-0.0432683860189043,1.4422795660685717
68.0,-3.3095048872703265,4.03036971622852,7.3398746034987,-0.40878990763179546,-5.267057264686305,5.660346174656491,0.35762074605700533,0.874252328161722,2.20809778096051,0.5568286574145518,4.294611028023452,2.976244357858284
69.0,0.770671234870449,0.43888744734623497,-0.33178378752435345,-0.5756467690717071,0.518611273473609,0.018104494797204218,-0.9292228086678183,1.5244262456885076,-2.040734175878943,2.1639751905697917,1.1239398548144248,2.614385302863582
70.0,6.5693818973355915,6.345832069301071,-0.2235498280345497,-6.507689364270666,3.3516962357839994,3.0939111530016583,-3.606662874699125,-2.9127662794673927,-3.5370951948874323,0.3047674857832089,0.6428719932975522,0.05796580529122042
71.0,1.1108266284096506,-4.365632550894897,-5.476459179304418,1.6565942096947128,3.3178540304505297,-4.8961405228929165,0.8611907183428973,-3.2898849112413835,-0.5524098980011678,1.0815605057999917,-3.7677060584447863,0.7481235315794386
72.0,-4.409943254086485,-8.607356091393106,-4.197412837306394,6.539485128134151,-0.08694412864729073,-6.380725564989056,1.6740623977207967,2.050513337587843,2.556945992054021,-3.9128660942905835,-2.6533429079726636,-3.4178269441822584
73.0,-3.915612847132361,-4.522719490604322,-0.6071066434717718,4.173943568724884,-1.6338413155887128,-2.6200141166481203,3.997323062660085,3.831286222185389,0.06208413974632854,-3.3560149510558013,0.6613712440503112,-4.047741659742274
74.0,-7.049406360491746,2.835912325508463,9.88531868600029,2.143635592750598,-8.440643094318098,6.390536332326202,2.899832836466933,1.071102173841429,3.405451217467857,4.865027219229027,3.85081159578413,3.354900884284836
75.0,5.540040500226524,4.608840603166193,-0.9311998970603748,-5.112926998306518,3.1926974899669265,1.877090245209255,0.39952679918458406,-0.6135089136024366,-0.25476766770381487,2.1571524247403193,-1.6488540675812522,1.6101716261763364
76.0,6.921692088910878,1.466367548481775,-5.4553245404291815,-4.151165078353774,6.154283855053448,-2.0272406701897325,-6.828610911669469,-4.5384201989721555,-5.838676430162809,-4.502820321901059,-2.9659027629598063,-2.831697979792742
77.0,-1.2097574808994618,-0.273254856180849,0.9365026247185506,0.7067380666245708,-1.023205102231815,0.3036740982196161,-1.8852825763755705,-2.4123971016303942,-0.4082014003048471,0.5448391817189588,-0.2077892500366852,-0.4610282591857017
78.0,0.09963027571906902,3.437641168764148,3.3380108930450203,-1.7254189356873235,-1.647597602693128,3.3607373104035796,-1.1771820955891132,0.644682975036633,3.612881866355414,3.978101732248311,3.99499846634334,4.022239815563902
79.0,2.421590546317968,-0.9809972025571678,-3.402587748875203,-0.7583577936678175,2.879008498328009,-2.142748841289173,0.9340635299979752,4.807527874179774,2.9293602854635776,-1.072902904287041,2.3507811050656615,2.974564368271128
80.0,-2.587387759727506,-0.432942540544222,2.15444521918321,1.4685155889875896,-2.3337301942338313,0.8265731082781926,2.3065782983255687,1.4547185455534346,-1.5072661599728956,-0.3626026380070984,-1.5545065966299796,-1.6114828465391777
81.0,-1.455606684179129,-3.9964968455199683,-2.5408901613409047,2.7595769733183966,0.5696415554948946,-3.2284837338735084,2.01283631454043,1.7790307780180314,0.09722979570940721,-2.1302105551199824,-2.230162213939066,-3.7386864668242645
82.0,-1.874435076050625,0.5381506612585016,2.412585737309091,0.6990502462937946,-2.1261230249524723,1.5128172494477858,1.9225515440686085,-3.5261611778712263,-1.9121276742596962,-2.2756831684682184,0.21309752932369141,-3.2601251936054796
83.0,-0.1202146395934216,-2.526491191431843,-2.406276551838382,1.3528679496858271,1.0746226518862554,-2.5082391084450744,-2.8440096402292143,-2.3076802593274053,-2.2462264375147374,0.027528287789251427,0.13090548196826735,1.725250675989165
84.0,-0.06727236554472621,-1.0254062603696488,-0.958133894824796,0.4963050637873408,0.45280763610495506,-1.0321517930554271,-1.0976267498676493,-1.9842687892102642,-0.34064599393910744,2.8985160294982393,-2.4269477741263357,0.3674572294403006
85.0,-0.9560868672285585,6.255323374277863,7.211410241506571,-2.622318611434967,-4.074335354895229,6.774677956424597,2.8073981513839095,1.198762529701477,0.5459968516591844,3.7149760624870423,0.33593580883115426,3.9645411767407897
86.0,4.528808098014429,1.9102230150268946,-2.6185850829874306,-3.2741129280544428,3.5902604618245535,-0.3877923382270092,-1.3421283904601156,2.7622484044524667,3.6327915266365975,1.4253220492622711,2.98481735835659,1.0063432626141844
87.0,0.18228839011236841,-2.4508712789276066,-2.6331596690399546,1.1531739857379222,1.435614186289534,-2.4926678208185873,-1.977169010976565,0.6192132873563072,1.1878648039206752,-5.637422931349964,-0.11480111617556443,-1.2643421070940544
88.0,-5.499312332382169,-3.0836201519582827,2.4156921804238056,4.303522268398423,-3.9948870773567338,-0.3592721475122438,0.2904633624038133,0.9701554940711896,0.29447638222000394,0.33270882198360985,1.8791628495574588,-0.26524638330059136
89.0,5.326052238166438,1.9130434362597861,-3.4130088019068063,-3.6145636782248363,4.344979055768561,-0.771877397157717,0.5619370332444488,-1.6014647840949925,-1.873584543881653,0.8117977940840806,1.1912047865905424,-1.2737894562868206
90.0,1.2414947993642464,2.117208511757887,0.8757137123934959,-1.680110065181003,0.24634773084479333,1.555454668575741,-0.13598958777116876,-2.731046568222871,-2.2441455944095066,-2.7465420619677468,-4.558272091576477,-2.34811179227474
91.0,-2.934281963676314,-1.3521518569546735,1.5821301067215325,2.1393876847430606,-2.270143436469188,0.09565544839942769,0.5215868364498019,-0.5593976372568994,-0.5957944602994425,-1.021051966866245,-2.3445646869951555,1.496885141203662
92.0,2.1428179453673435,-0.957832098513056,-3.1006500438804654,-0.5959650891248272,2.606255150186678,-2.0498801992940394,-1.7941044697330302,1.9037310914823715,-1.5658073911784227,3.286738620030842,0.24326692961955998,-1.8627600605300996
93.0,-0.30261895004328626,-0.6444684769677174,-0.3418495269244193,0.47385031959064966,-0.0054123395252293205,-0.5161995445264557,0.7607543130237637,4.969934274824933,3.609074320038202,2.7732035878044003,1.9123744658270294,1.4337518385472248
94.0,-3.4058896328721193,-2.434559369330644,0.9713302635415305,2.9269574809263292,-2.22633485348377,-0.7569462762196449,3.7391557656300156,-0.6174645760793926,2.5555361718577925,-0.25344423555059326,0.8016493568650842,2.1450074041427154
95.0,-0.8103575307924353,1.7258995678765872,2.5362570986691595,-0.44332784811398307,-1.6439453848177425,2.183599411418933,1.2627932615300015,-2.582867203319994,-1.577868362100147,-2.3127941140312682,-0.12770507168075396,-0.5232257242572744
96.0,1.0791921959068596,3.1106992152410036,2.0315070193342906,-2.073075758820656,-0.45326602471010624,2.6247467700911686,-3.535119613724723,-0.8690677534071278,0.5875447993549736,-1.258503760522161,1.7678818496792463,0.6931729117004678
97.0,1.4669545404994855,-0.5758043464166072,-2.0427588869159954,-0.49654178692975415,1.7790253215960736,-1.3317678796912649,-2.510845125048812,-5.642266530651336,-2.2256059802117454,-0.3339392080508292,1.0580203577894207,-0.0059767448568503745
98.0,-5.045223883959032,-0.8689206230513774,4.176303260907663,2.9100896043490962,-4.577710053794846,1.6338292730602473,2.4740895787695676,2.914241136454721,-0.14555282844277428,1.943456174258878,0.6551646476901036,1.5479625709732567
99.0,5.5503506639786035,0.31310813192744213,-5.237242532051275,-2.897416393345038,5.361710695966872,-2.480950088584681,-2.4229195846889,2.4234924402962887,-0.3700168575152385,0.6192050183212833,-2.733293825796919,-3.1137160428651263
100.0,2.0858959840128306,-0.19231144133402828,-2.27820742534702,-0.9104204291727312,2.1637399195345504,-1.2556597182481026,0.775470807764656,2.8675394814620496,-1.3213585200592994,-0.09489723813052586,-2.731274574650154,-2.4180450803025533
101.0,-4.081527198031685,-2.6664666692131056,1.4150605288184614,3.412613590641887,-2.7572063446693456,-0.6496846867412739,2.927077426718319,-0.768342551126949,1.8127558239487802,-0.0373249309485079,-0.6815685169438552,0.17045913129305745
102.0,4.529374394597724,4.038588327384618,-0.4907860672131378,-4.321803794988355,2.503294026099125,1.8244683449407955,-1.4216627152604318,-1.9364038328899333,1.7477735623510948,-2.6083126709639335,-0.5825962570317899,1.100793221710703
103.0,1.2058095773435276,1.1264025156777207,-0.07940706166572153,-1.2023967457276072,0.630321786680543,0.5708658359772417,-1.184871968234154,0.4679458489355637,0.7869998333099755,0.1982604664767107,3.6130404996101126,2.820438978833437
104.0,-3.998254033171251,-2.75895905575723,1.2392949774141733,3.420802025809526,-2.6420872614269824,-0.7924665490338456,0.8139129796795502,0.4210350097312442,0.09212990015735945,1.631325688726756,3.4850782841341585,0.6374575901544706
105.0,0.9744367950916342,0.3306999574703482,-0.6437368376211274,-0.6917255906773856,0.8515472147707253,-0.18857101534794135,0.09198641493050005,-1.1530454427662489,-2.6604860408032285,-1.1184350949229986,-2.05152534814799,1.1192438085927487
106.0,-2.712595371997119,-2.1592194207669664,0.5533759512302103,2.470871065750257,-1.6018335246904638,-0.754751445369661,-0.21765481750329904,-1.063700818596255,-1.2712218411303813,0.7458630928437757,-0.48176817097072105,-1.0297895884454107
107.0,-5.6370838850028715,-3.2881897290505053,2.348894155952274,4.41335109786369,-3.969068709299016,-0.4990469871933647,2.447185159446113,-0.13970336858234617,-0.993522843045981,1.9159295794100193,-2.364037955217573,-3.6786604992041307
108.0,1.0195358575929918,1.7356469952382187,0.7161111376450683,-1.3528662365470538,0.09437263332214618,1.1965612973170878,-0.6026139583051066,2.2648003116052724,3.0345009240080385,1.716370674731094,1.0912598564062663,-1.6046735307912328
109.0,7.510531470208723,7.573408924906718,0.06287745469778877,-7.5197010765092225,3.746611458119662,3.866508858931151,-2.7944953888727664,-0.27572041660795565,1.4948506877715946,-2.63045138067067,-0.3618267863021661,1.2498485694580106
110.0,2.308275206120037,0.7072471509123939,-1.601028055207801,-1.4848065009716938,1.9024056058503733,-0.47876669489514345,0.7573276020841673,-0.5125439954779216,-0.9618681106721394,-2.078616790245451,-0.07709535728547498,1.9746867730474953
111.0,-1.154756027767215,-2.9431095576291333,-1.7883535298619615,1.9968854495223072,0.3479024466153997,-2.398387081391938,0.6993604207089086,0.8689875346467842,0.246775373509228,-1.0554459705653096,0.42969628949192334,-0.769845934397599
112.0,-0.9499786241557694,-1.897287107670865,-0.947308483514955,1.4562478133633108,0.0342892494003445,-1.3753165746900373,-1.817754641009095,-0.8243863907916851,-0.9031098847597672,-0.5902264801751169,0.42939536511801946,3.07103883867867
113.0,-1.411936138610432,-0.1725892901001702,1.239346848510507,0.7528781583956474,-1.364719991979975,0.5830888213972429,0.904281274011278,-0.1151209004867666,0.2552905421063161,4.0101879207562225,1.2081727814889476,0.7075473472452822
114.0,-0.09768120284347659,-2.922853835958236,-2.8251726331144775,1.5558962268300238,1.3282379613103714,-2.899335649377141,0.5447536132998666,-0.5596702680194219,-1.364362658285573,-0.22469168541389473,-1.5148265353017298,-3.4923673326421865
115.0,-1.186906424216482,-2.2269894565126567,-1.0400830322959713,1.678575304374136,-0.0269673133883922,-1.6557135634931575,0.589334180206843,-0.5639321570434725,-2.796317861007225,-0.847796313133234,-2.00529062048979,-1.6568892334767844
116.0,0.2235630488059177,3.9560171643932778,3.73245411558737,-2.11554078535238,-1.70522754086356,3.823141426039384,1.484513781872936,2.844410883262571,3.0170999201985342,1.8547900803565653,0.6786481519888852,2.3837794137018182
117.0,-1.3557671416180985,1.2736177486423126,2.6293848902601877,0.09433186239441949,-2.02008546641708,1.9287894144817723,-0.9522217065924523,-0.7772232155915026,4.347546818049094,0.3924679228560079,3.9486321126927733,1.0393591062938332
118.0,1.1806929432278497,4.2217307116285765,3.04103776840044,-2.7287996348848345,-0.9567562509463016,3.6836273943861886,-1.6608661854736306,0.17593531623849598,-1.7844558560475863,-3.648714170646238,-0.031711425257329395,-0.45088252280078844
119.0,0.2329529266728131,3.0197986621930744,2.786845735520048,-1.5794844554158467,-1.3036242590043288,2.872237171527117,-1.9083808893797833,-1.2399312844764685,0.1707171938636199,0.9432543238341985,-2.256758548692993,-0.5148620627332864
120.0,1.9326779463345147,-5.145348407012283,-7.078026353346874,1.5684417897051293,4.478308853874533,-6.067778492729387,2.5378496366094616,-1.0224087051409918,-1.9512260808998492,-0.04989866407868154,-0.4387634949017616,-0.27306278931717287
121.0,1.3606649300075286,-5.585536189100871,-6.946201119108327,2.067568103000821,4.205638044815347,-6.302471235280116,0.14303896517842662,1.9450442763402007,-2.589553951698501,0.3787237670733222,-0.6724446271529002,-2.428338106773491
122.0,-0.145699203055626,-0.9376054468792385,-0.7919062438234663,0.5689287643925707,0.37747520878442087,-0.821985663131132,0.7619048161441287,-1.6660487956289085,0.48845455615038347,-0.0927467405651215,-1.1734397179455232,0.2039929046663339
123.0,-6.3131028043811455,-3.0801741986249986,3.2329286057563107,4.719231487969844,-4.793725292777267,0.04302722249847468,1.7751492080276197,0.15850725843660607,1.6161124456295894,-0.06613827568823955,0.1524348036215311,2.1091033787340874
124.0,2.921534786217072,8.0580819286917,5.136547142474763,-5.468672103060024,-1.1242294733549092,6.567732618730029,-2.908599524700245,-0.3790471252642035,-0.3867735424193721,1.2889686987273536,3.293501414845924,1.2121477639323552
125.0,-0.3974236295696872,3.230849549488451,3.628273179058223,-1.4719898835996033,-2.0268401320757112,3.482615118079561,-0.6009964743260422,2.291046296359727,2.590234099320089,-1.1563992153167058,1.0200201491307128,1.330260436053556
126.0,0.9742385806895927,-1.138773311439611,-2.113011892129167,0.11148089051491672,1.530048740854952,-1.648507995476133,2.093305015080172,2.0219606955143132,1.5844500122238545,0.5340742863694043,-1.646798012487159,0.6518873141718876
127.0,2.819580043610156,0.4535845023976903,-2.365995541212479,-1.5994532588403019,2.577347145994855,-0.9772374923589588,-3.697735542917435,-2.999920963106394,-2.999251432237436,-3.3795478834695185,-3.3763398549976267,-4.61333773094067
128.0,-0.8776258779765482,1.4120917914275761,2.2897176694040824,-0.30044130446679673,-1.602207835033107,1.9083255349358352,-0.1588475402605295,-2.3673531309668094,-1.84057395220974,3.4445476497720673,1.80439034672099,-0.9662516875104499
129.0,-1.8610804189878,-4.35357766522242,-2.492497246234741,3.081434958794664,0.37293660994810474,-3.4465255997080937,2.023813885381509,1.2143910040294232,-1.3977199528643913,2.2989432463329567,0.7161271511114885,-0.2606693259957822
130.0,-1.0348183215816884,-6.195229868089049,-5.1604115465075004,3.5942944759743636,2.1178730724111134,-5.704805870249151,2.168705438131325,1.2348029351111747,2.7266420803830416,-1.9855236290147174,-0.3997642673093394,2.1931291987754076
131.0,0.7111423902600916,1.7856667095597958,1.074524319299591,-1.1877208008784768,-0.20706023459150624,1.3993150014380777,-0.2302910910304865,0.765616924661737,1.6780793292171345,1.3469152775121138,4.1131174817088905,3.818259933943514
132.0,-0.31272294147256907,0.8543633934969889,1.1670863349695415,-0.2885854707690146,-0.7676704594870307,1.0559342699498524,2.043356478880638,0.6466208419317292,0.5798134630199427,-3.7337263926596553,-2.066711873624821,0.10590837185988877
133.0,1.5294833656534694,4.97714756616971,3.447664200516281,-3.272891874525672,-0.9909340924769078,4.2570579847366545,-2.6375216959524037,-1.2897483587418481,-1.1548390701649986,-2.667202692962026,-2.9973381928370046,-3.395222414071374
134.0,-0.39446703764227137,0.4605017224229555,0.8549687600653546,0.022332761863752992,-0.662201762343578,0.6258208948242339,-1.3354057418936112,-1.2139363464518473,-1.605345169526173,3.722046504199343,0.7783101782784774,-0.6275966688276975
135.0,0.20134878135395637,1.2419000998675878,1.040551318513809,-0.7508951413909815,-0.384096444616735,1.1139599613160966,-2.1245844063713784,-0.13937685705715852,-0.557840318338771,4.0861400210278145,0.6405651788536744,0.07609601175762948
136.0,-0.31818722296191143,-0.29503708918891197,0.023150133773157267,0.26951848713485194,-0.13894413081195162,-0.1570474348034544,1.4045509274765362,0.8129580702299088,-0.8985080042528965,-3.005057818141992,-1.974100211014392,-3.1923397858137923
137.0,-0.22164209485200378,-3.9637862636983416,-3.742144168846281,2.1251634993788078,1.7918085714931615,-3.7890046113085583,0.5328434785258582,-0.543442760796042,2.5638777991044694,0.21499568603766817,2.0410299559267115,2.07891705963734
138.0,0.673740531542582,0.08189642166485456,-0.5918441098777651,-0.3547136807420477,0.5893015456652874,-0.26481613657250946,1.7577255629595654,2.591137990473074,1.0213795414721232,0.6438213436516103,-0.2001783233490415,1.1530610738384164
139.0,-0.8772909698571165,-0.02581633150118745,0.851474638355824,0.3882819879950759,-0.8228626106318788,0.4051659119718958,-0.05045178064160516,-3.3201209358064077,-0.6379275695500349,-2.6565513890383126,0.7773072983166363,2.6578181355242174
140.0,-1.4687058711392675,-1.089167951331311,0.3795379198078565,1.2906005377349365,-0.954843393823678,-0.36395641420236624,0.6640693405001272,1.6999955397617397,0.10283628683449501,-1.1135420651046868,-0.09340971123722375,1.0354026009741366
141.0,1.538222124419224,1.9488234296541924,0.4106013052349047,-1.7301584378085417,0.5374890765815625,1.1654612991696367,-1.1416463791129399,0.902175751784684,0.26324262722176006,0.8225368170136526,0.23652556368402863,-0.13909517367414415
142.0,1.3231094396974745,1.0210343689886656,-0.3020750707088441,-1.1509103460858843,0.7870307170154794,0.33758934430392695,-1.4199099060560543,1.6291950074488768,-1.3548349314575543,0.5938492325499511,-1.0809455068305382,-2.564276343719409
143.0,-1.5736517340584666,-0.216633523090341,1.3570182109681102,0.9291362399829577,-1.4153299611199155,0.618793052329176,-2.1484120116008802,-2.445313530055666,-1.7843355405761427,4.404119074686326,0.14787296978460995,-2.5388978937400823
144.0,0.8835349822971581,-1.0636487473729244,-1.9471837296700665,0.06050615724844341,1.4590521892037855,-1.5423748392881889,2.202212476062849,-2.611398417992022,-1.7843691368001773,-1.012126570206035,0.06888784045875013,-0.31139984090400286
145.0,-0.5080019516512282,1.0934459661169575,1.6014479177682064,-0.3082351509691805,-1.0976751913297147,1.3853607737804894,2.431552074921333,-0.14745264869961838,3.39152886166952,-0.49792317149519094,2.2429100022913935,0.10966192126849389
146.0,0.5814792932316923,0.06871679080345294,-0.5127625024282124,-0.33103145089259267,0.4965929552289898,-0.18464641555324807,0.8881794239417911,1.2133993233717475,0.28290587078464613,-4.28065563655974,-3.597186489312861,1.1443083483136272
147.0,-1.6830277625929049,-3.6903205184235155,-2.0072927558305578,2.6838806649497053,0.18497574414368534,-2.888026515202158,-0.3313748493649529,0.7264873715387963,2.8248100360404704,1.0809616614665252,-0.11689388501776898,1.9309353790519825
148.0,2.921857974710422,1.924553923687992,-0.9973040510223767,-2.4294196351572666,1.9806415312020498,0.42802764638260604,-2.6313772052405024,2.128414746277599,2.5664280894721703,-0.6542812030879812,0.4362363551824682,0.7392422488530723
149.0,-0.39432796054446095,1.1233824644304988,1.5177104249749895,-0.3790953504056638,-0.9327829284038062,1.2888619015078278,0.8262308046488679,2.559892543048843,-2.4338467401258517,1.5973954661402803,1.7202933941723382,0.5754411426131869
150.0,-1.7877014023778965,1.5332168762695626,3.3209182786474636,0.18083101928230388,-2.5259175832375145,2.477528816747284,-0.47035426007423686,-1.7565258506284827,-4.322734174257521,1.31399719576135,0.5831944055889359,0.20550928407660846
151.0,-1.2459604165912546,-0.14982942577803737,1.0961309908131929,0.6627259994317751,-1.2153287172252671,0.5259559684224593,-2.844903279533004,-5.056609152097791,-4.057512715227814,2.6717696382448652,-0.20046644679815795,-2.951745115555453
152.0,-0.2380914930964491,0.1283608543645343,0.36645234746096605,0.09112825124446683,-0.34190585411941743,0.22223985499721,0.6782500576278514,0.33316358118936273,2.2052936382667676,-3.414716293937092,-0.42518295429835085,-2.190455526081367
153.0,1.4052729312098633,-2.082272853279265,-3.487545784489135,0.29227392498109955,2.4870633629271337,-2.8113737205394975,2.660804507603634,0.27032785829963235,1.647944183545246,-1.0088138886140596,-0.05541267153188684,2.166770554410425
154.0,0.8691867023368266,-3.468375307702845,-4.33756201003968,1.331577630512803,2.563272271971837,-3.933017094615131,2.2586783876875063,2.4277466513746653,3.7248889449313056,-1.4206254092792863,-1.541433506851802,-0.04427877069117614
155.0,2.85275095927156,0.44510970407415407,-2.4076412551974125,-1.615612081466494,2.6641227666651526,-0.9380307760320641,-1.6300328139074327,1.7651770424384279,0.33132032663534705,-0.6807970021479833,-0.33404361605169075,0.9209063747442693
156.0,-1.5616122277906956,6.443376478704146,8.004988706494805,-2.4847676046726037,-4.755183840395875,7.182343906311831,-1.2612048334511359,-0.766646646971127,0.8404660453824809,2.6306608754604515,2.3676172808414035,2.0825048791783543
157.0,-5.128774137219286,-0.5303789352175654,4.598395202001664,2.78613393018551,-4.9193342366719275,2.065027545647323,2.494489261705737,-0.7574755379267364,-1.282980340138007,4.031337367063149,-0.5587077903502089,-0.7828822594423528
158.0,4.8828289293649565,-3.0038445182557356,-7.886673447620729,-0.9053054049976056,6.404709349386263,-5.4186425402049885,-2.943507960961049,-0.8727757630090737,-3.9963078104613237,-1.0573795969797133,-2.3486254668779485,-2.582200657203899
159.0,-1.3178387608376914,-1.2223542505302496,0.09548451030742333,1.3020726226726669,-0.6870473628668843,-0.5392143029851408,-0.8550549486088436,-2.009742575450268,-0.8381534378077344,-2.000067900625258,0.43923684837087773,0.08943723040723517
160.0,-1.8537363650397212,3.5777462993868534,5.431482664426613,-0.9110235931210939,-3.6208764912415843,4.449752825647684,3.0069570142656628,1.4321404263216422,1.648649016807012,-0.5847762669211365,3.0010908804860996,-0.33381136006489076
161.0,-1.159783696872563,0.711353058343703,1.8711367552163667,0.2527603545146798,-1.5688210650701928,1.2380640145152975,-3.1878933457788987,-0.8401865095649035,0.6149235374379515,-1.6368999937636972,1.2406105901894122,1.2194067880250818
162.0,3.8504621155063665,-2.8197133900214837,-6.6701755055276895,-0.48629931632346396,5.289684587932521,-4.7155851178711465,1.543164694615009,3.2138458144971747,1.7496237661829142,-0.6775459211490629,-1.769358759187451,0.3660185844700483
163.0,3.604748403045176,-5.134294449333068,-8.739042852378098,0.7173362950239357,6.125740130536631,-6.901323118334351,0.7222578085665481,0.2098197483056179,1.1275253477079628,-0.3133353495282199,-2.837613659996657,-1.0296149825797007
164.0,-1.9056312436571679,2.6527494727680114,4.558380716425257,-0.3389250282612518,-3.197585034117796,3.6487071477010447,0.5439379038815342,1.4242721898562662,0.63674397310104,1.1876576288415104,0.45253015762334337,1.3305589071665127
165.0,-1.3320294661942853,5.3608111000960905,6.69284056629033,-2.055090571319856,-3.9778072883056317,5.9996686422299,-1.4895903790409437,-2.045882075948281,-2.0685546561854196,3.3341526813448645,2.2244165199880883,2.5183255424357656
166.0,-5.116058863135566,1.7999904266533244,6.916049289788766,1.6985653930869906,-6.061465748672129,4.338287673971006,1.5380560232952856,-2.8280271382380118,-3.596339883108867,3.955090933136921,1.0813977269284822,-1.040199971327029
167.0,-1.9629878264174465,-2.190949465621597,-0.22796163920429402,2.03947815243324,-0.8365481104432577,-1.2242796555322646,-1.7543202297595681,-2.259838666065102,-2.1959200730498294,-4.767496138678801,-1.9466190881851966,-4.583071176587584
168.0,7.437293034345252,-4.751785464717668,-12.189078499063003,-1.3029721940272085,9.762662182877913,-8.483456541535874,-0.2381646431122446,1.4229633655528848,2.677677154065756,-4.295188082079916,-2.9514817592853655,-0.31841477413962904
169.0,-1.1762626938660956,0.07795685100820116,1.2542195448742879,0.5064703702686679,-1.1891273740962514,0.6522972577447814,1.9395455007652873,1.6791319486982441,3.4973729014154604,-1.6552040006017088,0.09064066176818408,1.4866690904972752
170.0,-1.5704819737764173,-0.13506852022336702,1.4354134535530911,0.8832856911473213,-1.4772570945132835,0.7130864787883724,1.119347162809896,3.561132859245469,3.3031642356204762,3.501978007390573,4.585271064805915,2.4027112254743566
171.0,3.0415630260922946,3.139594331025895,0.09803130493361967,-3.0666862086250117,1.4207686410806255,1.6009146855489795,-2.86512686305821,1.2681225534367282,-0.7268274587283194,3.762040704347578,0.10926932143993406,-0.2796905821891016
172.0,3.2875545111446023,2.176257540652796,-1.1112969704918136,-2.793330852197133,2.2319168263317186,0.5130351681449878,-1.3213613209715231,-1.5504156465804142,-4.005046980541833,-1.1250508705423137,-1.8541171828491345,0.11338893313059673
173.0,-4.190635885944561,-3.5828405016427824,0.6077953843017376,3.8988697106318977,-2.3598946235065137,-1.429714223026357,0.9361280457640457,-3.074293642643934,-0.40608529169076935,1.4284402422048512,2.496394628158227,2.000626876706355
174.0,-5.937240593209781,2.390101572481517,8.327342165691274,1.7831611377396666,-7.164047529793163,5.335158906003004,1.9462859223496485,-3.2168897020776877,-0.40959609779144923,1.1649742840862238,-0.09315534485414068,-3.6230511325309083
175.0,3.3618273925628395,1.299850472920288,-2.061976919642574,-2.3202941868522764,2.6871490414147217,-0.40955709539329743,0.5237913289900588,1.9611982639209824,-0.6219495187468628,-3.2416131861092494,-2.0246300531376122,1.2141408029860328
176.0,-0.18599231244329173,-4.680376710228119,-4.494384397784787,2.448192751322109,2.134523075532677,-4.623531592275453,-0.29714367896898175,1.052808308925951,-2.1992969976501544,-6.117417605575789,-4.201607486876754,-3.6887809190220597
177.0,2.753278342106239,-1.3271395369475347,-4.080417879053686,-0.6910021082216578,3.478470059947481,-2.6707649445552257,-0.0331059455976839,2.8638851887277097,3.7347164876617636,0.6928204099734685,1.0293630843640205,1.9048274896109036
178.0,3.349663538902974,0.8049157067563043,-2.5447478321465464,-2.125873874120732,2.9302069192600557,-0.8465266973427665,-2.3050224731068742,0.6146947407280474,2.7569086895010084,0.6753719569181547,1.975414479397998,1.309430325643197
179.0,-4.232352922530138,5.426972747239838,9.659325669770038,-0.6384016720719755,-6.964403827487677,7.559263097084656,-0.011696559351328517,-0.987762066773669,0.37176446235513305,6.355778711430015,1.21221246147722,2.129650734213029
180.0,-2.1926122933849523,-1.3401618751097732,0.8524504182751698,1.8096801765648642,-1.5432584079681022,-0.3092648853498505,0.2595070192611693,-2.8955600871477203,-1.803470835363159,1.942632256008098,2.5579316050437746,0.1413936899594157
181.0,1.163165690736458,-0.915122789566949,-2.0782884803034922,-0.07763795192054551,1.677191208817021,-1.480344551912072,-0.21299946699869365,-0.8141426589681997,-2.54758669230651,-0.5684013199665363,-1.450934199954293,-3.249634142262024
182.0,2.3113784978022447,-0.8557913366129772,-3.167169834415371,-0.7598207819374221,2.717011976520823,-1.9863315619632482,3.7434790623461605,0.7993206832203414,-0.9801644524036328,-2.042077315821012,-0.6052304259199007,-0.06052877623977193
183.0,-2.2242182791697243,-2.727717014885626,-0.5034987357160003,2.4416931840897975,-0.8805661850534636,-1.5774661638807017,-0.8729570103688332,0.528104991208109,1.5921757050884755,-4.464201754248713,-2.1238925660154435,-0.9236826694466636
184.0,-0.7870068832636798,-1.1738286643119813,-0.38682178104837495,1.0205661699734003,-0.21650126256924157,-0.8066547973648882,0.45357085824273413,1.5198279536975465,2.001878933739103,-0.42734530197180565,-1.479466412191241,0.9736468705438577
185.0,-1.1274540192863791,4.385722660698847,5.513176679985211,-1.6733476637723075,-3.2535366697839816,4.935113837549302,-1.8493677972078193,0.5664876356582323,-0.6976678104996847,2.7047935249152326,2.3457161605701637,2.4636985001163207
186.0,6.090078153890639,3.7109622225843135,-2.3791159313062527,-4.871987047264861,4.225921206811964,0.658135098539633,-1.3719418012478584,1.1525758161594375,0.10838162795061633,2.9938474834715487,1.1867716360018359,2.1981800926881703
187.0,-0.6199149885309274,-1.9229197859855167,-1.303004797454492,1.2942688559250577,0.33301495711120466,-1.6214001942518141,-1.6703301609510712,-2.4370037578126587,-1.2495116661653325,-1.4284170225330395,0.36691648219925743,-2.3248495377203495
188.0,-2.5193526897858947,-1.2707539707335478,1.2485987190524162,1.9129014378008322,-1.896970940988248,-0.027185721402489316,-0.8481468241693824,-1.7637930169700324,1.0682864488364392,-0.7099570640874662,0.43904705739365213,-3.20908862791774
189.0,-1.2294348201101217,-1.5402084576870545,-0.3107736375768872,1.3196621593804159,-0.4815037147667718,-0.8755684146837424,3.9601449454971016,-0.022808598270942726,-0.30523078764168143,-1.781323695961777,1.9586106875876488,0.5789033376510269
190.0,0.7155842619965661,-0.7311539409607686,-1.4467382029573477,0.017903861421069145,1.0467568594259804,-1.1324529315534284,1.3715760225978975,1.047969116962185,-1.3717340397392772,0.9429865202341573,-2.9468353186942036,0.5680731414803863
191.0,-0.23047558578339386,-2.220638370614592,-1.990162784831228,1.2332193440476162,0.9119748177908935,-2.083517204761155,3.4860088038615293,3.046414864475284,0.77712076836591,-0.43735124565716543,-5.782571399870518,-0.44151590368221083
192.0,-0.7287401047477138,0.6726550559537644,1.401395160701462,0.03464480350597163,-1.041712018709101,1.0494781058493738,-2.6202054846147993,-1.4021567087187081,-0.7298330736790002,0.05964695735995168,-0.41258786897652033,-0.8796518494784911
193.0,1.7117960905261846,4.791828635907664,3.080032545381494,-3.2445946128152796,-0.6636387301329971,3.9442710037959423,-2.3673254782401507,-1.2552903658349281,1.0480737768657293,2.0912099540259774,5.06726198066938,3.613554333678474
194.0,0.0315735561581576,3.3788007823992943,3.347227226241129,-1.695754938319619,-1.6337556750838353,3.3726227675878855,-4.118118409336933,-1.0756986631599497,2.4254961258188663,0.5282260158200689,4.276026710733379,1.386368319309751
195.0,-1.3237381603748568,-1.3526034550792199,-0.028865294704402356,1.3509447601548896,-0.6934942273696234,-0.7541703364620949,-0.03962255423252525,0.23031039084790417,-0.5140183386711797,-0.5365096449873235,0.3109841748328548,-1.6917875074303725
196.0,-1.4117356275479291,-5.119328512969677,-3.7075928854218625,3.2033702712068233,1.1127542264376689,-4.389428529366164,3.0265517983792565,1.2113677147324557,-1.4900576031636668,-1.4704269022982668,-2.1664241689881667,-0.4632173848136272
197.0,5.0467439469950754,-3.8827937509294164,-8.929537697924602,-0.5616228179458109,7.041818070461208,-6.371856289131976,1.918080814580095,-0.5732947089774443,-1.925207679342848,-2.0267942995644965,-2.7052416341130447,-2.6976111049921476
198.0,-1.486241285705897,-0.9304584776982068,0.555782808007649,1.2322338701603788,-1.0391487275178908,-0.22121075141267532,2.095482530716819,4.193150896782163,-0.026917095640728528,1.1997648392681548,0.8696493961207024,0.7396129398388609
199.0,-0.30852925167978545,3.9111774860406436,4.219706737720477,-1.773964484806752,-2.279660018579369,4.041354001894573,-0.056997036809737,-3.5616355738155825,1.6734289967329492,1.7010200134713926,-2.0912277689731895,-1.4131549222811013
