Time(ms),I,II,III,aVR,aVL,aVF,V1,V2,V3,V4,V5,V6
-200.0,-1.278477520570013,-3.4617184743530998,-2.18324095378302,2.416324247074149,0.48124608599393914,-2.792505096007141,0.931535118854705,-3.273448207613772,0.5230793399034104,-1.7268065833576838,0.05350630956912572,0.9864188543044623
-199.0,-2.874363041432982,1.4149354907390852,4.289298532172092,0.7068857555297571,-3.6312877946520175,2.881162892224422,1.176928482718446,2.919828770544161,1.0291546776937484,1.7224035635770278,2.3980355595911194,3.8036433141527652
-198.0,0.045008388717606373,10.014332615508021,9.969324226790409,-5.044419772579702,-5.01193644031293,10.026186178335156,-1.5098709224859719,2.4710461896170974,0.7566853875412727,-0.7412454396721663,-2.282912491984451,-1.7949039902542094
-197.0,2.1334258565760735,9.71771486697037,7.584289010394217,-5.935772944696508,-2.6969212336944954,8.616246637448006,-2.935889865169074,-4.522446740381698,-3.2133936957492306,2.0361787786580297,1.4065190613211906,4.1357904354020905
-196.0,-0.550311160465329,0.7819168669180314,1.3322280273832612,-0.12593301829770143,-0.911959604078739,1.0330440881568288,-0.2720013283808076,1.1107459979498184,2.063910948992625,-0.5979677413839279,2.8151859838298408,-0.07114778796837973
-195.0,1.6763071017671123,-8.65738079946271,-10.333687901229947,3.554934338406217,5.959079160006211,-9.5108789821318,2.632735104713046,0.8476405698820457,-0.6042957857285732,-1.0110771579488662,-1.1056167523740097,-1.6489461541664001
-194.0,1.5329510847343584,-9.444571484023134,-10.977522568757568,3.934098653241616,6.29488429868733,-10.221588723951049,2.505319442555521,0.439313099443405,0.007887688074220855,1.6123758234244407,-1.0916894468746905,-3.7772438885636883
-193.0,1.4203259392909564,-1.3747657504248831,-2.795091689715842,-0.05312346446737326,2.1564808804736075,-2.094646965151509,1.8808695450751685,-0.25598284437525876,0.028003980009293106,0.7614152238341091,-0.10829270601188123,0.756401695015608
-192.0,-2.405161027203215,0.4909634845000197,2.8961245117033396,0.9190703241271941,-2.6717133056031974,1.7606730356758549,1.0269465276181169,2.1185685327658215,0.2815673135186084,-1.345409464349225,0.7210939639290265,2.6429244131126026
-191.0,-4.133627174287413,7.827792719278873,11.961419893566422,-1.8110465565259117,-8.063135411186702,9.880091090637565,-2.9444582887369193,-0.40232014232292,1.2148189458367606,-0.04215184491043189,0.282884980111357,1.5580225041568787
-190.0,-2.818283139883198,6.731847901016203,9.550131040899505,-1.921242808794906,-6.20035791388841,8.1239592176403,-2.5613416619196503,-1.088518539681769,-0.7428873843450023,-0.30672911736527914,-1.8513899568746872,-2.9947094393786386
-189.0,2.0263043137437853,-3.721161288909146,-5.7474656026529045,0.8864101082115042,3.863654802849295,-4.752940965396416,-2.5379267766692273,-0.18758916859762065,0.06333298905148932,1.0784062483861927,-1.7820485468145524,2.0021188171443187
-188.0,3.0796696445907523,-3.2165473849349366,-6.296217029525695,0.03435362377340184,4.653137530462423,-4.697262722076795,-0.17201179090622487,-0.9196115532575422,1.698282626681141,0.7579719137018669,2.5652580619858285,-3.0762193145899177
-187.0,4.599970696065334,-1.362927854626659,-5.9628985506919925,-1.6471015049440112,5.313400827932865,-3.683835307844686,2.192926806127717,-0.2965176955969353,-2.164050924508338,-3.1391533363645863,0.3758010455122196,-0.10503759949432845
-186.0,-0.3713862583049279,-2.0171027104263235,-1.6457164521214116,1.1689649608255128,0.6613820393523384,-1.8548505791548502,4.164792020198004,-0.1413255215156714,-1.7229185882187443,-0.12756423302839714,0.9728829554659579,1.4054178491716562
-185.0,-2.6321313129994834,0.87455070344167,3.506682016441153,0.8538217575196885,-3.0454016205046157,2.1629609352143486,2.31851815473554,0.278406951809676,0.4559825413439814,0.6398381185235436,-1.651314344809811,2.0843246747553397
-184.0,-1.955154490357978,2.184701602136143,4.139856092494176,-0.06310616661923263,-3.0155613921410716,3.2077665029100637,-4.030936870260231,-1.1682687248172834,-1.1382076487959478,2.138305347987863,0.9334287408331691,0.25051935860025754
-183.0,-1.3111100752194031,2.2782888664099428,3.589398941629353,-0.43514160000899316,-2.483322274926108,2.8945565507872173,-1.3185132557207975,5.577629542315974,2.1381727775222634,-1.6921864880608108,2.1795774059624518,1.2389912953241942
-182.0,-0.6376965453023529,0.3800010523360622,1.0176975976383873,0.09548081564625199,-0.8456220747484444,0.7330721673005498,-2.470663173163695,-2.00578087451978,1.660420290035511,1.8874034686191503,-0.4765233457151893,-1.8922596604913893
-181.0,0.041742830987206214,-0.997878503730512,-1.0396213347177887,0.44247272653654307,0.5345239921596415,-0.9880741004920236,1.9586296020885134,-1.5260061682157275,2.508902471179545,0.14941759892833167,-2.240077759859894,-3.0619170152751414
-180.0,5.952361631315852,-3.563201190180779,-9.515562821496696,-1.152770960794679,7.732715464536098,-6.58902311246726,0.6277308421754674,-1.2257789414280635,-2.515457362670746,-0.49619541045324056,-4.7762121567221225,-1.673374346237417
-179.0,-0.818310488170348,-1.6919957560626149,-0.8736852678923066,1.2173873508481337,0.023421441895113748,-1.2536454512317197,-1.1521305014449141,1.3557600496345417,-3.0606009755110297,-0.5847891662599163,-0.9519168305582304,1.808725558336306
-178.0,-1.1656633769210707,2.1543158816837407,3.319979258604781,-0.45414579554212997,-2.2564920624610583,2.6886415597077713,2.7808620949675773,0.869435337833485,1.1514866666907597,-0.5957795402866732,5.065085619255645,1.388128695472584
-177.0,-1.7801677946486862,3.065150304552673,4.845318099201346,-0.6822781042245291,-3.3387223868497498,3.9867250014537645,1.4607814244449921,-0.03899929103735256,0.8826504718302204,-0.8979522658704743,5.537494175119189,1.6537111205550201
-176.0,-1.235710436055391,-1.1864900208969917,0.049220415158460984,1.2481876027289487,-0.6008360689717338,-0.5363565278261102,1.1593703996719085,-1.403659836210804,-0.9960079145161694,-0.31431608353171625,-1.355784886912347,1.6136659711395835
-175.0,-1.3013605783489341,0.8235543765455718,2.1249149548946438,0.19470783415618448,-1.6783694404753475,1.4276300813131428,-3.193721676967548,-1.989871882372311,-0.6806822733134335,1.0168064240527224,-2.103000762528188,-1.4210675086207125
-174.0,1.8590806701615075,-1.132695425145497,-2.9917760953068493,-0.331587994271273,2.458641510606123,-2.0313327732702096,-4.275282575606599,1.314676421939715,2.129638470152274,-0.4652627274346248,-0.8634827902506752,-3.800624178632436
-173.0,2.504376331596605,0.9241012227489306,-1.5802751088475966,-1.685574066294156,1.9992908734728754,-0.37813957060252235,1.178875696108686,2.261777180638138,0.5685119717885654,2.8344594146318642,-0.5909148222214373,3.2450327437116546
-172.0,0.5194134050117674,-3.1722526245935234,-3.691666029605336,1.273977192965431,2.066376971132942,-3.4059859471280802,0.5764176985403713,-1.2892094507831033,-2.5905311481997337,-0.7832801694718767,-2.1140751031769303,-2.5720155043120165
-171.0,-1.3101873257054693,0.030082203348762437,1.3402695290541393,0.6652722180657487,-1.2831192051886289,0.7084686967129978,3.6785210856425,-0.043328215161797884,0.7739663879980334,-0.5913895700461939,-1.2242998226454551,2.4515967860264523
-170.0,0.33600533918504694,2.408941558279132,2.072936219094014,-1.425132707159801,-0.9054152616134766,2.262054665256465,-3.0250248976211878,-0.7272610494209248,-0.313701657476506,-0.9017441492061091,2.0367211045400797,0.14079144741836502
-169.0,-2.6251051675649597,1.8305811518744197,4.455686319439381,0.42657341582484026,-3.580139009935158,3.084105956644041,1.5396426782686015,2.3970345443079766,2.7931728452656124,1.1834684549333256,4.58569862574533,-0.24987441083674133
-168.0,1.5456264830742104,2.6303291171714465,1.0847026340972885,-2.053452322791729,0.2660730629558936,1.8768460110852436,1.6169760017031751,1.3994647903620792,-1.3392678911162306,-0.8818452802156271,-0.8703283875909733,-1.7189057985172718
-167.0,-0.9237573148556142,-6.880034400745968,-5.956277085890253,3.942225792595111,2.550297801988516,-6.397887529708807,0.6788203914472344,-2.2795667987674912,-0.11961788497983827,-2.430339373292112,-1.145355638289697,0.17338900081533049
-166.0,-0.014027205429885448,-2.2403413866786046,-2.226314181248684,1.0929215061760584,1.1421985089936655,-2.289075907015005,-2.7953516163500436,-2.0186430517068126,-1.9540857630343906,1.709201781871223,-2.1066470544451943,0.760211103094744
-165.0,3.4266757409423594,2.0451473470726595,-1.3815283938697969,-2.7699166804589526,2.3673206735253105,0.3597332735055785,-2.9704555413080196,-1.0793454801548956,1.106143482316305,1.7561605887321639,-2.3556083873986275,0.1081397943347599
-164.0,-0.5900135690720751,2.085604594506513,2.6756181635783958,-0.7866500754832185,-1.661019157316385,2.4155951104305546,2.2214608430983573,0.8015339491471865,-0.32578300267575155,0.9868836378786071,1.5724337587656974,1.2595241262068433
-163.0,-3.3053672357691752,2.3289833350119786,5.634350570780953,0.5186490130669075,-4.489068213092025,3.9462804642831104,2.609053749784845,2.0321365927286252,0.10316073513528823,-0.9711249130935758,3.200862065239875,-0.9680573649199233
-162.0,0.12861235944183624,1.8012080308148095,1.6725956713728412,-0.946340944502153,-0.7055836633123196,1.7883502781875016,-0.4303859104196104,0.6899588070980514,2.904952819030573,-1.981609176929084,-1.501950815483075,-1.7162886329840603
-161.0,2.7933480671557316,-0.22990940757585976,-3.0232574747315972,-1.2745202120361616,2.89851096570047,-1.6480932957763368,-2.1661082966156693,0.9386962917195459,-0.7076043020698335,1.5297514762964846,0.9572497450154795,3.052759362016772
-160.0,-0.44866477045890774,-4.837346481773726,-4.388681711314652,2.6421246555936064,1.9571542328752338,-4.632643873811794,0.6002317478509851,-0.677077865950793,-1.864607820460539,-0.3598537341559121,2.068100805813514,-2.4906373378502398
-159.0,-2.732475031746015,-5.817951199610893,-3.085476167864571,4.27132966068081,0.1550221184592775,-4.473831136713694,0.23772858271862532,-1.018459113794387,-3.4602553719211486,-2.873047330950248,-2.642723495849581,-0.011971492758734548
-158.0,-1.7597254121356194,2.280811712876343,4.040537125012252,-0.2618887419948981,-2.9342014227695685,3.1327770977312928,-0.46543018714440065,-1.7910803975947573,3.962749586924399,1.3164954145961945,-0.45490037707174236,1.0981991017955393
-157.0,4.882936737475522,2.6650201959995523,-2.2179165414758115,-3.7680147859750894,3.5813811187941758,0.267613615636236,1.1189804079981678,0.2669029701809785,0.9390844582295794,1.5643241643432384,-1.3774378945992627,1.3770454318940406
-156.0,-0.16516350795626722,4.9955261683707874,5.160689676326975,-2.398736945898655,-2.6436028029199843,5.116925293099259,-1.8672606916155832,0.7962089998926735,-0.6266142660892176,2.758321891378082,0.011745627574159867,-0.03278292124231752
-155.0,0.5931821255605244,4.352246635959117,3.75906451039834,-2.523245180983266,-1.5706017197031545,4.013782896147038,-0.2876268217287369,-0.5566257245421152,-1.4339922129308773,-0.9995049404404122,-0.8029639840695912,-2.206070938427096
-154.0,1.4213745784101466,1.429554467440414,0.008179889029961362,-1.3857998384126107,0.7176873851910939,0.75737615205296,2.141874169219463,0.9117277552034992,-0.3179968870719287,-1.1625258948384904,1.9790006929201578,-0.045124593250078004
-153.0,-3.268356026110066,-8.470918429126858,-5.202562403016952,5.8406282451607066,0.9821790765132459,-6.8730238831621975,3.3395884530285187,1.3669311032283527,2.1185081899471534,-1.1322636198260914,2.492893533551488,-0.020568577646276398
-152.0,-2.9166587933898573,-5.743399909323168,-2.8267411159332863,4.309289758223445,-0.10096020640601744,-4.238485080789418,-2.936719942702024,0.5404447001541814,-0.11898681131995503,-1.3831896878385623,-2.378796233879121,-0.6660795047332213
-151.0,1.2135356124333627,-2.363243342958999,-3.576778955392215,0.6392318257290697,2.348743608642122,-3.0000320835764387,-0.4016415112939612,0.3253833597805659,0.021506690233179103,0.5731588201769274,3.4941295836645123,-0.9855771355965393
-150.0,0.9275841097413436,-0.4497704432422557,-1.3773545529834235,-0.24891315402948874,1.1949002297444724,-0.9445839100979115,-2.759200437656181,-3.2114557763452405,-0.646783242173198,0.2477772186125357,-4.350381210746887,2.1461248136574556
-149.0,1.0508809246727546,7.5588432529641665,6.507962328291511,-4.312791576908387,-2.6764983230198074,6.998573922814483,1.6469297442457658,-0.40637740957776725,0.0748402191828842,0.7563034243659104,-0.3641101264040518,4.309128033782057
-148.0,0.44781469929824524,7.445195934031005,6.997381234732764,-3.9549936567354536,-3.2932541528939727,7.260277085685162,-1.6539230453957567,-1.521794565694125,-2.649087072485627,-1.285903855017555,-1.08457548251662,-2.073206000075693
-147.0,-0.6493932121771064,0.4682431806841212,1.117636392861141,0.07882464474569106,-0.896179592396936,0.8280621149084673,2.452109138000422,2.92235535766205,1.6754034823056183,3.058636435958469,3.557215043635585,-0.6014904466102015
-146.0,2.7838443316250108,-1.5863985446116144,-4.370242876236698,-0.6159396634482489,3.5666083735864125,-2.9443636209532404,-0.9547234180554245,0.9815026881481719,0.8838544006211955,0.9895958370329166,0.4708355586439137,-2.6225452022540576
-145.0,-2.5892871611932833,-6.848780089556586,-4.259492928363328,4.773981413821947,0.822427451671125,-5.5970146616837795,2.1432070651534088,0.7997462028097695,-0.20522820067672276,-0.5944672949025886,0.03143638153182016,0.44221225290968924
-144.0,-1.348266481067267,-5.357397303505048,-4.009130822437707,3.322728849957524,1.389532648828306,-4.722032285025043,-0.6525970951520234,-1.402861123930579,0.1611774224600528,-2.278006686253546,-1.697523700255392,-1.104291197756367
-143.0,-1.4167294025345787,1.9782841563489963,3.395013558883703,-0.3155991993465932,-2.4366055137565166,2.7313143671203837,-1.0986928346195344,1.5083712567260406,0.6468010812126945,-1.1697126806734859,-0.2468917253808155,0.6853541423847767
-142.0,2.649447686613988,4.379712807159057,1.7302651205452093,-3.4730244253013476,0.41526701213675754,3.0244690258053875,-0.7047511841910349,-4.041684265677353,-1.1183658041666638,0.04073105333953975,-0.5085370449116995,-0.6169487599749179
-141.0,0.36007457483203864,2.716022619604245,2.3559480447722843,-1.4965861823272766,-0.9771632175927664,2.5854190884157235,2.2107785723195983,0.308501554100036,2.3689430815540877,0.36281257209582085,-1.771331210728963,2.9298175196397027
-140.0,1.0304834705406087,0.4152816991819335,-0.6152017713587448,-0.7589111762827769,0.8327073930153676,-0.13089488218337086,0.12414392482583797,1.7296402981018022,0.5134289594004608,2.3821938168386136,0.510635201847268,2.222949539303584
-139.0,0.5539165033192077,-1.1924640455713365,-1.7463805488907358,0.2844052592905518,1.154241103153558,-1.5043284302837678,-0.3269347108881565,2.2078941695713956,-3.4924329078698064,-0.0677161053671318,4.736165106833124,0.06591294889833366
-138.0,-3.445371629676906,-5.750182957646784,-2.30481132797005,4.641328932587912,-0.5656505872003885,-3.9886665750101664,-1.9077440704688422,2.183066859812044,-2.2216024012398936,-2.111188410985859,0.7426646424897623,-4.562148394186543
-137.0,2.6138991040137673,0.007964441139544753,-2.6059346628742963,-1.3487276710083025,2.620853894198339,-1.3432271133717497,-0.1997952083154907,-4.297968998625108,1.189972357012542,-0.6328664230535384,-1.540872120041639,-2.758733543751726
-136.0,-1.7697010937264928,5.608663304090564,7.378364397817126,-1.8832759489460806,-4.553201306203368,6.525848030520103,-1.0638525768497076,-3.3895073670805473,0.38973699010189955,-0.14645872554214412,-2.4550130618980517,1.963712727053965
-135.0,-1.233359773729384,1.5477425346951648,2.7811023084247006,-0.205686516891589,-2.0548456771731356,2.1972105931638284,2.178529572033144,0.14833058653071962,0.3501005838284841,1.3415558531299245,-2.4716814923513377,1.530354917747857
-134.0,1.089449733202842,-1.0190881775892828,-2.1085379107919877,-0.010638939261192693,1.6377084675670388,-1.5287585597137727,0.033011478100410496,2.92476338289955,2.9232136541765303,2.3851612718717905,0.5191899270766571,1.1960562704801534
-133.0,-1.6867365031169057,-0.6193645420840231,1.0673719610329013,1.1735371659733715,-1.4142664080513196,0.18263793203716283,1.7483820149347271,1.57980717712143,2.8362387489197003,2.522606910409266,2.060303197035734,2.0006822805064495
-132.0,1.9267867166160597,-2.5286444804040027,-4.4554311970201015,0.31994128694710117,3.15171157158977,-3.5327406260948058,1.2716724261854948,0.5675137750100248,-1.4263795121732408,-4.112422791126471,2.7273114969767613,-1.140212815140583
-131.0,2.661301351839423,-1.3394408841548755,-4.000742235994366,-0.7193902387573344,3.3647176223290116,-2.712496850034947,-3.0548475940656026,-0.9750111811972276,-2.957807080892847,-1.2729353475900989,0.04029403744964921,-1.9139031200679306
-130.0,3.066803501552561,2.251632359228969,-0.8151711423236427,-2.6354361546147764,1.9682100020151512,0.7512440197010148,-2.951598444148725,0.6934339980036025,-2.0392315567448827,0.21960292374711554,-1.0032013642741364,0.3020456492511032
-129.0,-3.078661046410897,-2.178756721007577,0.8999043254032899,2.6571992278551937,-1.9666164068426315,-0.6097053853897108,-0.028563357466761197,-0.6819013660703939,-2.0859025549722845,-2.0198848643753813,-2.7062175826616413,-1.5220476365563376
-128.0,-5.468801342339222,1.227601623001286,6.6964029653405,2.075120351530338,-6.139447096364574,3.989984576213056,2.385756353051068,-3.013875715504664,1.8902039569534586,-0.5361020766681993,-0.6028387428657622,0.6716866398676151
-127.0,0.7927379325560491,3.175956652655223,2.38321872009918,-1.947222177854647,-0.7697614501373344,2.8078104180659302,2.341968588403644,1.3477520887930405,2.5996719268326647,2.1863875691835704,3.8299953360191807,2.0141877178295
-126.0,1.3982180979364296,0.004699772968835836,-1.3935183249675442,-0.7407648034759511,1.4284720483707554,-0.7435932797734457,0.9503729190117789,0.12458007061129289,1.3207335743384432,2.2472652026538964,0.044294188092092845,-1.4433547860696285
-125.0,1.8862068271528938,-2.7432807932821905,-4.629487620434934,0.4686725015522264,3.2206503019290964,-3.734732132840442,-0.9397735747040546,1.8907141840605937,-0.07830540985566836,1.2854275425313768,-2.285058775693855,0.46852438070181124
-124.0,-1.8820245289925241,-0.8853247735577529,0.9966997554349359,1.3445359320887096,-1.4678743293425924,0.08497130726865332,-2.3873488757218353,0.7628121250373303,-1.249431032644453,-1.0031042742700236,-2.4178100570563528,-0.1330815352032821
-123.0,-0.5070418005458037,1.1684582648211246,1.6755000653669845,-0.2920710158508126,-1.03446512964877,1.4475908605448893,-0.4023285718638132,-2.681798677810278,-2.279200391702675,-1.5170014595582033,0.227992570053704,-2.4553965825482615
-122.0,4.138779645750763,1.9318352108115173,-2.2069444349393086,-3.075968096881632,3.1542051410306056,-0.11768238465983913,-1.386175987444091,-1.1121347579988758,-0.37217521900302697,-1.1010489716361584,1.5956851747469647,2.758649171299066
-121.0,0.28149693863121583,-1.0750765999827387,-1.356573538614084,0.4354600638123194,0.800131575558394,-1.2810509850659606,1.8814807478615014,0.9496851325355713,2.2862871987735143,0.09515434149460789,2.833817729205967,-0.05834393152829753
-120.0,-4.1456592142196005,-0.9060778801793756,3.239581334040074,2.487762909978065,-3.714670601931492,1.1754153564084064,1.2404896788502648,0.8026208762575963,2.636230098362204,0.7925903010869835,0.3279597140608723,-0.7863403328965177
-119.0,0.26700889995919885,-0.6890410749221859,-0.9560499748814557,0.2546789675966641,0.6634290740001048,-0.815077706659578,0.19921995405221116,0.6897106303812817,-1.1840634236607155,0.6758346467937184,2.424992776157547,1.3986988133228806
-118.0,1.4691143492142409,2.1513339422495203,0.6822195930352642,-1.842215104685757,0.36152822317457817,1.428205271417154,0.5159034991710711,2.438661488145634,-0.33393625893904916,1.3700123758100191,-0.5310829468498083,2.1397963012153847
-117.0,-0.13248115378526115,-0.312387972000829,-0.17990681821552684,0.2710145570310011,0.06623724682482504,-0.22553860168166284,-1.2718401024718382,-0.3762423416077054,-2.7569358052035433,-2.50794998432662,-3.261434605089745,-3.160096158999746
-116.0,0.9657582939232002,-3.0394017736960883,-4.005160067619219,1.0059259879809557,2.4460879340564246,-3.4889649446097626,-1.7034715782992813,-2.9843703223274094,-0.5105247200705678,-0.32744619127042474,-8.693623576305626,-0.8274616786836504
-115.0,-2.087703182741841,0.9452250892807113,3.0329282720226054,0.5364582127692421,-2.5231053677368873,1.956810672447118,2.3795846441691486,-1.1405663112957338,1.5955359227692834,2.1259579712692673,4.0907081302603325,1.4736556268761152
-114.0,1.4452965813382845,3.5208147566765318,2.075518175338274,-2.4456497911267494,-0.35828470660240974,2.7761313232000924,-1.7510398611373104,-1.4582990316430122,-0.641714987159631,-3.4983346910711255,1.2064792029717848,-2.053426376106906
-113.0,-1.999965686526627,-1.5415914946127847,0.4583741919138046,1.7217937131858585,-1.1949824563946023,-0.5588108870201316,0.11819392728350941,0.6402081809409093,0.4503900777605951,0.03888509055895284,4.986298450366217,-1.6293531695759291
-112.0,0.4016925003684486,-0.9523978069935874,-1.354090307362104,0.29863114813883046,0.8323508406499929,-1.171630321723447,0.292741395958963,3.3774710117532427,0.8671613010685999,4.004474559649229,0.6867306124579216,3.4929151306725235
-111.0,1.5129715857505999,0.9289849779726506,-0.5839866077780107,-1.2010193921936279,1.0817648899022483,0.22702236466807413,-0.7749136058060053,0.09999140875563683,1.3943140375989005,-0.8555126238362467,-1.9303555900254092,1.9723180969452236
-110.0,-1.731757891143424,-0.5701132467709513,1.1616446443724682,1.1716967378196022,-1.4902088007139682,0.2637610985542667,5.342965961605176,1.7199410457205562,0.17302417275917875,0.053368950898602247,0.9479105969887813,-2.430549040725414
-109.0,1.5330844995116975,-2.8708589035754835,-4.403943403087116,0.6940675395108707,3.0080795713981647,-3.5973175319482755,-1.633503391766326,-2.37773622542591,-2.0911260598791888,-0.50789246997412,-0.8086230978795313,2.6628062268384873
-108.0,-0.008112336139611542,1.7984184354080799,1.806530771547752,-0.9423721074638602,-0.8614181813525652,1.7606552239432494,-1.9732644921457272,-1.79365906070737,-1.4542208106445087,-0.5570065791365246,-2.989987761224672,-2.3759306504293214
-107.0,0.45517229094547784,2.4373387608123935,1.9821664698669395,-1.4872320849675802,-0.789338166496596,2.2481021904976397,-3.1226926769823096,0.2769160366572214,0.814118928632132,0.44319169834188354,-0.49917799323253,-3.9483897359882927
-106.0,1.1120221032142237,0.908656439089647,-0.20336566412461576,-0.9679177662273687,0.6375566689477351,0.3177357847557256,-2.1796597639847417,0.15110637488127404,1.8962602809290814,-1.6834723888404293,0.7342585014634706,2.106854740225908
-105.0,1.0460469270382178,-1.1326042970821149,-2.1786512241203937,0.009576078509810487,1.5947875165966305,-1.604085292933217,4.011136919994279,1.38944855029806,0.606709450194831,0.25989445486464424,0.9333909949429232,2.632184829499574
-104.0,-3.7704285273439337,-0.6305859052330247,3.1398426221108187,2.246715509446496,-3.474190732921079,1.2347031793148457,3.196599545545282,0.9356122415438837,0.8837447266923641,1.6915416755445447,4.57118457145485,1.7770167543898605
-103.0,-3.226683820301444,-3.7896814758878015,-0.5629976555864149,3.476403414182546,-1.277443680302035,-2.1919463763632976,1.1816649712380813,0.14420353139994263,-2.201553587359498,0.8868578076171462,-1.05177869191974,-0.12058750124763473
-102.0,3.1833689167258314,2.466002313628201,-0.7173666030976323,-2.7763230501953373,1.9182025575985846,0.8584857790910041,-1.9959423952669424,-2.92147374712429,-5.109971315202592,-0.7172295948222598,-4.039475122643854,-3.3683058934243686
-101.0,0.5103743355758357,0.5597389853213638,0.049364649745572975,-0.5627968326621136,0.2685504566472525,0.2838976607894731,-3.860408261336407,1.336378199800506,0.3508288515692992,-1.2010786552276216,-0.9227790230763175,-2.2715644711211938
-100.0,-0.14455710114470044,-0.29190942917454976,-0.14735232802976778,0.19451597440794,-0.0467919916059546,-0.16949065982603087,1.0254157065286944,-1.6933797410233422,3.9349316703619346,-1.4670558325273106,0.3870727530920337,1.3379802576138067
-99.0,2.8451387849812284,0.5865780891455203,-2.258560695835647,-1.734514941589994,2.5773543654852253,-0.8732864534129938,1.1033359404687113,0.9712138192408751,1.3935507637505407,0.5814577769773993,0.43723389729302814,0.124048789536855
-98.0,-1.4235904893920488,1.4330479643831562,2.856638453775243,0.06071641843770126,-2.116482144059304,2.179362118782218,0.4392981457078317,0.4127460505109449,2.3958170527470175,1.512717804537751,1.4075500206327765,1.02846757759453
-97.0,0.45304497481105654,1.1920130142994572,0.7389680394884027,-0.8313111860352675,-0.19670301208221086,0.9965999344857187,0.44580853442951823,1.3673832789156304,1.368053611924439,1.6314798126185401,0.10823793077899568,2.843947796342745
-96.0,-4.194207449613271,-5.809869870348747,-1.6156624207354724,4.995637743198505,-1.2601930250285516,-3.759633009438658,0.025237990357932893,1.096336361049268,-0.36153162100079905,0.5581469579381194,1.4706260477052495,2.496548201058205
-95.0,1.8422487246503958,2.4773306519754312,0.6350819273250651,-2.167013190697869,0.6384468711295362,1.5138147740884347,-1.918904645303507,-1.3105603859729156,-4.141715431066794,-0.8599414299359647,0.5822971246057307,-2.0659376855805123
-94.0,3.941451239038072,4.22066002426617,0.27920878522811016,-4.09253896271648,1.793609169659786,2.2930626504464158,0.44454095379395453,-1.110361042326363,-4.817144862618893,-4.597402689647059,-1.3660116238665185,-4.831028695356948
-93.0,-2.1091420268344616,-3.723702911097954,-1.6145608842635275,2.8982249845431944,-0.2787658809494671,-2.6190011514102167,1.6004599577862066,-0.13388622367654335,-1.3066858730834432,0.81374311755196,-1.262661255150479,-0.5765687297513211
-92.0,-2.527754200684144,0.2011820661379251,2.7289362668219885,1.1380076909493013,-2.575839205229562,1.4413157045665468,-0.6708619045155129,-1.0717338662118858,4.1840839195796615,1.862275170208965,-2.0416375440134633,-0.3947989997965464
-91.0,2.042881265587677,-3.1098091719793146,-5.152690437567077,0.5820003481843898,3.5760170840350627,-4.154323063336382,-0.09901167844967962,0.5679780554860743,2.8863143908897433,0.6608867631425523,-0.05716488562050548,1.5164010126072962
-90.0,-0.14050737278814152,0.7154095149691913,0.8559168877572789,-0.23975115253056076,-0.5158966645661519,0.7580002223327145,-0.030523046150710748,0.840076854019699,1.0166730059955946,0.5648220051665135,1.49546485078697,0.6580335405839608
-89.0,0.36177176512844045,-0.1021896274504015,-0.46396139257886526,-0.156975856857561,0.39917092963806045,-0.24129238982074447,0.4444686081972752,0.22775301094318146,-0.06977426376167162,0.9428508777233432,1.0044939181329617,3.355067118766075
-88.0,-2.080055571706402,3.318198206620834,5.398253778327241,-0.6386156346889198,-3.6704047163416886,4.309436806037442,-0.2638472053920542,0.9152411762894433,0.2961888079283908,0.1772996938908513,1.657895300385375,0.9740870968854269
-87.0,-0.6516750039996942,1.9777246309873302,2.629399634987064,-0.6731473472782254,-1.6480735914071492,2.3224423636789933,-0.8764899141541665,-0.33068130082880354,-3.0882680647133127,-2.0866284394551378,-0.43028548873749284,-4.289545934767107
-86.0,1.159402951071769,-0.49157871033305356,-1.650981661404754,-0.33513551513364104,1.397377259180396,-1.0594584047133204,0.7115260886280969,0.276944987399365,0.18743857273767794,0.7865675098083336,0.9410824168092724,0.45816551046362863
-85.0,0.6770086731907754,-1.953036789610112,-2.6300454628008154,0.6431929606206315,1.6412573491573872,-2.280592861769473,-0.45224568801995985,-2.8199950945522967,-1.4213006536729558,-2.89875670788775,-3.09441604519616,-0.4951967692303566
-84.0,3.708316817228583,1.3595309638779174,-2.348785853350596,-2.5261569979853737,3.00715953059193,-0.4781193983162628,-0.6500280356034784,-0.2506062582554305,0.3729981608331372,-4.439904471468225,-1.4346546788582866,1.371960692270197
-83.0,0.14158670436556642,-0.26071578470361534,-0.402302489069148,0.0655100717778491,0.2378047711111282,-0.3047747477998257,0.34685271202825885,3.000750686237753,3.1545957599373255,4.713297122543924,1.6168789992499106,-0.33572986957277706
-82.0,-2.1096032334555357,-3.2110376957059246,-1.101434462250402,2.660119863342363,-0.4733572166066053,-2.196447740208867,1.9237937764150845,1.457851741430911,1.5296471797608413,7.019606671956068,1.5058080582669247,1.4730250138258616
-81.0,-0.28119182541535537,-0.5514249675917061,-0.27023314217642186,0.4063508164344829,0.01336601600437648,-0.44085043195009044,-0.5452553551690881,-1.38748989994589,-0.8836767144122886,1.290832128143712,0.8374327322408028,0.3301664900321117
-80.0,-4.181038454319744,0.6876885858036005,4.868727040123218,1.7246212033039778,-4.513299638357229,2.7546629321258904,0.8469443887987985,-1.7109739821543777,-3.227455814681128,-3.1264807740517364,-0.5486971289687548,-2.815301059629121
-79.0,-2.562716731485583,-0.7321795579075605,1.830537173577926,1.6913629692210113,-2.1865408838460865,0.6067521838515442,-2.089113419506589,-0.35961807682801916,-2.9549458689350874,-3.8810367384294153,-3.2211809809155816,-3.3819026813768973
-78.0,3.150276622126791,0.052131497135297966,-3.0981451249915444,-1.6477955027572218,3.1379329218171925,-1.5447989942070341,0.7466417244496566,-0.3080346704841587,1.4935371941513884,-3.7317443819694827,-1.3990508659325491,-0.14616672591661706
-77.0,5.6853944178669815,1.3640764338315998,-4.321317984035368,-3.501959617567138,4.945115426481508,-1.5021613400572653,0.621576678512151,1.8414183333019922,2.6027720058553205,-0.6785606573649028,2.2052144637181814,2.5890663992457315
-76.0,0.12374435304287168,4.416296492128783,4.292552139085979,-2.253635737633373,-2.0564083270242155,4.408344841113678,-2.2844145004232983,-0.7109475238188017,1.0141831684904838,2.424858571885588,2.943095072076739,5.872003285187189
-75.0,-2.9831373138860426,-0.811632197593924,2.1715051162921957,1.910116713703226,-2.6219391364038573,0.6548328435883756,-1.7227095630171845,0.8251438678675298,1.34683776588958,3.749678056505861,3.15996778934389,1.5033384396778482
-74.0,-1.9139689394489519,-1.3936572655506458,0.520311673898383,1.6647253093118408,-1.1793626776538169,-0.38303888190538254,2.13763756045156,-0.7058166280757898,-0.9054414907664273,3.1398876841756707,-4.02806490642466,-2.9302956290695157
-73.0,1.4306011342172889,-1.5145968771227505,-2.9451980113400253,-0.026835779104130486,2.2266527392931286,-2.256444825770262,2.645135808246948,-0.07430303289497803,-0.2794079194948411,1.2357286680440516,0.13112716599654517,-3.95759320807432
-72.0,-0.17071742013044,1.638808209719844,1.8095256298502367,-0.7248057230558997,-1.0312601920328164,1.6930750265676648,3.3059122009965183,1.4328756821584128,-0.9458364924850321,-4.928284205627899,-2.572020715530107,-0.01396338221508131
-71.0,1.0917145795733112,-0.3711692095720315,-1.462883789145444,-0.3511030940815323,1.2338662024741727,-0.9564636441718126,-4.279341628306289,-1.2966235517944233,-3.5470387530672878,-3.4078139553979288,-2.039470373196067,-1.5364561978669316
-70.0,-2.149111403136682,-3.782908186992373,-1.633796783855757,2.9765621697016478,-0.22476961657477662,-2.680288178931826,-3.0515933663115855,-0.010443415061487327,2.2612797009558334,-1.2662915881085137,0.44407795960841245,0.7604140024526465
-69.0,3.039060324518175,-0.1260003282054576,-3.165060652723602,-1.442341131649274,3.133038381971306,-1.6293321454332463,0.5822341422961821,-0.7867812442186446,-0.3045335706644693,2.092869122903606,2.6939473386552204,1.2160364691417347
-68.0,1.7425716768456587,1.8690249366889093,0.12645325984332023,-1.785560288833558,0.8376023320578936,1.0042718487676128,1.3590422279541663,1.0269342762199547,2.284503455741646,2.460481725164001,3.0981301992558086,3.879826375230125
-67.0,-4.009359293827744,-0.0429753059815865,3.9663839878462213,1.9753707467145485,-4.03876568894023,1.9630627244757843,1.6188129813770957,0.5054031707182252,0.8856284658130154,3.357971640063802,2.7470020686118364,-1.3460945630354564
-66.0,-1.6493326295688122,1.0715710977118227,2.720903727280664,0.3247153028475878,-2.160125852150137,1.8978944795973343,-1.6345258111641627,-0.946385548028615,-2.9752446535115107,-0.23199905080212435,-3.7023583134132103,-1.5778544448428984
-65.0,-1.4415371092592006,1.1819367644688188,2.623473873727999,0.09309929169467257,-2.090706469964547,1.9095630600501987,0.8828699586125575,0.15059957568705717,1.7754466030359342,-4.3769154846890865,-1.8037889689442206,-1.900138387584152
-64.0,2.2292115092298066,0.47117556995891896,-1.758035939270941,-1.3052707977040237,2.0087614109686327,-0.6282856811439195,0.48890842682210367,-2.1548437577689423,-0.2993190221455376,-0.5547373435591016,-2.887111383375818,1.9016304616868354
-63.0,4.787822518007532,-2.5298666951501905,-7.317689213157763,-1.1643603093256378,6.063071083808975,-4.978378039414042,1.1066424431341504,4.623915873382663,-0.7227720393285559,-0.17460773388373085,-0.9836272093130407,1.150186508935981
-62.0,-1.851504162872284,-0.684964225901808,1.1665399369704397,1.3054439678896907,-1.5010717860061038,0.27253855708053987,-1.8096528696247187,-0.8864846463291958,0.3210959004653902,-1.9684092267446038,2.4478119922740778,-1.7816866838026475
-61.0,-1.4684689071077344,3.382659685035615,4.851128592143327,-1.0084674018796043,-3.150447279392886,4.074800992050767,-1.0840191891283684,-2.4136852543329272,0.1542241766004498,3.392657702525957,4.123052517311731,0.5333003634465623
-60.0,0.6200740800636029,1.0023510440591692,0.3822769639955721,-0.795341537306735,0.13350434696738644,0.7309182045422127,-2.223620053728029,0.5776986749257278,0.8656768381267821,1.876691639691819,-1.1561142136676152,-0.5482055051303292
-59.0,-2.4128241763416796,-3.537351230994834,-1.1245270546531265,2.980505395880219,-0.6216896197922009,-2.292752385223184,0.48787571552401376,0.7695277002359117,-2.337706431590018,1.8603320452396042,1.3368404447559947,-1.8931910030697252
-58.0,0.9730520839663226,1.9246382064410437,0.9515861224747613,-1.4500065350886895,-0.03721791411441994,1.3958971627272398,2.4976631085268695,-2.6833387886060303,0.12385984717279974,-2.892923500601552,-0.2000482347496588,2.233915701919066
-57.0,1.1748568995794564,-2.493577849544562,-3.6684347491239686,0.657622504752873,2.3803934561383997,-3.1247449031594625,3.7071531307590795,2.279856534108371,2.0985995629336633,0.20984083574899293,-3.5618919797196984,2.496116627390118
-56.0,0.21971791870968044,-1.4287438012810827,-1.6484617199907377,0.6089458680002927,0.9752649895739609,-1.5036887967772008,-0.7071280839825715,0.5855140231322595,-0.37537594862464085,-1.4228126916950512,-2.5554804229482446,0.4606287852030285
-55.0,0.12621231812302733,-0.6982975772107669,-0.8245098953337849,0.3023935273010791,0.5169150671923484,-0.7242976907767862,-0.10642540990571836,0.8682767207484445,-0.6012017570339718,-2.0228488932583266,0.2594110047259264,-1.4511352632761703
-54.0,1.0456257329955532,1.5635801365943878,0.517954403598789,-1.2731903907045972,0.2244497083691912,1.0036635060840446,-3.261653332892856,-1.707574473984245,-2.51591763515918,0.19563047671653044,1.0773716375000038,-4.7806964050071095
-53.0,-1.3700264840037766,3.4055658576482943,4.775592341652033,-1.0504055815905737,-3.115576291953752,4.138238454988982,-1.699756407416657,0.40095562761677794,2.441448415906147,1.10745056989141,3.723493675614034,4.09635005345291
-52.0,-0.8029374173822246,-0.14718521562242248,0.655752201759757,0.45346375974164954,-0.6963971079287303,0.2291543440285193,-2.3894459304548885,0.22323837748312092,2.0906679547230813,2.091635540465439,2.707849386775714,-1.741042652643359
-51.0,-1.9834719581428237,0.4585541936066576,2.4420261517494466,0.7462233376867915,-2.181349196493026,1.4295108689370912,2.8098079146361092,1.2078027468099402,1.3292420307311081,0.33949168583986533,0.3701194021350449,-0.1402060808002207
-50.0,-1.6567438293366386,-0.1450477910896717,1.511696038246956,0.88421071945326,-1.552581107027917,0.6643176325105316,3.0511814785398736,-2.422855197871372,-1.5938702566933265,2.355965742710403,-2.8103759049447277,1.1880908200727762
-49.0,4.886965577625862,0.04779996759352412,-4.839165610032334,-2.410019700197294,4.817363646977387,-2.4155774064650135,0.8437486603654893,-1.5496730250755744,-3.4942419219432885,-1.850667539855752,-3.3436999804009426,2.4323395794392617
-48.0,1.3489781325474175,-2.2073919079758446,-3.556370040523264,0.40130161653754304,2.4084164035633724,-2.8259944849836174,1.7484513390867789,1.695756836347855,-0.10569051193668977,-1.998589207160786,-1.8267235019458947,-0.6268296768541248
-47.0,0.11192769222381549,-2.2032477103860884,-2.3151754026098996,1.0904765843428672,1.2484900954104614,-2.2076524766244527,-1.524689835298256,1.6175327069800882,-0.6883036030447589,-4.9306435045961825,-0.9762850550378251,-1.335182811016143
-46.0,-1.4132404784386414,-1.0605257358831657,0.3527147425555117,1.1988629839365044,-0.8490514814512848,-0.386291912606856,-3.3777931064982245,-1.1686333126412365,1.0830840747771648,3.870575388231072,3.0058955497688733,-2.4613069154238327
-45.0,-2.4822906847782042,4.043836799133534,6.526127483911797,-0.7418023682026111,-4.551247459570412,5.246880750372229,-3.6732277240655344,2.4303898270062048,4.519783288635523,2.952948100164183,3.7873673433929698,0.6687565672358851
-44.0,1.5244718667097925,1.0785245110256134,-0.4459473556841296,-1.341137104423766,1.0143619873019993,0.27257059113571946,2.539421947880885,-1.3725543780293328,-0.8448414134706961,0.21939423817229264,0.6871812134843593,0.46523373724535716
-43.0,0.11474261180993789,-1.6432382494944535,-1.757980861304363,0.7258602250920441,0.8850378347827424,-1.669969205376436,-0.21336097737188753,-1.5140080702508785,-2.710587895551882,-0.025775545759284757,-0.6138909605607048,-1.558367261953172
-42.0,0.966714404229175,0.056560032087895826,-0.9101543721412793,-0.4697049627651327,0.9660487714795551,-0.3979791721730401,4.215190625716471,-1.911307316865995,-0.519234375335353,-1.6507048492821705,-3.19479919686552,3.5751292013603875
-41.0,-2.8039250880490583,0.35918416950908794,3.1631092575581263,1.2655099546907873,-2.9532934852621056,1.791583344483815,2.557935458028882,1.8516413666234248,0.224952935912609,-2.34476200517767,0.6902574730253499,3.129915138758342
-40.0,1.5416330426100553,-0.015251423173022416,-1.5568844657831131,-0.7985517780200109,1.5841292531085194,-0.8295208426292524,0.3126391375719817,0.7746770899866873,0.25317615612124345,0.7279322529184413,-1.9818402232362713,-1.7276184358425617
-39.0,1.9433789745600385,0.22874742880115623,-1.7146315457589143,-1.122600930089201,1.7906545779754532,-0.7008986190383182,-4.174786185007679,2.6617297410685836,1.5013069916467077,1.4693136750748805,0.5472367749918573,0.3810177180681361
-38.0,-2.4075709926434037,-0.6234720906209688,1.78409890202242,1.55496130201446,-2.1291141169175636,0.5502036347513315,-3.5204299019000316,-1.4257565116927047,1.2981989940501961,1.349120276337437,1.3357641698000877,-4.101448289228614
-37.0,0.7981671755757048,0.9381539377255194,0.13998676214982309,-0.8327573411194337,0.29962588107964055,0.5134506031669295,-0.40822685106116596,0.19599616875695147,-0.510870715633508,-0.8758537223084251,1.947700741833238,-2.5232726775897616
-36.0,-1.3104457108637662,-0.6402314629615283,0.670214247902257,0.9276451115440062,-0.9383775551539284,-0.009487719475390656,1.1024726922494996,-0.8948031664883497,-1.6655183576672317,-1.15910253021941,-0.506485582933911,-1.5067730993994135
-35.0,1.6937934781156234,0.21626201467453204,-1.477531463441078,-1.0058395144227914,1.561171015203001,-0.5788721310572805,1.0223322952120464,-3.0826352459677095,-2.316274219376784,1.1641685132870574,-1.7390196513896037,3.0581355686546767
-34.0,-0.12740004167445607,0.5339917416104037,0.6613917832848589,-0.17544503304227926,-0.33734991612819876,0.6437674656470544,3.4607443633988773,-0.3655647913925123,0.8285212430665903,0.07607125683333377,-0.5229790799859992,3.802093913182589
-33.0,-2.305675083751895,-5.720964884738395,-3.4152898009865194,4.045503546150396,0.536702588229002,-4.60872071391846,-0.8270119784282637,-0.5116327874053987,-0.9598769449050086,-2.4630243267930805,0.05799364062172674,1.8595983038855293
-32.0,1.7230150309101273,0.1672442910260692,-1.5557707398840885,-0.9040323743492453,1.625358605275406,-0.7437330720228761,0.13725065279752818,3.8239132104108298,1.5747539418795273,2.0835796297145297,0.8080026968341107,0.1418011981440701
-31.0,2.6561153666797632,4.702706590765156,2.0465912240853634,-3.7050992647364884,0.29452651622549486,3.3956646050267736,-0.1320067542855285,3.01879332225619,2.975776676105341,2.3869577542681775,0.282883552142411,-3.912714289692118
-30.0,-1.0290531672424872,5.700273645504011,6.729326812746475,-2.3492265197315745,-3.8866134126397527,6.2298609963594656,-1.4749674701012767,2.86913697492505,2.062035013262949,-1.0654388074985173,3.784850259916266,0.9685490994723243
-29.0,0.6035595070306404,0.7403453253011172,0.1367858182704853,-0.6767739842738788,0.22736868205064864,0.45139470815591753,-0.2977643428309005,-6.4125223203290185,-2.9638964375147836,-3.9705050217046707,-3.215227641826874,-0.13533917508690085
-28.0,-2.4691487325309183,-7.7393705296464095,-5.2702217971154734,5.102354168574164,1.3943377089534381,-6.4898240581230935,-1.1374216594014923,-1.7465500719404332,-2.650801075802848,1.0315567342015346,-0.8391043747000079,-2.5428848670950193
-27.0,-2.3500008888657398,-1.4399761967507385,0.9100246921150084,1.8892619482342707,-1.5594284076092835,-0.3226213823753836,1.3530795085094844,-1.5712128615518868,-0.47336622771758097,1.842584713567096,-2.9461720518278662,-0.015429041613014505
-26.0,0.2027354152816898,0.5581521979853798,0.35541678270368293,-0.3955057028109008,-0.08865118468980215,0.48663234208985884,2.583646420254142,0.9991446469296121,0.14472826213930123,-0.5112206551395899,-0.42180557897924953,0.12294167784154558
-25.0,3.6354447987753247,2.0552205340338485,-1.5802242647414904,-2.872341636281764,2.588807442454053,0.2766315675587594,-2.8418687199865023,1.7757386709835277,1.5169800655078243,0.6813717296248112,2.707368594226341,0.8699871858762205
-24.0,0.9709645571649588,-0.8143803432184852,-1.7853449003834734,-0.03756131996304268,1.3499714086945187,-1.3319363513955391,-0.19994338143603851,3.066443501705334,1.2767617266514866,-0.8023789049798966,3.5151393378704965,2.7105948488159157
-23.0,-2.46803700285675,-0.2689487749234626,2.1990882279332675,1.402042448154412,-2.372199369409377,0.9368866201904573,-2.093498545475549,-0.09528241926190173,1.1665641491984218,-0.04001393294681724,-0.7003728207250337,2.9323147457314858
-22.0,-0.14272563790691217,0.6658118456046276,0.8085374835115341,-0.23012796139125657,-0.44514445418629456,0.7870308685484615,3.1483507406001205,0.18611494791593353,-0.8482987649727974,2.183751520466198,-0.9606744114605194,-3.426856862454234
-21.0,0.38952208946588934,1.6159628360131988,1.2264407465473048,-1.047864292348845,-0.3943665897957662,1.3873761940129108,-0.4235931535674562,-1.9182032323700549,-1.9025185002290959,-1.3946928448859248,-0.8414426146496592,-0.6778408729546592
-20.0,0.610268221288635,1.9675530373669128,1.3572848160782869,-1.3294662991208863,-0.35094340482149794,1.6211124723144414,-0.5392192100572712,-4.012337093615565,-1.7680608991180784,-0.23807167817848057,-0.8186134003844576,-1.6886955683455884
-19.0,-0.4623321502621007,-2.927302640085646,-2.464970489823515,1.737726667416215,1.0272966996625783,-2.666275401752886,1.982586698931149,-0.6378101720386438,-0.3313538126149389,-3.4719238792924796,-1.8258187004355184,-2.6202045905348665
-18.0,-0.4363164530453611,-2.825709314401586,-2.3893928613561655,1.598563622392029,0.9305618330268121,-2.583040947321635,1.744983384740128,3.1625918919373097,2.6893033470910845,2.170411260418489,3.290490692268813,1.9471998077694253
-17.0,2.860129488296854,0.9871226120028274,-1.8730068762939722,-1.9543646635678364,2.3282425467685606,-0.4202634222028012,-1.0870218998154548,3.4329332447331877,2.175744359607998,1.7678605028135923,-2.666387139179974,1.60666964145604
-16.0,0.7169294961996818,4.39402601092724,3.67709651472759,-2.506914208230054,-1.4336737730586124,4.059670235611762,-3.050704664731085,0.5400760914177414,-1.2528219251744566,1.6320345226185256,5.524522132303613,1.972503296295808
-15.0,-5.292126443835872,-0.9518138411464907,4.340312602689348,3.170726185829417,-4.845938260373458,1.6427240942984884,-0.7490041192814916,-1.011044237866206,0.803355914388855,-1.742324245240471,-2.002992380711002,-1.267295990360386
-14.0,-1.3657858305723376,-3.6716082270266504,-2.305822396454406,2.489056086527649,0.5178272963736068,-3.0375101674802605,-1.1839644896616357,-1.9930595043940649,-0.7900592544640018,-1.3535382367573219,-5.153270569483982,-0.841203602549569
-13.0,2.792492114544815,1.68179192795364,-1.1107001865913015,-2.266203748862573,1.9163361111274677,0.31619694933026643,1.074829288937062,-2.401336009356765,-1.920184464625949,0.17553464449431055,1.236966272544791,3.0471655110808644
-12.0,3.8745607693803747,0.9262457979651857,-2.948314971415284,-2.4288505111720187,3.370457442805331,-0.9824276144756896,1.6160644982498824,-1.081740537177233,-1.7046971255680239,-0.7091901136932137,1.7052256895576203,-1.4747086639987708
-11.0,-2.174439944984618,-0.7093404985261624,1.4650994464584521,1.4926626035047543,-1.7870030809194226,0.4019565352046085,3.265527427101244,1.601547659789626,1.1515228737689436,2.3927537110818875,1.6972462206021324,-2.096669287770908
-10.0,-3.358824037156822,-3.04699849031616,0.31182554684074937,3.175159754963774,-1.8050087737013918,-1.4283184474139397,-0.04014859420336592,4.045286346389442,1.7146898076317347,-0.30258931179872883,-0.04202643774748793,1.877212118031118
-9.0,0.29199119127977413,-3.6325700412981905,-3.9245612325778065,1.7211492911465582,2.139594003538946,-3.7667735524696955,-0.5757338775764892,2.103061696069169,1.5229821641872305,-0.42546379424257347,0.643189433994197,-1.7905798722609378
-8.0,4.2555257342642,8.006030722814225,3.75050498855017,-6.159378824952817,0.20924031561254297,5.88511945019815,-3.0794828190981836,-2.2606374041235764,-1.7048690040665198,-0.5842265244247097,-0.9834104348388985,1.1639035703917746
-7.0,0.7613491260741827,6.988314503876377,6.226965377802267,-3.9048848152594635,-2.7699579903620033,6.611980119197862,-4.375096756140674,-3.4478452252742224,0.5529811590218162,-1.9197034864178402,-2.106652367727162,-2.192288259786114
-6.0,-2.141925975249149,0.35904804941629465,2.5009740246654415,0.9380520222394573,-2.2732755348436813,1.4346824902900788,-0.2834322753973084,-1.7687705276603807,0.5415131837608173,2.5003759177019376,1.5665851398535224,-0.05697566491742605
-5.0,-1.4947042081450488,-8.210221916252609,-6.715517708107592,4.818167747016092,2.5856118291260293,-7.455587798312337,6.454490128162654,2.425650407386656,-0.3804852478981463,0.2507147631456609,-1.1571296279905032,2.1259532305165814
-4.0,-2.5231781152972723,-8.919349656342833,-6.396171541045646,5.68566040137845,1.9159686238757292,-7.647018102904117,2.4687997343848527,-1.0390213484767437,-3.2010303557298454,-1.8981511480512376,-1.9867029350657321,-0.1725754126236092
-3.0,2.820159641638697,1.8881035815888696,-0.9320560600499364,-2.3105137752269873,1.9368865359512002,0.4912950891722656,2.28992166095547,2.8931693315571843,1.0517459082099752,3.72080439033029,4.29901433584098,-0.274753093852237
-2.0,3.2668512732927923,4.74659582762156,1.479744554328692,-3.960436540055895,0.8766274439830539,3.0479240499419116,-3.7595428938125766,-1.015338623824832,1.852818395384783,-3.9545375963068636,-0.9927904931977962,0.4207464815096188
-1.0,-2.001025326744831,3.727404506576066,5.728429833320877,-0.8912612550328798,-3.8816294788555683,4.73911006760427,-4.5719407393242335,1.0214182095388205,0.3401103858464708,1.1983594640855877,-0.5141476227049894,1.0860556680706146
0.0,1.381467816457685,1.994432192105707,0.6129643756480285,-1.7112577607549948,0.36708602497103504,1.3111721024919283,0.6860186058526532,2.028835633580465,0.6251230442250958,0.9877566450399988,2.07640148703008,1.3512836217514388
1.0,-2.691607574075608,-1.657849040194714,1.0337585338809325,2.1547744572318503,-1.8795313284358368,-0.3075315765904585,-2.7137296100389,-2.8578988003766423,-1.242178650389511,0.4888391764885708,-2.1427623898180084,-0.3281835511096612
2.0,-2.034203135102719,-2.155404696932573,-0.121201561829749,2.1539421831181564,-0.8929801630526231,-1.1336184017499757,0.10843492320670556,-3.2617020776428616,-0.725953772445264,-2.966934102087799,-1.0442044584863823,-1.4965024379384955
3.0,-0.13181381512126322,-2.4534636362122026,-2.321649821090827,1.269461145745293,1.0827976004511572,-2.377928711478936,5.324588591885958,1.4477829183862037,-1.3241961420571147,1.33140166168032,-1.447366534395283,-2.494530592130095
4.0,-1.0952705875741344,1.013761126111207,2.109031713685388,0.010244579987916724,-1.6102424677137086,1.5809789887936618,3.8010349389376294,0.7581026452377466,2.7670276530935594,1.2659719946356514,1.9053678006441352,-1.1799029614100314
5.0,4.876084942363936,2.9516592650487086,-1.924425677315257,-3.875441469619207,3.395911226070268,0.4680756393852111,0.22594464965137573,1.6657351984606543,-0.43733308492598255,0.6500265059402577,1.7670159885266448,-1.5958560603425693
6.0,4.697713076013416,0.1059600512293497,-4.591753024784133,-2.4521759873428337,4.6424584086146385,-2.1949582753084966,-3.095309019342347,0.6168078479428845,0.07618018929231221,-2.3321605530335265,4.219349197049454,3.252474398191867
7.0,-3.137040037438336,-3.51787531792643,-0.38083528048820603,3.3483692588837766,-1.3810525096163755,-1.9673892243775042,-3.2942658455433755,0.511591990166472,-0.8969586635943555,1.43347902230794,-2.7835880317707384,4.304814618298438
8.0,-0.2953894468413303,1.4744595444592459,1.7698489913004547,-0.5711732146009195,-1.0393527863404648,1.6123208931782933,-2.6301558584880835,-1.0817602062001868,1.3751967227913053,-0.43596262029270727,-3.6563784152278416,-0.40035783392524493
9.0,-2.162065553379904,1.5290224248691942,3.691087978249047,0.3386124841042346,-2.9397553290405214,2.6024733221056997,0.09934584512100475,-1.487281642299038,-1.4221525752613062,-0.8665105763552008,-3.2900498883379985,-1.4079634885922618
10.0,-3.3394150723163607,-2.844703703753201,0.49471136856322584,3.04512115874971,-1.8594977302836775,-1.1859282545004421,3.249951588991325,-4.543978478675324,-0.720448862091599,-1.5386549604723043,0.7019146848770885,-2.1074817271535817
11.0,-2.27586866559483,0.5476727008748694,2.823541366469832,0.9096836010076649,-2.5790023935123267,1.6676923921737128,2.4071223932042916,3.0086133694212407,0.10142741702424396,1.4027351946003357,2.0235254836704235,0.5405881324991388
12.0,3.2938554488065517,1.2245713392432063,-2.069284109563237,-2.2776851434840024,2.645545825367476,-0.36921662227962987,1.3177059053709441,4.536608406973512,1.602456606731073,2.1724159028428724,3.37384707798588,-1.0801475519798311
13.0,4.117297677683222,1.4402221032987907,-2.67707557438438,-2.785154214218167,3.435816242676276,-0.6495917036206338,1.4495674895737642,-0.26127789611659225,-0.09566024737779477,1.0465284026969361,2.7775243077346587,2.8696410483159407
14.0,1.4897779802417532,-0.5228455972042393,-2.012623577445975,-0.48341930793999244,1.710298446635687,-1.2217428793754885,-4.756392492755723,-0.28785113848461485,0.5328930026020455,-1.1674664430560533,-1.123065006630865,-0.2574696047206144
15.0,-2.147107640220177,-1.2092395832468918,0.9378680569732432,1.6773082140569748,-1.5023028549895476,-0.16585169559284074,-3.4223616568728916,-2.0254552021525325,0.46436913916922345,-2.0078294664044942,-3.0565596557621615,-0.6552242582681984
16.0,-1.5085267024867397,0.4764745599531416,1.9850012624398072,0.5069399153810716,-1.702356378493076,1.205977064280408,-0.2902880546669466,-0.19631223797671038,-2.5621241123295384,-0.46625816869055403,-2.216531385499615,-0.5122852058842615
17.0,0.22336492723500423,0.4621133639923417,0.23874843675723256,-0.36554716892038697,-0.0379614545793876,0.4101631289743572,2.735043011708618,-2.5965993655661355,-0.5699205937342704,0.8430354495987012,-1.5414442152291847,-2.3339758999642086
18.0,-0.6689689519644966,-4.972589511263251,-4.303620559298821,2.860607520772065,1.7888467380528488,-4.653802123305425,1.8439404809788453,0.3252526914928584,0.25504391903210544,-1.4712580959867796,0.355538120528345,-0.2943369373310664
19.0,-1.9343685138858928,1.4104840325174668,3.344852546403375,0.28689524013692924,-2.66990070885707,2.3607668948160114,2.889672282533072,4.903160753769036,1.7648742127647898,2.1118426252906985,4.749055663182466,1.7496112688188874
20.0,2.7774241433289264,3.1002719235665905,0.3228477802377603,-3.0029955586218366,1.270457972190128,1.6883100123217472,0.39809885073976425,0.056558874055795405,2.0224917038435946,1.5636790935710287,2.3467656432632724,1.8244904249460578
21.0,1.7087877823904116,4.589719884467731,2.8809321020774403,-3.1382825745247693,-0.6288735340507752,3.7018218886968435,-3.499741625319119,-1.0576281295035848,-0.918787413500486,0.7000872321691696,-2.02318185700031,0.5462809272080353
22.0,0.9046050854092789,-0.2984785673313486,-1.2030836527405357,-0.28845015404261276,1.082948384999142,-0.7169521331329924,-2.756139076867995,-0.38921192619899103,0.14751005583036425,1.4711641379169897,-2.473217370700364,1.5553505549472344
23.0,-3.49102139951341,-4.108118980820824,-0.617097581307408,3.8237283851791726,-1.4122365177125316,-2.3381467267186036,-0.2224360329752475,-2.499111604687118,-3.2574233893161373,-6.68305922087097,-1.7692224069279872,-2.3192949875511695
24.0,-1.265057955852774,-4.713444632301838,-3.4483866764491236,3.0257288094283226,1.1155193026455512,-4.061359886490841,2.0156455989599786,-0.8171423129998374,-0.6123727321193466,-0.9454449865895307,1.007992070636497,-3.1577726726022988
25.0,0.6990344479135475,-1.4618405158208554,-2.1608749637344475,0.3501376439669859,1.377378480111917,-1.7915082598549699,2.951209038065457,1.0898293765928129,-0.6760203428979634,0.3784693588531429,4.184712380068825,3.391691469910259
26.0,-0.17179164177327544,2.311461703900661,2.483253345673898,-1.0950908453242603,-1.2972316776944135,2.3429494719345954,-1.6383135904063746,-0.4602518994765197,2.78785152543405,1.2520081412366253,-4.080228452627167,-1.203141078402067
27.0,1.7509660170392893,6.931686988238626,5.180720971199279,-4.367425368177316,-1.7592207828643112,6.087197462671428,-2.7068868828700072,2.774594199108736,2.096662733860714,2.4158333343211744,-0.6298908710181481,-3.0673689322632307
28.0,0.8686006003033533,1.6515404750268363,0.7829398747233922,-1.2930806346715278,0.07981151650831242,1.1762370866581269,0.11702299816187356,2.374669737530363,-0.9626950650528725,4.73020774114033,1.9274608020748027,2.776438037426809
29.0,1.110276562636195,-1.3544830949751996,-2.46475965761144,0.15800042777405876,1.7458942818844607,-1.9450501083517058,1.9460313815568233,-1.5725494671863351,2.0022997016999717,1.4133876692360576,0.5312527541539754,0.6801675698964139
30.0,-0.12621837376784673,-1.2568176510021571,-1.130599277234293,0.7188104636181681,0.5368454610617411,-1.1462854424983724,1.2502759692219958,-2.490885658982113,-3.272245309330189,-5.671744406185089,-1.2049960904061825,0.5943318162837893
31.0,-3.9002828845223183,-7.342578736705416,-3.4422958521830482,5.644819188919635,-0.19909573562922528,-5.342044627536179,-0.16922422654444108,-0.47525355224968324,-1.0266219445999332,-6.348857529176838,1.635301218435971,0.20954473892326841
32.0,-2.748347744315427,-0.801251255269908,1.9470964890455635,1.8004033423867667,-2.403000995639044,0.5468198324261306,-0.1616016419343461,-0.32849125014584124,-0.36433384923856793,2.5776221572517306,0.7987139362588472,0.06176969160442816
33.0,4.222215579946942,2.273147731922756,-1.9490678480241659,-3.2934815938918884,3.1017744630329718,0.137629993204156,-0.26784890639735104,0.9260769999622189,2.6035589849371137,1.9539044302829742,-0.5183241053784804,-0.5308475940661959
34.0,2.3459351697219395,2.264647965386837,-0.08128720433513958,-2.341377327939341,1.2223299566954,1.0683100374937364,0.028090925347134532,2.7149816677296466,-0.4203243128693839,0.6486095974498585,-1.7738428589738087,-0.41169852350666214
35.0,0.5915188868600112,2.9362166581550015,2.344697771294884,-1.7124734424359573,-0.8744958830809841,2.696080774895293,-2.29381499329337,-2.087661003082834,-0.31289999918883327,2.7087457222984543,-1.2324137729985758,-0.4509403286010172
36.0,-1.8363667416331282,2.2941966319930334,4.1305633736261065,-0.2512926007208811,-2.9863783306828164,3.188644387011524,0.5902115682659261,-0.5556888057807347,-0.46977326964779303,-0.4377888029150847,1.3949140370723403,0.6072240410069726
37.0,-1.9311149404134211,-0.6963688218947088,1.234746118518706,1.2912100328964764,-1.5884922207949606,0.24403519758545666,-1.9467134979904035,-1.77516194698703,-1.0757382866920928,-1.6690240296288763,-3.4072320013933224,-2.6483867386518214
38.0,-0.571348287218595,-1.3210008671725046,-0.7496525799538382,0.9974433564783476,0.08389745164749685,-0.9838524898793536,2.2368561071785233,2.986904493610756,1.1809381317269914,-2.2574713477224098,2.9446642935009057,2.422012620798018
39.0,0.32099269060988095,-3.769357946026235,-4.09035063663607,1.6888833977930091,2.204035634965703,-3.9598444291895634,3.2493994590271686,0.4120602287827194,-0.474014419380404,1.8639036679909333,4.218805340904475,0.16313176439161892
40.0,-1.466002348561278,-1.7573435554638586,-0.2913412069025272,1.5686598603889599,-0.5820790981347452,-1.0575718827986265,-0.97024945793028,-0.9483920993719047,3.207518350821088,2.175388131167702,0.9776654595133618,-1.3004823557793082
41.0,4.2588669621492,0.7843232257650006,-3.474543736384212,-2.4903470890080803,3.8815217479229216,-1.3033900365296103,-0.26510963308861163,-0.4495871862332871,-2.373644911841016,-2.7268441690448917,-2.8096755432678924,-0.043904313580327675
42.0,1.1259245316296569,-0.5210814323861724,-1.6470059640158605,-0.270258822886431,1.412379386434414,-1.0468514653527508,-0.7450000743446474,0.007711518346979862,-1.4843223381082442,-0.6701728133497892,-6.96789248123237,1.8304667859469943
43.0,0.6780963328944623,4.702425343570464,4.024329010675993,-2.651464107485293,-1.7147790905998945,4.316363492177027,-2.850016148772901,1.029946542642693,1.084874341353972,1.4846873148158806,2.099173101584298,4.025365140156802
44.0,-3.110293472971973,1.7851308701447397,4.895424343116717,0.6331459502142722,-4.034615953916031,3.36568517627427,-1.6359410248459882,-3.077561620485958,-0.5869919014447629,-0.754604598344871,3.2171072568265213,-2.2932891961125463
45.0,-2.570482205303091,-2.2902093383300857,0.28027286697301923,2.411909224321679,-1.3705819658568994,-1.064844040771833,4.0819879722388475,5.3067949049433905,3.4779904451874777,1.1726669972994914,1.5033237348592465,-2.1147193092881382
46.0,1.8458022392204625,-1.1148720045024414,-2.9606742437229134,-0.37616598037125404,2.3847935692614213,-2.0242293614901863,2.0799301785498,-4.222172457737894,-1.772612873719682,-0.5937257840627079,-0.3594956051138791,-4.836353295835944
47.0,-2.334362915995797,-1.8949494731264773,0.43941344286932327,2.10564284057095,-1.4018170908411323,-0.7165521028025699,0.23041658056009262,0.7867378072251581,-2.3731560631447635,1.316148958204455,1.156915009714523,2.564014162052111
48.0,2.430961247110823,0.42612080818769904,-2.0048404389231087,-1.4429133606483924,2.2049451392543857,-0.7760444153796734,-2.8025287662335434,-0.12052570989000824,0.7410387144233759,-1.0388930294617167,-1.9863500245634123,-0.7375520114360434
49.0,3.0114006639501207,1.151158617061654,-1.8602420468884415,-2.0284009115205675,2.502299481074562,-0.3344659342225982,-0.050506696376485305,1.2774851979342563,0.08624052308745295,0.4616308630086823,1.3911569946076279,2.286176697101949
50.0,-0.18448003868339913,1.2795591709513434,1.4640392096347532,-0.5887211307415439,-0.8372715159620705,1.4019476446298738,-0.6045837360971467,0.2887102198751678,0.03476573876471051,-1.1494704697326505,-2.6420431349084526,1.1484939759288286
51.0,-0.6255604251809781,3.111126278053421,3.7366867032344033,-1.2213645623081473,-2.1966950230303413,3.3860776795651537,0.5036793914232722,-2.2749512679383197,0.23242103708481776,-0.49621110149021,-2.359874605667794,0.08228810975012646
52.0,-3.27840018029767,-3.269515971555742,0.008884208741921418,3.281230320089369,-1.663822264510772,-1.65962350737399,0.10216680200150452,0.5227155405798718,0.11690427908301354,0.4560237578065927,1.3453760458102537,3.9655417965154953
53.0,-1.2721642159530149,-2.3095468758091044,-1.0373826598561022,1.7881330974762242,-0.14383454487765146,-1.6987256347500472,-1.013692778615521,-0.6346107452223573,2.0348941226528376,-0.3791639458653106,0.5661300223554474,-2.7433295418534476
54.0,-0.31772422867736905,-2.106031021812481,-1.7883067931351546,1.2044711516862963,0.7808239807737194,-1.8949287356592381,1.5718498803291816,3.1630682451465324,1.6329094170693619,0.7302003309338757,2.3234471361337734,-3.1214574304492855
55.0,1.3985721018955366,-1.2080073384847054,-2.6065794403802958,-0.10193399414170956,1.9636122274511019,-1.9397505237928476,1.2201916122844316,-1.431492925547276,-5.17985562533975,0.3684466199706013,1.3782740811530907,-1.0185330670178327
56.0,4.474189275199694,4.507538694405853,0.033349419206122,-4.492113755237413,2.256736361942018,2.3076213456856314,0.23508184317023972,1.0218363067723861,0.5013031973310054,-0.725612146048336,0.8182470545532076,0.9675344872210123
57.0,1.624025954071306,0.9057960146989485,-0.7182299393723647,-1.257646957580743,1.206584551688851,0.12053480607179745,0.12106383637875662,0.29524083781033256,0.4566986422072896,1.859703398980312,-1.1444636028517636,1.7173418563410132
58.0,0.06889348981889354,3.9941487821070685,3.9252552922882256,-2.0146707799654524,-1.970514260190708,3.8977514209881696,-2.9399479631767833,-2.756658675532911,-0.16326132585437697,2.5348258074662073,-3.5282861836897856,-1.4004789141679306
59.0,-3.8716783330661073,0.3709318499681378,4.242610183034325,1.7757071712866053,-4.019492761659194,2.3156651515888367,-1.984626208391008,-1.1954098615332491,0.8418672935800723,-3.5172814189021926,-2.0134935601825212,0.8132491487407342
60.0,-3.998389587632231,-2.904212177395666,1.094177410236622,3.4034772407522773,-2.5873681030794264,-0.9006423398166771,0.7338634694228648,-0.26411497653795024,1.5893407414143015,-2.30551254698865,1.1938739002151777,-0.28967384264755414
61.0,-0.8140295499286618,-2.069091988577552,-1.2550624386488785,1.3955625902654984,0.17761443601189497,-1.657842743032567,2.3670602955476117,1.3132766035905399,0.18850766540180253,-1.287764556009664,3.03091636054273,-0.2515344680634268
62.0,0.22340862281630486,-6.5574179818035905,-6.780826604619938,3.1980757881740214,3.535005805308707,-6.660228704432982,3.813485993493734,5.5907736344936625,0.25860146650134425,2.455121924911326,3.158209493944489,0.7812084010814323
63.0,4.198335438830377,1.2602498705405187,-2.9380855682899254,-2.702295423373883,3.5987327326528664,-0.8209084792104071,-3.5658035727098314,-4.035828184885135,-4.638467990457843,-0.3526340896615243,-3.4838410860010787,-0.5820771660533206
64.0,2.485070405446462,4.620447568673843,2.1353771632273237,-3.5309068759789946,0.1268316896043835,3.3296318729068934,-0.472326055229487,-0.1679378696124847,0.3673918011954298,2.2813611728687304,-0.8546014981711564,0.4843052403887013
65.0,1.7486669815515694,2.7921555713903876,1.0434885898388029,-2.2538043219386923,0.3873974496553005,1.962431764881483,0.04308650001995962,-1.1585910909275152,2.15357572087292,1.017545018524543,-0.14623723507715214,0.3174227879201519
66.0,-3.990146214554788,2.890239852067448,6.880386066622263,0.48296896031137093,-5.392620832274257,4.865128219222196,2.0947425200589764,2.169326731723859,1.1497157039243695,1.0648461212898386,0.08694496520384304,2.693880278002939
67.0,-1.8225652807869805,-2.7435153465665887,-0.9209500657795711,2.2907011845259357,-0.476886833732558,-1.8403501486169649,-1.8023891314693257,-1.4720446925085249,0.4230862279220656,-3.623786564410968,-1.186687034529173,-4.588696615787697
68.0,0.28719339247579656,-2.3724592609217634,-2.6596526533975324,1.0474368889688437,1.4570480118854512,-2.5152642945761667,-2.0285623177350045,-1.5996753803329338,-1.2823163983136106,-2.100050534351017,2.902409839873677,1.3835468021958288
69.0,1.7852197659884037,-4.982505957261876,-6.767725723250273,1.6025985275364176,4.267008763662469,-5.869280130859402,-0.2015400074169803,1.4436037862623716,-0.4108914317456789,0.0840725002787095,0.640544556901629,-0.20644265788940297
70.0,-0.3292877705938808,0.7063953325907151,1.035683103184596,-0.18269415076878404,-0.6893170438391751,0.8779020504012065,1.9754631352691188,1.8333656063295762,1.8224012412774746,0.8915238595329388,-0.9566761028253777,-1.1065626743070447
71.0,0.5023985347639852,4.8104171545403975,4.3080186197764165,-2.6455516500714453,-1.911304094541706,4.5634232736048475,0.7630471693882906,-0.5707377631658819,-2.422639820470459,3.8203334502141653,-1.9722413475671126,0.41054444646464483
72.0,-0.691954145042371,4.5924712977705555,5.284425442812939,-1.931623129976296,-3.001367183085194,4.937082392099591,0.08413759333075554,-1.8103425352247635,-0.17565106631752792,0.06883808790245971,-0.599550985675395,2.0407328231275947
73.0,-1.521983897238071,-1.0678031025711978,0.45418079466689276,1.244428312223129,-0.9283644326243019,-0.3154603869335215,-0.6475775631029739,1.2903144325396287,0.30909034277058334,-0.7631187134485881,0.7181744468279598,-1.4878187330112966
74.0,-1.0888653505653956,-4.22198492451115,-3.133119573945736,2.694009104445483,0.9976225857819108,-3.6936233491463346,1.0266238313411904,0.10698191659522172,2.157746184863632,-2.304411747134712,4.096732275530812,1.8700185381001733
75.0,0.5789117980789312,-1.759088494030065,-2.3380002921089833,0.5597013563111966,1.5082946626495737,-2.0704831018044194,1.6645154401924822,0.9960582757536958,0.657540511788359,0.0530910073797064,-2.5468726111423923,-0.434829460548802
76.0,3.226912998426963,0.46280281353662,-2.764110184890339,-1.866882605938978,2.9630820674845335,-1.0968407469964656,-3.6121331099230467,-3.845248590586812,-2.096753971947969,-2.395451249584787,-1.2415808389802852,-3.1786923486060026
77.0,1.1006977154077542,2.337603922790789,1.236906207383029,-1.6560977536665165,-0.1036746753973623,1.7625287267975573,-2.1616233001783574,-0.3268363021468377,-1.924921162450921,2.6496785270283247,-0.024214931597444034,0.4163196763209924
78.0,-0.23306471522411876,-1.0401536980338217,-0.8070889828097088,0.6247390535258417,0.24846301358323106,-0.8671817814387439,2.031817043846094,3.71876936114555,0.03005380902086008,-0.5523901986400609,1.2463099637320507,2.614808809405572
79.0,-1.3371131616056127,-2.743559085446326,-1.4064459238407019,2.029398607561461,0.07238524152532266,-2.094859145973325,2.0534443411562906,1.968174349180987,1.9985284295564885,0.047048017995923896,-2.030264543331381,0.21749841988739083
80.0,-1.7345614932016633,1.2329981125863858,2.9675596057880926,0.23764865266721857,-2.314749297293364,2.08037989185575,-1.5842509623799614,-1.9062530369576616,0.1198162962968452,4.2168764195035155,0.9462625165023452,1.0190080586409933
81.0,-1.5487026215840194,2.08331174424998,3.63201436583405,-0.28565758319684387,-2.554131129136889,2.833438340950652,2.0093613068329264,-1.464571359823833,1.6301242598321313,-0.8822531162249578,1.0738643754652977,-2.0009341713597353
82.0,2.4992307454267513,2.4864785991217864,-0.01275214630494581,-2.4401605462575873,1.2143154490457508,1.2038731293894256,-1.199541251788936,-0.21023736444137775,1.0694958274855866,-0.48391108777105796,0.8358997197605109,-1.817491493509067
83.0,-0.21613308980900792,-0.6318711802920525,-0.4157380904830733,0.38868200112381524,0.05909249489327917,-0.4895991822575434,-1.025215552780947,-0.6713242856690009,-3.306602468603856,-2.514415903799699,-0.17669151560119145,2.19650763566944
84.0,-0.8533217815258073,-2.717831616702338,-1.864509835176579,1.8193330735329005,0.5440582315182124,-2.2684846667710894,1.366947805254978,0.042881497125641654,-1.1199258554660003,-3.620487810925051,-0.49772941074937793,-3.7575028642778756
85.0,2.086500973122903,-2.40407236394083,-4.490573337063757,0.10494146307323526,3.248081332226631,-3.4332145607253937,2.3136003201545274,3.79605306703696,0.4206697871179834,3.3410630797689396,0.1283917060932792,3.0955350123130625
86.0,0.5257117928913243,2.352508393518931,1.8267966006276195,-1.4210758536454982,-0.6124236180249372,2.100120879757418,-4.473117752555946,0.40284003232565113,0.48748467112967,0.48611287473445963,-1.7096423742156075,0.9390669794598332
87.0,-0.2068679618558702,3.491185689841349,3.698053651697273,-1.6281496109381162,-1.9924351425088296,3.528213192373079,-0.6419055803010782,-2.5957304086449193,0.5317902653010957,1.2399934375270703,-0.6104123716913028,0.6493815343470496
88.0,-3.5814757680283282,2.4686424319765297,6.0501182000049125,0.5695896401444828,-4.775026128053959,4.278268366840856,-0.703143525072899,-3.391515886345868,2.0521065391828457,0.6595479437355298,-1.267800116782969,-0.9981982817521591
89.0,-0.13206455993049682,-4.602295211950006,-4.470230652019469,2.382411987420863,2.21292181223019,-4.508135209829681,2.259661939042306,-1.9884702777405316,0.11341932373954666,-0.04610984125960316,3.0514957544439127,1.53630464741741
90.0,1.3392900180799745,-4.491455725638458,-5.830745743718427,1.5167350067429983,3.553196841306343,-5.123689982526983,3.447693391970211,3.039996530325417,-3.1153639560629878,-1.2557507139432709,0.8154686166132215,-0.8457949133137737
91.0,2.0706792574838975,-3.50453605602521,-5.575215313509137,0.7416846892661819,3.7928928665223416,-4.574584554070634,0.3172479216396691,6.415609313482979,-1.510263441553724,-3.8437952847366237,1.2108587952481216,-1.4093300987887183
92.0,0.5392174383284605,5.379130203901891,4.839912765573369,-2.9285982711869547,-2.1808667453323274,5.076848324749608,-1.743017732962171,-0.4713207845262217,1.4534247524177661,1.5070135737783152,-1.806115465683956,-2.574908162429613
93.0,0.9496617838748317,3.1329762110762296,2.1833144272013585,-2.0835541992417763,-0.5712497288451358,2.6224111873734497,-0.6879501828299484,-3.756159890252684,1.4897341350026128,0.709355344404176,-1.3115570192469737,-0.6402163021097177
94.0,-2.6480311180483116,1.501096544038766,4.149127662087059,0.5372320877302081,-3.4356441247746874,2.8610691609957466,-2.2970340029542653,0.6738752732590876,2.279302384913608,4.090756198687386,0.09863478832388806,2.8183779102449735
95.0,-0.9481234377225969,1.1073465334614023,2.055469971183996,-0.031126784401353365,-1.4639103323615064,1.60847678324949,-2.9496180083136747,-0.4231603144004241,-2.3564300542232552,0.36990459585448376,1.373843215920897,2.1011006571155177
96.0,-1.7858075185966817,-2.9298991491002013,-1.1440916305035231,2.411749553177273,-0.2856422066710643,-2.0183395115587786,1.3887805764721428,-2.567499955813664,-1.2033062842965858,-0.6304162746075078,-0.5838427807140307,1.1427442688123983
97.0,-0.198536953927821,-5.208548275914884,-5.010011321987062,2.6823797936770273,2.360999423193757,-5.09690378022048,3.909778314714911,-0.6631156026165562,1.6195715983209071,-1.7449831956806183,-0.19136461338227598,-0.3998074487987333
98.0,4.537957559151763,2.1700041103566146,-2.3679534487951326,-3.374671202423506,3.4869396218024558,-0.16875945717364615,2.457295634082558,1.703711076189747,-0.06400094221983658,-3.20859922494805,-0.18366211232279073,-3.036055297341429
99.0,1.1524327836382193,3.2314866115214946,2.0790538278832784,-2.2164900110537764,-0.5074267412828637,2.6636909654524983,1.0442382933782408,0.8640619419148916,-1.0578924077358065,0.9277706892274039,0.20551151392626504,-0.600799656539529
100.0,1.3302538623886502,3.255238152708248,1.92498429031959,-2.325380517155882,-0.34042541647918706,2.6003979994170217,-1.4639352911973456,1.0150847121188866,-1.1448482714580779,0.32946134214173334,0.5222182407033907,1.717392971320761
101.0,-3.718528701235164,0.19997627379625138,3.9185049750314027,1.794443351486138,-3.7813234128261044,2.073016833671314,-4.478133489577082,2.8196886909509367,1.2253552269268142,2.0615623695523193,0.04024847913715901,0.9909370645184069
102.0,-2.707755456103313,-4.002483401728741,-1.2947279456254221,3.378844411293423,-0.6673517309610018,-2.6308309962825867,-1.471630091899232,-1.953837598586197,1.3725143371504809,-1.4623469298318197,0.7583614146169475,-0.4085050257807311
103.0,-1.2254808301970936,-7.282650485335407,-6.057169655138301,4.268309086015746,2.4569853966379207,-6.648929765129974,1.0335718888939236,-0.927625678876733,2.0791353608343335,-0.45394638418780886,-0.15454671781861257,-1.873846504795305
104.0,1.4227426518627593,0.6293755555871718,-0.793367096275593,-1.0175034977226065,1.0714325891003944,-0.1384043543596465,-0.01266861593464963,-1.8272384987616959,-3.1095172996209923,1.4355010485402198,-3.2751721159057983,-0.3101107024016805
105.0,3.4872436497079944,2.6771838763092584,-0.810059773398762,-3.153413927500008,2.110979864051191,0.9552203926750685,1.0703223779852884,-1.8660198663969438,-1.6957144581945636,0.26241085498864725,-0.6521499026092363,-1.0329089789597765
106.0,0.5170244542420377,5.630481155140458,5.1134567008983955,-3.062573992606551,-2.3392860565009546,5.313184523140181,4.076738163869596,-0.18494813110892916,-2.569210109391318,0.2439639895844579,0.8239036530782298,2.328916601727761
107.0,0.5530688217058359,4.1198201301773185,3.566751308471478,-2.317913041106599,-1.4740525180703892,3.862604236315311,-0.9657790367606864,2.3976621519673893,0.7907069470478688,-1.0607434418142239,2.1729219224527174,0.5081942700447486
108.0,-4.728650531282103,-3.589071750989786,1.1395787802923412,4.186705987976913,-2.9059609339596815,-1.2028383586753857,-0.9108908074171203,2.966849944240834,5.81455985424288,-0.44214365029993963,2.4852757006116093,2.872753598819595
109.0,1.735876619634499,-3.941879857846023,-5.6777564774804805,1.1396435584913793,3.7324185448208125,-4.780962115423292,0.22767531327545942,0.8284794313601411,2.9710349543869485,1.8778170482093792,2.0535212447464315,-2.282027556785569
110.0,2.7505126756618283,-0.5904473381177655,-3.340960013779581,-1.1165095068645312,2.993184304942601,-1.9263727915988715,-3.5170715966165758,-1.2656712719483414,-0.45896064516426405,0.586371771186688,-1.0238387362389825,-1.7092962483263685
111.0,0.4630470742270547,3.711858992917279,3.248811918690222,-2.1233435293477263,-1.3630542585486638,3.452143475710728,-0.1306888772008623,-3.067392512149126,-4.7083487158298345,-1.2471121843078201,-4.713341519402533,0.17238979506659313
112.0,-4.684664785476368,-1.5795919969512688,3.105072788525059,3.0915843531290057,-3.859528268168451,0.7428434527099512,2.957429989532153,1.1235093603072346,-3.0424196107405668,0.03973239557709851,-0.8360331766192415,0.0852583757970275
113.0,-0.36530868570465613,-1.4866268053327585,-1.1213181196281328,0.9560586316785249,0.34036716427251856,-1.321482056687871,2.0487174254077085,-1.240350733777521,-0.6808381461123414,-2.730081174222415,-2.995376698410064,-0.13487561367442585
114.0,2.0597459103016384,-1.9455663338972415,-4.005312244198876,-0.03544942960456948,2.9995659320646615,-2.997315910616629,-2.668536760881291,1.6247601339854472,1.1624082499550088,-0.14892866424470197,1.458647184645343,-1.0994530118478982
115.0,0.4436685756031046,1.1879711166442584,0.7443025410412138,-0.7997608092452657,-0.18024550260861072,0.9349307807444533,-1.3018961861317062,-0.611666452421863,1.2917848770079003,-0.2870450357142879,2.9666355640032354,1.5067854769317441
116.0,1.6591968875895327,2.685552690575861,1.0263558029864082,-2.1569991043106946,0.3669566941705032,1.892949902600387,-0.2626739878363847,1.6495482582304855,2.8250643438476075,2.2398134065067614,1.7243163353949378,1.2945169571907258
117.0,0.14358012846324797,1.5461122966146754,1.402532168151456,-0.8250318324457713,-0.5778300289849447,1.5036416493462417,-1.2039214752990088,-2.244411058850752,0.7926798389373078,2.69021751193869,3.604711904476014,0.5137983268714639
118.0,-2.587009632576943,-2.082501378607193,0.5045082539696998,2.284013028568763,-1.5718535833771181,-0.7618240959595053,2.3766877961144477,0.2514721553331127,-0.12564153100983289,1.2348217584294796,-0.36623242618712015,-1.288836942718007
119.0,-1.4031610058655404,-2.852594275941921,-1.4494332700764727,2.0869239385400626,-0.002046992685641902,-2.1203357935151352,2.6999291837651263,2.3368826577940616,-0.8647044753197759,-2.4152963609676505,-4.182460637504474,0.4705819022520471
120.0,0.14807862444887898,4.269818271201111,4.121739646752151,-2.1618562588478842,-2.0115447154029176,4.1545595842882435,-0.1269355858277772,-1.516519254212003,-2.5513115873423353,-1.7141893889736826,-2.3204466562468475,-1.878100211530993
121.0,2.7366248646010916,-0.693285282412232,-3.429910147013352,-1.0460553281184346,3.136995498667193,-2.096144852006885,1.4401010280095432,-1.0858859138114711,-1.3890708036223611,-0.36838976360319453,-1.4257100075193254,-1.9378075288093382
122.0,0.5095247852743506,-1.887239038072475,-2.3967638233467956,0.7475449613576078,1.4269707059012133,-2.173171642818323,-1.9452536794076491,2.3482682308961023,1.141206603440944,-2.5099576597908095,2.422510866799106,3.1020554473917974
123.0,1.395765138499811,0.1513900213498578,-1.2443751171498714,-0.7927188353770955,1.2921398790818452,-0.5003007282852947,-4.750475600188757,-1.8005201019466925,-0.796018775633924,1.9621939298299091,-0.7402722467411045,-1.1251869453487993
124.0,-1.5337699381276546,3.534549541640133,5.068319479767883,-1.0220336353020123,-3.2521751157904375,4.263223382202042,-3.1808271224498395,-1.3076436093776669,3.486348597671496,2.063665856377932,0.8804835360793014,3.076931680093659
125.0,-1.4997642085770773,-0.5668161503237423,0.9329480582534149,1.0062211143558897,-1.248008062528629,0.2156055221343347,3.083526403900137,1.6722560359817873,-0.620891331517968,2.049898426095899,1.968720923760932,-1.3506390271157118
126.0,-1.889847225246777,-1.3901183693144141,0.4997288559323916,1.6843626953036657,-1.1491309945857808,-0.42065862049233216,4.179981863439234,-0.9137345869325393,-1.2584667644446283,-1.9283046440361697,1.7455547799487148,-1.1741290364091261
127.0,-0.0017830465527355344,-4.920169063993643,-4.918386017440922,2.418794418061182,2.4239854558731215,-4.900893486307291,2.6146863451914273,2.797264609553094,3.834961384091712,0.7112102283035674,0.9633059171428575,3.2327640879855606
128.0,1.2855979092951544,-0.0451688843146969,-1.3307667936099044,-0.5907424027464521,1.2725922105810654,-0.7517255399471965,1.8363298781417092,1.5959345944631786,-0.4942511268107521,-0.0843756563828289,-1.8075734734572968,-1.8852170936311627
129.0,2.590855344113398,1.9634720806513364,-0.6273832634621184,-2.253450466424113,1.650687727700877,0.6824088359017322,-3.9919851567795335,-2.3704848370826115,-4.035041375121312,-3.43427041476688,-5.020526447145557,-3.5898113041332147
130.0,0.7210430737044657,0.18932218522566813,-0.5317208884788289,-0.43606407008747894,0.6658879009655077,-0.15527983101208676,-3.5942612235124334,-1.8714419694449203,-1.8222578999623742,-1.2607631498551772,-0.7325496366933493,0.15273913648863124
131.0,-1.9149842142119864,4.5025983163958365,6.417582530607802,-1.357600486368553,-4.208027409274073,5.478926345529612,-2.009329656668398,-1.0602070156784378,1.9910989477304062,2.644892508850032,2.4546469384708356,0.9429619976191776
132.0,-0.7679515723895671,2.343788191487187,3.111739763876767,-0.7774158664335197,-1.9842168988604947,2.6713212692997086,2.0030527900621693,-1.5866828032285782,-0.03668251073685469,0.7517393733305249,1.1063851248994996,4.630499302017423
133.0,-0.7730199482872651,-2.8719499258355206,-2.098929977548205,1.8280875224190356,0.695193776413479,-2.459736557102473,1.461196767954136,1.3034207732332548,1.4680183837607346,1.2336675938778132,2.080177381189494,-1.1925787765147793
134.0,0.06131881073210821,-2.6771591927132805,-2.738478003445323,1.3088348934966456,1.431221226502567,-2.67919227910913,2.8237527043241823,5.6103102129839275,0.7974224866460045,-1.5529660972445707,0.09071349670672046,-1.5617427320757107
135.0,2.006312769801191,2.1506572880778014,0.14434451827667472,-2.080763536274934,0.884339972970343,1.099621043496303,-0.07914845384542457,-0.3454870650763424,-0.5441994980925753,2.3585695940332148,0.8338545411176717,-2.3515318112506267
136.0,-0.795482378798854,0.7040347641240811,1.499517142922991,0.043158817720671,-1.1130686148890052,1.1341312386463098,-1.0472742601373548,-3.164759414069704,0.4484385660970315,-0.48679388422326236,-4.352695977191556,-0.19688295563874192
137.0,1.2473096317088934,-4.091527269126626,-5.33883690083552,1.4230998586175867,3.3304809046233386,-4.682056094733964,-1.5068017937673808,-0.2701136598395675,-1.8095451538111786,-1.5387557138304477,-1.7538332859308485,1.5867122031075191
138.0,-0.6797240855091082,0.3686777525505651,1.048401838059629,0.16385625570670148,-0.9031202863463792,0.6632301912144907,-1.6554198932171797,-0.48797624634109227,-1.4872600826227043,-0.5589871659774194,2.0609751923900568,3.8474981860102493
139.0,-0.5513296188435312,-3.80502408082069,-3.2536944619772394,2.196357778256104,1.3125104014856182,-3.574234604980199,1.3012493336208673,-0.21510761622207109,0.07830431016638739,-3.6696608318829607,1.0109486765626505,-2.117497852706478
140.0,-3.644077863312516,0.710913060931772,4.354990924244193,1.4948316414379645,-3.96143918564453,2.5682155225027015,1.6595571721378413,0.23292739701677728,3.1977611873240166,2.6530291276170983,1.4336268500522997,-1.3083972985161756
141.0,1.7909724349734775,3.711281423516024,1.9203089885424713,-2.7939233985611387,-0.10912448293688404,2.854148076231106,-0.6201959375033408,2.304844483190987,2.9052409386556994,4.147506793218988,1.5823281648892047,0.14822102286190453
142.0,1.3202820996517985,5.345459985242002,4.025177885590171,-3.372226195654372,-1.322425081744535,4.649859793469038,-1.0323068106530275,0.5618940192038442,-0.4465617076959625,0.9369350499793876,1.0927335356968,1.2194377493376054
143.0,1.986138897959683,1.1539329287597395,-0.8322059691999117,-1.5318510377585774,1.4360269239363097,0.21016198345133397,1.2806422804734248,0.1840725970162836,-2.9869619851354274,-1.9420924848757395,-3.521534951572155,-1.2125191340240098
144.0,0.13809882713515476,-2.3564298111168656,-2.4945286382519294,1.0640889712482937,1.34230782917616,-2.449432000584275,2.1246047461043234,-3.1538695547865605,-2.257579009375566,-4.138872504888932,-3.1997661648299744,-2.2305879452063273
145.0,0.6677968145083417,-3.0175701962390216,-3.6853670107472363,1.2033136228578238,2.125821252896492,-3.372227818278442,-2.6758464377881968,-1.9938498415712953,-2.6514567517518546,-1.943929201285318,-3.072739225238026,2.143181512931778
146.0,1.186621810386681,-0.4229755880652788,-1.6095973984518692,-0.35663563641009577,1.3521499861808315,-1.037404789179492,-0.5460593635220955,0.20966142284385036,-0.3086577524024532,2.553638924799275,3.163704942676899,1.0541964130800365
147.0,-4.3846619781091105,-2.8102108197238516,1.574451158385266,3.623227926797187,-2.9396294317484606,-0.5642693542648103,-1.9836476150193116,0.19716774092452155,3.222146247164053,3.2871800729582823,2.410805032490388,-1.4781447976972195
148.0,-3.3377040094759822,-1.744944982472086,1.5927590270037943,2.4930956416282983,-2.4166714892390173,-0.1077222844648894,1.4890996838000858,3.4498485670289045,4.273527413261636,1.4677376977365306,5.174542533200431,-0.33546018112453874
149.0,-0.9853976976141448,2.988756627834465,3.9741543254484686,-0.9635599088472702,-2.5010875911039845,3.443061375250729,1.5331454114092355,2.187648894257448,1.156322134790062,-1.395092248146189,-0.8268527730706388,0.07705747886705758
150.0,4.01412684053983,2.3380188312082097,-1.6761080093317573,-3.208459779600572,2.83137652683505,0.36678700413591825,1.443118471445528,1.7834660840877898,-0.8642739752647991,-0.32433306841156995,-0.5492553138523542,2.782786998753359
151.0,3.6196004089299683,3.508322112595315,-0.11127829633473063,-3.5898497318879405,1.8564776003358012,1.7340318719800618,-1.3815062994744811,-2.4990531020132876,-1.485871163979665,-0.6566528216058909,-1.8825630103046747,-1.3323170627655405
152.0,0.4200167721595016,-1.6542706918153423,-2.074287463974857,0.6728827898499703,1.2392253382881122,-1.9030130244743917,-0.9627301720699758,-5.064628174369134,-2.397996341606329,-1.8764163256026185,-3.963186921404649,-1.395246874153774
153.0,-1.7528844524757448,-2.2231727143714908,-0.4702882618956845,1.9634076264447269,-0.6520808886547063,-1.2984456950021752,-0.37126945383305665,-0.24271610106456754,-3.3532105622328956,-0.21381399828187286,-3.6433095128561317,0.40472807568858515
154.0,-0.9872851703941999,-2.6817794961826884,-1.69449432578839,1.8039008090002882,0.41545205984539546,-2.209051408276434,1.3736765172775802,0.15829317751010807,2.1803879818125305,1.1468830988275842,1.5514403271207453,1.4649484194443563
155.0,-1.0186652298415768,-3.2228648567674396,-2.204199626925726,2.159566264491967,0.5676540257384697,-2.7266875831301745,0.20002269136605821,1.0275419391504594,-0.217634068682524,-0.7134094470785008,4.355032663897674,1.1951663565540351
156.0,0.9736720651155302,4.01878323331022,3.0451111681947665,-2.468289737210198,-1.069648651048118,3.5221433174316132,-0.7018975504853646,4.037050319311755,4.108916015854621,-0.007725947106878128,2.403909847848712,-3.6355032931289046
157.0,-1.1630626187952955,5.79473103353436,6.95779365232963,-2.376923231192876,-4.023391162181046,6.364098051788631,-0.4563710787453124,-0.3179942344170841,0.7032741228310904,0.6731023289949685,2.344122539097013,1.1759177126510099
158.0,0.6305675078041242,1.4397826889711591,0.8092151811669357,-1.0250155898918778,-0.13617728827354014,1.1045872106910526,2.675114949871616,0.7812786773863694,0.45404715019626196,4.3256004222604565,-0.5386788412445518,-0.3992891136913932
159.0,-0.1915506309591128,-1.4663490594425266,-1.274798428483515,0.8362789725191488,0.572312866193125,-1.3232281135110708,-2.549694090996136,-1.1380149964836939,-1.0199925573119724,0.628265090252125,-1.626261674685982,2.8935275225355856
160.0,1.3509567661554887,-3.318046666731469,-4.6690034328869725,0.9938924243624307,3.043980128405665,-3.9591821872904154,-3.819019627775498,-3.501456404505089,-5.832993601417831,-5.18711758507345,-5.423828889975521,-4.279891271632672
161.0,-0.45932274759066793,-4.729153349385413,-4.26983060179468,2.613500616046401,1.867914798653971,-4.556320305644631,2.0936043278918333,-2.7225027832194435,-1.5091595004651541,-2.966396722365027,-3.55263675124219,0.6909684384984663
162.0,0.16063255098074466,-2.7743753153504755,-2.935007866331084,1.2609068919668767,1.5205064029786417,-2.8430984152638468,3.748783838953361,1.53981172158247,1.507912777572423,0.062240986282002364,2.124627882877178,-1.0923771090238286
163.0,-1.3960072235701575,4.9217676158863695,6.317774839456665,-1.7144549829751448,-3.795150233283964,5.623961120379909,0.006341783112340238,4.110582137822982,6.463266686795088,3.5438562973806187,6.668505376481793,2.1556285493488923
164.0,1.3040732356717246,2.2570961453358986,0.9530229096642722,-1.7963712218743573,0.16636437043147545,1.6050114496459416,-0.8124825249899188,2.7131971125993735,2.78158344901016,1.3384479817773336,1.1360295274991978,2.085541510186516
165.0,1.3329594737375057,1.5380856317975407,0.20512615806006584,-1.4411036641693862,0.5576583069754231,0.8702652208845407,-0.4523205279973265,-0.9863165408392869,-0.589717976894576,0.34574638996082663,-1.0732704591886315,-0.25257733012971184
166.0,-2.8489775456742867,0.44456570848079613,3.293543254155014,1.2000491848355006,-3.0810366085707406,1.8688299717551584,1.1418539319211893,-2.624511618777739,-5.688351589166856,1.0897952013452585,-1.0993553847569164,-0.25570126878502586
167.0,-0.46493276401174344,-0.6104559160132745,-0.14552315200169397,0.5311908840022626,-0.1792141293412428,-0.37537777564293073,-2.6025191688162055,0.21622883092319123,-1.958501699819029,-1.4822605209686834,-0.6976809305856115,-0.907928732095267
168.0,0.6919728219489666,-3.4019273762404,-4.093900198189557,1.3371687159163674,2.35957091914402,-3.7414003180348026,-0.4020029876425588,-1.6529860741135112,-1.7467421870020212,-1.5702056308693186,-2.1274606134381475,-1.5148835155843214
169.0,1.6318169883320295,-2.2685840483510056,-3.900401036683175,0.363565212344368,2.7969945319502667,-3.073447407361118,-0.4045185937705611,-1.2315401091375358,2.0861931136937164,-3.5773893487197763,-0.6440918242845954,0.02444756043145735
170.0,-0.626403975474366,3.321241242815956,3.947645218290287,-1.3975622103044394,-2.267545554033326,3.571807533622145,1.4683917198462109,0.9063434466286493,1.761208928225326,0.10250201833736794,3.121039326193336,0.6740086420737146
171.0,0.6248076170470569,0.9306995160875295,0.3058918990405344,-0.7626349009134478,0.17327866600506137,0.6402281926515023,2.277450656457736,3.503387513575274,3.132977634281395,1.155455148136412,0.4970258004590342,2.068408217049466
172.0,0.05200467732354653,4.270016404340363,4.21801172701699,-2.1531257150654093,-2.0684450303871285,4.272768579583422,-1.6684306528456812,-1.2765934970657837,0.719658825777804,5.81816754607745,-1.3062726848391426,-0.8061998387465574
173.0,1.4216632714025121,-0.40394144472120397,-1.8256047161235254,-0.5004246060766988,1.6438873610218394,-1.0782591241505268,1.2358514940699572,-1.2963357446089785,-0.2508152481109224,3.481972486709771,-3.0167891721118885,-2.908330734925711
174.0,-4.07972141008778,-1.0411689594310638,3.038552450656833,2.5765965821364634,-3.609696603582469,0.9645719273486346,-1.1635137794323036,0.864094091468816,-1.078926824272843,0.5929954352863851,2.404032987385232,2.50894400449312
175.0,2.056213753461053,-4.01875478889001,-6.074968542351038,1.009641249915953,4.022511466228244,-5.073439016125504,-2.2418089241566443,0.17866922229787746,-2.839752502726255,-6.612040315712198,2.775307786410921,-1.6373481244911767
176.0,-2.033491646319795,-7.695102827664662,-5.6616111813449415,4.8267663998709445,1.85519448125071,-6.6988419420836545,0.5639836142527719,0.05004650102928079,-2.6355438999891097,-6.881537976419599,-1.0670483733322889,1.5007195181366155
177.0,0.32058587231957947,-1.2963213907176419,-1.6169072630373296,0.46001775315657745,0.9345841413734888,-1.3941928461045103,-0.5785076232643379,0.6765598834834677,-0.9487291282403515,-3.131788824418602,-3.4938148214493605,-0.5121353707982094
178.0,2.859756367602468,11.307321883933334,8.447565516330748,-7.10733310554807,-2.7467062219622904,9.863324700295127,1.3989307351740239,-2.3338092278964115,2.872944355123899,3.572046112608411,3.2310906903297574,-0.6286360346601021
179.0,1.5493337934511544,5.514834594552627,3.9655008011014017,-3.47911550326046,-1.2364369092667102,4.726676548669417,0.05021416341202767,0.3394958506157799,3.082768662042767,7.197707044561611,-0.33469804347794185,-0.4040573236713228
180.0,-2.9395148681110848,-3.774181325517838,-0.8346664574067573,3.3245561524809397,-0.9974632809399765,-2.3182702805353714,6.253250540806171,2.7754651592685677,1.7214944263260108,6.882277316415401,0.4760145063026998,3.0454068371679286
181.0,-2.887490553118654,-2.928691469199713,-0.041200916081004346,2.9462332819447905,-1.4413637823831742,-1.4994637355267093,-1.213129527365849,-2.470664191396999,-0.6099104721606354,-1.1142897222688646,-2.5468296947482223,-0.44097551382965516
182.0,1.6542940196804043,0.4149664728747684,-1.2393275468055363,-1.0824519475510388,1.4337912181856005,-0.3484252006001225,-5.168617227807058,0.524389972104957,-1.9177308174211705,-4.817290699952209,2.224461696614877,0.30340381066783656
183.0,1.4246498617473173,-4.131943481197595,-5.5565933429448435,1.3806239683597867,3.480656001000764,-4.859412054115076,-3.9293549478735663,0.17936628512348043,-0.15822070402214305,-4.403322902315585,-0.019560480099777344,-1.215805085237192
184.0,0.6038411423890675,0.46946485218376255,-0.13437629020528563,-0.5095676748890448,0.35864356541597386,0.15229504039853703,0.11476034972847593,-0.2332294423995867,-1.321988147318228,-1.8948058435709836,-2.308648433551638,-0.40344973466455514
185.0,0.7362548826642322,4.099008988562549,3.362754105898296,-2.387064121324628,-1.3282762403394195,3.7150693880910897,1.7473577069074095,-0.5633674811837523,-1.0787620395674613,-0.5266216830988644,1.9112100803412932,-1.9842126276753926
186.0,0.9153321310858598,1.488138247158888,0.572806116072961,-1.2447503913410143,0.22686148002542184,1.0132286058514977,2.7426829747720696,-0.8240928982629673,-0.18045183393223846,2.057074325581909,-0.11998176917395076,-1.5604596245359212
187.0,0.06057880916952854,0.6093461702367938,0.5487673610671925,-0.3729154073332688,-0.27767761097998944,0.6381311376477863,4.010749530891762,1.4460257473098626,1.6547565962604576,3.7957635939203276,0.7851423187533354,2.683132170696947
188.0,-3.144181744040967,-1.6668763808214182,1.4773053632195035,2.371503209781927,-2.2766794174343334,-0.1177453482898918,-0.1621188971270371,1.3823468848496498,2.2128972975113586,1.7067257683988495,-1.09825949198081,0.7448415250431113
189.0,-4.501890511448622,-3.263714836655197,1.2381756747934278,3.930334835534008,-2.9248009969493487,-1.039519760334329,-1.7872064489479031,0.3242271329968451,-0.6055740980361559,0.9281619087900699,-0.4234786746574106,1.2499098980116607
190.0,1.7797200843395913,-3.4558006802203636,-5.235520764559957,0.8878950407709403,3.5240358286572024,-4.297468546690424,-2.2262795024675324,0.16337769248414874,-0.6352206965480528,-1.829207312414328,1.1082675993043367,0.5045182183412348
191.0,4.130560118874712,1.0483433724774704,-3.0822167463972407,-2.616034737658701,3.618797347200228,-1.0507140123504226,-2.2927306863372428,-3.064527772002463,0.6451610121468975,-3.8909105517143985,-1.0161442483034338,-0.8189875734089521
192.0,2.0171845327079048,2.292449148849129,0.27526461614125886,-2.179332209026811,0.883256236763873,1.248095755002902,-2.3128457095861523,-0.6933442466743176,-4.131676104299864,-3.160182181139498,-1.3933326026129174,0.17330637277101968
193.0,-1.2468183699694562,4.061486081927742,5.308304451897292,-1.3522167181805598,-3.262004277472301,4.727644301793377,3.3985677987679344,1.2100889844112217,1.2571761117027134,1.2796882458939822,1.5547799056051588,0.5169072722680117
194.0,-0.9095291810694266,3.473255925665682,4.3827851067352235,-1.306942963321282,-2.7039796676603904,3.972397539757836,2.9997237697601102,2.802523113742952,3.87760528328312,5.34201716571231,2.07529841887543,-0.9254409556584549
195.0,1.0500872395097351,-1.030667390135923,-2.08075462964559,-0.0392015651365866,1.5921721567769005,-1.5869875310131638,-0.7002144145044464,-2.3106532685914645,0.0784326603704888,0.008188863584137618,-0.9728716298365432,-1.7851723695096202
196.0,-1.495590992521183,-5.198340927963206,-3.7027499354420694,3.3105190030268687,1.1350026858724827,-4.478051609825278,-0.5703177710368662,-1.4303598798401218,-1.3367597371275337,2.2867081677625767,-1.1265527878110275,-3.7010899124667964
197.0,-4.7412346570050605,-3.384949428090828,1.3562852289140772,4.097431785572574,-3.0937259337304552,-1.0382481580680913,0.9437795364060578,1.9297524342098644,-1.90559577461799,-2.5929144458499724,0.591285670241956,1.6660591992507516
198.0,2.7228747553086055,-0.6974870780888853,-3.4203618333976693,-0.9852156879031666,3.10502764354429,-2.0013114698905063,1.1295225762347425,2.037944590744943,1.6593038813207348,-2.212131916076249,1.0749504032042778,5.28059573625611
199.0,3.9952707228130104,5.9689372009537704,1.9736664781406343,-4.958562500684794,0.9628016759042809,3.9517685238652698,-5.146650142705038,-3.560746572553194,-3.6121005215065964,-1.9193829501165036,-1.6624357350120067,-0.19169877254417145
