Time(ms),I,II,III,aVR,aVL,aVF,V1,V2,V3,V4,V5,V6
0.0,-0.11566475467637163,-0.08240223409813774,0.03326252057823549,0.09865840456517119,-0.0743158468145362,-0.023889360397175725,0.004981459972089384,-0.08136322329020275,-0.08250265080160268,-0.08035432480537218,-0.017354923088725344,-0.01730241416801496
1.0,0.061179140848573794,-0.1660912092719248,-0.2272703501204952,0.051864735411646726,0.1443598950583605,-0.1962220539684097,-0.06248640150463052,-0.08839842324935884,0.009960032940145429,-0.19767761383298557,-0.13551224950738502,-0.2316239254347461
2.0,0.19329862525097907,-0.012121028342617815,-0.2054196535935956,-0.09047469307269881,0.1991714323429519,-0.10950571460714643,-0.09374043906818785,0.015092571227545839,0.10000174050319997,-0.07764227073031757,-0.07691401905176491,-0.09918022788770195
3.0,0.07548486771054616,0.12357174715040163,0.04808687943985523,-0.09901016734676983,0.013618706540455116,0.08502261504077332,-0.01226984184922271,0.07276158169730171,0.02666653620047865,0.11934886063538139,0.06617535101088115,0.16166013922682593
4.0,-0.15104358488129316,0.08326056747104414,0.23430415235233515,0.033919402080109094,-0.19232749953949535,0.15931841902156754,0.11595130006045172,0.02923162431528657,-0.09957662902349552,0.17276620011855953,0.11518398675623708,0.16363790546889972
5.0,-0.19625662119904672,-0.035987789328603824,0.16026883187044125,0.11567830685615182,-0.1779649427314116,0.06327713254280855,0.12375807348290993,-0.019618289519126836,-0.07084963641504108,0.05113662605539504,0.026231404872367504,-0.05972246777502112
6.0,-0.010259806576574746,-0.09885356515349558,-0.08859375857692146,0.05442290855700326,0.038876797810676586,-0.09375094709047226,-0.024087321544697997,-0.016382173764590814,0.07013201342293575,-0.11050918684366468,-0.08478569490939701,-0.1602067399401329
7.0,0.18015793653461362,-0.06260155963444788,-0.2427594961690597,-0.05841126077703209,0.21088412080560107,-0.15378684002736337,-0.1487551183908043,-0.009031509076294894,0.10217403130898299,-0.15988065104065688,-0.08674002234848822,-0.025302171375498506
8.0,0.16309329266170963,0.04245047461046747,-0.1206428180512407,-0.10252301063469955,0.1417595615266732,-0.039544145223720344,-0.0931619049645144,-0.020734928613469896,-0.01543912528161983,-0.047827510780842276,0.016841501532659373,0.10770681625921001
9.0,-0.03285369724700512,0.10811766122794443,0.14097135847495065,-0.037845897703809556,-0.08640062738124663,0.12529124684612084,0.059795877582705034,-0.008035711369605065,-0.09846427380139189,0.11282617239485664,0.08650377112493803,0.05607413634910227
10.0,-0.1854666553023126,0.035312977879911625,0.2207796331822237,0.07478220204795064,-0.20259692928516002,0.12862323221714153,0.11677624133893336,0.029957102084016477,-0.041420021248140475,0.14198486552843712,0.03076015238435884,-0.062059907343887485
11.0,-0.1214412232868365,-0.08607100969830485,0.0353702135885306,0.10376325701223472,-0.07843251991948211,-0.02578215657025201,0.04075677633172355,0.03284020392378723,0.0508025495377929,0.013597025920280132,-0.052498035565576306,-0.051410419843464755
12.0,0.07976939818664903,-0.06686140377928922,-0.14663080196593986,-0.006265817409357934,0.11270294911465778,-0.10722113909823795,-0.04185352184236704,-0.007154833590758896,0.06225221417972597,-0.09891395927334645,-0.027122297731075246,0.060039319884909015
13.0,0.1701985684032064,0.059434590099589395,-0.1107639783036167,-0.11470014438893246,0.14003621344023157,-0.025287591155682323,-0.049242127215354946,-0.026677022829794145,0.016619470129054015,-0.06939017476280576,0.046154498694892084,0.0744009984750358
14.0,0.05032582373177876,0.06555118938057958,0.015225365648802535,-0.057925095686611375,0.017539823650208248,0.04088159307173758,-0.023519035159999955,-0.006302521897205941,-0.02079210852364353,0.013117152204308034,0.01173027818743121,-0.06159571961392609
15.0,-0.10509576812285241,-0.06662551373649958,0.03847025438635446,0.08580166810234745,-0.07139596455548806,-0.014443945456517698,-0.013607440105451798,0.0030392288807115984,-0.045280860147357375,0.0216956949586378,-0.08383023855989039,-0.1429724297399404
16.0,-0.10879974274414576,-0.09551570257815441,0.013284040165991046,0.10201197835610233,-0.060581451086139215,-0.041815347504528325,0.0008381591025616189,-0.0124843266049202,-0.05389746283487921,-0.006194414562623377,-0.04740960569294126,-0.003755818336389682
17.0,-0.004443177815886184,0.05042154940282848,0.054864727218713334,-0.02310790495322126,-0.02948453673314914,0.05273782451156086,0.040449153858884646,-0.003481326756452675,-0.005564626576938519,0.020317415918733178,0.10347082956097915,0.18586087684846753
18.0,0.06651356493730548,0.14051156368321002,0.07399799874590313,-0.1034081839673777,-0.004058810459053387,0.10802224483574523,0.06270008999210232,0.034511025440987456,0.08186070850420409,0.06015811809508373,0.12552859838699568,0.12963067794763422
19.0,0.07769649341725968,0.03941555468756845,-0.038280938729691794,-0.05829181582331217,0.05737974280365048,0.000917230428715895,0.017402498048123105,0.03409079496640641,0.0949440646490706,0.022040664811807345,-0.04569323806443254,-0.12680080184296463
20.0,0.04884334845759996,-0.09836721343661041,-0.1472105618942096,0.024831286455824886,0.09771273454816973,-0.12323148214759957,-0.06570374076911097,-0.022252849689475784,-0.017028103861963333,-0.060705140207077346,-0.16292219344974682,-0.21921607610500865
21.0,-0.05260045564688611,-0.12087357544315393,-0.06827311979626624,0.08645212231195197,0.008248670120362546,-0.09512916060949438,-0.09111495162569778,-0.05468066357563231,-0.12531550031070066,-0.08136171894204608,-0.05498816046963506,-0.00979902434135987
22.0,-0.1621241037659443,-0.05324836787128502,0.10887573589466026,0.10741489898217407,-0.1347348492426921,0.02774880267399161,-0.012490422069227814,-0.013858120296803313,-0.0820698581591006,-0.02166701489834443,0.11015863177766512,0.19534816145165387
23.0,-0.08423261006711207,0.059276252350292324,0.14350886241740327,0.012666345345672163,-0.11363729526819315,0.10171874385363867,0.09027066598412814,0.036095867000333695,0.05709039227510684,0.04987065368109267,0.10553823683364644,0.11775616265322628
24.0,0.16896015253862454,0.17156762798202194,0.0026074754433953362,-0.1698229103175659,0.08261168640602243,0.0874063728201262,0.09181453330108805,0.027280806978858894,0.10913121580420078,0.0817592010041005,-0.021416023654546954,-0.08948983242143951
25.0,0.24968012135770015,0.13026929463879536,-0.11941082671890445,-0.18997559617279336,0.18390312385552005,0.00548676040383139,-0.015202867563694954,-0.004385011009110284,0.031802033995272164,0.056034385914138965,-0.07398188466781504,-0.12668445464475278
26.0,-0.02458006748002629,-0.1121232364095392,-0.08754316892951194,0.0678036837119913,0.03145177773417013,-0.10003956364323321,-0.09722771606493856,-0.0003560399582057861,-0.042057696098300984,-0.028232572199915085,-0.016176181982146366,-0.0013264514523309734
27.0,-0.2970612686501758,-0.2634244354342777,0.033636833215899616,0.27997480517612416,-0.16493862165499681,-0.11510952266801182,-0.05587227700797427,0.008951545013253836,-0.0366146766041429,-0.11016851815764311,0.026217068030777495,0.06611674515288278
28.0,-0.1683406165681055,-0.0675643263338454,0.100776290234261,0.11848468718159372,-0.134212875230923,0.016643729482990897,0.04030247552071042,-0.026293236517227998,-0.02340000916593313,-0.08596706105054466,-0.003985196476167342,0.02208638923790321
29.0,0.1684953618558496,0.21615780996932923,0.04766244811347855,-0.19176375635065213,0.06057384880820463,0.13207213922389238,0.06544543123237885,-0.05536720008345014,-0.04099550251405921,0.04432226072261833,-0.029193957104344907,-0.009950560766982823
30.0,0.23286773708060057,0.17058427759869238,-0.062283459481909234,-0.2020721858627682,0.14752781721202213,0.05408405021767447,0.013729296817639887,0.001144835561597446,-0.008019110085251668,0.1302296365374174,0.010308989730350422,0.004250861373862007
31.0,0.007090866209142611,-0.0904311385681625,-0.09752200477730527,0.04091137397941028,0.05187690218567543,-0.09419441063143756,-0.0258672090938617,0.0904230295728978,0.09249023612384956,0.06326759453617725,0.058748800498261415,-0.007620793936469683
32.0,-0.12079710164712823,-0.12570580153107308,-0.004908699883943479,0.1233038712347624,-0.05849172444772144,-0.06519094540190763,-0.02234364514437934,0.07293596435252586,0.11161444951220635,-0.06325378209286867,0.035332614900946975,-0.03346425553456564
33.0,-0.041538217145745814,0.06506518114934934,0.10660339829509675,-0.01098823614872254,-0.07394345116276257,0.0863127668570949,-0.016834671809315194,-0.05916190854304459,-0.0361494614846783,-0.09156038400837413,-0.04231471160194285,0.0005729715124381812
34.0,-0.010399293184831133,0.07811383487332367,0.08851312805815517,-0.03365010624616765,-0.0485783965385697,0.08345847477628787,-0.011794365137903566,-0.13501970558894857,-0.17430855582797244,-0.021697688310967304,-0.07857572101222488,0.05178221652009144
35.0,-0.08411394925566627,-0.13454028483359612,-0.05042633557793153,0.10865741131769863,-0.016378742872051065,-0.09308286726787512,0.027381585708679507,-0.03478566443749446,-0.08824834454549346,0.028126198426109254,-0.027366443176120483,0.016140253881932284
36.0,-0.02203740374949627,-0.1650608154751084,-0.14302341172561317,0.09318621384388483,0.05978522492512412,-0.1547066293080672,0.06250790171039342,0.12503008319615594,0.1281175790605784,0.0229969962606059,0.05105897706279795,-0.062352839900106594
37.0,0.18449396019425893,0.11662197898388715,-0.06787198121037073,-0.1500053298581002,0.12529918804340087,0.024608248736397886,0.010841095760244555,0.1309886112995068,0.17455515362274968,0.026553887337352665,0.07284205341744979,-0.043673474480365695
38.0,0.1984126219542275,0.29764288385500587,0.0992302619007789,-0.24756032508882791,0.049844701858913716,0.1993970746999124,-0.0899498101681134,-0.037074986989505614,-0.014375214020502427,0.043731551601313444,0.026972004790655677,0.056140143403384864
39.0,-0.08969247265273426,0.07493268883204823,0.16462516148478215,0.006932148037060197,-0.1262252531664069,0.12024113051612587,-0.08780966456332043,-0.1640326723654456,-0.1675793408410147,0.004919487490132994,-0.03557172128944197,0.07371904833630545
40.0,-0.3090693630964711,-0.2687693904115038,0.04029997268496526,0.28834197899185926,-0.1745401440315421,-0.1149101931504803,0.05016159539624657,-0.07959860982704556,-0.08154960203676938,-0.07759281099912697,-0.06669600005615575,-0.024494466395772643
41.0,-0.14580605007260167,-0.28242636012241196,-0.13662031004981068,0.2144241669604226,-0.005338860307637433,-0.210454713411086,0.14723890144629728,0.10958418573877375,0.09665908226212216,-0.08333634645803152,-0.04343574115171133,-0.08107846842156276
42.0,0.19605955347570803,0.04006345391229931,-0.15599609956340735,-0.11738850031876773,0.1756881005473742,-0.05794450429436977,0.05765347145918284,0.15678384185086106,0.11842505584619599,0.027162596059342993,0.025629573819540497,-0.013183532268580567
43.0,0.29704994408494095,0.2941472082473155,-0.0029027358376244278,-0.2957218503831701,0.15050488534430803,0.14645220518527707,-0.11445987885250507,0.0032048280323219423,-0.01399404795881877,0.11523605367890646,0.077573811530078,0.056714856412298245
44.0,0.06513535160610777,0.19134172646146785,0.12620637485535882,-0.1289651477126818,-0.03014477775746179,0.1592138406755077,-0.15337728970157172,-0.14767456574388887,-0.10505216146311681,0.05234152262578745,0.04130521478777596,0.02201008218922246
45.0,-0.21582700999663348,-0.11262679544783488,0.1032002145487968,0.16414129551625053,-0.15988134100129678,-0.005101745557501273,-0.015534223428524686,-0.10688316045735015,-0.056063992174468606,-0.07620499562948148,-0.04710049896225347,-0.03151173382669036
46.0,-0.2495646557697788,-0.23530087739615643,0.014263778373622799,0.24318003976112873,-0.13230492706414346,-0.11092464373613468,0.1349531728039157,0.05741514211014235,0.052705310509265815,-0.08526767155552113,-0.06226905936011569,0.0025236547524226305
47.0,-0.017445474789107875,-0.05757636573902227,-0.040130890949912915,0.037854337023500086,0.011588294838433912,-0.04872785760905122,0.13754489389027508,0.13364644949926632,0.09906733513160966,0.02800703220427443,0.015454581975021045,0.04724554532587377
48.0,0.22225680620375213,0.13199261614672647,-0.09026419005702527,-0.17781821423996358,0.1566264341920943,0.020978113952609373,0.00020074548921518348,0.05028434192424713,0.03397615526155388,0.07615628543988313,0.04625443355952475,-0.016286869229838213
49.0,0.1972816373523489,0.07367480609499504,-0.12360683125735442,-0.13613864502989123,0.16030144406917113,-0.02525222678762445,-0.13219141742229856,-0.06716043151526943,-0.08409616600433088,-0.01721279770582261,-0.030202431999475553,-0.10156321890923663
50.0,-0.05746516280638858,-0.07017489002307863,-0.01270972721669064,0.06426834201197376,-0.02268276398225275,-0.0414740809212182,-0.12773968979300226,-0.09290601028765876,-0.11995130504165358,-0.08490348022306304,-0.06183754126566356,-0.030358857148708982
51.0,-0.21288677194028624,-0.015009437027166223,0.19787733491312062,0.1148436568036656,-0.20530390163158485,0.09205664527014225,0.005417028667281515,-0.033375830165914874,-0.004106849849068342,0.008383072319228621,0.05024485452025844,0.13511411207058882
52.0,-0.07765106269233812,0.1291500710785622,0.20680113377090076,-0.0257487475621369,-0.14200675172681168,0.16832836764637663,0.12615807088693612,0.04056705220438956,0.13857867216511424,0.1215049259661004,0.12838875429910745,0.12946390362143587
53.0,0.12839489303104254,0.044509632525629485,-0.08388526050541263,-0.08728020509300244,0.10606795422494497,-0.020387864453510984,0.10969329670068628,0.07888742800177341,0.11612703230707876,0.05189176644259481,-0.0036397950019880824,-0.08794985964684379
54.0,0.1104337519825892,-0.19041192860154663,-0.30084568058413524,0.03957105572968664,0.20548910974181467,-0.24644714932316478,-0.014352864380102647,0.0509762940958946,-0.05847510984806923,-0.12017943342221168,-0.17487051959711397,-0.20834323004044478
55.0,-0.0589745629933283,-0.1763640128964409,-0.1173894499031128,0.1181102338618126,0.029310107501998018,-0.14652057117770614,-0.10428932597522271,-0.035138037448501205,-0.16170943374143779,-0.13704290889324264,-0.10299330673433574,-0.030964241885039608
56.0,-0.09620893535918598,0.11837921330809076,0.21458814866727566,-0.010578954600524363,-0.15527560001466084,0.16749065579984,-0.07760792230901643,-0.09384416841281937,-0.06435091497220895,0.034913530297798284,0.1286895663011827,0.19762141686298693
57.0,0.028289783403260462,0.2597624156140408,0.2314726322107798,-0.1440554700015765,-0.10170739794521315,0.2457586179986545,0.010942222066105806,-0.04461858294188964,0.09907902818759874,0.15600944100763364,0.1768190247354977,0.14360445472192018
58.0,0.09208021710463844,0.04600265325844012,-0.046077563846197565,-0.06929403107314287,0.06898282169187066,-0.0008078439726998511,0.06470059772960657,0.05718237120511995,0.1304631188434551,0.07820935015831675,-0.017205200340184936,-0.10205766912692651
59.0,0.012753059375859062,-0.18601882390018454,-0.19877188327604278,0.08653969774649017,0.10586313603294024,-0.1927713215975048,0.05402410736741636,0.07992974793914681,0.018021836176826338,-0.06943548401889134,-0.1500136546338644,-0.1777025886044967
60.0,-0.06899117194656652,-0.1341094261344421,-0.06511825418787556,0.10151399752165594,-0.001938679765049381,-0.09923206612897154,0.008142630025706178,0.007361594634515042,-0.0936276972671979,-0.11235931755901366,-0.05659398325368558,-0.007407666376578448
61.0,-0.06315392292888511,0.036186979535150716,0.09934090246403435,0.01342796687308441,-0.08139305632624082,0.06797996922196643,-0.03623593572946943,-0.04872773383001475,-0.09589785474238624,-0.04845084864513019,0.06627972910859056,0.1308779689879695
62.0,-0.01573410746571618,0.06695882617027349,0.08269293363598901,-0.025510223384588165,-0.049054732612926526,0.07458177747114669,-0.04533440577069425,-0.0303412943541062,-0.0034513677033222428,0.034475615924609605,0.03800544899895377,0.06642240906542571
63.0,0.04534674539768174,0.021454614716898437,-0.023892130680782452,-0.033208474784979784,0.0349886069803083,-0.001163446183030725,-0.008887153758364059,0.0018367454581369905,0.08963648971882797,0.0872763629376134,-0.028001027698546514,-0.05610393316865869
64.0,0.10726104573354454,0.04726289790388595,-0.059998147829656526,-0.0772864308515296,0.083421919104557,-0.005908051001869263,0.025647700906142844,0.0014866232156607333,0.08622784297577388,0.07523038207017946,0.013585210947947787,-0.06733598702476658
65.0,0.0734123660577045,0.05724875817883798,-0.016163607878866112,-0.06549560845501719,0.04404557079675628,0.02048687237986918,0.009787619882126817,0.004385056408648142,-0.02391552350538776,-0.020783670562992115,0.06847645305128897,7.257198566361443e-05
66.0,-0.0917602026143867,-0.05631990972281008,0.03544029289157499,0.07408574218240811,-0.06364281330651075,-0.011172022696617583,-0.013285452442669543,0.028920458301508332,-0.11643488321615471,-0.11469883850783752,-0.002401123273790006,0.04150901517455026
67.0,-0.19419408955039819,-0.14707999684050502,0.04711409270989106,0.17077004522336445,-0.11963374571854772,-0.050262480126068744,0.022302958580277754,0.026994890603216786,-0.055769682099602286,-0.07529331555412551,-0.110636633938098,0.03042760881343605
68.0,-0.04781420680245343,-0.04636829154289216,0.0014459152595611004,0.04689586989354933,-0.024057514277634907,-0.021750438440657303,0.05670409495561045,-0.01863902592647258,0.0974704613937231,0.06497126567602542,-0.07880819915791593,-0.012452460655925408
69.0,0.18525749946291062,0.12172498754576826,-0.0635325119171404,-0.15379123652385876,0.12346264516567328,0.029750161735519216,-0.015029099698438835,-0.04693289609080042,0.12248394354912542,0.11603699365249075,0.0661482562199441,-0.04951254916603901
70.0,0.18128404500916298,0.12726906302660615,-0.054014981982554756,-0.15403545149297174,0.11655381145489177,0.0362648582334194,-0.11713192642157648,-0.017198944223633012,-0.04172783188511051,0.010437852314528396,0.13402971479440975,-0.022659172157074782
71.0,-0.05031457120895109,-0.007560081766367748,0.04275448944258326,0.029540784525591134,-0.04607681873157644,0.016838155268720772,-0.06310743194198372,0.026896300504234357,-0.16044824769934596,-0.0888644246814789,0.04749371985340852,0.057364779897404405
72.0,-0.17623004716292875,-0.08733169439684901,0.08889835276607831,0.1317800309003912,-0.13126644965096296,0.000739157638267806,0.11486067889988526,0.03379467745359941,-0.03814369340582429,-0.04823912761354122,-0.08067895917360578,0.0702284245466346
73.0,-0.0626451574794746,-0.06397627458973557,-0.0013311171102621093,0.06253579762704985,-0.030512011578691142,-0.03207788951635686,0.15589613123059326,0.01128163639845291,0.152767674328694,0.03957358449896943,-0.11913140194028882,-0.03572662593714366
74.0,0.05849748729593426,-0.029508597539247408,-0.08800608483518196,-0.01492763417574314,0.0721462911491333,-0.05849979284688232,-0.025559525196331548,-0.01411216825978096,0.11453025027945658,0.03870131563993177,-0.04638546599094627,-0.11324989204501668
75.0,0.032993502350073596,0.014781049638234192,-0.018212452711838665,-0.023248217395514467,0.025016523706371568,-0.002030431514167299,-0.1785214505974578,-0.03202772665965062,-0.09868052301269416,-0.009850752063757172,0.07111638475807577,-0.022792547166122473
76.0,0.016583145798828587,0.10736123186657767,0.09077808606774934,-0.06115994795969218,-0.03641935278022035,0.09880998373811606,-0.09062760060687078,-0.022268113702314397,-0.15321839532713905,-0.0052985615891392055,0.13150183086846923,0.12043221424919061
77.0,0.09340078936032445,0.11909281488417016,0.025692025523845464,-0.1064979440912768,0.034602866420461995,0.07255029500273939,0.10260272822774191,0.025053425937848754,0.027833201131491517,0.014010860944202973,0.056852657476140114,0.09575753755745674
78.0,0.05704562137543603,-0.0755628290768953,-0.13260845045233133,0.008293968419038619,0.09462151651277835,-0.10389542300644185,0.1463958292003713,0.05347550949042489,0.1456597092210103,-0.028186422715294184,-0.10256175374639805,-0.07808408448383929
79.0,-0.16001982768571657,-0.2530747896748204,-0.09305496198910382,0.2063329840158659,-0.03411940904271626,-0.17319149297610698,0.021721768462654046,0.0031534315421642024,0.02475447802376778,-0.05617788074637887,-0.1605907789881861,-0.14941924857235098
80.0,-0.22398838309694508,-0.07141739035747145,0.1525709927394736,0.1485747072967233,-0.18844950672748756,0.04040748029901873,-0.09718907403293052,-0.06703289515738506,-0.11344390060152097,0.03238369998951323,-0.01197037533338957,-0.0023254491440263
81.0,0.06777162570596126,0.30501395419592936,0.2372423284899676,-0.1857873953868175,-0.08444637608084167,0.27127082312695683,-0.10471389142736146,-0.04490476341590602,-0.04942007762774305,0.12449781717331335,0.17376406867164093,0.16001803535552694
82.0,0.33308623279697525,0.2959536144019159,-0.037132618395059186,-0.31513224903270676,0.18539147057063887,0.12963627860564864,-0.027911875470110897,0.045165106757925615,0.0755029164841468,0.0279721574292591,0.13541192646638317,0.09845926054670617
83.0,0.137242769203349,-0.19285497608025634,-0.3300977452836054,0.026960321807405985,0.23381626925931484,-0.26160325400042017,0.07271706873916989,0.0704022663925574,0.0477229026612902,-0.16527826280750343,-0.09743012964183237,-0.11066187121978796
84.0,-0.2789585695843816,-0.4831317542983315,-0.20417318471395052,0.3813452009803942,-0.03739976617511735,-0.34397989990625194,0.12985504072376278,0.011000801527766054,-0.04031767210462499,-0.14479319830932227,-0.20403697579488442,-0.17180122582130727
85.0,-0.3165752310182295,-0.1001715648117445,0.21640366620648574,0.20932615457968212,-0.266829645822322,0.058149599121071205,0.06917146625327368,-0.028739954450085682,-0.008186241984497897,0.11601225427698267,-0.027768885912943107,0.003787842685881998
86.0,0.07673488230618362,0.4511551800072117,0.37442029770102997,-0.2639566301848752,-0.14933876967404766,0.41320163233586105,-0.09239666873169018,-0.03142846035278662,0.04301500260587308,0.23894701392289874,0.18075018334506798,0.166457337631955
87.0,0.3446027041132377,0.4049011495316146,0.060298445418376666,-0.37576222110598817,0.1421845178922406,0.23274508875854893,-0.19408225856134664,-0.06556407046281955,-0.05429869768054192,0.009359316885398487,0.13192195666847192,0.09949149220755649
88.0,0.15393951005289985,-0.1433721606349213,-0.2973116706878235,-0.005575616321003642,0.22638256964096734,-0.22074983383850766,-0.09346987947961037,-0.07056970434544865,-0.134853070965145,-0.23949093581495667,-0.07789263595753428,-0.07247746932116396
89.0,-0.18957460640317098,-0.44179768013914905,-0.25222307373598046,0.31672453968269354,0.031926138496906696,-0.34736878434184915,0.1318216007821981,0.07427273639504839,0.04463944537040276,-0.11994441952489966,-0.14028682778682172,-0.10655695867958857
90.0,-0.25774441375174306,-0.19283558730420203,0.06490882644754174,0.22599879756038438,-0.16173359889532218,-0.06371062073461109,0.24264070210219707,0.2335850389465292,0.2742988581797282,0.1786857181234196,-0.010801669030850947,-0.011832434182976213
91.0,-0.047413831286587806,0.16157333420007633,0.20898716548666826,-0.05796880027431292,-0.129181543609894,0.18576902837137546,0.1129831275775433,0.11361174029731007,0.13033509294471352,0.17314012387870747,0.06684256449331573,0.023132123073785853
92.0,0.1534621471540688,0.21216531629440036,0.058703169140334036,-0.18399665083833816,0.04701148093194658,0.13545153016228637,-0.12808177514831434,-0.2265245542519265,-0.27892769338801804,-0.1318760106889649,-0.014130971668514222,-0.028063205601457118
93.0,0.1764156023613004,0.0825382567509291,-0.09387734561037382,-0.12908505051726477,0.135804273805829,-0.0060902486024660045,-0.2564939093130466,-0.342245009332339,-0.36956100129376507,-0.23391666062323938,-0.05660020549459944,-0.006561316403684335
94.0,0.06540428169114924,0.048033445970103096,-0.01737083572105041,-0.055302050051562725,0.04230348299923594,0.015080334348398965,-0.18351442981151186,-0.05218891281580321,0.023823395328905986,0.06546542513564177,0.08642001228905662,0.12573882522579433
95.0,-0.07741548911179713,0.06108154278566549,0.13849703189746174,0.00851524793269372,-0.10776686902163587,0.09994604425450876,0.025309151494948768,0.2740091255522192,0.376867954130195,0.32505270083551946,0.2093878283789773,0.16954055668405585
96.0,-0.17002926444925165,-0.10141639404162363,0.06861287040763014,0.1345872586888184,-0.12005487691624206,-0.016130562420986053,0.2644367445231144,0.29389925988768173,0.28348016879547727,0.12758266227673454,0.022659375234446857,-0.03917224620011208
97.0,-0.14304331655623606,-0.36982853954581735,-0.22678522298957887,0.25552206433204155,0.04098419619247565,-0.298173883648413,0.3858270879019231,0.12555395750971354,-0.023204105325336885,-0.28922707155987415,-0.34323683953004963,-0.3319833707328559
98.0,0.018317815700906962,-0.3296094189509581,-0.3479272346518649,0.15608620795036934,0.18308866586826025,-0.3388044825899898,0.17838702155428443,-0.05881223160684528,-0.2101869249825291,-0.3728451439419553,-0.37758419030334694,-0.3124342564848655
99.0,0.21071576372055148,0.21092991484403692,0.00021415112348558598,-0.20988286411041276,0.1061588144431893,0.10535420972597759,-0.3647603378272908,-0.33547835470127496,-0.31691165676538097,-0.01638388235616875,0.12066309452355604,0.14714676793738463
100.0,0.24732575602455212,0.7405332673811169,0.4932075113565666,-0.49371658234918403,-0.12219137886926956,0.616588829090038,-0.7480546072863354,-0.5436813240438428,-0.3322885008162791,0.35299957897039536,0.6163723585672115,0.5842063596886147
101.0,0.025048362141370364,0.5222083046760553,0.4971599425346843,-0.27410796657946795,-0.2364104069698435,0.5096936792863327,-0.35800966391228944,-0.1575990736954484,0.05827070331435931,0.3680016989306022,0.4371183071665041,0.39519591694056433
102.0,-0.29940387126175366,-0.368516232488788,-0.06911236122703705,0.3335349225050093,-0.11606361252391478,-0.2184037390287207,0.624526657326756,0.7342051101454868,0.7380495430866021,0.0824700982468963,-0.2885626853562758,-0.32045408274696274
103.0,-0.3708385945174222,-0.9676353979858419,-0.5967968034684205,0.6691795899521027,0.11275858691159661,-0.7818913435760845,1.114541678493907,1.0155070877537518,0.7920483617080093,-0.26788643222761577,-0.7321652804362433,-0.7426478124008633
104.0,-0.015030299368911369,-0.6189517051681617,-0.6039214057992479,0.31718133401070736,0.29506061935797046,-0.6116611086177621,0.37878349168967607,0.0190620345862182,-0.2706331049305638,-0.5072584258097179,-0.4361433208584965,-0.37134038977939166
105.0,0.446069305513202,0.2803602302594122,-0.16570907525378561,-0.36291892441105633,0.3063038733814081,0.056839760974978344,-0.8833594432827998,-1.1806594203578646,-1.3514855200121532,-0.4028043848265882,0.21896566387948613,0.34497543128308183
106.0,0.45197876135677845,0.9626889577569959,0.5107101964002194,-0.7071636360066139,-0.029640445977665318,0.736584334312078,-1.2727091125794383,-1.0703151304760454,-0.9139397964739532,0.23716354890151867,0.6835248205875237,0.7027299838545013
107.0,-0.10447324864669928,1.0099403051228675,1.1144135537695627,-0.4529211175255244,-0.6097504824188762,1.0624975836685708,-0.3667223426188384,0.17631362209188536,0.7666465673518997,0.9798790413944041,0.7240495900741102,0.5264062679816383
108.0,-0.6026312823738948,0.1994681718902078,0.8020994542640996,0.20124342047987648,-0.7022132338274578,0.5010750540713713,0.8785159804259319,1.0940460584227063,1.6616861836714043,0.7898681662809485,0.15922465310433456,-0.055504732888773466
109.0,-0.3756949198784805,-1.2483804118352144,-0.8726854919567313,0.8120113197825056,0.24868666720142285,-1.0605178080744424,1.306498543286673,0.989452696145665,0.6222032943664535,-0.5961242894594746,-0.9280538841508504,-0.8391420433342045
110.0,0.3515964080429982,-1.9292424584916992,-2.280838866534697,0.7890813034699045,1.3160753081545478,-2.1051712506978584,0.6073847139133141,0.26131392721800345,-1.0786552351289016,-1.6762307031921384,-1.4720424565952845,-1.1082718442800417
111.0,0.6075892885047324,-0.38680277268458396,-0.9943920611893156,-0.11031155186070185,0.8008414543333728,-0.6907881890258146,-0.6727719422370975,-0.7609301864555795,-1.4620253861195596,-0.7662421914557391,-0.2670365566413607,-0.06513462749417219
112.0,0.007757593670255214,2.225225093215092,2.2174674995448376,-1.1166344161784965,-1.104756867330778,2.2211284362723838,-1.5342199991189394,-1.6197921862244125,-0.30375850745239064,1.3845417977039158,1.808325963695951,1.5395889298702141
113.0,-0.5408975754015609,2.5740395788238613,3.1149371542254323,-1.016521899959365,-1.8278661181595528,2.8444983508996495,-1.0655395895636597,-1.0478793557541668,0.9252690543228879,2.034150885078336,2.022909809811447,1.5505912344391795
114.0,-0.14665939744345505,-0.3404953726573194,-0.1938359752138651,0.24381078941248066,0.023487260256145177,-0.2667619724152572,0.620808469531846,1.2624602866471308,1.0518928373362375,0.10914070658243762,-0.46639727252529445,-0.567541770438035
115.0,0.49613615251804044,-3.0761765268943244,-3.5723126794123607,1.2899022451164925,2.034332505472251,-3.3238576365916277,1.9756345431654527,2.7556486723930624,0.27215731307629853,-2.035990599825041,-2.6888598955804586,-2.2345744334614186
116.0,0.10342606763464367,-2.1356385773998343,-2.239064645034474,1.015605081464255,1.171527220432654,-2.1875438432799594,1.3910270800897522,0.8229134375691581,-0.5239502035780669,-1.667222059214952,-1.5923665815350805,-1.0704053691797137
117.0,-0.7823557481363961,1.2318841196575228,2.014239867793919,-0.22489408255043744,-1.3984217800708139,1.6224483396990654,-0.7806206700862941,-2.592056593852042,-0.7324228443921968,0.6782303274846089,1.5223152411939398,1.4688927810811416
118.0,-0.3048495695320137,2.9079372684727764,3.2127868380047926,-1.3009395310805774,-1.759339096032259,3.060079470538642,-2.3125967427145144,-2.777123188754191,-0.36178118303150214,2.061718761328144,2.6519369696732675,2.000366784531119
119.0,1.2754223564188223,1.2969278843239995,0.021505527905173634,-1.285579828283649,0.6268531572137321,0.6595983266654318,-1.5276033948741317,0.7355991669251263,0.12934413479973686,0.9850511790879408,0.5422688600749782,0.019121480937344157
120.0,1.181632852423528,-1.4029279686642615,-2.584560821087795,0.11040451466544307,1.8836417707317614,-1.9931673392545388,0.8568620858382537,2.9733501723022635,0.3296399288067814,-1.083978193898341,-1.9420835620126635,-1.6502191071937387
121.0,-1.291304443179335,-2.3844016369993053,-1.0930971938199643,1.837039785303421,-0.09873879233648711,-1.7385784249031548,2.499274971011277,0.9501908456953819,0.3513136093229344,-1.7917422405797663,-1.9039815504554485,-1.040341946102437
122.0,-2.548571630579264,-0.868363484474465,1.6802081461047957,1.7080537438383432,-2.114696557010847,0.40557852631058944,1.729782005532965,-1.8614725127838225,0.48333734680876567,-0.4498255332053132,0.2177240073613421,0.6297142928876154
123.0,0.07242778201870546,1.5673808905989581,1.4949531085802474,-0.819476880416996,-0.7116353064809097,1.5306359449205762,-0.8423288755595124,-1.275940772649808,0.37993354462319534,1.411525023039393,1.8073535081071026,1.1765706702326135
124.0,3.2770313881880866,2.1827962746041223,-1.094235113583957,-2.7291288496110395,2.1857106184813992,0.5440195818583575,-2.7190861325612152,1.1125488556668175,-0.5362439375671894,1.5862411133755763,1.206348506610685,0.21849999250213814
125.0,2.1354653697540114,-0.037771199234156026,-2.173236568988162,-1.0485068993937714,2.1545017823138712,-1.1051953734581499,-1.8774175484170044,1.0891550709528883,-1.5831826883995805,-0.308953166134264,-0.7401384096415045,-0.866192262706952
126.0,-2.1256581562443815,-2.256663008253298,-0.131004852008917,2.190694455131662,-0.997422388610057,-1.19317019231421,0.8980913960131996,-1.1543061774504209,-1.0168923302228308,-1.9149498521539583,-1.665881743426639,-0.7232793946631576
127.0,-3.587781780235615,-1.0485769578439421,2.5392048223916657,2.317347465759393,-3.063476573363784,0.7456212172465702,2.6652313614425727,-1.6695472039057377,1.3175225366197176,-0.8842040321111887,-0.3652573077746433,0.5160436753912153
128.0,-0.49237177487788414,1.9407418972441899,2.4331136721220683,-0.7244792343344334,-1.4624741974556719,2.1864603038097683,1.7245013225253856,0.663741055907034,2.762496730309509,1.5275073714884713,1.4122349081379701,1.1836467004378328
129.0,2.5869925394751165,1.6950618665798285,-0.8919306728952827,-2.140405632438383,1.739483557664448,0.40085657510563844,-0.5728568592366631,2.469306010254829,0.9702226219238156,1.7554455830723221,1.02219000395969,0.020316279661134126
130.0,2.114865959711936,-1.8182741844937953,-3.93314014420573,-0.14747775698586685,3.023660510670338,-2.8758035014317374,-1.9574207661666543,1.0895347687106565,-2.4081006694869456,-0.7067513407116552,-1.0317212182527369,-1.6076495576659207
131.0,0.023233326999852,-2.5770063516986847,-2.6002396786985287,1.2769279651853596,1.311627652379696,-2.5880898888040007,-1.8040344205382783,-1.763516177324927,-3.238810485849943,-2.115614321314862,-1.397812830280663,-1.0133876758649023
132.0,-0.8602013748961087,1.5139693480861725,2.374170722982282,-0.3275750438390135,-1.6169038593453653,1.944494901444014,-0.6374386612116534,-2.6081529014018803,-0.276442860069168,-0.20656176145510158,0.7875319126855777,1.534499155661094
133.0,-1.060362205248208,3.912619242236801,4.972981447485013,-1.4266420730033067,-3.016616627062499,4.44275091400558,1.203483438340991,-0.5445723558125508,2.987997097249126,1.9897763131609159,1.914628929372186,2.2471927885684453
134.0,-1.6365380014016746,-0.2375628727396074,1.3989751286620704,0.9371981795316344,-1.5180575434096175,0.5804870299886964,2.7876762200940783,2.021230925039742,2.7665827755931978,0.9069823196474796,-0.385150621551166,-0.5806361457517599
135.0,-1.119326133182251,-4.990471394239253,-3.8711452610570025,3.05532117995095,1.3759548463738522,-4.430989311348129,2.1039377455015855,2.280978950994438,-0.3370196898656002,-1.6442314998066174,-2.6581803308673413,-3.053079791901191
136.0,1.5592960833934517,-2.244538661252041,-3.803834744645497,0.34285446089064836,2.6820749777537585,-3.02441717850445,-1.310228953709589,0.12772717369173103,-2.558439321488895,-1.3563914347957637,-0.7077052368161066,-1.0748410018398096
137.0,3.7742888161080614,4.651735450496882,0.877446634388826,-4.2130001778819794,1.4484904667346825,2.7645224960633445,-4.212847332927029,-1.7910994121918364,-1.877613591240689,1.3637118790820557,3.0483863309268875,2.840824868806461
138.0,2.0984795995762706,5.105521481201335,3.007041881625067,-3.602136564836836,-0.45497451640722103,4.0567158847809335,-2.774869142857434,-1.3890278914115233,0.17764239363660578,1.8750312134326808,2.5608434733356584,2.75868299092608
139.0,-2.597257905192966,-2.2269052043142965,0.37035270087868105,2.4118012168529304,-1.4842449268276767,-0.9277522069997899,2.1346753305871333,0.21410212380962101,1.3678853292560251,-1.0078836597292777,-2.1832756807449325,-1.506873969196968
140.0,-5.33630167933696,-6.751306160046734,-1.4150044807097781,6.043576309845329,-1.9600992786721978,-4.08338013617947,5.109547195266564,0.6611879828011231,1.354511782238243,-2.707656172474437,-4.3047965566355035,-3.6970714004839826
141.0,-2.5358908433957015,-1.7150839500988586,0.82080689329684,2.1256136407088793,-1.6775926897914781,-0.44793540089337125,2.5130947035566287,0.08605401897545986,0.8390013620573844,-0.06191954140836191,-0.2447973117939356,-0.518815349641017
142.0,3.536107016469858,5.767362865962979,2.2312558494931274,-4.651326862489513,0.6523410544585233,3.9991247680711215,-2.928466993598446,0.39442649754063647,-0.14329442117568444,3.309499556008621,4.509813949452094,3.3631962772030213
143.0,6.448332903649503,5.301633036290342,-1.1466998673591615,-5.874748174182682,3.7968318706171154,2.078231351491293,-5.1630008464826735,1.2569760086233837,-1.5870960336805162,2.1533141316113076,3.2318898808746375,2.4147780370801164
144.0,2.4749417602281807,-2.0903478728741725,-4.565289633102347,-0.1925033788713814,3.519780233417923,-3.327288376303272,-1.811839651061946,0.2868206674316917,-2.1819288140892876,-2.4158409621329633,-2.377741244976682,-1.7374392918758617
145.0,-4.494043915575869,-6.300110411956361,-1.8060664963804907,5.396680550930397,-1.3437357229793836,-4.053637740099938,3.2576643613510488,-2.181020951900743,-0.5182692103807155,-4.16310704839565,-4.804644570986098,-3.229559386091693
146.0,-6.690540295149288,-2.4008670756582915,4.289673219490988,4.5455586140030215,-5.489745504689034,0.94367611374065,4.571775296539784,-2.369390700001051,2.342508781187263,-0.4604997236135616,-1.1577427225344454,-0.4804787798079017
147.0,-1.5995343210387833,3.847613708788876,5.447148029827658,-1.1238268813011731,-3.523184007705313,4.647660894735744,1.1234067075703942,0.9883396764556317,3.1933526823032685,4.031504797409621,3.564583096003362,2.4156556202292956
148.0,4.86275084686549,4.839565707382601,-0.02318513948289625,-4.850890087519227,2.4429428736741627,2.4089898435617028,-3.0466694148249065,3.5842888184358843,0.4904566586382843,3.6170112989523653,3.7002969442982843,2.0211711867717668
149.0,5.588551043169345,0.39350781221185754,-5.195043230957496,-2.990968115245539,5.3915918405205385,-2.4007736263250923,-3.7027519308674046,1.4964639283526586,-3.1244878930161772,-1.1019585738622795,-0.25561967685139425,-0.4519359504016804
150.0,0.5619608456229929,-3.684753637583906,-4.246714483206903,1.561337064001378,2.404031291164849,-3.9664922050737133,-0.6988556717742723,-2.593249684929635,-3.4658034050565276,-4.314849448076052,-3.3621010798312287,-1.8846387195460994
151.0,-4.099699193753252,-3.25926406372404,0.8404351300292143,3.6794197279415326,-2.4701386868091193,-1.209642172990379,2.5539807373485077,-3.0704108688405727,0.08656475239767042,-2.4188290564427377,-2.5088062885340534,-1.2083352557149878
152.0,-3.848995071181122,0.30316327847430974,4.152158349655428,1.7727143019501759,-4.000251400441217,2.2282751409794175,2.911002355110413,0.40152593344602283,3.4797615557735067,1.901757400304558,0.7183126047571752,0.35999631894119505
153.0,-0.05972795646870778,2.860021817977237,2.9197497744459504,-1.4004354261832828,-1.4894043857069665,2.8902372510001437,0.4099685951064615,2.7409940666859236,2.801069544573444,3.513393021475084,2.641848903734192,1.3032502088810256
154.0,2.81353473033567,2.1836370715633606,-0.6298976587723071,-2.4984426292076236,1.721630245685804,0.7764236877168451,-2.142018513780644,1.1578229303373289,-0.8632565173357292,1.1400138814368275,1.6265872760665914,1.0184939284209131
155.0,2.3330380878617696,-0.34225586734604235,-2.675293955207815,-0.99470370741382,2.503834595048488,-1.5091253557522997,-2.180554899392067,-1.3888493242743105,-2.9687630510872336,-1.78122671930716,-0.6788121113264753,-0.07623834268811351
156.0,-0.14032405615663868,-1.927739439315479,-1.7874153831588404,1.034350443913065,0.8234387131480219,-1.8572152931853418,-0.009178225003250183,-1.4092817574677363,-1.4374938666607682,-2.0388798204700382,-1.7403397275997017,-0.9710063564273047
157.0,-1.6961677261161272,-1.4482034260351309,0.24796430008099715,1.571456104400129,-0.9719104448905401,-0.5998018015072714,1.7571039057962685,0.273578940355074,1.1358687426112801,-0.3143473964650916,-0.9764120094422569,-0.9306142973691401
158.0,-1.1126048669339175,0.013655783137493242,1.1262606500714099,0.5486009161229414,-1.1193479964999389,0.5695638051373997,1.3407660370090464,0.9027158067036674,1.6117822568814961,0.8260876107359991,0.2604057865584262,-0.14021176240472621
159.0,0.2905286122270045,1.015424590809243,0.7248959785822403,-0.6526900169755567,-0.21725905009181928,0.8697618792135003,-0.3133638708806276,0.16148838799341728,0.3020287999927919,0.6613636898275848,0.8216737380249848,0.6356672203405754
160.0,0.7509599547725035,1.1062454714697423,0.3552855166972407,-0.927536548023898,0.19783105262007025,0.7311932972788793,-1.1548329811970508,-0.324110440703798,-0.540308648696121,0.3171302027919651,0.7436308412717415,0.8379491305873769
161.0,0.21073904509078875,0.494101198211818,0.2833621531210276,-0.35208027241535056,-0.036163519152304674,0.38938400140984597,-0.6278472879657812,-0.08937348215998162,-0.3091669693436833,0.25958103002837946,0.3440505012198041,0.39580077098716343
162.0,-0.18997409306806196,-0.45237483982406007,-0.26240074675600134,0.32047572381352923,0.03631505714589764,-0.35763612261315,0.21321345969251615,0.004514447250402464,-0.09422733801283766,-0.10515636833570192,-0.31772916437063764,-0.36687206363976615
163.0,-0.026779699262002903,-1.0751661905823073,-1.0483864913203007,0.550333429754535,0.5106781242411514,-1.0627022252538567,0.518352374212549,-0.2026978941877566,-0.2653465528636435,-0.716899989781759,-0.858798502395082,-0.8332056272218286
164.0,0.10762009490495375,-0.738198502683601,-0.8458185975885512,0.31533661529204443,0.47642456095392993,-0.792269577924186,0.40716611846244255,-0.05701943369165644,-0.1271642848530223,-0.6591417530237377,-0.6152283206729567,-0.5213328274198651
165.0,-0.08675887234721331,0.2929829160774032,0.37974178842461664,-0.10277878237862839,-0.2334384205075815,0.3372502173853442,0.15972609431831777,0.3832368475951304,0.39324880918130073,0.1838634860502654,0.29051135149793456,0.28637821310619216
166.0,-0.18767158853619723,0.932456930003344,1.120128518539538,-0.372063276489593,-0.6536708412421679,1.0271892724996774,-0.22495673110102657,0.35600379526135884,0.4930752664261694,0.7513971836749138,0.8214122027930224,0.7219948451887475
167.0,0.012801839640794715,0.5841541791816572,0.5713523395408597,-0.29813710181534625,-0.2786980126091453,0.5774246696713704,-0.5469665323418313,-0.19348577749413734,-0.03905176441397931,0.4121006978728365,0.4095740564077866,0.38576652423002894
168.0,0.14118027735505753,-0.17544922692060338,-0.31662950427566033,0.017061603286626155,0.22917356446950754,-0.24721882997449826,-0.37532727629662066,-0.49045239141034463,-0.44538606633823413,-0.20240770124854798,-0.28462951206165404,-0.191837842405021
169.0,0.006244958899708662,-0.5076574486968424,-0.5139024075965466,0.24991377343580473,0.25949644962564433,-0.5112860055556967,0.23180118445367456,-0.20037358636268365,-0.251566292264899,-0.33482920840673136,-0.4267862265647547,-0.371704365722604
170.0,-0.08002289207533204,-0.34067208990888237,-0.2606491978335472,0.20972247288761714,0.08944247751012932,-0.2998635392141513,0.6092637925714234,0.19185298757464422,0.1224965033908814,-0.12510395743319372,-0.12361333904510131,-0.20475398666090475
171.0,0.04705340751461988,-0.10777559649417111,-0.15482900400879265,0.030959571057434153,0.10096174026542686,-0.13029390247826253,0.34703276646978265,0.2869958056597097,0.19728204805241614,-0.0496496549783174,0.03594202312745328,-0.07565683699716806
172.0,0.11662940247000467,0.045513991679819586,-0.07111541079018885,-0.07990685819256854,0.09490156458886861,-0.012828741156756756,-0.19684043636160894,0.210183728058692,0.0749633580758642,-0.07888398444089716,-0.020385335704842352,-0.010670241642861561
173.0,-0.021858030066935975,0.25381620540342675,0.27567423547036185,-0.11588377364134173,-0.14807169063288989,0.2639399713075207,-0.4507784701450368,0.09269707227089528,0.016902642392876595,0.06925349548554117,0.055729148119589164,0.180587883008603
174.0,-0.13760641513523847,0.4064499571762025,0.5440563723114435,-0.13550681277116547,-0.34141041733726046,0.474806397478788,-0.2987966433873733,-0.1529230500496771,-0.007565654096946992,0.29431971659756057,0.2668667838809695,0.3650083643003843
175.0,-0.07420262949713236,0.20608222715783,0.2802848566549643,-0.06664179764519813,-0.1782327205346803,0.24340178748443903,0.00405477241971911,-0.41176118182667315,-0.0937136289133053,0.2481046661280716,0.2375703978352138,0.208114329863307
176.0,0.029411970945489446,-0.2677085862531011,-0.2971205571985905,0.11964059070196487,0.16320543031363638,-0.282140469402437,0.24160130187584725,-0.3209593367676789,-0.13769822782094068,-0.0906349302318346,-0.11667772464664145,-0.23816092204807857
177.0,0.07360115235527698,-0.5149379821564162,-0.5885391345116948,0.2214188424193473,0.3317900051285173,-0.5516783598465457,0.323948679691641,0.15372454240664718,-0.03152052036608457,-0.3566852605217985,-0.39158309521303747,-0.4912726467801307
178.0,0.1096226107487115,-0.2531398845321932,-0.36276249528090415,0.07181660889502274,0.23654537571351822,-0.3077958380624368,0.19861739565506645,0.5272257236706104,0.12507014789356266,-0.27032431011065167,-0.2565767981380135,-0.24673718016226115
179.0,0.084792722842059,0.21756143388947025,0.1327687110474118,-0.1515032859203869,-0.024277652800782264,0.17538889448850042,-0.08611145017299805,0.38851271995887277,0.16459154470957288,0.0590536876005359,0.11981373344189714,0.23765997997582414
180.0,-0.09092957709467453,0.42472022487226446,0.5156498019669385,-0.16701820294942799,-0.30350683553931807,0.47000194389383143,-0.32502511601334294,-0.10136602605671066,0.05713614336104156,0.30396037240218793,0.3383202047509803,0.46335991272591853
181.0,-0.23594641268922,0.25398611369119334,0.4899325263804112,-0.009073143085227293,-0.36280935449231266,0.37137232644338614,-0.3164966759735788,-0.4610034520617967,-0.1006727702627579,0.26001853752048715,0.2381386961233653,0.23987399026995093
182.0,-0.0933888848331994,-0.0681625946195329,0.02522629021366749,0.08058152874140849,-0.059283966683087136,-0.021765890213553508,-0.05759197749414542,-0.41941040909573435,-0.18839464495764358,-0.0008897216026781523,-0.03216862478160072,-0.17293567398976745
183.0,0.19183542075876858,-0.29458872024690785,-0.4864241410056747,0.051385649024474164,0.33890710468499274,-0.39008277791486573,0.25545991389481343,-0.06863416131524189,-0.12159613666637349,-0.2328944661686996,-0.24353452840736708,-0.377390089875683
184.0,0.23161286959074012,-0.29176408535456627,-0.5233769549453062,0.030478230065616365,0.37743399635614944,-0.40686583226181844,0.37919604447640765,0.31999841186637634,0.07899060145316594,-0.23651348477617684,-0.25010554888108183,-0.2177161736372314
185.0,-0.0013753761684805977,-0.05217254872001872,-0.0507971725515398,0.027071216899286363,0.024946559203517366,-0.05126028346485855,0.1986647965585148,0.47660625210931434,0.24366685424186524,-0.026372267545449527,-0.049089144417411044,0.10963274929507978
186.0,-0.16317434927379665,0.23506391290335218,0.3982382621771485,-0.03615475469524754,-0.2805078236591882,0.31616578472198514,-0.1597883036377803,0.2628057672652131,0.18109030761894804,0.18145778549643413,0.18928749957957036,0.27472667018278174
187.0,-0.1035761705239434,0.2821932849887419,0.38576945551268554,-0.08969675105459211,-0.24469850395008572,0.3332813111558241,-0.39565305027546266,-0.1919094348411417,-0.08842208697752021,0.18045329315860217,0.23679639070118233,0.15074893795329922
188.0,-0.008261339351079844,0.04618694442901381,0.054448283780094975,-0.01910079049785511,-0.03149072036642535,0.05011302258975539,-0.2954468862778992,-0.5122878172594122,-0.29560960590488305,-0.0006068345541627698,0.05710879432650228,-0.0720837726557607
189.0,0.014678184407899997,-0.17626428586736112,-0.19094247027526012,0.08085799109251857,0.10263117760869614,-0.18309747745568658,0.05453936346733413,-0.3904057943171762,-0.20256152394348018,-0.1332934477884164,-0.13744425230053237,-0.1374226152960154
190.0,0.0629940850696698,-0.148074544522055,-0.21106862959172432,0.04270975951119854,0.13687276329882084,-0.1788880134893336,0.3480912938889261,0.08032000932631891,0.10686607953604933,-0.08037908458260855,-0.15383945464119222,-0.039419669310852584
191.0,0.1263344233838633,0.0005613920353886179,-0.1257730313484758,-0.0630998877489311,0.1261555534075356,-0.06247236748183238,0.34453273474017576,0.4681459937809834,0.30583385943287883,0.04200835640946546,-0.038385382409424615,0.02047593627633208
192.0,0.046480169603985766,0.03583898393541345,-0.010641185668574471,-0.040922212204371006,0.02895817472030976,0.012070980918005476,0.06406315202370881,0.4348183064333748,0.19452191859055673,0.06057522408080879,0.049110522429546825,-0.03276165843364397
193.0,-0.13803180774117763,-0.015029355043995545,0.123002452697181,0.07613723944458906,-0.13029376994488936,0.05341149430017242,-0.25608936615350597,0.046902984004032464,-0.09531153965543573,-0.01162574982851162,0.057929543145637565,-0.04644056921237816
194.0,-0.16658291030661385,0.01385290227701687,0.18043581258363248,0.0756413063782955,-0.17383199371825464,0.09713868760537789,-0.3611961261771565,-0.3443583009105499,-0.2763031769112448,-0.04485979427382217,0.0399734836254543,0.06862816943057333
195.0,0.02385967904249826,0.10532866830375155,0.08146898926125545,-0.06459851942567289,-0.029295555878787842,0.09389332677089592,-0.17302404462605214,-0.4390025462747028,-0.1969164613980742,-0.006521000128396151,0.023971456015736813,0.15422273987838891
196.0,0.16662087394726788,0.09924553022310643,-0.06737534372416178,-0.13205430160490567,0.11698570302085731,0.01630283467590379,0.15121461709293277,-0.1894594195656934,0.05568377881843106,0.034250589422067074,0.0022432709854034055,0.05511549736957411
197.0,0.07579950826421937,-0.03518390053658574,-0.11098340880080712,-0.019786952203562237,0.09384822679937328,-0.07324206225327537,0.3439760446112097,0.2050270828345237,0.2520012043116654,0.04280673159552264,-0.022668548804826296,-0.11909528029643322
198.0,-0.08284766243219352,-0.1566659421178396,-0.07381827968564687,0.11911050891252206,-0.004188127816722177,-0.11560322677188417,0.24851904877902536,0.43107969887242426,0.20793636552294517,0.02805019300194269,-0.04616480020850137,-0.16040734023338918
199.0,-0.0835508771230497,-0.14121030381383673,-0.057659426690785776,0.1115404207907447,-0.01309572354179088,-0.09944663308153948,-0.04937874994794285,0.2900630467780937,-0.03698210882948087,-0.02215264422199782,-0.061914270859619036,-0.05697928005170237
200.0,0.022713515714907477,-0.0011009664629830758,-0.02381448217788996,-0.010559842359430324,0.022874034441487213,-0.012197350017411495,-0.29541235405340366,-0.1004796517093235,-0.23096224795773757,-0.09245221423262971,-0.032997110316176706,0.056541237026282956
201.0,0.04992578637506213,0.150706277641157,0.1007804912660942,-0.09940529514463824,-0.0256394973539413,0.1257051634175094,-0.2835714171935098,-0.3807836835545508,-0.17894877140869236,-0.08808979828893534,0.0599488325439056,0.1215156746965442
202.0,-0.01074710620410428,0.18995232711896226,0.20069943332306664,-0.08945767033747859,-0.10555121418601605,0.19497029778484554,-0.033810259049191146,-0.30408272061845604,0.03192187848873181,0.04062582422004458,0.1359468949859565,0.1403996949845062
203.0,-0.031492894384388216,0.0691227457936404,0.10061564017802838,-0.019624149272406632,-0.06563645702916027,0.08489029277273354,0.22573940296363634,0.014191237403508477,0.16435315330786687,0.1662812835403293,0.07943416971844666,0.053784073039177316
204.0,0.0028904693830882795,-0.1315150584361907,-0.13440552781927945,0.06382531060620428,0.06885573905746382,-0.1323938617064446,0.2706789563190652,0.2566321322457599,0.12606983647214745,0.11335941242975273,-0.08678583326512064,-0.14670309949202043
205.0,0.004884952005474745,-0.2428149160083627,-0.24769986801383767,0.11951503122107963,0.1259377859866019,-0.24501973618815803,0.08954777996048956,0.25453081275947903,0.013531316932984695,-0.08623574463700553,-0.1860178487851571,-0.2611542753720892
206.0,-0.011171522904778975,-0.13672957889266926,-0.1255580559878891,0.0746667115571837,0.05662370394294122,-0.1317445744162536,-0.1305765277507215,0.09223201567271493,-0.07352002241583634,-0.197003679336727,-0.09162320969100106,-0.0879458333838709
207.0,0.03968256358350114,0.12745517383943836,0.08777261025593834,-0.08371796516152304,-0.024026625541103463,0.10705579281988943,-0.21374863689216564,-0.0823686554993358,-0.11059363118289235,-0.08134643469506271,0.10738605708215924,0.2263935752600354
208.0,0.09207740876403905,0.29343828815730766,0.20136087939326797,-0.1934575761115228,-0.05392265940941229,0.24778530849280886,-0.13902040339967275,-0.20225049322320293,-0.0797270368559649,0.11125695926272224,0.19471742762710198,0.29770120574856623
209.0,-0.010268468654820983,0.15363784009619869,0.16390630875101822,-0.07191111185497549,-0.08661999058751785,0.15945568715536468,0.01278554550502109,-0.22072318753557588,0.023658888024651156,0.1465806741437827,0.07307340737014704,0.021389763043750117
210.0,-0.19202678483443603,-0.15882482157462874,0.033201963259807,0.1758460261075022,-0.11313093506853757,-0.06296328262037289,0.15397075134739213,-0.07317743846161277,0.1190118508747527,0.020970445242800114,-0.11534099047531134,-0.25467630943093694
211.0,-0.15814387597137192,-0.2779449791531454,-0.11980110318177167,0.2183816898260106,-0.020020505459334433,-0.1995272251051672,0.19760763349185886,0.18715760955920419,0.1032057408850828,-0.06615065147830286,-0.15375873067107168,-0.1994936458293199
212.0,0.14166883880156406,-0.08124775398451245,-0.22291659278607528,-0.030316354442506223,0.18229355041114365,-0.15202689236689756,0.08273052627536606,0.3236272113866513,-0.0071061903709639905,-0.029339702729934403,-0.02245803564717554,0.05830355515361176
213.0,0.3300931097578829,0.14452896222619158,-0.18556414753169279,-0.23745198678377558,0.25869068495408754,-0.01980946506950812,-0.12444410129418872,0.15003510003650386,-0.09324149803105732,-6.166210241360416e-05,0.08522731870788718,0.15644378550901125
214.0,0.10824329375985565,0.13975708959858915,0.03151379583873158,-0.123941945835831,0.03891920243856129,0.08572102059525954,-0.23226536563940833,-0.19273774631253257,-0.08983926501709777,-0.05938003832467827,0.04907486571525673,0.03143242162388099
215.0,-0.2748959062762499,0.021781857375797554,0.29667776365204845,0.1264619297247928,-0.2862371075424999,0.15839319551038286,-0.12019042340410323,-0.34503471444669237,-0.03117211529924416,-0.0711658952981642,-0.013593303043470107,-0.04845144546784455
216.0,-0.34185215162222676,-0.0012774096244157064,0.34057474199781274,0.17123785955511814,-0.3420119541811995,0.1691598512415842,0.10476818719313376,-0.14708715341420925,0.03940011789036239,0.06846608434237299,0.02453110599272804,0.041764221458867434
217.0,-0.02650746186947231,0.005389873140047718,0.0318973350095209,0.010589148463632571,-0.029328916997814126,0.019333743905364662,0.21705974540173026,0.17021301396932884,0.09758500775000611,0.18631799388972362,0.062068754440222744,0.08479679877981781
218.0,0.29191378635177595,-0.09004167099744209,-0.38195545734921876,-0.10032787947760297,0.3375405348982133,-0.23505225460634882,0.11667440272429726,0.2750809511333784,0.08861882856751774,0.06617370937977826,-0.04356585379623676,-0.07903458340124649
219.0,0.29705360115786206,-0.15655774952141716,-0.4536113506792811,-0.06986720090001576,0.37582231421570544,-0.3051640497343249,-0.07797700982060968,0.11441737259397801,-0.020829947506430063,-0.17240724647899772,-0.1668727202985947,-0.22361837514459038
220.0,0.026272491499955673,-0.01711344475139841,-0.04338593625135449,-0.005112092314343813,0.03461889403100855,-0.03119376838322373,-0.1683572685257797,-0.09185286325446954,-0.1323118474841976,-0.20200232430625398,-0.06884084137303295,-0.06611082170806491
221.0,-0.2609819252817505,0.18474508040865206,0.44572700569040274,0.03731550147214525,-0.3538604345990825,0.3146293869692674,-0.08495611070882714,-0.15934808812970194,-0.0983428409896808,0.023415228919300146,0.17458130453997658,0.23958463392937318
222.0,-0.30239846488583977,0.1762408059580331,0.47863927084387314,0.06313914519799571,-0.3905652782264006,0.32776036030497196,0.050653126844700934,-0.10429366452399717,0.05278490491213251,0.190142989185574,0.2128262995264338,0.2684312614978078
223.0,-0.03215382873839519,-0.01859375055391466,0.013560078184480845,0.026226305512612274,-0.022458945976627676,-0.001774779804311586,0.08696495863190769,-0.019657151817621617,0.12445814789580302,0.09587668820843476,-0.045115889384727235,-0.04877096968403714
224.0,0.2815199240763936,-0.15299055185972812,-0.43451047593612174,-0.06380043473307576,0.35811825639603034,-0.29333049614882933,0.032307406980996156,0.0617655498169292,0.036324018064228115,-0.07498345889487579,-0.24649394894909937,-0.29860163346991886
225.0,0.26870591189345955,-0.1349377832562867,-0.4036436951497454,-0.06737770564233969,0.33575269393959206,-0.2694913114428031,0.004285172406663172,0.12576708960704933,-0.06120588601172162,-0.0814557692818757,-0.10878746170630098,-0.16959512930784845
226.0,-0.04705208757007684,-0.048125763450332974,-0.001073675880256383,0.04690968331931366,-0.023196132458454692,-0.02522559720965011,0.019022820456698075,0.111186129850848,-0.03867959986694574,0.01402831480461855,0.1537611206796895,0.129504269383676
227.0,-0.24301548938445725,0.06875487921756358,0.31177036860202056,0.08716923116425254,-0.2768895952317772,0.18979283575211292,-0.017901170320458005,-0.013298737893089857,0.01864453788025159,0.0179710622223594,0.16836377623789425,0.21033008559068392
228.0,-0.11182760358986307,0.18279790092235662,0.294625504512219,-0.03492616954822963,-0.20271588396970022,0.23893954960520697,-0.09574543215072435,-0.1500070578334686,-0.00619922426495979,-0.0501528507700045,-0.03746600409331865,0.04115603455034044
229.0,0.06951603065888577,0.14830011259513295,0.07878408193624808,-0.10868346661446837,-0.004978578530697769,0.11422333362738356,-0.07002400699249806,-0.14769926765544042,-0.04715263363461477,-0.030314457174734064,-0.13164108246945705,-0.09584630967656266
230.0,0.05661939724012353,-0.08249409718497712,-0.13911349442509924,0.012593175151330373,0.097081661265513,-0.11056412182932844,0.07445231616079795,0.008097380020103214,0.006375625147417066,0.07242302425415692,-0.015638392679623962,-0.05825603737922499
231.0,0.006651311925252572,-0.2592421854775896,-0.26589349740284157,0.1259967675486844,0.1361652339989822,-0.26301828047239495,0.1374931134259625,0.14891026305638513,0.08308565274511905,0.09618260395156808,0.07879227424819317,0.01179605687477263
232.0,0.07852725731146713,-0.13530834656518664,-0.21383560387665596,0.02859067521056256,0.14686592395232956,-0.17488992831232367,0.01199405542748729,0.11897885338998206,0.04255071842708267,-0.004741486859320551,0.013396793195382013,-0.014316914407412017
233.0,0.08909685309921288,0.14122055180324225,0.052123698704026306,-0.11482568125236299,0.018974444689854677,0.09695031911206409,-0.11641484200371441,-0.02564366287143517,-0.06566211425551931,-0.09683385624162204,-0.06388707366583245,-0.049836842282774754
234.0,-0.09879971561451376,0.2228528022120896,0.3216525178266033,-0.06210735687797839,-0.2104739724015678,0.2723931060128284,-0.05679419240713273,-0.09728564117156817,-0.07020002043197265,-0.07654683712186408,-0.01495127190780056,0.019916779634951032
235.0,-0.22103716185640135,0.05540305353498441,0.2764402153913904,0.08246146827451521,-0.24917022230457378,0.16544708407222597,0.0740931882322963,-0.037949693351180154,0.029084567235082456,0.009163847742703313,0.06852788489191708,0.11484626614649768
236.0,-0.02827144343630218,-0.1063417191899585,-0.07807027575365252,0.06723236298605839,0.024837710255965217,-0.09239559511712057,0.051667071809972244,0.022093265722710895,0.05778535589597735,0.06473118660872453,0.04947357283477291,0.07383231009880874
237.0,0.23723479325287442,-0.10919669852701075,-0.3464314917798875,-0.06374158310606962,0.2919008555323859,-0.2270323639268672,-0.07690882551740211,-0.007348186606076671,-0.029717518048668432,0.058389740024063,-0.04190348283749379,-0.0818517201304365
238.0,0.18168328631623984,-0.04550325665473164,-0.22718654297097668,-0.06792013024122628,0.20432647038931304,-0.13569134074551426,-0.07705560635708364,-0.036562979252722824,-0.06582631752851532,0.015424058347756129,-0.08457730847027707,-0.153540060683801
239.0,-0.1205803313658446,-0.0043868377138882855,0.11619349365195457,0.062362141340486676,-0.11832030699343472,0.055188908907891125,0.0741420541149935,0.029025578054314927,0.03842645748937115,-0.02754461193451173,-0.031978564757515024,-0.03972675616154042
240.0,-0.23964605414444945,0.050530080586078,0.29017613473053044,0.09446406673430736,-0.26438088984245967,0.16917576773242268,0.14327348309962695,0.10599178580936394,0.11960307021175415,-0.04582002831626178,0.0631098778463783,0.120215350309107
241.0,-0.03290839936066908,0.11123684093257646,0.14414524029324866,-0.03908705119113813,-0.08818094109992079,0.12785039789781852,0.01002875385990039,0.05767983251384127,0.017575293870164092,-0.038285559057690106,0.10429366949726558,0.1326789927055369
242.0,0.18261382674423213,0.06918699684877176,-0.11342682989545833,-0.1259523269018944,0.1474132391267032,-0.02084938961045297,-0.1501958998574998,-0.08195704877966004,-0.14479048521006,-0.01449247103776944,0.026861422502220497,-0.004020322778481004
243.0,0.12529301074259283,-0.07652486897663546,-0.20181787971922877,-0.02463579976431868,0.1625697654444386,-0.13868953405902534,-0.12816241909552215,-0.14563469584720254,-0.12456924524666783,0.027773843691084703,-0.10384771354133646,-0.11801959300593473
244.0,-0.07557419169731436,-0.14608027150024597,-0.07050607980293339,0.11084245038224332,-0.0024772599409887716,-0.10914861349398679,0.03902942008604275,-0.05651539880055211,0.07002733548148296,0.0737655250447991,-0.12055268044960848,-0.08739241050786399
245.0,-0.12845125878754401,-0.03783035882811496,0.0906208999594262,0.0836072363920162,-0.10831575386832842,0.025657962651001225,0.1484610877434335,0.08991298543729023,0.17589128636853057,0.061376780263989135,0.020376406821947624,0.030781832391200685
246.0,-0.008184062105887957,0.09678422190667348,0.10496828401256136,-0.0440201119110233,-0.05582652835008774,0.1012023966278858,0.09579721806346221,0.14983066649283416,0.05460310014789961,-0.03733185901285014,0.1350176810374092,0.09287457887658901
247.0,0.07144091095986807,0.08216161153959756,0.010720700579732486,-0.07723454100748371,0.02956338921348835,0.04699517586703602,-0.03593893582996096,0.07042534497818806,-0.11522425276988323,-0.12099998393162108,0.0678311297033529,0.04029556013959568
248.0,0.027770777154772826,-0.014811780031625251,-0.04258255718639504,-0.007066652556495429,0.03398061214854588,-0.02879030125261657,-0.11097616190305588,-0.07455936691950206,-0.11134591036610761,-0.06456811671115108,-0.06667837210535463,-0.044835185548212246
249.0,-0.0038007428323478796,-0.02550227411926892,-0.021701531286921667,0.014771623402830246,0.009032266167641738,-0.02388981842849215,-0.08387418467368712,-0.14890943684621608,0.020426106864577916,0.0790634279839293,-0.07510537351846341,-0.05263753728579205
250.0,0.028046886671149452,0.02426064144502176,-0.0037862452261310025,-0.025543521021569534,0.016984791457204045,0.010398593826157905,-0.0023008230693965194,-0.0799790934954634,0.07353092707909063,0.12296623393328852,0.005528071774575869,0.009271772683739464
251.0,-0.01151436276800436,-0.015468211724603314,-0.003953848956600891,0.013672340511035596,-0.0033916721394536527,-0.009458954214785955,0.07293083985936645,0.05932732543366003,0.003725824971337389,0.014056392707531604,0.013229424871903138,0.03503597684605513
252.0,-0.12582882985475283,-0.10784072047121075,0.01798810938354438,0.11646828840393729,-0.07259471569765111,-0.045133067886753114,0.101651192024533,0.12703713826077231,-0.03765273495471969,-0.09155160614262402,-0.029837227451499852,-0.009370958729666647
253.0,-0.0789809672257476,-0.05466867562608252,0.02431229159966773,0.06662798472016677,-0.05210834417519934,-0.015546108700404935,0.05121110203219719,0.0722111113714114,0.026002468210825247,-0.0658123340160205,0.01786726240725622,-0.0315833854544175
254.0,0.17035136021220762,0.13542826310052236,-0.03492309711168466,-0.15272032999763974,0.1030930610918786,0.05027580259733314,-0.06558761391744396,-0.02770064416647117,0.07462945972758332,0.02442213098203669,0.10581115515868432,0.01862999545975038
255.0,0.2492944601870742,0.18077076487526975,-0.06852369531180658,-0.2150321836869877,0.15930506834396388,0.05643723011263862,-0.14028315645398468,-0.08182457212804965,-0.0026725287559453384,0.05432023707461942,0.044908871656906615,0.047677981272912846
256.0,-0.06753682721821144,-0.03876611089960953,0.028770716318600204,0.052906338526608025,-0.04860128826872312,-0.004793112581632761,-0.0644678344321573,-0.07149818025031747,-0.11657381914168477,0.01605804564217658,-0.12752629215736533,-0.012096390501640995
257.0,-0.3702308123214951,-0.2317561280941298,0.13847468422736656,0.3010814865635824,-0.2548087394488338,-0.04661119748433767,0.09623686409098879,-0.01992789730001932,-0.09830226064308478,-0.02151508987840662,-0.14599302645004927,-0.06031226079829199
258.0,-0.16226042087145026,-0.10659629838903353,0.05566412248241887,0.13488746153331055,-0.10850701398099266,-0.02559103341454199,0.14513400083969108,0.045975763542651094,0.05446818597900374,-0.026474950319571658,0.050977993702362605,-0.0019784774532250757
259.0,0.31227645548313004,0.1628051139247025,-0.14947134155842778,-0.2374435380363706,0.23150907208071647,0.0062868241596569325,0.021684252394663924,0.08317884220645988,0.16195595651289008,-0.005866551263867729,0.18279063654152417,0.0637561723842032
260.0,0.3653378670398001,0.18524986962795595,-0.180087997411846,-0.27578398368721624,0.272383840743229,0.0022430388725824535,-0.10561507032012726,0.05051148308368057,0.08959718252867642,0.0261673128495695,0.05570367470907652,0.010141945247539561
261.0,-0.08600834803606767,-0.05007810483861439,0.035930243197452943,0.0676831368267082,-0.061745074430440604,-0.006732090077618924,-0.08571878251159211,-0.030480996528983298,-0.08657038108758662,0.033961077974414826,-0.1323855369102415,-0.07592295748258521
262.0,-0.38667355923094204,-0.17462938488865473,0.21204417434228806,0.2808823308397032,-0.2992450407497571,0.019556443389445607,0.013919893485235582,-0.08067166015819463,-0.17099311786237173,-0.010004824743306514,-0.10854860106300648,-0.030965812412203076
263.0,-0.14468689870085427,-0.023465877304506323,0.12122102139634898,0.08445403159166659,-0.1321466619884566,0.049043839070359,0.0521875905102023,-0.053261816686348405,-0.07017124400264432,-0.056185056277882985,0.060820846805390724,0.09121896967137991
264.0,0.22823327922838993,0.1374983111532235,-0.09073496807516755,-0.18279306243289228,0.15958295105812556,0.02240089514934422,0.02621717907736511,0.01492688689824499,0.10510110896079336,-0.028196942533568928,0.10725082682409438,0.08910032994804391
265.0,0.21710643496275575,0.059818400891484304,-0.15728803407127193,-0.1385471432301438,0.18643414852145224,-0.049553565083113225,0.011618957617551677,0.05568280298701037,0.15959918078051566,0.04545361697701269,-0.017065767381619718,-0.0596101234155703
266.0,-0.05377054197467958,-0.11388136635488452,-0.06011082438020418,0.08372369595453796,0.002874015395572428,-0.08638380847634096,0.005368147699346266,0.04469800709489353,0.032829459188008045,0.058239141030030646,-0.10121979420225552,-0.15032054254896085
267.0,-0.1399652738489344,-0.10471915955737472,0.03524611429156203,0.12208746002692447,-0.08696267998218524,-0.033542081764582656,-0.029166940653482812,0.009597033556026535,-0.12191227774098563,-0.004285577754305862,-0.02159455480058188,-0.047367198626254735
268.0,0.008166363742254924,0.07296409692795808,0.06479773318570364,-0.04075210995331088,-0.02785450493025959,0.06888121210600331,-0.048574180910916184,-0.018769758413319314,-0.11641694028663066,-0.044573097426320325,0.09283454628085287,0.1288808219752965
269.0,0.07319616002141667,0.15438385195607207,0.08118769193465432,-0.1134421963676454,-0.00441179539461333,0.11665546109706319,-0.0019250836417446149,-0.036870987371862764,0.03057528422482612,-0.019288017006388054,0.07845959796823185,0.16162475920750552
270.0,-0.05105200766827355,0.020162598449779946,0.07121460611805176,0.016004898973185522,-0.06162094686023542,0.045192181834350156,0.05221830332337032,-0.04373429703128079,0.1153260867612749,0.006805156543402399,-0.03777423470361077,0.004348955105524738
271.0,-0.11819633974615351,-0.1464107520488834,-0.028214412302730772,0.13215422729988027,-0.04481841598520559,-0.0865324535725336,0.032198554346753346,-0.017026629776045358,0.031206649482807308,-0.0032026574940593714,-0.10689354976571575,-0.1649026748065979
272.0,0.026225344862505585,-0.12573879310253955,-0.15196413796504404,0.0489713879042161,0.0894146197996508,-0.13814925934322267,-0.025267370090701395,0.044794491392086425,-0.08531789063845968,-0.0022450998270526785,-0.0581519934003362,-0.14976173991257521
273.0,0.18327632793200188,0.04769614966244577,-0.1355801782695548,-0.11567721355056204,0.15931323550404497,-0.04433953215971244,-0.032250461267113346,0.0780953827729992,-0.06361551667428197,0.028507759037665514,0.04598840008548645,0.03171531852530413
274.0,0.10942006779153972,0.15252367916548998,0.04310361137395143,-0.13016615585363012,0.03302657817315579,0.09714032103033841,0.0033041808365080333,0.023170646262535906,0.054331160231035056,0.03614926384192122,0.10518242417110577,0.1678220097040519
275.0,-0.11673667526043585,0.07741763369901448,0.19415430895945007,0.020203971911904393,-0.1551560203698492,0.13591157084782093,0.015411991938265802,-0.0661308302641853,0.0941511126184641,-0.0016031123968797776,0.07007423553208865,0.11463195030445353
276.0,-0.20941062911148467,-0.064657769326485,0.144752859784998,0.13638839200816893,-0.17689634625314654,0.04058905782311551,0.002844561747435194,-0.07367665747791202,0.0046097361214979425,-0.03944194615316742,-0.033567474466276954,-0.04201781929785265
277.0,-0.06488751976237557,-0.1172202568061216,-0.05233273704374775,0.09020379905091869,-0.006717663974961515,-0.08475713564265412,0.0011228364099870754,0.005776180165141933,-0.0940115679204994,-0.046959795871763445,-0.11887769110376846,-0.12790757151786836
278.0,0.13117950598101935,-0.05879950993778922,-0.18997901591880811,-0.03589175865803375,0.16010539949899838,-0.12479023132211234,-0.002919428822230717,0.05386337452819612,-0.08522794153266354,-0.028027645242817176,-0.09662642067518372,-0.08995971031386447
279.0,0.17050494672426741,0.03459851453719253,-0.1359064321870728,-0.10155168066690269,0.15350434089659473,-0.05072016843534526,-0.02171937135795985,0.017595308853178473,0.018376950132225213,0.026874101966926068,0.03116101990521381,0.005667498752308866
280.0,0.05482337161393726,0.09614977279477042,0.04132640118083448,-0.07529228131067472,0.007424606535196124,0.0690563974327629,-0.008549161123486242,-0.015620194178935133,0.10996350711973886,0.0954176525667299,0.14274666878189982,0.08852261112407826
281.0,-0.07469313104512362,0.08290823105893598,0.15760136210405792,-0.004950537541226817,-0.1161070028284269,0.12033276574229913,0.044911374038319275,0.014018364152925428,0.09239893366253718,0.07746742056084986,0.11009096293484463,0.10773192184878848
282.0,-0.12788974955686042,-0.014197728802107663,0.11369202075474966,0.07042284575445162,-0.12137004281862568,0.04941865363181808,0.046361602824661514,0.030645940796125933,-0.027839823333719642,-0.06146703878330604,-0.04581833695211838,0.030303397413545815
283.0,-0.10376396039927366,-0.11372888308694218,-0.009964922687669573,0.10912158817961323,-0.04713261302797553,-0.0620154063009914,-0.04182218863850311,-0.028411440165163417,-0.1272702055466249,-0.1611271246743189,-0.15558116203574404,-0.08978511284351974
284.0,-0.011008754552898991,-0.09437967062568565,-0.08337091607278509,0.05339976208147093,0.036565776297339016,-0.08852150335067693,-0.09283372717713793,-0.07847948850470299,-0.09107305757300946,-0.06145680604816235,-0.09270587023085197,-0.12121573247594282
285.0,0.12720481019511817,0.035833179378070845,-0.09137163081704487,-0.08137863503511206,0.10948032690920215,-0.02737090564922121,-0.006341152989334991,-0.021913483510910894,0.04149243478637727,0.12578633406209455,0.0663825417444029,-0.02143614497674474
286.0,0.1985241084038222,0.11820821802576313,-0.0803158903780588,-0.15874590196512467,0.13901440715235197,0.01873004723400453,0.10033670550471176,0.07601918328441286,0.12029631444340019,0.1489386503058641,0.13229620466685235,0.0868453628130735
287.0,0.07169091201520318,0.055447739958212255,-0.016243172056992657,-0.0639130388212204,0.043729635402656564,0.01897194274278953,0.06506062030475329,0.07985695612434197,0.07199422136731097,-0.010011803274517825,0.04372528150712467,0.08445768285520962
288.0,-0.18808540241521654,-0.054042143111467385,0.13404325930374741,0.12097384648477054,-0.1605112386570617,0.03984747356382765,-0.05353408669334918,-0.0072734189968459255,-0.031110058736964662,-0.11939006532868042,-0.06317698757414994,0.01132161132508937
289.0,-0.29222889195134577,-0.07005302375568315,0.22217586819566298,0.18124708576350343,-0.2565855211854389,0.07667001801371157,-0.0777755546691273,-0.06351956152811394,-0.08776279697881022,-0.05925587444875712,-0.05795729890564011,-0.03208161657161181
290.0,-0.059587780204824144,-0.005380891426954933,0.05420688877786997,0.032790285382878155,-0.057286335664987906,0.02495767845896418,0.0006602999700571348,-0.042264537119391876,-0.06935143744443541,0.03272205952589822,0.004715203426759309,-0.04093419270074292
291.0,0.28447967855841144,0.029021733326773092,-0.2554579452316372,-0.1564223963153826,0.2689110143949831,-0.11348022275707395,0.04046761532804177,-0.00855301734406924,-0.0014857459512725396,0.02727229881090477,0.0013874708748697682,-0.05390029875798101
292.0,0.32217539697332076,0.003680945455137915,-0.3184944515181822,-0.16302899103095414,0.32006657804660754,-0.15804699258460383,0.004936079840421057,0.005276024529819649,0.07027984563796803,-0.004475457045484023,-0.039602175691567376,-0.03413597658821322
293.0,-0.02410669534524414,-0.013506102752325746,0.010600592592918063,0.018245844664156338,-0.016328004633253013,-0.0015969901238973858,-0.0101421535653305,0.03573781618867708,0.08418608215557459,0.030131047649893095,0.006993547091287786,0.05558009513133761
294.0,-0.3529023232537508,0.011935747289316024,0.3648380705430653,0.17017237312256814,-0.3578554289321953,0.18876746433519181,0.02267638372036583,0.06691897613522947,0.012330534840329607,0.05791911949611601,0.10839270185395823,0.11947201400357461
295.0,-0.2694219999696979,0.03583007051903417,0.30525207048873115,0.11720769462998465,-0.28771654150499193,0.17081385062115872,0.02526523156062425,0.023193038279274106,-0.07502181784135989,-0.016293765939459207,0.07976712017698984,0.0371828645312135
296.0,0.1247704709335402,0.01844684697008183,-0.10632362396345715,-0.07105192393836832,0.1142679262309595,-0.04400030317047789,-0.02352789656138138,-0.07410931535328234,-0.07214769163717004,-0.10593529564391985,-0.09677936305110353,-0.11507880082240247
297.0,0.3627412827404383,-0.02487273689773986,-0.3876140196381763,-0.16900653345675107,0.37473434788781046,-0.20634856007464925,-0.049800117159497496,-0.09141718948436224,0.012949816697996726,-0.06189062780766814,-0.17670122244767875,-0.12934706564978551
298.0,0.17398460384108666,-0.05861118824300801,-0.23259579208409525,-0.05816631087230257,0.2042319096670743,-0.14561629941874882,-0.017683106200318516,0.008062127633495895,0.05727880135383585,0.07230644370837275,-0.013824051465592901,0.026631959001442912
299.0,-0.2103615427528681,-0.0513535583035433,0.15900798444932313,0.13072582779252379,-0.18375590509646406,0.05377752494377142,0.02677586545505042,0.0849816392342096,0.009167228878284162,0.11043936526389428,0.17861296547760253,0.1416276597437425
300.0,-0.3362458471509807,0.019218363028218208,0.3554642101791986,0.15877835732031945,-0.346227927782427,0.1872442966170792,0.044580506198674846,0.0408511447605545,-0.02755661812535994,0.010539195432360069,0.1284471383308904,0.06383302873251233
301.0,-0.05624377150126975,0.11136368421390161,0.16760745571517238,-0.027461044507038318,-0.1129146713033854,0.13945918294516835,0.03384204836162974,-0.030324518985475783,0.023342915973369863,-0.07287665996692085,-0.08374563522364842,-0.08490642138299079
302.0,0.28749144999257575,0.10239869749959384,-0.18509275249298224,-0.19512867237499734,0.2362253528802868,-0.04126768054645567,-0.009196621679616209,-0.018303519739908687,0.057230742918203736,-0.04538988318659725,-0.1561366667917491,-0.10006899896043839
303.0,0.2677941478325072,-0.05576954117007059,-0.3235636890025772,-0.10604715520638025,0.2965510157978474,-0.18950182569774926,-0.06373061167399786,0.01762235637214201,-0.03344405402439493,0.0032880607013489353,-0.01952532201953867,0.017011008954020947
304.0,-0.08676753633320763,-0.19096430599229136,-0.10419676965908264,0.1391180969956346,0.00907432781141037,-0.14741045070577816,-0.0576260601402896,-0.018210613184090858,-0.126146103070483,-0.005026942095703751,0.1011010361905545,0.08995487928509606
305.0,-0.31759988662527516,-0.09301554164495027,0.22458434498032592,0.20546255428311433,-0.2718228567501775,0.0657303886002453,0.029884345244852794,-0.06333030231228658,-0.033994011487946396,1.8025655994746785e-05,0.058977559966585866,0.029667162880837386
306.0,-0.1390998021476748,0.14790079375603282,0.2870005959037075,-0.0046155787654687305,-0.21369099625578772,0.21708221101290792,0.08894849367425724,-0.008178802493504929,0.14703374742574565,0.06676683499479295,-0.03250874831826048,-0.06141884854546926
307.0,0.1925978074400257,0.20434214948728308,0.011744342047255019,-0.19883015544190732,0.09089976390127806,0.1077476395785882,0.024506970328175372,0.08741441427993255,0.13421512013087597,0.08086578049128097,-0.037434092526896855,-0.055432782145368883
308.0,0.2543600830731515,-0.01407205884955655,-0.26843214192270837,-0.12023735024080445,0.26225960186096886,-0.14103562182947108,-0.07194354513428157,0.07443212576649552,-0.08192117571883208,-0.04213704712519241,0.001618837523954697,0.02551661142385314
309.0,0.016197799087300766,-0.1948587852459494,-0.2110565843332493,0.08964564187562898,0.11360116037444322,-0.20244190042076649,-0.04816214922831021,-0.03716138492622765,-0.1815727708918929,-0.15412961802740038,-0.0011617744297117221,0.05964406468375965
310.0,-0.1897110543356503,-0.08549205995641679,0.10421899437923399,0.13804948872939898,-0.1477775346048643,0.009541919595489326,0.0527803237590409,-0.09099110135590396,-0.014578536320561535,-0.0678152828282541,-0.011323083759785767,0.008554582754644774
311.0,-0.1505713540513582,0.11932612948801612,0.26989748353937304,0.0157346187002325,-0.21065514191368606,0.19426845286186578,0.05230956997518898,-0.030031777673267784,0.1539688646084838,0.12580149309491442,0.02430116169264502,-0.038832201948199384
312.0,0.01618878358611664,0.09916826691756309,0.08297948333144504,-0.05809704806512704,-0.03297415313527964,0.09065945530207452,-0.0558882733724152,0.037460675359449205,0.07260722197643084,0.15939607933637764,0.04325740746564958,-0.018282697256361623
313.0,0.11029709392688858,-0.078678454075017,-0.18897554800190403,-0.016386364752748194,0.15018315404687912,-0.13386959647706814,-0.07950874931544388,0.03065817486748878,-0.10175898451846604,-0.012453632877247402,-0.018458901590177684,0.01316012666819008
314.0,0.0930412744174798,-0.0949588337726621,-0.18800010819013924,0.0008506425232189383,0.14056296680225835,-0.141180066554304,0.04416286410447633,0.0038671482940021455,-0.08666519532305499,-0.1476309438889,-0.07663182343743342,-0.004889313937081635
315.0,0.03417815138328354,0.07795076119179993,0.043772609808516355,-0.05550550161863376,-0.005059837320328594,0.06113120817278165,0.12260221972322906,0.01839556301128621,0.066547960579988,-0.08214132440374326,-0.021655260295241435,-0.01942169622637886
316.0,-0.03217313076990569,0.13824375849403747,0.17041688926393952,-0.052340166106015495,-0.10147794078196491,0.15426871708395629,0.018330014499976798,0.03026498838857861,0.09385729503203867,0.057859359261595945,0.08105421976587196,0.028423009720797886
317.0,-0.0998744655624392,-0.033362090981640204,0.06651237458079666,0.06667120776586674,-0.08332165301659773,0.016313512404845947,-0.12067313454190468,-0.020503140164377927,-0.03530155887416547,0.08862867405808499,0.07819311216524168,0.06412707479930274
318.0,-0.11252302908533691,-0.179224229585118,-0.06670120049977876,0.1451183795027574,-0.02302993803072745,-0.1229809024622782,-0.09460370898479635,-0.08493877647355208,-0.10129810107884621,0.020288104957875246,-0.03087764643709431,-0.006714239456075741
319.0,-0.008085601965380407,-0.08279329082955382,-0.0747076888641695,0.04466543458712085,0.03349374500263523,-0.07846270041222465,0.04609491029634658,-0.05840783425588825,-0.013103105150488953,-0.03317724772450119,-0.09926282332289287,-0.10328267323944014
320.0,0.1493804699802203,0.1155632795201364,-0.033817190460084065,-0.13230271776309688,0.09214659188547175,0.04090227340474092,0.10657804139378023,0.05826416840538987,0.07774244966644804,-0.03826481338849077,-0.05093354512352354,-0.06275412892296965
321.0,0.17944365528880687,0.16724061553636088,-0.01220303975244986,-0.17234557131420639,0.09607117564191348,0.07702447341715489,0.04026556420726243,0.12965325808028477,0.053017236983104794,-0.020691032281599117,0.04384081341855471,0.08586042796224143
322.0,0.0005940481172950246,0.04838692443898859,0.047792876321691095,-0.023902604742967692,-0.024228529613005423,0.0478047593420394,-0.0374637785004016,0.053224391518270305,-0.017343694397069735,0.015861319108086427,0.09017757901965963,0.12914946289933807
323.0,-0.21423478593619164,-0.09958110966797643,0.11465367626821711,0.15631363834920128,-0.1652966704625717,0.008135713998860448,-0.0533671096981899,-0.09281001245823654,-0.040005441173939525,0.047777612256907985,0.05501710350904319,-0.010204536889983575
324.0,-0.20410758174243368,-0.16683995712380018,0.03726762461863665,0.18452206320044828,-0.12050926883624814,-0.0640033245872312,-0.03528688002718022,-0.13614861723789415,-0.029173520034634318,0.01700264560139138,-0.03720780221039083,-0.13932015892989547
325.0,0.04835303484872441,-0.0937269692717772,-0.14208000412050129,0.022671098201933162,0.09635533471177024,-0.11815184419635609,-0.008691424390150741,-0.029314829417563377,-0.01732617311852723,-0.056699136713565086,-0.10643645962898705,-0.07507542109719904
326.0,0.2567324597742919,0.10694388098403874,-0.14978857879025556,-0.1810238708061482,0.20378726083856286,-0.02248114292379883,0.030745002031495543,0.09700524293962405,0.013320912415119216,-0.058892126672998694,-0.06408849118720035,0.08718783880574803
327.0,0.16931868376646267,0.2433544348156836,0.07403575104921908,-0.20596266170684574,0.04676561374792698,0.15828094643109755,0.0579247889467824,0.10969016924424001,0.05316933658169454,0.04120312085186345,0.06200662454128144,0.12061270465474112
328.0,-0.10757793699120628,0.0952616607851147,0.20283959777632168,0.00563914180610948,-0.1562094803808909,0.1497930836237845,0.03388699375670769,0.021374217070062002,0.04198808201491454,0.10551953729930837,0.11818374034735181,-0.008217342037341712
329.0,-0.2392517662337026,-0.2139538409953115,0.025297925238392326,0.2261721004475047,-0.13199357580550775,-0.09353430594159583,-0.025848779560296464,-0.06630281142115449,-0.02469210739855904,0.01973791652814962,0.025545266266837247,-0.11311760453642139
330.0,-0.09039966019238187,-0.271658621441878,-0.18125896124949614,0.18142112008300793,0.04640282613116541,-0.2265590548254854,-0.06443845322344895,-0.08900637452885739,-0.06589928906972495,-0.11643037424138752,-0.08966819858616419,-0.06008956234487564
331.0,0.12341825080725115,0.03719380381154127,-0.08622444699571007,-0.07982602834239717,0.10501393699966279,-0.025066361538102537,-0.04986041415904821,-0.043965120523822204,-0.03255443963740834,-0.10975366550905484,-0.07104219594283039,0.06742078939706106
332.0,0.153898844354472,0.296754527642805,0.14285568328833356,-0.22571408844450228,0.004925483391417519,0.2195888311792769,0.009089134682229919,0.03973305357896011,0.028514482382181128,0.051548583911970196,0.03665383217599535,0.10010073541605907
333.0,0.03196129184213139,0.1456603887575121,0.11369909691538141,-0.08953896953270399,-0.04112587190605711,0.12973153798386616,0.07340546716917659,0.0975902528183715,0.052437459389693304,0.16072865897511035,0.06348589811971671,-0.001419222251332699
334.0,-0.056840392273399085,-0.18588021924642442,-0.12903982697302616,0.1215714225199556,0.03637525145792644,-0.15750898894447568,0.07736593391605436,0.06041794825521069,0.026919122800783443,0.06341979616790407,-0.019772953018094765,-0.10583590188398097
335.0,-0.06643340513421843,-0.23087565859849005,-0.16444225346427258,0.14968110203565502,0.04902032693881096,-0.19759452945724115,-0.01005577463321145,-0.0476373165043537,-0.021158310302252986,-0.12026797183175607,-0.06319191872166587,-0.07112697031382992
336.0,-0.06754202957313536,0.0340743659126639,0.1016163954857985,0.017016753089623908,-0.08487369605771265,0.06829973039388551,-0.1038043179600322,-0.10181089643720954,-0.04819767838911523,-0.14422415709016986,0.01729089210378719,0.07147926514600354
337.0,-0.03635076640434575,0.21186090193898488,0.2482116683433321,-0.08879058450472499,-0.14211673476807216,0.23038421705666826,-0.07710996286361678,-0.035690551793619935,-0.01904412991199125,0.019817954471422726,0.09698768968139357,0.13077951339010033
338.0,0.08195491587224395,0.08575071962686624,0.003795803754623337,-0.08473895596176995,0.039645936579385074,0.04435693429513665,0.04972956970215386,0.057214696743660025,0.03653768513085336,0.13629420848167367,0.03026592388506122,0.0020485862348612965
339.0,0.15757912314461361,-0.13038128472096486,-0.2879604078655781,-0.013006756808323527,0.22274766150728717,-0.20997725039230586,0.1093379893692925,0.061161129704392206,0.03753682331213968,0.05397847382727418,-0.10944929655932276,-0.15108155365460654
340.0,0.022373167247706816,-0.14869723429126128,-0.17107040153896916,0.06437109889335055,0.09597420260199585,-0.15999615844779194,0.025467261980833978,0.004355532899345125,-0.023632372486627324,-0.0741194584066707,-0.11395652108358084,-0.09363207559355781
341.0,-0.18179746837896826,0.02503280745480334,0.20683027583377064,0.0784912048144556,-0.19466186462881982,0.11673963650914843,-0.07509365696298308,-0.017626511823641174,-0.04674390607915413,-0.053923526985276145,0.04752372560227914,0.11683581656371082
342.0,-0.14119588222568177,0.1510472379817619,0.2922431202074438,-0.00594618255901734,-0.21611503187901268,0.22230976854405732,-0.06076789731805852,-0.00995032821427555,0.015522759827204496,0.03691804028487054,0.15431632206396423,0.16778278901588012
343.0,0.10819889591061174,0.07141233405641581,-0.03678656185419499,-0.09046770285629512,0.07310945285944247,0.016950809945826727,0.019706791912156584,-0.0316523954846542,0.06182755438663613,0.016059783158171553,0.048488618227123866,-0.03963232309969171
344.0,0.1826267299074865,-0.10183871528800126,-0.2844654451954869,-0.03995778997838503,0.23329450408625127,-0.19399335625759154,0.04637574642395624,-0.04320449855852563,0.006071250439406463,-0.06085321438075582,-0.11498203887054075,-0.1990508107275256
345.0,-0.02600874153057884,-0.12907861593816444,-0.10306987440758583,0.0783037840579633,0.03793496946067145,-0.11622496116524018,0.013484808952366723,0.027188208144492906,-0.06695675052661841,-0.009685464581476316,-0.09380268029896092,-0.05313257540773271
346.0,-0.15672396434966404,0.030683582661160523,0.18740754701082446,0.06319222886564342,-0.1720817300838439,0.10971495431365225,-0.007995054917507365,0.10135508141240437,-0.038781324915284854,0.10975083301140315,0.059878747452148405,0.18303202493194293
347.0,-0.0003064078222496252,0.14065071876799964,0.1409571265902493,-0.07058700986190722,-0.07020894455963618,0.14127236602066964,-0.009430326387301789,0.03528601169740169,0.04267923297555124,0.06342932830186417,0.08265118336043151,0.13913681896259752
348.0,0.13761414118597484,0.029533882888895597,-0.10808025829707936,-0.08403475005511209,0.12294277174118226,-0.03966250328899472,-0.02368779114458859,-0.11228985717723229,0.05128289816122125,-0.12124418656826645,-0.05675015708577728,-0.12205438945930552
349.0,-0.004396763327617451,-0.12731391415760007,-0.1229171508299831,0.06578025094027744,0.05893950915660619,-0.12574183730855962,-0.025012579378940154,-0.11520569058691855,-0.005250426327067779,-0.14465719599223556,-0.09529095329127037,-0.19820271752957863
350.0,-0.16059768696115784,-0.07317046975133426,0.08742721720982284,0.11725486280093343,-0.12417404979018125,0.007223708948390712,0.02386108430012577,0.06178376933359366,-0.025851129732528587,0.06587743368363085,0.06666768709591686,0.01943744145895348
351.0,-0.02293150050750911,0.10666290635928925,0.12959440686679802,-0.04146899286340871,-0.07601001973591151,0.11883690251439291,0.06464123719386784,0.16423052951457084,-0.005867632755780003,0.19561744635163839,0.16384221107318644,0.19656353043011834
352.0,0.18260083521092743,0.11488067353677879,-0.06772016167414813,-0.1488652855516655,0.12549143657518827,0.023853406330033997,0.0148953285104236,0.026419202818927855,-0.012485875668404131,0.03513661378240013,0.0018614642850864488,0.09449043855507755
353.0,0.0930696675725788,-0.06653283260919748,-0.15960250018177496,-0.013761207046194098,0.12634649402192405,-0.1136995351777951,-0.07427751979043223,-0.1547263237942765,-0.024405931276275356,-0.17803754745018593,-0.1960944957538619,-0.10630841067471422
354.0,-0.142884599317618,-0.14661711380215608,-0.003732514484537872,0.1447003434421626,-0.06996676903573304,-0.07584572362447438,-0.06872935489255692,-0.10940794156889028,0.021167416700810557,-0.13116365090720516,-0.1346625194799701,-0.1466967076221982
355.0,-0.14268770194738237,-0.005087638419154702,0.137600063528227,0.07443065265180433,-0.14061589283681772,0.0665430879376774,0.037262181549217156,0.09161786043151376,0.0672386875024913,0.09231951880191024,0.09436830338932198,-0.039385946895491235
356.0,0.047163179590561335,0.128547976730029,0.08138479713946736,-0.08768166072740433,-0.017071043438628166,0.10583333171298182,0.09598236030534638,0.14938590272231758,0.013459233861685477,0.1709372443381365,0.1860123915352588,0.07185494021006661
357.0,0.10293463185785728,0.06890308706403617,-0.03403154479382037,-0.08659005626351286,0.06922681416032662,0.01764236817785853,0.024619075311677754,-0.007566381644382118,-0.08060161481221642,0.023051064239300166,0.0774983177611297,0.13138799182649968
358.0,0.017721066010027924,-0.051089998278073846,-0.06881106428810164,0.016246877792619612,0.04389815156096611,-0.06064788383066572,-0.07422592019494803,-0.13443085788562423,-0.06375537505048266,-0.12781675125538053,-0.05807052994593639,0.10153538074290518
359.0,0.010272025368545802,-0.05429464737627728,-0.06456667274482397,0.022747624679793046,0.03696014182267449,-0.059961827354067326,-0.06922859487166809,-0.05776944648891486,0.05115917627485178,-0.1037200953313651,-0.12706119473946448,-0.06606896805115774
360.0,0.03468895286798147,-0.010323982805498655,-0.045012935673480456,-0.011293828383737279,0.03873716699113032,-0.02736236431313826,0.018875808920623835,0.08292082414810854,0.09202447345195555,0.025217614033074917,-0.13818750851687175,-0.2365752981550751
361.0,-0.08233349313907166,-0.040772041497223424,0.04156145164184937,0.06107039154985754,-0.06218413603261499,0.0008901308107658278,0.06966033237423189,0.08219281469174454,-0.0009258921680080432,0.09666516007643737,-0.03812863888184926,-0.14069120077127925
362.0,-0.18111485503537103,-0.04479929610168127,0.13631555893369007,0.11168922595180458,-0.15769814371312227,0.04572983852414786,0.033482443856985324,-0.026954669648839028,-0.0848266485639572,0.06206824600469779,0.17455396408641546,0.1944175766775748
363.0,0.004388543550345043,0.09958510978272762,0.0951965662323813,-0.052099392474219394,-0.04460453597182571,0.09715220887222338,-0.03021693441016893,-0.06960826669388848,-0.04052030107163682,-0.01258931752787881,0.2677325178208305,0.33700849495021223
364.0,0.277123221480272,0.20510105340338047,-0.07202216807689246,-0.23987799110345617,0.17405823113547217,0.06658681283276316,-0.05262020738543711,-0.009980997969279108,0.054848815500631774,-0.06168053731548949,0.03305247250970751,0.030439831122363502
365.0,0.19325650994414914,0.007355185832194031,-0.18590132411195437,-0.09959526774609727,0.18868340475588347,-0.08920820525913398,-0.022525814206305096,0.038207126417513546,0.05975855494083202,-0.06611429516190252,-0.31077238585179806,-0.3557563799340321
366.0,-0.1924290452526023,-0.3111541564180581,-0.11872511116545392,0.2510414400444218,-0.03676179066246468,-0.21517926462221398,0.029992298135130362,0.020831763096645486,-0.021109894840098654,-0.02249986836026695,-0.30798619814072287,-0.28801220618576295
367.0,-0.3404725993303279,-0.2567321971109521,0.0837404022193748,0.29770052451456636,-0.21138505873324293,-0.08662304800734545,0.057384444160848334,-0.0052744243638886135,-0.05919021734197733,0.055967870160360714,0.09072360310178912,0.1625980144344557
368.0,-0.03779123477282769,0.20414515645120015,0.24193639122402508,-0.08299234929088635,-0.1398036152357205,0.22339329520988885,0.020154632077543255,-0.0077461224333260905,-0.0028764744737568917,0.10273649534768935,0.3913377808330701,0.3949080806073589
369.0,0.2929212754046991,0.4549052630749034,0.1619839876702037,-0.3732894636855773,0.06483775302176842,0.30876680509780796,-0.05418113791661826,-0.015167680594486175,0.049889026090027884,0.041673318853536194,0.2076098925707348,0.11230267775085848
370.0,0.2311684340796366,0.09216409161957263,-0.13900434246006216,-0.16163978766925147,0.18491436009284876,-0.02368481678419059,-0.06901102508650235,-0.02189771424222567,0.012342300770519071,-0.09003026979300974,-0.21163104549481299,-0.28595194230842624
371.0,-0.08715470165232739,-0.416458690855437,-0.32930398920310827,0.251565187227286,0.12169072926348692,-0.37333189477928247,0.013744615511532455,0.009571125917405752,-0.04817078043560204,-0.1365007946803229,-0.33485572053691876,-0.28553461579515965
372.0,-0.24454103573509908,-0.37011158050716686,-0.12557054477206875,0.3075101579947083,-0.059050128316246654,-0.2477877120808903,0.08766183818170474,0.0488173225453983,-0.018956337345644208,-0.016213875114081604,-0.05740428443277782,0.05801284895306235
373.0,-0.10129107633848543,0.15019901541149794,0.2514900917499825,-0.024281643398816256,-0.17677153702219306,0.20125658292137447,0.040702398743820443,0.024193575413600826,0.06084234490987594,0.1368582606768931,0.22445743007507937,0.26730496429904543
374.0,0.11634000125273296,0.42861716297723823,0.3122771617245055,-0.2729435852542141,-0.09857948992094623,0.3705778510056057,-0.06441893346645747,-0.045098094100758046,0.04711186005797691,0.12692816186193656,0.19368849895755916,0.12161884375233124
375.0,0.15161969150131166,0.14885068056494793,-0.002769010936362763,-0.15069499118018637,0.07708898579150202,0.07279344120181545,-0.07532833156070753,-0.06055925706088975,-0.06543280108638985,-0.037998631798221216,-0.02433353863898323,-0.11738677609796738
376.0,0.0018815890756878591,-0.25153014495051085,-0.25341173402619765,0.12526921689393594,0.12797477114007236,-0.25266815031070283,0.015338710376468384,0.0022351670500563793,-0.1019601083283077,-0.15000992363902463,-0.13873583013235188,-0.15071930424427504
377.0,-0.1106851954256048,-0.28280620188306926,-0.17212100645746464,0.19751572398895295,0.031103091831858252,-0.22741097686815148,0.06871302294918998,0.05885550285288412,0.024181612404402412,-0.07749628804336436,-0.08469931258647584,-0.022593539880104496
378.0,-0.03219929753889987,-0.002518658330503209,0.029680639208395466,0.01724265904314812,-0.03062483544778418,0.013720216287472773,0.024885726941604784,0.04600582118328203,0.14444539807321502,0.07424502536275647,0.0069850727042317035,0.05815154365591787
379.0,0.09665451062138904,0.2100343263220183,0.11337981570062838,-0.15413367157426525,-0.00836830193126225,0.16180469060443198,-0.0287848868761798,-0.007930697012773295,0.06632031116679186,0.1206047902321287,0.05622270021601845,0.0493169862176636
380.0,0.03902215956393494,0.15831240808472752,0.11929024852079297,-0.09887853244067688,-0.0408143223252577,0.1388173868827599,-0.028332977207321607,-0.048692234054909946,-0.12181336619120224,0.028754731112083175,0.06840915861100635,0.03957968535433963
381.0,-0.13428701822479774,-0.040302223020326294,0.09398479520447271,0.08784113406805935,-0.11499202798913312,0.026690859800355942,-0.01297790199670389,-0.04947914819582378,-0.15249244284876654,-0.07405129382484273,0.03016138276030846,0.028536037982498284
382.0,-0.10941723346892591,-0.15634191025135288,-0.04692467678242639,0.1331704045528363,-0.031016901108673185,-0.10186021249800022,-0.006014318477443542,-0.003970225203927675,0.03011433054290696,-0.07678819697835067,-0.05359809914820187,-0.042918268441776895
383.0,0.13759258790166087,-0.08473111589141288,-0.22232370379307526,-0.026745390608331553,0.18139869525711036,-0.1534715486503634,0.0245661296407031,0.05661881232878331,0.1711310716028463,-0.002135740224793458,-0.08678677728284101,-0.11222478958326208
384.0,0.22384161153700155,0.06240813223083454,-0.16143347930616836,-0.1433058911186983,0.19348583902231656,-0.04910351244434609,0.05210463447918427,0.06092382903681902,0.07141428438483245,0.050916017830637976,-0.004680659471398681,-0.050541169925896766
385.0,-0.03948972682301175,0.09936662412537742,0.13885635094838972,-0.029671102500949145,-0.09030004358251402,0.11930907565275164,0.0041439355681869095,-0.00977329183245934,-0.11623492661699837,0.03588241667997133,0.08861315688854486,0.10547837469531236
386.0,-0.2837404506516261,0.010968082147439166,0.29470853279906634,0.13649037334331857,-0.2909747855648535,0.1523998010242081,-0.07438773053182855,-0.06592430940659622,-0.11957661128469672,-0.0035222283069846413,0.056059936873433996,0.15179704957563858
387.0,-0.12173272044336378,-0.04546354743659048,0.0762691730067729,0.08327332821645231,-0.09895551684795784,0.014882084286859746,-0.05199299043338043,-0.0334292596942943,0.04173428837842459,-0.014781295144703608,-0.053620488907860336,0.00014891332905645938
388.0,0.2309992270897167,-0.0017395809189700612,-0.2327388080086884,-0.11479047292297025,0.2336597552700962,-0.11700327388282941,0.05493129091089784,0.026314382809983276,0.1082909149843173,-0.0067303108416762215,-0.07883720827570648,-0.16602714462539622
389.0,0.25591683822250305,0.02174643959224226,-0.2341703986302605,-0.13850915176347003,0.24608771551677588,-0.10547366372592985,0.07958481550568919,0.024272397253652076,0.0009541833932021813,-0.011016701844767125,0.005031838787777068,-0.12265490245963737
390.0,-0.09237218754911798,-0.048081280141789105,0.0442909074073312,0.07049051737450755,-0.06932161463320528,-0.0017582133851345833,-0.01330656470110912,-0.003883730191778436,-0.07932757664197553,-0.017563522945767764,0.0674117229045023,0.07886242576363511
391.0,-0.31028860581685797,-0.08025600094992208,0.23003260486693802,0.19505014335806736,-0.2715871455362708,0.07417533129691495,-0.06478116049470516,0.015080500951922376,-0.00938437189365136,0.00029920033967248497,0.03488574756044113,0.17042164768778087
392.0,-0.0761837445273392,0.03759931446543926,0.11378305899277649,0.018978905998498004,-0.09497878022533154,0.07518990530955266,-0.006589956684598809,0.034173011365587584,0.06618186500814842,0.02623199549524756,-0.026641427855420067,0.039542070120576846
393.0,0.2788433370027597,0.1606262022999849,-0.1182171347027769,-0.21963796720985312,0.1995344811357224,0.021659932258376438,0.030723492251399778,-0.021515172105298665,0.011850584479243587,0.024072348382175677,-0.042869358270004806,-0.1215532270193285
394.0,0.23508455433974215,0.0731207237080994,-0.1619638306316423,-0.15378062873174062,0.19898191620580444,-0.043722515759589055,-0.017041993647652052,-0.07924786194911917,-0.06660885940386531,0.00013405799032687013,-0.018723127030445076,-0.10607085511692114
395.0,-0.16370394599495341,-0.15007425252600795,0.013629693468947433,0.15691766162931692,-0.08898187645986762,-0.06831165183538129,-0.026176151671697498,-0.0242497003326123,-0.025201581029757298,-0.013555994448966283,0.013342051646022514,0.027660996369796388
396.0,-0.3444885668878603,-0.199914585579985,0.1445739813078763,0.27186562365027606,-0.24474119412636666,-0.02835093504191924,0.05333140451044566,0.07812958031553562,0.06403283125311052,-0.017618420229944518,0.034168917651005194,0.08994052610749646
397.0,-0.023348935944628457,0.018828655965455448,0.04217759191008312,0.00203478612195879,-0.0327209971242034,0.030242091460228042,0.06855520643408432,0.07060123989085647,0.0452843059962087,-0.027104793208724637,0.024674173225365584,0.04032044586016353
398.0,0.35122688391653323,0.21951337844002825,-0.13171350547650443,-0.28507809734828365,0.24117780645856024,0.04435921777351719,-0.05045784445606324,-0.028978904913167385,-0.052217690964914895,-0.017438452041277083,-0.012682225237958382,-0.02072300246788484
