Time(ms),I,II,III,aVR,aVL,aVF,V1,V2,V3,V4,V5,V6
-200.0,-0.07966874375357014,12.391467352513127,12.47113609626662,-6.10862152502698,-6.257253243721971,12.476290365410298,-2.400586570283828,-5.903299212786942,-2.3203826045499847,-1.8098319799688551,-9.692662101069741,-9.23698812501612
-199.0,1.922194357829961,5.779228432617378,3.85703407478724,-3.878603727152653,-0.9519218143486885,4.786935207616155,-5.735042825118038,-9.048015123246664,-9.875218287844037,-13.27836599743914,-9.650358502089418,0.6806692372026504
-198.0,1.6883843256943172,8.908295676141798,7.219911350447298,-5.325768470632617,-2.7493593943998116,8.033513685833029,-1.8572541569363743,-1.807237902054296,-9.000865756484737,-2.7519206847206252,1.1368607535933615,4.923362648149442
-197.0,13.876425179587757,5.327228116940868,-8.549197062646966,-9.63257314168661,11.233490552472283,-1.6436792191752114,-3.512942468216231,5.0295252754204345,5.042454571897482,7.714252980219608,7.438692155106598,14.382849599649628
-196.0,-7.656297967585052,-11.787961351067318,-4.13166338348219,9.763681851013647,-1.8138905476843137,-7.996521427730769,5.953366613196322,0.375371159379037,5.653797856219512,5.57365207163718,15.809479328404194,4.23976684231067
-195.0,-5.832613983938163,-9.162226248317708,-3.3296122643793655,7.531044542860962,-1.217300570246504,-6.207532774890343,7.363120771181935,3.797400842780442,11.227044484247845,2.9996919147299153,1.3233938262167078,-7.674348109359309
-194.0,-2.401653570422861,-5.889899385420499,-3.488245814997428,4.093231530373271,0.50469501067543,-4.65129500241687,-5.577088944644659,-1.4179485732629922,-4.555976491604079,-3.334874122400092,-8.043551582923197,-4.29624267068799
-193.0,5.782578560322885,13.005442383156327,7.222863822833585,-9.3730906018266,-0.6760487291198866,10.156044770300173,0.10557417013897147,1.2234391057691358,-6.544728344520104,-5.139168862226328,-12.359732538170904,-19.461038813239476
-192.0,1.0265016370176494,7.5632398402751155,6.536738203257439,-4.276266114890718,-2.7877873226909657,7.021671096630123,1.9962168288581283,-2.400849799093417,-1.0874583045340578,-1.608023148503261,-1.1911411868627209,9.2475217472835
-191.0,4.911242543971927,-6.735949218180405,-11.64719176215252,0.9315742692568998,8.247534348622235,-9.209174480718556,-2.0203162237119985,2.8928452201463086,5.720176717069803,4.659379063685912,6.789125631050762,12.826454672480306
-190.0,-0.318527793609215,-12.376794633937553,-12.058266840328544,6.291011431812356,5.91836213010549,-12.225536724509906,-3.5339509900591493,0.5047769830002253,0.2540190949884863,1.031852497365839,7.409028301824997,11.862400492925227
-189.0,-6.071195286472043,-6.8379958139871135,-0.7668005275151861,6.480978175915467,-2.679355722221958,-3.8049621509002396,2.5613322952096675,2.4871718569026804,0.4146967017061379,0.9151668895920353,-0.720601220984888,-5.1854308243646505
-188.0,-11.464882554139242,11.980977548213474,23.44586010235274,-0.3053997172681977,-17.398664420221603,17.71041052722218,8.054192455526557,-5.083819400836238,-2.9171247982563617,-0.6134599859802156,0.6440840008534281,-1.8092506884180128
-187.0,4.685945400823252,2.962549054313685,-1.7233963465094515,-3.7874894566982062,3.188873605813529,0.6102900761029648,-2.0122882938914524,-0.1592570197559331,1.444796667312274,0.0828242278013056,-3.426084653284235,-7.204375432273742
-186.0,-4.240828619774916,2.0791241615252725,6.319952781300298,1.1230043105406438,-5.2906815494219135,4.179785234104204,-2.0797602439858522,-1.085318341537163,3.7856311984146167,1.8132318247362842,-1.3003905928579762,0.02049098720805098
-185.0,8.687014620460252,21.386609426421543,12.699594805961336,-15.068487528786887,-2.013906615398457,17.089976485005426,-10.304075209776611,-4.142113602835861,-10.462402350640343,-4.906374967387537,-4.52317498176519,-18.645407788016566
-184.0,12.506816336896996,-16.746456081918495,-29.253272418815527,2.0918183943533704,20.87088891600481,-22.964233434584017,1.200578818145705,2.4212212046589867,-8.260936594199546,-9.088033496354164,-2.0407505420235843,7.790047439081749
-183.0,8.231787102771968,-13.446702140123534,-21.678489242895566,2.6597855891608626,14.940224552822588,-17.614224375086096,2.9011025598810085,3.6336257617486503,4.418874362724862,1.1991206555708063,2.746664514903903,2.8638489111844683
-182.0,-7.120619293766589,-7.099019022797271,0.021600270969265978,7.082311670338162,-3.5945557618058306,-3.516416590998965,10.584464737534496,9.18121823100444,19.646584024045563,23.92802713376944,9.157337289245046,27.934114369651848
-181.0,-17.77158350512787,10.031483893639411,27.803067398767254,3.838797248947235,-22.74098874048765,18.85985512321061,-4.580915482406038,-3.6760772326992255,-0.32067117121088984,-6.9368409095690104,-0.8030322730577035,-3.134250969627308
-180.0,-7.428010990614707,1.4033485671858865,8.831359557800608,3.0541177502933285,-8.09043967635176,5.141229994909363,-1.6737967833905567,-5.662885277638478,-4.596713820118103,-6.982284625504677,-3.8262014183606494,-27.57559224827238
-179.0,0.8941547945973136,5.297207575487156,4.4030527808899125,-3.1390938786381977,-1.797705971351034,4.8792459442187734,-1.752407214528052,-5.9818707111508616,-5.133707969993513,-3.865866108887582,-1.0197247421082272,2.5329470730159453
-178.0,10.886156897286359,9.190971008767095,-1.6951858885191895,-10.009040040916615,6.3260401714968015,3.783657683060792,-4.559952834658656,-4.732503424073036,-9.60271143552558,-6.701921024538777,-1.1902829348317843,3.242957279091918
-177.0,7.334212552480588,7.493598363034482,0.1593858105539403,-7.388484538149183,3.546891427255578,3.7899659038825506,2.3052858748911254,2.875378905520487,0.03539979288650752,3.496134944396995,-5.542687530673959,7.372889273626472
-176.0,-0.9046174799957969,-18.6165130085933,-17.71189552859751,9.784109367923426,8.367901316223545,-18.195952626041993,5.050606726593935,12.576309803310604,13.546829708904877,10.94598967402601,6.322737730450725,10.507374856819592
-175.0,6.593646329883797,-14.456689820462302,-21.05033615034613,3.876702352130148,13.870656906535782,-17.78304746671118,1.578549390141976,5.599682834150066,-5.458167587714345,-8.22261346714036,3.9163236917005966,-13.841997263373532
-174.0,-10.166357397623528,2.3190992764460105,12.485456674069502,3.8713258586348407,-11.350422474581265,7.4510766200529694,1.1594168439104866,-2.458092162705258,6.191875150166577,10.85993018547245,5.693075412037411,0.8363671178938068
-173.0,-6.38673869255949,10.727352829767995,17.114091522327477,-2.1393318209678482,-11.691669378553257,13.967005310884842,-2.738432516274997,-7.982569285592881,-3.507398267795488,-1.7168252326354545,-11.611545616154682,-8.694683339764312
-172.0,-4.275840489134789,-1.7291408024083426,2.546699686726491,3.0397030416519453,-3.428862879495288,0.3724151597917782,-8.988930699885202,-5.819689599760067,-3.8803674411796063,-3.825452458801322,1.975786928363278,1.1806784969269648
-171.0,10.055226666780747,4.051050400897135,-6.004176265883541,-7.008914749849157,8.011550032318395,-1.0175804962632249,4.110058897357815,2.8676029358762944,3.2500963190822296,4.524659287751816,2.4162313332526217,7.588628648855821
-170.0,0.8852653638430885,2.7957882372902865,1.9105228734472577,-1.8690336220989008,-0.5345536148508527,2.3859784404945614,6.188255790065913,4.232107527354379,0.5505518383512494,-5.659440602808953,-2.206572360653703,3.986964401571721
-169.0,7.529922314706367,-2.759574245121586,-10.289496559827915,-2.4108445100262426,8.881512205888262,-6.496444464491203,3.538680024469406,0.3649704892209207,-2.0247047556848545,-8.700757931272836,-6.612031414606385,-1.4132845970389716
-168.0,-9.130941147946402,-8.832555671595225,0.2983854763511786,8.954008931057137,-4.6713130048752305,-4.3219083100803175,-3.211126672710036,-0.1463101499642525,-1.8128931105750352,1.8870776048841438,3.900399257456434,3.7620688271211424
-167.0,-1.75100084679478,8.321840370400972,10.07284121719573,-3.2417607953672958,-5.874856666206732,9.217995622508326,-9.14963685204889,-2.9090781032462427,-0.5969626988617242,3.0941845883412245,4.479857531564122,-0.6854606878336413
-166.0,0.819944792879469,11.812190180418366,10.992245387538848,-6.362445497446776,-5.13181260850886,11.42072649877349,-4.0033085931085015,-2.3226285497441235,1.9548891462425624,6.551733592567601,4.729197274929371,-6.192519531108807
-165.0,0.3260305944760571,0.08891254986117958,-0.23711804461492525,-0.18753669000799933,0.3134388898037419,-0.056468422442403465,3.9441386960783555,-0.9677013039392586,4.245533545542974,-6.441121186574579,-6.085302148982572,-5.29687492342425
-164.0,-6.555207191395663,-6.699518175642887,-0.14431098424722144,6.637120891798795,-3.251380706300928,-3.482518837489324,4.9186324010148414,1.6561333469804864,-4.621406297542439,-3.889133632340828,-4.275463150226136,-7.767560484264211
-163.0,3.7899526205568095,-12.583019743360097,-16.372972363916872,4.401378859167031,10.116087327381331,-14.457792544900729,7.676048319132876,6.354757986079193,0.7215595652102638,9.649652922328764,10.182756545074042,10.000858229310857
-162.0,10.586087239135402,-9.568233477985038,-20.154320717120406,-0.5020328096813937,15.405904582241917,-14.83727355265812,0.5562173570192823,0.8071328997478671,-3.070995012037076,5.035777639450955,0.49846733907208374,6.107573138555726
-161.0,-2.410850506502465,6.728312647026135,9.139163153528623,-2.142909319576886,-5.818993877943408,7.884583659611287,-3.159498915761837,-2.551384087998856,3.8659021738552735,5.92935563215202,-10.141000140675384,3.3767736590998885
-160.0,5.462584217862252,5.764554371918064,0.3019701540558186,-5.662487758189763,2.532920867950238,3.069860115165879,-3.1632934120179867,1.2710121170988247,2.999646741491827,-8.908840506316514,-4.980531774820774,-2.2210166503099367
-159.0,-2.9506157912754376,6.536660793915718,9.487276585191134,-1.7470809637900624,-6.192802486411434,8.0559642883671,-5.828470494069801,1.3839681453526467,1.0609497278180868,-14.959035635840138,1.0749350331912373,3.6098990007818204
-158.0,-12.355877305607958,-2.143972676162079,10.211904629445828,7.231946266962951,-11.263288475823089,4.005453037699116,-1.2491228393956373,-6.0132111670804695,-6.553017098644007,-2.3415749926009823,3.5428903606710747,-12.330813774897063
-157.0,-5.927610432218506,1.6308550152653265,7.558465447483757,2.140993513745131,-6.726588837583386,4.56961044146329,5.255318270191461,-0.5024213566804896,2.1786502245572543,8.968982206171017,11.663997877841117,-2.261144690697722
-156.0,0.24391922984523884,6.180460541085278,5.936541311239967,-3.2150664694544355,-2.831426079458381,6.033113196258564,1.3342206813312067,0.5281999170511245,4.724080253902116,13.24104434157659,9.903971934037731,11.650023301346067
-155.0,6.841229595288007,5.386118267957665,-1.4551113273303953,-6.11849847508044,4.085605822298934,2.0148145880288144,-0.3590607664489829,-0.10198683349098348,-4.59875805799442,-1.9419074125533022,-7.408376796561624,2.371143814006371
-154.0,7.25082983904767,-15.301436900516432,-22.55226673956413,4.013178302926357,14.921227081128695,-18.96278427106591,0.0710459626942217,-0.08069014365271077,-8.262696111847884,-9.359604066100381,-13.356904376889482,-7.212243107612698
-153.0,2.3811937232251292,-8.164293725025356,-10.545487448250492,2.94771727359736,6.48733189753471,-9.3189341400477,1.7990681247586593,-0.3054131625012366,0.5606213430608262,-8.550525553178154,-9.757428814364633,-7.702682093992795
-152.0,1.1732170317993866,2.035387322786497,0.8621702909871205,-1.6378076239620767,0.1829502765627362,1.4009917700729995,1.4993450559393464,2.6050661469060823,10.915184944491177,7.6561435996979315,0.8197737647185379,3.2550091392091605
-151.0,0.45600890943552375,4.5485560632091335,4.092547153773625,-2.544629639375094,-1.8685461302216804,4.3500879830473265,-5.253447934071728,1.603463376409339,1.7152634590829772,7.649528141280241,13.420277190575836,8.727091183904557
-150.0,-5.151157749097301,6.690379433526281,11.841537182623576,-0.7381546945103019,-8.469949418912009,9.298231450407982,-7.6254511669590395,-3.4582724538074503,-6.476234490859554,-8.89399213411513,-1.2148319016150388,-3.465651305050482
-149.0,0.8459055607749528,-2.089740834073342,-2.9356463948483054,0.652930741353132,1.8337545123576522,-2.553036128906472,4.507702346789362,2.7744772427668454,0.7334271526756555,2.537658751351179,1.9524398490008115,0.7486457536125423
-148.0,-4.141399111397945,-2.6695599241613417,1.4718391872366037,3.4397548499228745,-2.790327788706763,-0.5528614162828984,9.743104688212416,4.74367355196611,6.075450353271341,8.377158802439029,4.356719713547851,0.3677225080133527
-147.0,-5.858097068557704,4.33745229429762,10.19554936285536,0.7208999103073847,-8.014167018357071,7.240310773226872,1.0436302039060417,-3.7156855190683484,-0.3622891703288067,0.1953287051188608,-4.894898626898364,-6.979495639983267
-146.0,0.2598771561574973,-1.6015432449238531,-1.8614204010812996,0.6360146237677082,1.0737851069512854,-1.754317320185345,-1.1960164843312073,-2.3157149712066256,-8.53077450163588,-8.43880502652485,-6.228034003141262,-2.169931752393018
-145.0,3.3918922056088077,-4.9949407096416225,-8.386832915250407,0.7692336240093005,5.908153330247633,-6.71469382799344,-2.415121559755517,-1.5892763217572938,-2.9153030323873677,-3.464024551742067,2.298487968135433,2.547434972329334
-144.0,0.8823760422355491,4.616652870222202,3.7342768279866245,-2.7030709912345072,-1.397026225214149,4.225356195522809,-5.476555169048323,-1.7919675317632677,3.369157097886997,2.627880668302522,5.639570703177565,10.76366050879746
-143.0,3.4364263637550856,0.7250930691408669,-2.711333294614284,-2.0362612408375744,3.036484916464516,-1.0297374243688286,-1.956435570883372,-1.0658934581286927,2.580606056930706,-2.4953358973228124,7.274786601240329,20.293605734386063
-142.0,0.8460972381741105,-7.376818788357429,-8.222916026531628,3.228423046963568,4.509083389712047,-7.766317535047879,-0.08663976893582426,2.249085668483729,5.966944182507772,5.9715170416222385,-1.8414457130485367,-13.950501270554176
-141.0,2.398537829256165,1.4293465464872925,-0.969191282768918,-1.9531000588232919,1.6676971024792,0.2559456721289637,2.9046411029628603,2.6448347582201013,-3.5645800507861103,-2.761281410514192,-15.225235857380753,-21.259794918760527
-140.0,6.028841102510151,3.9533160550751028,-2.0755250474350664,-4.952397778144976,4.041484963334702,0.8803624682026427,2.188692624730399,0.3030828222039701,-2.0068367654916144,0.8595412330842039,-5.6913452476625315,-9.687578523222818
-139.0,-2.03935561189756,8.548920812344173,10.588276424241716,-3.2154335254121404,-6.2439446242153585,9.585614569849747,3.717737958230856,3.622078812554946,1.3003800603688966,4.574381958012657,10.037730889580637,12.709368851343015
-138.0,-5.742627511054179,-4.905685318792491,0.8369421922616409,5.286667730603985,-3.2996271965423967,-2.0182768624037477,1.5656453542996414,-0.1129584392499533,0.2856337255151127,1.0694119845654224,7.452602663048352,5.323795711716893
-137.0,-7.843645444008191,-2.412282547705475,5.431362896302648,5.092860692120157,-6.650046754897191,1.5264560054227534,-0.5127981487048108,-2.7475314527137753,-7.022311788082648,-6.610125733043783,-7.12170725328291,-2.471878916536726
-136.0,-10.701746670557958,-9.454497283501079,1.247249387056852,10.123731223035092,-5.990557127365705,-4.163550345443033,-10.258064610031559,-3.7573145789444893,1.7961159786942913,-0.5501289783423142,1.8715339438119498,2.5114148803976994
-135.0,12.444249414736335,6.10603412084393,-6.338215293892335,-9.307484219328988,9.371569957387372,-0.09482066341637774,-1.425097197231687,-1.731097531122752,3.039449456288066,0.7672104205799488,-0.7880649334230401,-0.7907556229273607
-134.0,4.782915350087565,0.13766749437849124,-4.645247855708913,-2.4146832479497053,4.770007041018299,-2.2298394133370434,5.17941588252672,3.68631206684133,-1.1448673139658636,-4.140077939623011,-2.1130066671590635,8.777420371535408
-133.0,1.9238443051385108,-1.2448519905936946,-3.1686962957320164,-0.3750793175046234,2.520979365328869,-2.1799355208937907,5.640248098346339,0.9370898436789614,3.6926328895837415,2.5196288698254516,3.96247778712189,4.0792474116387885
-132.0,2.3585643369797618,4.613411043061109,2.254846706081492,-3.4464655217088698,0.024695703352711984,3.3855613274912644,1.5528210405483605,-0.4404521232716898,6.105677779188151,6.945054792243703,6.280899612450653,-0.19776401223269413
-131.0,-1.425883546037102,6.730625251131498,8.156508797168613,-2.6954429311102808,-4.741342720639667,7.399312490621242,-6.76396347407692,-2.674035199514166,-4.590737627162053,-2.2316238788651166,-3.951597820916425,-13.91445642947291
-130.0,-2.342632674501018,-1.8543110791244413,0.48832159537647657,2.0528392809206406,-1.44664846021265,-0.6425892100225208,-0.8555187916648612,1.3999152368668857,-6.507478614348637,-3.6353775588441373,-7.313174512142989,-12.260692554336785
-129.0,-4.4121212710039295,-8.501390982011213,-4.0892697110074625,6.490129632581352,-0.11731254625053023,-6.24705811742732,1.9117058732882755,0.37115249082099644,-1.0419774443144156,1.5752886907890313,2.3592341409871347,3.950029348737206
-128.0,-0.8418540723231525,-0.7564669821823298,0.08538709014062618,0.8364306306525924,-0.503189372071482,-0.3565548634686224,-0.41860117235878247,2.9507720327846494,3.0502206378258103,2.0869504077500194,5.8102765770653395,13.418308409276925
-127.0,5.357332391452355,0.6001641346473048,-4.7571682568052,-2.9345568179559747,5.011670153465207,-2.0897183474391374,-1.3259178735029091,2.8621745199202753,1.5618419136226933,2.734417843579051,3.508285435543347,8.271968093721739
-126.0,5.444329723420279,-1.3648887942225814,-6.809218517642927,-2.066548030920275,6.1539098280129965,-4.090018417267268,2.016527266190238,-0.5906978637995294,3.825339083956712,-1.2868205095552225,-8.877416049550659,-6.087536709492037
-125.0,-0.7675814153066423,2.0754822436840037,2.8430636589906255,-0.6753391704416569,-1.7829315154323568,2.461113128366529,2.0669611612841963,-4.729029950908614,-1.3349590247721586,-2.6343987128107305,-4.911356702099367,-0.9644621655366591
-124.0,-16.00336222531495,2.2976615959711797,18.301023821286165,6.831956143547271,-17.132362503942463,10.30127351495791,-1.4981790612414247,-6.015192871428583,-9.266408047208236,-4.498627861938659,-0.9481455601223107,-6.84512062140489
-123.0,-6.116449158932461,-1.0450465046064674,5.071402654326059,3.5544898176829673,-5.574511490231149,2.010307801338458,-0.24289964840351053,0.03308600225521907,-1.455441038054615,-7.183720495561001,2.1188225073359552,-4.019578997321533
-122.0,16.6836025232027,-4.594042325666493,-21.277644848869148,-6.002108460444556,18.922037973530436,-12.947348516319991,0.6446751527233842,8.562365682706742,9.451979527274469,4.817708189377013,4.973476462141628,0.8536619183348895
-121.0,17.619143153438486,18.64661042712555,1.0274672736870212,-18.17992894306123,8.316526058578418,9.815136884307323,-8.221568935008223,-2.020360568919574,1.8391899783549457,7.393410467202573,0.8181627047913596,2.4684616599209614
-120.0,-11.172559435224818,-4.753539690423182,6.419019744801488,7.9865859497272425,-8.775865588623606,0.8799387753887508,0.948022570992034,-4.575707741794659,-3.692719474817281,-0.5500222018458052,1.0434906567355398,8.917213947448904
-119.0,-11.740675089338618,-16.50421128755765,-4.763536198219197,14.143676946947288,-3.5496100833273405,-10.672163660226708,12.253244341462516,5.562229336271859,2.6899751513184786,7.054248606850641,8.797265074704287,6.054116583653234
-118.0,-1.8069792208923756,-5.648559958752282,-3.8415807378600597,3.7533711485008965,1.0322087608592847,-4.707348028337671,3.074824760416818,5.458310734479679,1.3674567641082653,0.3733160891772873,-3.1185428348839137,-4.592817662041426
-117.0,2.813229608597262,10.284943648574693,7.471714039977403,-6.51434979763432,-2.316220075692265,8.916981397221353,-5.47755484733403,-1.2201068210857993,0.12180672225893496,-1.5626082284283938,-5.795403379460163,-7.101009071217858
-116.0,0.7652153700436459,10.77276192195203,10.007546551908487,-5.803054750262175,-4.607725922804186,10.353122784400242,-7.154179842409517,-7.856435821870383,-5.984582034678339,-10.205980175448053,-9.125544619576035,-7.924755303638635
-115.0,-2.4413137248393175,-1.8170389969867085,0.6242747278527236,2.101484026763772,-1.5161157772252856,-0.6302085856991075,0.35424330923653846,-1.706576091687125,-3.728097341581622,-2.076751490240876,4.02200629206233,9.982362391148484
-114.0,5.7824081218878565,-5.283950848774579,-11.066358970662352,-0.2770331116873801,8.44642877810565,-8.207221516478555,-1.7518287537788972,1.454801960116269,-2.1328077136315104,-2.95368690439342,-5.730229226044338,-12.001874554465484
-113.0,7.257364485270072,-2.7731242918337577,-10.030488777103852,-2.2766715852821573,8.593109307125792,-6.355437403542746,2.8800395598703066,0.40447973282011385,7.315351447531904,4.734536594801435,4.040206907134414,5.454520910078824
-112.0,2.283769588357441,7.383756331777388,5.099986743419847,-4.800279368970908,-1.375477990795809,6.2861592831994875,3.1442053611400067,3.5673162032920116,6.415635009118637,4.2085258524250175,11.26047181963405,18.946115068623286
-111.0,-8.955011824174564,-11.600754161295143,-2.6457423371207405,10.300958135645793,-3.198151957426536,-7.160717684763348,1.7683993053319722,1.8589937046219271,-1.0725981892385459,3.7229206694670562,-0.7022285155594163,-4.887073160220497
-110.0,-5.933408892462845,-6.1930153349936035,-0.2596064425308682,6.0801899702058755,-2.8795108876632693,-3.266776419974587,1.9813096053886454,-2.2326088916469313,-2.404836181662266,-1.8144579674084742,-4.8017305650458555,-9.04848005423578
-109.0,1.203831080995256,5.058765449958329,3.8549343689630704,-3.1140375043052937,-1.288712117737068,4.492878420147958,-2.12760732682522,0.45372927040815597,-3.2069377310726574,0.5287343057539053,1.9541926183201075,-3.882197025808716
-108.0,3.3815135754705916,11.130729901896325,7.749216326425831,-7.232801597568883,-2.1448340474497427,9.474815000715353,-6.686989848721976,-3.531767677324623,-2.9598681776353346,-2.04758941748291,1.8042371810667837,0.16944893976985176
-107.0,0.5551942524552509,11.645218149410834,11.090023896955747,-6.1466449987419685,-5.223909441361734,11.323439806040364,-4.486758871348237,-2.3708164414160127,-2.171856971429513,-1.3136334589151404,-6.36810463016322,-4.544896553939107
-106.0,0.5573939901925742,1.6238942964710414,1.0665003062786191,-1.128942901598287,-0.2835837702537456,1.3798670779228357,3.785155263600388,1.7590114345001726,4.229603967129346,1.624878185870946,-3.037670340715451,0.17881312328460408
-105.0,-2.776856076348428,-12.287802946007819,-9.51094686965925,7.576880959795734,3.3442665120435935,-10.943604336664864,5.316119833059824,2.985761918642484,4.617932181013742,-1.920659190064052,1.383026598245307,17.5920702337585
-104.0,-3.1819986476055,-12.580049647966941,-9.398051000361379,7.845416020196071,3.0897214170359675,-10.955286079846726,8.101380424776309,2.0359976563422624,3.198899531414053,1.2011683419358639,2.793324804282117,2.4760836171722733
-103.0,2.3847947011706583,-7.925796537988474,-10.310591239159166,2.807359106693433,6.331147571619907,-9.164424499710677,-1.3143096258269522,2.7182759692579537,2.371647098663827,0.6814397592846728,6.019095013810065,-1.0014391863695233
-102.0,5.334278039567606,-1.7104083866773072,-7.04468642624501,-1.8625866355649647,6.172343106685631,-4.346214677855213,-5.593470561855281,-1.2657311404598195,-10.724598914370256,-3.402961052961273,0.46906672222226575,-9.135122268934008
-101.0,0.23821374527499417,16.044656335401484,15.806442590126386,-8.1212965174623,-7.72416689270396,15.956463190787433,-3.4593889486307785,-3.8287970781892295,-8.646935466145488,-2.7320343076817415,-7.483888996527787,-11.397832781436454
-100.0,1.1494548094525312,10.970112543511267,9.820657734058686,-6.043807575041823,-4.355831349248268,10.34844465488331,-3.2999815516648683,-3.825228765313291,7.419208490287668,2.236353026052627,-5.0958850800652975,-3.747146683243159
-99.0,-0.527481346126058,2.8809949999457647,3.4084763460718754,-1.1595177545854543,-1.910172447635106,3.1789230255710663,-3.0227152324883972,-3.8465684528071837,-0.9304608852106249,0.9495088558529079,2.9007817929564492,3.9487652781594944
-98.0,-2.133438920549072,-8.691163291168584,-6.557724370619399,5.435865888284483,2.1905743421922086,-7.665411280913115,5.030505271454431,5.5199116960138355,6.403911645600559,5.948723815104804,1.5742362289874632,10.604333048588796
-97.0,-9.196707537393133,-2.3983932559022065,6.798314281491023,5.751532748241731,-8.020876464640736,2.241919367608755,6.0271457268656015,4.472442102000577,4.659939180367953,0.31238123207259894,5.162398055434708,7.734697916681188
-96.0,4.467371808164602,-4.564346516365515,-9.031718324530075,0.09002841633905234,6.7222212299324395,-6.830961175377082,0.690182510583027,2.4423929923291325,-1.2108515615326265,-1.3474657125096836,1.1990692707545907,-1.5129451583361329
-95.0,8.680791073617737,-1.7420357570576606,-10.42282683067541,-3.5010284265218283,9.518415614521485,-6.034048090114776,1.0379319980181048,-0.26205974824016187,-1.0198745956671902,1.8042469849635978,4.862517615518561,-1.0299212377905365
-94.0,0.4223454003504341,5.369821449982233,4.947476049631751,-2.9268284140222893,-2.2241800464899573,5.128714631194577,-4.3130030238765675,-1.8822033858067133,-5.096059735532771,-2.227481761657507,-5.110705004468713,-2.5101088847747732
-93.0,-5.459752202562292,1.4286335772495231,6.888385779811786,1.9817236154327715,-6.141785621493969,4.126504770578981,-4.421500683789993,-8.08629354489286,-5.115821758810059,-3.9168782952249597,-3.763617137665112,-5.096366305239689
-92.0,-8.394009500127597,-0.05837314401980542,8.335636356107813,4.266395879181864,-8.336344014386782,4.181096564062532,-1.8518399939660077,-1.312781751139696,2.1393820171462328,-1.5918879808907966,-1.6839087673342443,-3.230416045929837
-91.0,3.361643173461377,-5.440484940258559,-8.80212811371988,1.076271874459072,6.030563795095306,-7.16313808645333,5.642895180615378,7.602552962329904,2.678832784653649,-3.118094652899357,-5.781332043470922,2.0299407253098014
-90.0,2.4786120920195227,0.8960880911353883,-1.5825240008840837,-1.6502781660044876,2.0591606274395016,-0.3118087076153897,3.389036626022066,2.6873810808526057,-1.7565058242099783,-5.134180459716131,-6.117762484760928,-8.546606257069548
-89.0,5.805447805000336,1.139072392774454,-4.666375412225885,-3.5095676014884054,5.188067573749809,-1.7364806343540022,1.5328887621870166,-1.8125973419427779,1.6678900926842213,4.355020691594332,6.163860480619333,-5.717390311031774
-88.0,0.1248193371280264,4.5623373969722305,4.437518059844171,-2.373477873689003,-2.1230015205372426,4.446171215525257,-0.6574046389439289,-1.6504316663122673,2.1501116508054627,12.102753827468653,16.21498254131307,25.760841973460515
-87.0,-2.2108579412324563,0.16739741930490704,2.378255360537361,1.0001046326855627,-2.3380249950379772,1.297876411776823,-6.646289792512697,-3.0510394995624055,-1.216111122147101,0.15405880479316814,1.5014132343316176,6.912423671464332
-86.0,2.2475753742512823,-0.21360336275283726,-2.461178737004074,-0.9531265026080245,2.390820708211851,-1.3104526800505005,-1.2481053643674067,5.359149973177803,6.01295719953426,6.471365575668577,0.3583070621896185,-3.1026008710446664
-85.0,-2.688369522970883,-3.3252650502059735,-0.6368955272350503,2.995159745305866,-0.9890266186054228,-2.0299552204520817,-4.283515361594744,-2.8441032005152818,-2.6765144992533596,-4.36299548915083,-7.813079524671954,-8.817567671458045
-84.0,-6.359738447569514,-6.087667944800812,0.2720705027687117,6.210716852953703,-3.3587464365608053,-2.874840742980572,6.533079428576381,0.6096200965360724,-0.8464751993014337,-3.3430460789053553,0.13182882687382058,-5.011403988436197
-83.0,0.23060376638841218,4.4412068261802045,4.210603059791738,-2.3546506817845763,-1.9561252301506098,4.282561182259968,5.195214105422332,0.9146555776801459,-0.9843909124579535,-5.90333217281373,-9.205015091089583,-7.316399624106877
-82.0,6.394644954679331,3.182627685589458,-3.2120172690899516,-4.816220341243055,4.755344669148572,0.022002459526903717,4.0315209141445605,-0.2430632604426895,-4.968446120597759,-5.409786726434991,0.1257002376587817,3.1302060270415715
-81.0,9.037666897570176,0.8833624133925864,-8.15430448417767,-4.919067642012648,8.623344791372249,-3.598869622061907,-8.107222714948097,-0.8879068337579297,-0.9488032268821354,-2.8367189001107875,1.3572827966653929,-2.170639944345307
-80.0,-6.224394602628014,1.606091765205818,7.8304863678337995,2.342316781832945,-7.081088094775814,4.674738838878387,3.017273916077321,-0.17707303064396432,-0.4020464010708001,2.888234238502897,-0.40318221979555036,3.321488194866131
-79.0,-10.697798717006687,1.8799963574741028,12.577795074480848,4.358111291266381,-11.612121682331958,7.183069562938407,-4.772974635086069,-4.588995033930009,-0.5421719498187023,2.4844946803281056,-0.4398013831591294,2.562909831542651
-78.0,-3.796000402068781,1.739645120072578,5.53564552214144,1.054461397537563,-4.635589302283334,3.668153833089947,-7.140630304477696,0.17422682334895523,4.49390162860706,3.9100724593378167,6.141354071629209,2.580279412543066
-77.0,5.770098616303285,-18.555628819439598,-24.325727435742788,6.420131289659826,15.086567788164933,-21.41195031363634,7.221236597183443,9.839005623921484,7.265056614265294,5.173476300062514,4.582459535808576,2.5496800269545847
-76.0,8.763923879739075,12.463245114737134,3.699321234998072,-10.662720475820398,2.502805105772908,8.109282828037472,1.2092413744676476,-5.806964254745597,0.05955960418937423,3.1135508154591207,1.6541174075650034,1.3332146313910236
-75.0,-0.5694927813922046,-14.59418561588095,-14.024692834488814,7.613111266841148,6.708065279572929,-14.360034599429806,7.777713129128471,5.231161920016205,0.5683427317799279,4.710189891297674,5.706403423746961,9.714045826948698
-74.0,0.8518906341949322,16.421908933419292,15.57001829922423,-8.684549036366313,-7.372254384661351,16.024541475425192,-5.104913317073091,-6.443845245623254,-11.866865713573876,-11.676513705867727,-11.108053281338266,-11.45232175621264
-73.0,0.22441942510339885,-9.948702260973437,-10.173121686076957,4.890959214945722,5.186188539891938,-10.111034184632537,2.7873402459592516,5.081150530649703,2.32416982158436,3.1237027927705485,0.28855023940864566,-5.360805188802214
-72.0,-4.191255513819684,3.912875481055889,8.1041309948755,0.164350920255957,-6.087250722653906,6.036539470675455,-0.6234263838604106,3.2546081591096576,4.623053225964055,-8.481745730380199,-10.785785107819592,-7.946534125139268
-71.0,-0.13765434515152997,16.742739141394335,16.88039348654588,-8.359696306781903,-8.538316788800522,16.838625372475303,-7.350801453096413,-8.357824765340316,-2.953446677507608,-3.6386725902783157,0.5312380241256136,-0.52636828041893
-70.0,-5.228500837026804,2.1103109425277853,7.338811779554652,1.5788952446018572,-6.326718962610384,4.672162621548207,-4.60884213320702,-4.5104048746296055,-2.0456858351646767,0.9178503951667141,2.381567003062923,6.04738225636763
-69.0,-0.9907561959908815,-12.37639935689835,-11.38564316090739,6.704643366387912,5.219858121136269,-11.8543397643212,1.594000185821453,0.16867452404050942,2.790159854589606,5.575026176808635,10.872759000695655,11.56607784370454
-68.0,4.271897227319806,-7.692338304833312,-11.964235532153053,1.7360190877121835,8.13093111135796,-9.79966955989973,7.2662251425452435,4.758190197788029,0.028394821790507008,3.3908727068828632,0.440602222605186,-3.5327641221919137
-67.0,2.5907225951001394,-1.9536620075371545,-4.544384602637258,-0.3639577673609551,3.5767937980929414,-3.295489669589319,1.6810709998604336,1.0006677864554394,-0.9592223150414312,2.0456116406527776,-4.790035846856231,-2.556384204901928
-66.0,3.170083580462161,4.483550060168826,1.3134664797066735,-3.7847075060365274,0.9402866789323356,2.935776533500443,-0.11235682384533563,1.8363127386500258,-2.2195142404432326,-3.5827389089031896,-0.010271680253493232,0.9968452686630354
-65.0,-0.49378845464802756,-2.5289117818923157,-2.035123327244299,1.4829563757081528,0.7902432913075779,-2.318070024552608,-1.5422674843528166,1.811857710892801,0.4075396896896721,0.2189506097104481,0.5439408086064017,-2.038489857500423
-64.0,-0.23923117768628974,-2.1433217536040052,-1.904090575917734,1.1691657523979573,0.7827918120058392,-1.9762632046320006,-1.2248071636121645,0.7928840081459685,5.668260987814714,0.31165949695838124,-2.1875635635818185,0.8026084048510262
-63.0,-7.831819503294805,1.0725605966820972,8.904380099976876,3.3612115915052696,-8.33081695330264,4.960126121840426,2.4015949682251874,0.7488486711889144,6.077308417193379,7.7002465910195745,4.369861455987328,4.251229502984511
-62.0,-1.495870237198674,4.211679557420663,5.707549794619289,-1.2963008343384508,-3.6389151418033103,4.931686500854915,0.6798893462096757,-4.582075449975031,-2.8465420949039375,-4.617071300150139,-0.3701841789952046,-3.9823628080401132
-61.0,4.501552185173053,5.599155229884426,1.0976030447113105,-5.06805469486007,1.6641411569754059,3.396883473540737,-2.2514933972708757,-2.181295313096366,-4.7120074948174,-6.569840330089706,-6.282781174471746,-10.49241780464938
-60.0,4.863955721460615,6.446767445039532,1.5828117235788657,-5.674886527164013,1.676703137117526,3.979982998805772,-3.321398992084694,-1.741037087310255,-6.073324970971052,-3.235940343748248,-2.2406078022125344,2.431287783422663
-59.0,-0.883569283509964,4.12765352636244,5.011222809872375,-1.565650676164675,-2.9182677354803155,4.607685494977389,-2.0108020197437715,-0.2823882833648452,-2.9849966546869973,-0.23382258580754733,5.945703499814805,8.38165971795234
-58.0,-0.6916361514178722,-9.865503139941914,-9.17386698852405,5.252397588588929,4.263308456275902,-9.56546702075474,2.162140000532439,1.9021214756016982,0.13843221312352305,6.156020118711242,7.790125739020389,11.367230769491217
-57.0,-1.7466865813614365,-17.80447958844388,-16.057793007082427,9.744725283322971,7.093989664874682,-16.901303428685985,4.506520504437342,4.42154526917406,9.42952307655087,3.624169586688367,-3.542211218920915,-6.560087618474481
-56.0,-0.12628782009026618,-5.906331686050948,-5.780043865960665,2.9803709235524583,2.842020397519238,-5.891579591969955,0.05922248045102663,0.7990575209273043,2.720806980470498,0.8075268111610336,-7.279528412868064,-9.841101505178276
-55.0,1.3520568915402698,15.28935370567136,13.937296814131088,-8.28253612939154,-6.276415855745178,14.648677103781266,-1.1000114740107074,-1.639672347107434,-0.1326333097166792,-3.555536864510564,-2.885231623914605,-4.288752742834966
-54.0,-1.2948939560703217,6.296638706132361,7.591532662202646,-2.4661064822712433,-4.423458929756205,6.988524973597143,0.10536601112718075,1.5036713486907471,-0.8384581828170397,-0.502814643037057,3.491538071640789,3.1362161070817334
-53.0,-9.133615158448272,-3.413220348949779,5.720394809498437,6.306290057397002,-7.481089838033366,1.1307126031713972,1.517837932846628,-2.4468212480925176,-2.318640109838488,-2.4783152236582464,2.0961282031791626,7.429964977308151
-52.0,5.891668654126674,12.77124351229139,6.8795748581646645,-9.378142617095722,-0.4643046614016253,9.813525622574403,-5.729035481143471,-7.763235212864845,-7.964588243751929,-1.398251793017364,-1.0249488803074887,-3.8801919293262888
-51.0,7.714574123048553,1.025907524470263,-6.68866659857831,-4.4174428508377055,7.235269238827707,-2.8357533671735413,-1.8971431785739283,2.755474686372196,2.5705436702941187,3.8031499296101234,3.740834452148909,6.1488603059920734
-50.0,-0.07110954978900974,-9.73648585742903,-9.66537630763999,4.93452918000988,4.754567901221684,-9.703575194729169,3.2429372990056278,3.5396452770527826,3.8039059796848695,1.504212816480213,2.619290652148593,-4.367433470869932
-49.0,-3.4464660891227474,-25.862292477337675,-22.41582638821487,14.68396494825078,9.443466286530434,-24.146556886682948,8.98083306299623,7.582660606730798,5.053036653780056,3.9571021049798136,3.127270854532427,6.804288185950259
-48.0,1.2563403241367936,15.528806729781891,14.27246640564513,-8.442708298824588,-6.469396360156686,14.882662401539573,-2.3229927982296594,-0.8600403481091385,-1.3902064076540515,-3.1914282939892358,-6.030066770534533,-3.0977091031689072
-47.0,-4.355496279669935,8.098671681981312,12.454167961651244,-1.8430611608131948,-8.364015614490686,10.323533743595432,-6.907293475670359,-3.2115262052551294,1.213110618780438,0.1890204987260089,-3.986856549848617,-4.559067227783999
-46.0,0.9764784548182419,2.7527438102028468,1.7762653553845897,-1.8347862870424891,-0.4337236484366782,2.219227451328556,-0.1398063430471943,-5.1574547872517895,-5.6861118952822105,-5.951807876806446,-8.881842308648467,-5.689043145844892
-45.0,0.2969747282399853,-0.5097380702322303,-0.8067127984722315,0.060159477068875145,0.524222373548128,-0.6352939765539647,2.1732351424728416,0.8749217121763748,-0.5146444712011702,-1.5928965895443006,3.5672695751684276,-0.9902651460070915
-44.0,0.21565802834059553,-6.124853482928383,-6.340511511268989,2.990696235149982,3.336730830836006,-6.215051026757948,1.0081110347509579,0.8813682703729333,-3.7358016742009172,1.1804960867677583,6.916306497370037,2.1736919104597545
-43.0,-1.3949693932131662,6.821462265893304,8.21643165910646,-2.752400020771736,-4.818547784167434,7.5372303731989785,-4.017178949978866,-3.226529665940567,-0.5871803995810565,-0.2677621940184143,-1.0948253038751048,-1.9651501073632613
-42.0,1.8821817583176683,1.7528433683458258,-0.12933838997185432,-1.7755547328454822,0.9980440802421118,0.7571242266058859,-1.3517833006962434,-0.8244340140465798,2.6527827899820986,4.5426970810230936,0.44482239269446633,6.097191610700448
-41.0,4.177509993008497,-3.9572098794758075,-8.134719872484322,-0.1465933808177441,6.149926347584149,-6.012686838344207,3.842408061707347,4.233982540978099,7.072062797453841,3.6671440255990504,10.800639724148732,15.363572704528467
-40.0,0.3943117532658511,-3.146728206066748,-3.5410399593326294,1.416444101033234,1.9589852974911528,-3.3792592951265257,4.039375998683916,4.909735739487187,5.1632319202743675,3.375453564574219,1.438117380687961,1.8810597151002364
-39.0,-5.420043695877598,-9.866184174699416,-4.446140478821842,7.6003806535342715,-0.5011990770885091,-7.1040492899224095,3.115715167519892,3.918398785573406,-2.0773346528675436,-2.3884789800430415,-3.2642796608216362,-11.514589346497093
-38.0,-9.172369744975198,3.649861191427509,12.822230936402716,2.7919243248532215,-11.01798857347794,8.215035132954709,-6.017144198072224,-6.589938337763158,-11.345102983256776,-10.892148029479895,-18.71238670305329,-16.347251364728038
-37.0,6.039790622133943,10.602557676110267,4.562767053976374,-8.37411517984912,0.791853427150726,7.563282254193148,-3.054273843555175,-4.429228027437338,0.19718182422923025,-0.7694994705240896,-5.223553012420049,-3.716063033257271
-36.0,11.136511488565324,4.812274417306029,-6.324237071259225,-7.951197676184391,8.7039440438775,-0.7775956759667215,-1.7569607148904112,-1.929030179544963,2.3679677364200664,8.0232557389618,13.72873624799677,12.496007442371706
-35.0,5.341138981125095,-1.2674540585453595,-6.608593039670395,-2.01276432770366,6.030311176176655,-3.8859686257947854,1.6441957937311789,3.9848656670299962,2.503537820442046,3.4800699825886365,8.969453375795329,8.061008172705934
-34.0,-14.056936346074494,-14.989633645090036,-0.9326972990154911,14.551850301889967,-6.579534292700025,-7.994277461416143,7.540529994391213,3.826659491483128,2.032521683707006,-1.0532771101820146,0.5841945546633083,3.8412204510503765
-33.0,-7.684476781654885,-3.284672697974414,4.399804083680521,5.441194073527458,-6.053630481808879,0.5969410001068889,1.61302513746692,-0.029416463338413745,3.2512954154654894,-0.5221320643405944,0.9240584283974522,-3.03390628053444
-32.0,3.4636783058517517,5.035586278534327,1.5719079726826193,-4.207492890316826,0.9373707506301518,3.2593326808429675,-8.61071952835003,-2.027994847668767,-11.151620772807854,-8.19797415664229,-12.677787107772108,-9.928682640810429
-31.0,8.27311457938446,12.576051063383852,4.302936483999416,-10.457040559612366,1.9745981978644842,8.47050584904626,-0.182832625441963,-4.324402715508077,5.056051847952352,-2.157631000399772,-4.3393440321545125,-2.0895184164138665
-30.0,10.309812355011102,12.221918911918408,1.9121065569073252,-11.298616349746485,4.181247483460069,7.096436726995057,-4.032590506832706,-1.4032519007392321,-2.043312900425676,-0.7353159273084497,-3.3271425294336554,-4.841622158644126
-29.0,-16.069281775145107,-5.450885134652232,10.61839664049289,10.800995698186519,-13.372003273993279,2.534393999828041,0.1692692455711866,0.28013250426665176,-2.6773255320182234,1.7408342590575672,9.457095078159547,4.885196406711801
-28.0,-7.191955771124993,-10.360758035891871,-3.1688022647668683,8.729931336841165,-1.9721837329383285,-6.812736615941522,7.15877541411378,3.3994404333815433,2.567563368127539,5.280352101441526,4.165805399148409,4.54885397545502
-27.0,-1.3290959232680368,-19.694573211181726,-18.365477287913677,10.534535718960509,8.548414050482243,-18.996378661439728,5.611761872847111,5.112046985041366,5.403846149313008,12.610762491980143,11.089523070488674,15.833359276208425
-26.0,20.006165922754263,-2.774335699322922,-22.780501622077185,-8.601145443623025,21.41776307401817,-12.739637519885747,2.183310554880432,4.08694167037659,0.13000295025686448,3.474362998074153,-0.2850582818627294,-1.073073528373211
-25.0,15.959940130569874,8.339103283501721,-7.620836847068153,-12.138986439372001,11.812035228873599,0.40158281437008103,-1.2255717353369413,3.1277406807607027,6.499925152427704,-1.5964687030558342,-1.40447699634821,-5.46271369246971
-24.0,-17.628077926379675,8.555399460975213,26.183477387354866,4.546968150631214,-21.964158822205157,17.336934990104314,-8.015782703608341,-8.366319918583633,0.6180193222996756,-11.742444500334862,-9.622536387251781,-6.481924085118821
-23.0,-19.74619726166563,39.43274229829133,59.17893955995694,-9.829012305777203,-39.52217073326153,49.27470968136293,-16.557760249241614,-18.966796112501584,-18.447678846507305,-20.906816260892853,-18.979341532976065,-17.383492990549712
-22.0,2.560036787340673,-21.035614943536412,-23.5956517308771,9.178809756413603,13.095491569715282,-22.3486652836076,8.584979288937255,7.664470445260575,0.44662075583064453,1.1957223278387854,0.7206694471206205,3.0790626086947146
-21.0,8.540275490692439,-19.821037555426855,-28.36131304611934,5.665863204860211,18.46766038886123,-24.050153598241966,11.332533899170231,8.480779685467295,1.258426383076534,9.93988107648344,11.17386900248697,7.9182524179853955
-20.0,3.347219735657708,-9.627272789288629,-12.97449252494639,3.0916643704581346,8.179274211334814,-11.344364876946567,3.3594865850384608,1.766835741783014,4.135375874022022,11.457485681909535,6.980879701610816,4.072101134659648
-19.0,-1.4679018525393297,0.6303905124903251,2.0982923650296357,0.4531021689918062,-1.7597163485345728,1.3950298405850052,-4.546872568208767,-1.8800246659167277,1.0011945417698769,1.0087944812010132,3.817909757787305,5.098756689642272
-18.0,-1.2063955934666106,5.077268837782247,6.283664431248884,-1.8976788858454867,-3.7135808496884293,5.709391264415778,-1.226788664447048,0.16547772435410218,2.596166145020951,1.0060702599013398,4.849840212200438,4.118541968446349
-17.0,5.340630004846246,9.233525407949383,3.8928954031032053,-7.324821137875352,0.6860089936821474,6.593389214654419,0.9234291316119352,5.265334448089039,5.595252800423192,4.065674288423387,1.9580881789684739,3.8649479517718377
-16.0,0.3325789461728419,6.538779955262524,6.2062010090897495,-3.3916184832325227,-2.9662596526617024,6.326804699391581,-0.5231442399782631,0.8483898872897999,-1.1849202607221112,-5.622111619128027,-9.613795519868896,-8.582127031468035
-15.0,0.7626242264544619,0.9477487208235083,0.18512449436906575,-0.8874958996644753,0.26468028251876996,0.6017130028551483,1.2211047142567322,-3.565804352122565,-2.8074988545657327,-3.2606195856155376,-6.63049445305577,-13.17812361722037
-14.0,-7.088666611321973,-12.58651764323777,-5.497851031915811,9.806345200494661,-0.7391481096469852,-9.086154871164643,-2.3808194750676863,-3.319088278105054,-2.831927809483064,-3.3174921791082905,-3.152369773736673,-1.0702906152446365
-13.0,-1.3244964505553725,6.839368483327605,8.163864933882962,-2.710619203952641,-4.768231484229397,7.453779945409978,-3.074265781443607,-2.742979558072646,-2.520575632335167,-3.871099460524082,-2.117620788901504,2.0252123125273087
-12.0,2.00515929675694,4.365228829025041,2.3600695322681142,-3.2195446713400417,-0.20450589949541165,3.3874896717832508,0.312723194153283,-1.60703740215522,1.1446258206355107,0.16999282046703001,6.370045289534079,8.784804124698839
-11.0,4.561887148872878,2.595980142255885,-1.9659070066169466,-3.5381841498553275,3.3131730153930126,0.33410921741800836,0.10950110938172031,-1.1199681874727219,-4.748481524998187,0.46318749281553484,5.7771212549930855,7.528651356416415
-10.0,-0.30055509512317347,-4.105698864266411,-3.8051437691432053,2.1611107772380365,1.7225313661836041,-3.9391216884070444,3.0104418330401046,3.284703347485641,1.934450519403998,3.8146612240307127,3.6165852765969357,4.128944620039981
-9.0,-15.667803592997966,-13.070300993856238,2.5975025991416976,14.402461428263683,-9.08128625795222,-5.218266235862074,0.8120057248697625,1.0336033171127852,3.075438838822426,8.58283249548612,4.238652266583413,-4.384426072933058
-8.0,0.20991194405046798,-20.045441968047363,-20.25535391209792,9.870818818475987,10.209661571130974,-20.125996788860743,5.451739026481061,4.744612911116424,7.666960661428226,3.5419831420715027,-4.0085155311189045,-5.294819935583793
-7.0,18.62697897639602,8.961245015326584,-9.665733961069552,-13.761454645059223,14.1283414392679,-0.3976862793415261,-3.434781013168321,3.6571880178471314,-0.3029032820164197,-6.2891486262569885,-13.427624091042151,-13.79786078404616
-6.0,13.738214816891766,10.79947371970039,-2.9387410971914565,-12.232673445945075,8.324234246811622,3.8939133945124533,-4.238390752384742,1.7153898016799796,-6.261648263820892,-5.131851021164284,-0.19104906479241546,0.9243393026170414
-5.0,-1.5580988002965128,27.97020159776279,29.528300398059304,-13.24291183424629,-15.556254103661207,28.798373378903545,0.9207962525967406,2.8158352656632584,-2.261308660934706,-5.552489648600021,-1.2433270837257424,-0.5826791319718183
-4.0,-21.051609691549135,2.0282732158939254,23.07988290744313,9.481731800530653,-22.002210435206642,12.527944266329499,1.2514690791909375,2.829657996644612,1.2290998711392027,-2.257476749683357,-0.19694750225504476,4.259284282110742
-3.0,-6.077550049939999,-13.623471251605077,-7.545921201664905,9.906203624865295,0.7133509307262162,-10.610558547128306,-2.5540267304224145,-15.559066207874208,3.8289599736983932,9.867368768122182,11.496459680016992,15.078483706274003
-2.0,-1.4613665772038988,9.921744401518328,11.383110978722437,-4.247571526804393,-6.451682739639468,10.703420300000614,-7.118960209569638,-28.272226962545037,-2.9373375750286006,4.361781229030622,12.305677436035952,13.65479493551269
-1.0,0.6653414868745159,-13.31513198880404,-13.980473475678371,6.311183935693608,7.36163156681434,-13.678259739775696,3.118261516761992,0.45077345835728533,2.4828724384213023,5.951619844052164,2.764946795746684,-2.115704317230219
0.0,6.066766267633311,-12.158175697666472,-18.224941965299678,3.0333746415784946,12.094773695211174,-15.145751265883714,3.4223852842051246,14.985909325532473,-1.1666919844135772,-5.713258775550459,-10.142644667623777,-15.524491463979869
1.0,-0.29248527305651617,-16.154731713087564,-15.862246440031154,8.210555723120242,7.802795651717119,-16.04339676675284,3.075320986315916,18.435519798489718,-14.016635717573823,-14.293134569999786,-14.091389137653026,-14.619857013810822
2.0,8.118813125988995,-2.141293778307873,-10.260106904297269,-2.9254745503903092,9.20055563461214,-6.158645408110576,7.6885916659559665,14.271935725987174,2.602465710857466,-6.315477712555271,-12.755163490322419,-11.36215369597582
3.0,7.589130643706557,5.622762949885263,-1.9663676938219257,-6.625189610505457,4.785962293386829,1.7893407288030696,3.349320235219795,12.350407149886,18.843555775579564,15.716963898083698,6.6826547251149515,8.842814828234083
4.0,-3.049953243986945,-1.4400762129046374,1.6098770310817256,2.2207028287413957,-2.320630000699721,0.043302045857677385,3.1186875032641277,-1.0420401007869133,-2.9256418837920197,-2.503899924412276,7.269437504641422,9.948024196650323
5.0,-7.248025662432484,47.10569985709972,54.35372551953197,-19.880791674139132,-30.787527029744407,50.76402964992254,-14.138687526096664,-22.067255231848073,-2.0616323708076294,-2.3671660300591464,-0.06780929047690076,3.765310623702513
6.0,-6.3299919927151205,30.939694192036207,37.26968618475169,-12.343057107947734,-21.859734075135385,34.137175818089844,-17.64376922625646,-32.54429078743781,-9.308342407572532,1.0665330068991965,2.751438426310829,-0.7503197129375971
7.0,2.170049672384736,-25.385448083370864,-27.5554977557549,11.561657206108187,14.887048888900638,-26.51631064746789,-2.939066956315296,-2.5601655497606117,1.2758466385639187,8.793288142853061,9.904046070491468,2.5905368236967377
8.0,10.669344879871222,-42.86306162559596,-53.53240650546667,16.122725033620462,32.129505024361684,-48.16128775390791,12.632860205131802,15.380345759539011,9.80367892299276,9.638754102815591,12.408366884890764,10.185550694978982
9.0,3.455833014518635,-14.690348973273881,-18.14618198779262,5.63872187558629,10.7540059222538,-16.453908337636353,9.828518443274948,18.386745120838725,9.909904787897377,1.0750321674010601,-1.5069360620090089,-1.8203895857764185
10.0,-12.115898704467904,-10.821450315565727,1.2944483889019054,11.489037336490982,-6.670943513385977,-4.711575551414265,8.525206434573454,6.406346611186997,-2.665932596325325,-7.112757966644877,-6.452595447990914,1.440328355424465
11.0,-11.979517192051937,24.889825683708793,36.86934287576044,-6.432830489119555,-24.466041834217783,30.86193273980193,-2.925868719556062,-7.649953059795534,-18.751992487809737,-17.673712603218227,-17.767216783006038,-7.674817613748504
12.0,-13.21678668209276,7.842325798019006,21.059112480111537,2.634512590968737,-17.096433597501804,14.440423313854314,2.4863899952513213,-6.196431341218174,-5.596273247013186,-5.043761249680543,-9.785175426358522,-11.824335596599287
13.0,13.548836745985641,18.588372729318454,5.039535983332723,-16.0388967341597,4.223732449826116,11.807312364960563,-8.988524449886816,-8.116269962195345,-4.254694220860108,-3.756561614210155,-6.385267715719389,-12.010034487604432
14.0,12.865629056135619,10.105639435565756,-2.7599896205697005,-11.53241766145402,7.868373821285842,3.665150166429517,-7.309321156395238,2.8287535402665256,9.651549527647946,11.281731265184625,11.78431514514317,5.333749013655703
15.0,10.851056301757474,-2.703091165446051,-13.554147467203371,-4.0415067055823926,12.186997675592352,-8.141778907858344,-3.4683189110394164,7.714726253937592,9.831186323802788,11.9074441279636,15.249364398065113,12.850802847822887
16.0,4.775550562121074,-14.146746914514225,-18.922297476635293,4.638941560274388,11.838559261723825,-16.477495366830713,2.3169865459051193,7.118030459917396,13.654328510302511,8.998457940719172,14.991058224039545,15.089959789034046
17.0,1.040174683380021,-13.764153432853952,-14.804328116233938,6.394417328230945,7.912760592236088,-14.315490652984778,2.8204531074087242,2.838764464132243,-5.012810300579698,-9.032338860411851,-8.841755304057216,-2.554625782374236
18.0,-7.7356707365362105,-5.491358261070569,2.244312475465604,6.648544610553445,-5.004000114047725,-1.6629455283648786,6.285452669412666,0.1541298837980437,-11.078370425474532,-9.338905643121572,-10.057795341244654,-8.385315507794143
19.0,-12.066860236198673,-7.170562853306627,4.896297382891905,9.580547973262053,-8.505040718481336,-1.1026679789702993,7.337771273681088,-8.024210661461568,-11.886409252060325,-3.052175903572552,-8.814887566957497,-9.193896584884682
20.0,6.113978352665966,-3.5284936522948223,-9.642472004960858,-1.2442457074727677,7.920979024193939,-6.551490396640135,-11.150503823731484,-19.49875729703919,-14.156803987162759,-7.855555110061887,-14.386917830384057,-12.017716838530921
21.0,1.7865843202419538,3.0118840283060173,1.2252997080640213,-2.420955504761264,0.3104522107238905,2.077612015497463,-10.844382565254355,-8.90624677864107,-2.5825801349723907,-10.0419713826125,-5.6210484881192535,-9.33655156476636
22.0,-18.367030470278984,13.471535146340738,31.83856561661956,2.432970000961319,-25.162393200734478,22.699491003170863,7.179713993855055,9.262833398793282,23.253100208327343,15.724931179838716,18.944756864475888,17.46492696179918
23.0,-1.3529979560753114,27.44523064902956,28.798228605104516,-13.057381637737192,-15.06279734710493,28.094830410542883,5.790814359323132,20.51546794296436,28.909395886374455,32.015342125472124,33.38609712131625,32.15700656651906
24.0,0.8548155097152916,20.90387334495738,20.04905783524198,-10.891363940725459,-9.585447574422666,20.455462342731284,11.697743185593957,24.060747761853378,25.839052583763653,27.770742666586727,27.73050174395733,25.56490898722706
25.0,-2.5593992115284028,-4.34443135244563,-1.7850321409168561,3.43518780570818,-0.3719449885782229,-3.0830327346349304,11.308896170712613,3.413452849425463,-6.047988194445417,-6.753083164580408,-11.833869360079722,-10.782823912230363
26.0,7.011920831913426,-36.93351051259636,-43.94543134450912,15.015236712873019,25.50042708831941,-40.380234652489364,-11.524175358710131,-25.41483361719331,-47.418494372994,-48.27430847458198,-45.269774497162786,-39.72115105135377
27.0,-2.6337498448954086,-32.605420142834035,-29.971670297938036,17.664816833742783,13.618891320814662,-31.31294549579509,-11.281258666629887,-20.73639980171655,-39.31504891047534,-44.36980641917462,-42.49941041722779,-39.2532319558065
28.0,9.326144226935252,-10.740545638930357,-20.06668986586534,0.6638484559250806,14.729972914455233,-15.435637292495063,-10.543822551304139,-5.483634101578241,3.727718828027456,0.26191987402759764,3.4480528200830136,3.6050728232422493
29.0,26.409823515966938,22.43071476766949,-3.9791087482973677,-24.4732757601546,15.150545994017055,9.263465724777912,-11.320831453386335,4.740193407139707,20.22025092140059,26.26934313082003,30.874104781824293,28.87253933097206
30.0,42.835756288285864,28.397494694546673,-14.438261593739295,-35.59946597446603,28.669455693762053,7.008058523949687,-10.125286284261808,10.270965804597449,22.04211997547403,32.001839901247834,25.0492311140234,16.513045664962828
31.0,-4.726553740652282,12.487854768310342,17.214408508962663,-3.8699034367339706,-11.02138046807945,14.792527523414435,8.709046871826201,5.856949775676668,6.978595783216068,12.56973387751134,10.876310952439972,4.701218442860508
32.0,-66.7993190411145,-10.158908141305313,56.640410899809225,38.48665943104395,-61.696454613264095,23.254295797298038,27.098268748699827,0.3544932123821045,-8.70658130642013,-3.312330827808278,-8.834240912450042,-0.4276752468501659
33.0,-37.092581397718256,-10.143282804694094,26.94929859302399,23.625959739794745,-31.999495755219897,8.41210849928739,14.251411779489684,2.8468208945949773,2.3550901474221133,-10.015389020066724,-10.943527821297494,-2.9687571961536796
34.0,-13.736614798996815,-3.680769726420065,10.05584507257689,8.720413373142755,-11.87299403244013,3.194520494097594,9.734415355175702,-0.6701147072714191,9.139411097624293,-8.542979732207822,-2.003904847210107,-5.392794938717971
35.0,5.157986484414678,14.188726404464399,9.030739920049827,-9.656106580636195,-1.9078678630180939,11.616824612650644,-8.914696880719914,-2.4830077604348637,4.7555272779542745,-2.1371640815527932,-3.6757781290964653,-3.209821572770668
36.0,34.062449620002205,-9.522942438046858,-43.58539205804888,-12.325686465292652,38.78082371220437,-26.54500271915461,-13.972496770124604,5.534645974084631,-12.596157951139373,-6.394886098775375,-8.992067405546637,-5.310058339400148
37.0,29.014605340988677,-10.459287210489151,-39.47389255147752,-9.250748582551283,34.208080990570124,-25.03238957004587,-6.255056823100631,4.900857692903476,-6.921186903078148,3.925750067687037,6.536478856213857,1.2326655553928632
38.0,23.13986214828045,-1.0340069993948675,-24.173869147675205,-11.102820066330082,23.625825408734546,-12.585637882992067,-14.569248892041623,-6.416196122678502,-7.084608231343415,6.8460864774107595,10.42634566940987,5.703478138965557
39.0,2.0899870937438294,-2.61041533189188,-4.700402425635971,0.2891503780756679,3.4456698399880175,-3.630377733230537,-3.597501920777816,-9.054055736489696,-7.432809911498383,-0.8225876055092405,2.685941076695972,4.023076045065484
40.0,-23.529315773477823,1.869605439466306,25.398921212943637,10.857870585913213,-24.412889209771823,13.666871323317537,8.09330400077483,-10.571652244914295,-4.231434778050486,-7.134492307714043,-7.529101652604989,-7.647252978457097
41.0,-21.054726954531823,15.249979050983125,36.30470600551446,2.9293705003587203,-28.70769268296624,25.738522035805712,14.495808392508774,4.0064406029141395,23.158672353660066,1.7380036930602323,-1.2964037131735744,1.249056808345423
42.0,-7.644013873934657,13.139598312996123,20.78361218693054,-2.800107787056006,-14.24258011697452,17.00711177976352,6.029182443367143,4.676085380775748,10.502847866533713,3.0903504810240063,2.335547426446425,1.693273168510878
43.0,7.125973010572437,1.2899410077452877,-5.8360320028270145,-4.181430298396463,6.451912478212339,-2.3037343872536447,-6.330683572946379,4.68940473687725,-0.2574176843112195,-2.702975842692336,-10.284584368412194,-4.8573973671930855
44.0,7.499153513391369,-8.207674048262351,-15.706827561653519,0.3028572757539987,11.653436180416637,-11.988736257752755,-11.346018003454848,2.34984876192563,-2.482642624925842,-2.246924523099927,-5.297660317561836,-7.402908608822111
45.0,-8.884995445605238,-17.138820441523112,-8.253824995917677,13.040938808151848,-0.3417371719061304,-12.730900898198154,2.8511833733120593,0.8806833590784926,-21.43110955697441,1.6086463166601104,6.281383132594245,6.502729663873186
46.0,1.583170852566334,-15.898360816721429,-17.481531669287506,7.189327330763517,9.588081969069828,-16.64895038007249,7.680093243047253,7.783972202184769,-8.665818963429718,6.101662180326256,16.92799107299571,12.25383399083245
47.0,9.516339385423437,2.977259306168926,-6.539080079254397,-6.29014171119389,8.007734273260473,-1.7407018717164746,6.367148581480216,-1.3629639038908836,11.294026909541751,4.732945970706962,7.620412529359368,5.891967406645334
48.0,1.4646328644645275,6.173194986140375,4.708562121676009,-3.779292181541645,-1.640388821043381,5.405509468470798,-1.4214982104076501,-5.714752580548142,10.239769251851413,0.20760686754311658,-2.9040300925608546,-0.16305334236462987
49.0,3.481794246506082,14.4142468169017,10.932452570395695,-8.983239347352264,-3.7448253412658534,12.723715670779214,-9.157137429831081,-2.5838525213119077,10.364273925096358,-2.6944655613945474,-15.953997119527584,-15.600642742754783
50.0,-0.432941847349134,6.627929824606577,7.060871671955724,-3.0514247558942635,-3.7704345911878283,6.824890460800196,-2.737754155992758,-2.50511579395575,3.2277994451602665,-7.3753565623468305,-8.724198922051306,-10.06359612868976
51.0,-4.1209505896923035,6.962014985941785,11.082965575634102,-1.45301351931262,-7.5531372586659735,9.010770663136052,-4.263518053949758,-4.78298504943325,-6.531160292719754,-1.2981962451786853,3.522934973705917,5.953945128204248
52.0,-3.261711740452536,5.109069918389329,8.370781658841771,-0.9588266901048508,-5.7749512878286735,6.732093914376107,1.976991651138726,-3.562463207886413,-9.966430399529413,2.8219541467645533,6.944637056522029,9.63124454984853
53.0,-3.3081559765163293,-4.175070981296235,-0.8669150047802008,3.779804515416214,-1.265237176102313,-2.5303380982030155,5.04099619132224,2.80638161815944,-10.24790630338261,1.223024712436394,1.8635137009164593,2.1702406408927217
54.0,0.1542553934958295,-14.405105480421778,-14.559360873918042,7.156204263590174,7.306808916806316,-14.498011366923745,3.7148161000885374,5.652810329021241,-4.170431093300751,-5.512827346405103,-2.162104545710398,-3.6287591564561126
55.0,-3.750056764323058,-20.548470619927986,-16.798413855605265,12.09303397553527,6.550445979751199,-18.69825283638667,0.7184373083615871,7.5409618407623125,4.76801136446785,-4.820297945174752,-3.936533438711927,-4.613997743225595
56.0,4.145425093080718,-11.834561051038726,-15.979986144119414,3.8592601816114165,10.089919456129493,-13.86171667869278,3.993091325805435,6.960011544401147,11.343547439491642,5.899560783368298,3.4475199380229067,-2.0406162908984555
57.0,3.4078570610752323,8.76846451946821,5.360607458393364,-6.079743528349698,-0.9451747390176379,7.105218271938832,-2.362320112742028,-4.25222247269138,5.840964879698517,7.835501730905117,4.688291125718721,4.781337553023133
58.0,0.8767681546219639,23.335004575449922,22.4582364208286,-12.10148177285605,-10.832655435843158,22.858506695814356,-6.345547214492387,-7.421130110475415,0.02979764970597465,3.896057916431051,1.0666909571055023,3.733279729944064
59.0,5.32292472920931,17.791082377370046,12.468157648161279,-11.554224066540781,-3.530525498785864,15.174375118136897,-1.1273265562038048,-0.998175240583473,3.3254181240848157,4.557117251982309,-0.4155911421140394,3.518800246399297
60.0,-3.8701069912498296,0.4528540968815431,4.322961088131553,1.7117355800520482,-4.130092464189827,2.3599753911647916,-0.061757130889967815,-6.40564418733984,-9.397645086980217,-10.28558731078841,-6.135578964141534,-5.711247525179012
61.0,2.407630391948681,-6.1202647317915675,-8.52789512374039,1.8609924374236118,5.434418992070205,-7.346736922716073,-0.63859524653008,-0.9736971228768758,-3.3033405736449035,-7.520637902707158,-1.8163555039008124,-6.134008819380811
62.0,-8.179550990396244,-15.035606022276102,-6.856055031880191,11.614491214300891,-0.6970058800227199,-10.966097843359188,2.9070334484683222,2.076499290886308,-4.5045279518634125,-2.8348399422037565,-1.206035780273861,1.8601892329614054
63.0,-3.979027041339943,-7.292378860549942,-3.313351819210361,5.566757758337777,-0.2915108311315515,-5.324391364918448,1.3647044106147441,3.6749502551984015,3.0465961192364266,3.320890962030845,2.9746393544331253,-1.0480880243020916
64.0,7.506107221537357,-2.7875570287227713,-10.29366425026045,-2.3453098794220297,8.940759024306782,-6.4877369308305,-0.6313974829655025,7.880953996223071,4.7321887626592,10.209709938554383,7.84944028683807,9.12643860243304
65.0,7.429573039464165,6.192711051051498,-1.2368619884127714,-6.790908752266526,4.376255934826205,2.524649908632047,0.2894487977789504,0.6570596682012262,3.5855470629119544,0.06140772476421663,-0.7245187490864877,1.090846527441954
66.0,-9.326647521377486,5.0362185585213775,14.362866079898927,2.1741255579230305,-11.876364639992545,9.660916266653182,-1.897936184947337,-6.8011180722682605,-4.834119097131557,-7.977776379237097,-7.013446749255961,-4.7221753300280405
67.0,-3.594146165190124,-2.040371322325851,1.553774842864443,2.8563591443895717,-2.6013640200231203,-0.2879615839453802,2.852435819465014,-0.2560521731574932,3.565193545653008,3.5401787495967705,-0.12884701417317457,-0.4426058036532521
68.0,3.804913334153336,3.2568209379631368,-0.5480923961900359,-3.56096578245875,2.151502722633712,1.3836387146968439,2.5411269676928203,-1.3772924632793706,-6.026757480360963,1.082100182286691,2.277495831398208,-1.6345401017391805
69.0,6.3589079442059715,8.31166364314049,1.952755698934597,-7.359147449417164,2.1777598720957076,5.158283778971663,-4.869469140299555,0.10163634883544193,5.1233256175636726,-1.2560868069900726,-1.539760919244496,-3.0959015704672637
70.0,-5.521331505103686,-2.769392590241804,2.75193891486196,4.122378246104324,-4.085794700315963,-0.0628850675647199,-3.5274406955328637,-0.011924803221069646,-6.04087808092858,-3.038001895429886,-1.8807017429449346,-0.4520727918402906
71.0,-0.9392733989298226,-8.909869174933725,-7.970595776003768,4.89663187433835,3.4842512295320214,-8.41567308419398,3.338537227070275,0.2696281324258625,-3.0141250668655513,-5.124653606000946,0.5392133857939527,0.7173623145391016
72.0,0.2443418405571426,-3.067335081207265,-3.3116769217642528,1.4528296026386922,1.8223471765311667,-3.1642330163481134,1.147720763321621,4.360242137118625,5.874610529818789,4.511970749977945,1.1918229100130375,4.005472441145822
73.0,1.0801381038632873,3.208919842980013,2.12878173911679,-2.11465673175769,-0.4818235169356133,2.69455255488333,2.383938020491738,-0.5687573928610805,9.5428991266839,7.290595058176183,4.482023321627135,3.0133195347209702
74.0,2.6077364747203022,3.1499432173695494,0.5422067426490904,-2.8595782925061117,0.9955521037124668,1.7921917390754654,-1.9213846043691358,-2.012842156988826,0.2341024818061208,3.474794091345561,0.1641644250694636,0.5263740479777497
75.0,-5.303993182254427,-6.710030813367828,-1.4060376311135565,5.940090077269814,-1.9870714746445552,-4.035612250886816,2.2508715903079564,-2.278619434725279,-9.105156379182832,-7.096515124643196,-2.503100080892284,-2.7370812815407475
76.0,5.026944412437098,5.933392112771783,0.906447700334596,-5.471202689364123,2.020754374904662,3.360302966805951,-3.0053150832640747,-3.9817481723849966,-5.153020016058065,-0.9908605920288491,1.6935136391671848,-0.18966357983845894
77.0,-3.088254415159837,1.4381952942151288,4.526449709375016,0.836014002832731,-3.769980494556057,2.9991909443255755,-3.2066546566219905,4.892104988455593,-0.9973520987649263,0.31526025187670825,-3.1085712940911097,-1.2793451424931122
78.0,1.4980309821219286,3.4175056535168378,1.9194746713950994,-2.4406917220195004,-0.17518578135318275,2.686424392572189,-0.13234705163276517,3.206775460777587,2.0303405181003535,-2.2937110623808827,-0.00033621467145095174,-1.5572424167160086
79.0,4.3050110684964125,-3.0014273918882455,-7.306438460384487,-0.6263736908357151,5.840007901965433,-5.129950928993743,1.517773787530818,0.41045568412839506,5.625471966160982,0.2119971971185617,-4.7335964609388474,-1.1307835611281971
80.0,-2.8462527436579226,2.1631107196880617,5.00936346334602,0.29638436450527944,-3.9727794377932133,3.6212687171133506,2.691735612985812,0.6301025933176762,3.8423110890123855,0.94695935933016,-0.1972812900898282,2.3437164824196843
81.0,-3.137407484516447,-1.8537799355454507,1.2836275489707896,2.534761731583299,-2.2553982221568982,-0.31467361626817336,0.7564933748729177,-2.914239566342111,2.4086314973612737,1.8117335479538985,6.967505821091788,5.977806185570212
82.0,-3.512679274941827,-16.42824652211307,-12.915567247171552,9.932547711358703,4.735848527563273,-14.687648782901437,5.685528550802447,0.7373658761705528,-1.681532670142452,2.415829861101674,5.800392126177485,-1.3196011961928802
83.0,-2.8939339864560814,-0.8504081163315478,2.0435258701242622,1.8321359864252762,-2.433241673618844,0.5908158659170626,-2.408178094722137,-2.734191032058942,-8.652317904995062,-2.797516319742019,-1.8584398347886033,-6.995821013863853
84.0,4.522587397556979,21.08656925382157,16.563981856264583,-12.770037952291641,-6.061972869621052,18.823056454516337,-5.886819447305594,-4.502847377078076,-8.042227960615591,-3.92940719919374,-7.935841242862625,-3.649823078082594
85.0,7.463957579511816,8.158498972421675,0.6945413929101507,-7.780235682710252,3.3467067843240415,4.420518276367167,-5.050350600308638,4.063000124375188,7.830503035346056,5.172025242522434,-0.21087051056527084,4.808169678181258
86.0,1.6258628259243273,-4.50343842669024,-6.129301252614127,1.3906720331187117,3.9229805490774305,-5.332344975909932,-4.392526508443645,4.813410507659073,5.981777621853784,4.880556713438276,-1.4153235262623598,1.9724630571521173
87.0,-5.5418423297318915,-6.407132367794919,-0.8652900380626289,6.00933045543174,-2.287388351054418,-3.5869945484485877,4.2998218196769304,-3.735260056779945,-6.654238780366578,-13.494880382695683,-0.9875651726754109,0.09383396094509466
88.0,1.9150031949895912,-6.0626923607827035,-7.977695555772074,2.117020915924371,4.923557040965684,-7.06363022714628,13.528521934495547,-4.365036167620707,-0.1577492927564037,1.1211708993644098,10.883273781937866,8.033275827484454
89.0,1.854830011707858,-8.039681163588314,-9.894511175296175,3.0671040147709085,5.854889712500537,-8.94309286774406,1.2830524587568846,10.226742526203921,14.744448011293812,14.031081319007148,6.0442588629956795,1.8319127744294237
90.0,-8.09955902839149,-4.570137810908184,3.5294212174830517,6.318507501886697,-5.834613821662156,-0.5031695290590052,-1.9344699504937237,2.442361500722156,-1.6830118362236535,-3.58884292294617,-8.542629358193857,-11.85828318938079
91.0,-0.47281377747466635,5.935162679610869,6.407976457085121,-2.7427584480753238,-3.4644657621163275,6.186982977848415,-2.5865210995110663,-4.610205367008872,-8.10785595610199,-6.964608643456547,-10.44658484267241,-9.97683509783626
92.0,0.8460426124283426,14.96356221740558,14.117519604976872,-7.917413102143993,-6.587577899568647,14.479789322273984,-6.64315413921037,-5.703988107073801,-2.6861225041363777,2.127576137992774,-3.5036051939245305,3.3397817251645168
93.0,-2.6143145379590482,7.699990009416334,10.31430454737516,-2.5618430333859616,-6.50205805405478,9.030675542903653,-7.64200330990065,-4.176973831913097,-7.395484240835822,-1.467700063637651,1.096816025541563,0.9985684570154926
94.0,7.733297443626591,0.461193678181806,-7.2721037654447525,-4.047085895148221,7.53794721475256,-3.3750238144698432,3.2138368472190932,5.350987394031261,2.2976250409966155,-3.3192180742777144,6.543405449925115,9.16806693396435
95.0,7.353758658154913,-6.393700486095399,-13.747459144250108,-0.5183282544038585,10.582881392561982,-10.111911663064191,4.390763104737715,1.3911795665550677,2.669357663175391,3.2379801864925444,3.2399104980002096,3.3119611410546677
96.0,-0.1471162083262607,-6.899456881958641,-6.752340673631997,3.5567255700851916,3.256236245167438,-6.860987102642614,9.181665224336129,4.186374139659349,6.219060808277896,4.5187367620386425,13.901317711981521,6.164515922347259
97.0,-8.491491301909848,-10.692428682292755,-2.2009373803825563,9.622718568121378,-3.110412180794892,-6.397979938234463,2.9655004095404793,0.9804877324259507,4.391478309127956,-0.39788069095301015,2.5618102950611226,1.4218941984592608
98.0,-11.753044495795747,-7.084255311961025,4.66878918383497,9.372346044695092,-8.251106797896023,-1.1555386845460704,-5.231182049130178,-6.915717463145599,0.3623438945291806,-2.0629318528932203,-6.881696599847871,-8.000905548753142
99.0,4.552146914131853,3.095712582756644,-1.4564343313751649,-3.7867694832047905,2.967857748849427,0.794622285415611,-9.151274774317297,1.0944994865453928,-1.7593108757944096,1.6330434419634103,-9.514428447227973,-8.502203488536406
100.0,6.090028829085197,15.328934731323873,9.23890590223852,-10.74536260446807,-1.52911462744779,12.258197393249601,-3.626747792771861,-0.2848381619265982,-3.62137998407177,6.920248530185071,-10.34099785548651,-6.142387280549414
101.0,-0.21971309743678358,13.202763462791664,13.422476560228176,-6.52261288333871,-6.774036728478151,13.284178207499568,4.921609293272269,-0.3578696409073988,-7.609640751321402,-1.4072831749555088,-7.936152233207325,-2.1636568719018587
102.0,0.520662073450088,-0.10148106584263328,-0.6221431392930903,-0.15925435902816876,0.5397774899129071,-0.3939815679165246,7.877900003913621,-2.437265811141528,0.6838928405411155,-12.080298565681442,5.21138111837123,4.4782486169071465
103.0,11.249099091131562,-1.7735441913442467,-13.022643282476116,-4.765947538116257,12.102375460129599,-7.354780442131613,-1.7566665345589065,6.600478590833752,0.34798921989462533,-5.935555583746922,13.065076272676617,9.369605717694835
104.0,-4.3597453063447755,-14.502616898275194,-10.1428715919306,9.480010246171386,2.933083682424781,-12.28111818756274,-0.17358354636842777,0.13914440414616802,0.3348617628092516,-3.2245168719176944,5.676607003693965,4.048677066712171
105.0,-0.6340001000621198,-4.3488173638277985,-3.714817263765669,2.458650710832581,1.4982429504027603,-3.990323160933869,-4.285789472009431,-1.9247710496778274,7.028149696522462,8.198035920320748,1.6069777394794142,0.8107560029337231
106.0,-8.406611520706951,-2.874046153691081,5.5325653670160895,5.604766667897838,-6.937872266742845,1.2921147549323009,2.036687683700416,-1.6796556449857158,4.101102484833184,12.995154620828444,-4.667376680096677,-7.140819392350331
107.0,-5.327180650864193,-7.074150411250349,-1.7469697603857552,6.242142279207489,-1.8403568256305816,-4.449230124412316,-0.4540404562670261,1.7658169955157017,-6.07524117274731,-3.7792309380807207,-2.5371128447111464,-7.315209921483189
108.0,6.209601196011116,13.040104313706085,6.830503117695438,-9.662098439290947,-0.28218562944029735,9.892190219394044,-1.0851409520750535,-0.673965396763881,2.3088062141429457,3.562219334181424,0.7660632102547833,11.118332665401322
109.0,-5.2726534046496285,3.4403034405766864,8.712956845226644,0.9592937146118539,-6.961330104691785,6.105070575006076,5.855760880369891,3.563134878547049,6.085469134953945,10.576730253323795,7.18022675606102,13.213276750070722
110.0,-2.553427142163962,-1.1265172070496332,1.426909935114399,1.8851704581149908,-1.9528228505357337,0.17032266675678676,0.25008426968432573,-3.016221764039969,-6.112931655766823,-7.56330651509738,-3.8455632442798824,-8.270906871775725
111.0,4.493953986569033,14.43156065404321,9.937606667473975,-9.495555998313627,-2.7565155894012863,12.197639044459269,-7.8730901011860155,-5.350729333752852,-10.082530334665034,-17.502868485442306,-8.590345401788387,-14.447935052632385
112.0,11.320831249297704,8.861586556640473,-2.4592446926575797,-10.12624270484905,6.86086625397572,3.2104920392906493,-3.824372733324242,1.8299114194845252,0.4449291940214284,-14.28201756893132,-8.810797904428476,-9.979134919743665
113.0,14.123331323874485,-9.171365081148847,-23.29469640502369,-2.5168257214991128,18.68290974668962,-16.222994655160853,0.3511474293818102,0.8715781367120508,1.528008627756964,4.685909737843822,10.76062991628603,10.528237001078372
114.0,-7.028738157357549,-28.589986825411927,-21.56124866805466,17.838903374160328,7.240904770937176,-25.139238282299882,7.465573684370297,3.03691552082455,2.6138033700457175,16.38952747353654,4.044004122906224,9.04823335023142
115.0,-20.956321445494208,-6.575265327414691,14.381056118079549,13.78677142851799,-17.61554123953031,3.92643445977372,6.177408626679139,2.0400285265403957,7.173320636775969,13.914425172311716,-0.5599361299769585,1.9566040359514671
116.0,-5.397142458089476,14.27664043538487,19.673782893474662,-4.424725174309639,-12.481980947690808,17.008753678660238,-0.4761431196280008,-4.348688219877948,1.2380399228936465,1.054619169204921,6.934995782039382,-3.3302776713157733
117.0,6.893195754511836,6.482420280600884,-0.41077547391054736,-6.6739260666565965,3.6285434925727635,3.0001505653441622,-5.947966824514654,-0.03649185644175712,-2.3233809139525805,-13.911487513052005,-9.215330532433438,-5.336138236730173
118.0,3.2082152699900766,18.028072179982146,14.819856909992158,-10.678451633671642,-5.826178688353622,16.47406954724938,-4.938673453796414,-0.22205659464559258,-2.5025058465947776,-1.906063692766713,-6.0569990094141275,3.8926030393009383
119.0,3.3315063462236494,-17.28292817855103,-20.614434524774964,7.003780859334804,11.95580953827632,-18.974372327285163,2.3656919589166274,5.041805810259097,2.7996640329871623,6.604028976325508,-0.5118649059474718,-1.3291924208053691
120.0,2.5689246998099247,-1.712836041619758,-4.281760741430021,-0.3872266132204919,3.4100465798151536,-3.0246924392262216,3.023295181506949,2.4400183535220834,-1.0901611999642185,-7.057429416823474,1.8180198487737678,-3.0664697981698366
121.0,-0.2688401183571969,-0.396623588531674,-0.12778347017477554,0.3079157496545507,-0.007704530606296611,-0.2952620966163688,-0.2598232777221081,-4.449765292227445,-7.922278737502587,-11.343031548008039,10.598722627875821,2.55348108960678
122.0,1.8058444973035037,-2.1347302626694793,-3.9405747599729164,0.15028458575521608,2.8536330767689173,-2.999766333534073,0.779201643770871,-3.8042702822353482,-2.085196384320373,-0.6016386504414175,6.784907156190439,5.524123550529133
123.0,-0.6525731396150888,4.38776190856499,5.040335048180458,-1.8756617610530544,-2.8724355390343073,4.744294855473145,-4.658082272447584,-1.7221488304662398,0.8531907958930564,12.879802624656755,3.2920452027365927,5.08292948972472
124.0,-2.733247034796014,6.086636976193313,8.819884010989888,-1.6840488307978339,-5.8106690052823105,7.478009687485244,0.27253846161785855,-0.6192671696166417,9.069715793930031,16.697861848044425,-6.362759071371499,-1.056994657182981
125.0,-5.8557110649030335,3.427218558701905,9.282929623605394,1.2028307102612505,-7.532970898358986,6.298822913484901,3.8894407956703807,0.5008849530233432,3.524710468851356,1.8014353178852032,-12.481097132993268,-8.47465904285619
126.0,1.3191395509247832,-0.4806360674999305,-1.7997756184245661,-0.3591217602411725,1.588858999113652,-1.1165356752452584,-1.052432252249283,3.935492109556501,1.740658704971258,-6.3472635295035005,-11.011792917212347,-8.837525824631157
127.0,-0.059822757781045066,-13.37076559436114,-13.310942836580221,6.688322853450201,6.650321106186725,-13.391821878295875,-0.6064871795223306,3.1128826856647436,-4.097737970009418,-16.835755856578043,2.169209919639348,0.6940927510978385
128.0,-0.07371398160335874,-2.9156417425084564,-2.8419277609055937,1.4599205794817578,1.3279496602079721,-2.8448063548618103,1.5717808773943127,2.4202835734623918,-4.311060458749122,-11.912414010562783,5.3348471097028884,5.91582503492766
129.0,5.271117026844586,1.3858433934020733,-3.8852736334430786,-3.290703367326376,4.600680398691713,-1.2085753046502274,2.9879603974014155,-1.416184856777453,-3.808469965223174,2.8124208064203833,3.4976643955989664,0.4731572077412034
130.0,3.114495778865013,2.4531425065095664,-0.6613532723558427,-2.750527549818593,1.8330655826728341,0.8650725854932861,-2.0087470413126436,-5.0457261272524585,-2.264260502293607,6.680170055186251,5.0794699462555,-0.40966758445783347
131.0,-1.606087538763218,3.3029852482606623,4.909072787023808,-0.8971846779365831,-3.231160314116413,4.080224305792285,-1.9184124599667096,-0.6549244758542496,2.7246704899595393,12.148482660711426,7.20344670325732,4.358992808701239
132.0,-3.22335109130143,-6.823138196154755,-3.5997871048530756,5.050411844021702,0.2180126448119939,-5.156384601026256,0.5723964219136277,1.084839350909157,5.104107898607023,11.159976988446314,5.894887665222233,4.602577111952106
133.0,-4.614906259126202,3.923972740573399,8.53887899969993,0.29096868238096807,-6.5432685170211045,6.206577808097052,-4.35349620082033,0.1390545161734426,4.352589861076308,-1.395283216621097,-7.146223257350592,1.0201264316631686
134.0,2.8333162940222,12.966821322212397,10.133505028190498,-7.878662106524145,-3.691538415628206,11.52137227688213,2.152439841340713,-0.8697503990106604,0.4797340605845264,-8.563700503430942,-8.337885610081251,-3.308682740172389
135.0,2.0574202191803805,7.013134683036088,4.955714463855946,-4.5158906031081685,-1.4876678051545087,5.95039435060813,-1.1210697381238361,1.8941147172082162,-2.0194842013104424,-11.276898945268432,-0.3146513490045084,-5.109768881773504
136.0,-2.4741508976394355,-8.416216878407406,-5.942065980767822,5.464382810595161,1.7760766440312892,-7.139035341114354,0.648834165287284,-0.7769223850315223,-5.6771836079598295,-5.3660188046803174,-3.906393205406288,-4.949651478563153
137.0,-1.3440343018496097,-10.851774639568555,-9.50774033771894,6.040765261932938,4.046312749481235,-10.142079560790156,4.758665599035915,-4.156701730969219,-4.272189857436592,1.4369597714686488,0.7119093242542323,-0.3391960423008116
138.0,9.7300337828814,-2.501818411589859,-12.231852194471468,-3.5873543124232548,11.025034008682912,-7.3289382836881325,-0.025116289214566656,4.305768307414144,3.9181818230577163,15.565579513986185,7.3941220713332205,6.340135627425797
139.0,8.396759333348545,-0.8418466226798134,-9.2386059560287,-3.7435408493094835,8.78426562318118,-5.079002821685577,-1.3956438701796579,2.350592888187533,4.965182778696742,5.8536939084366075,-1.720690635465191,2.104100512861089
140.0,-12.731875827409517,-4.486759798513239,8.24511602889586,8.572151028472145,-10.44136949715547,1.8428823053365977,-0.6387248896264641,-1.008406754538055,-0.5339553355701527,-9.509457654067681,-5.407609246315497,-1.8264215810615263
141.0,-16.251477021492892,0.8870280652043727,17.138505086696966,7.730007449480034,-16.724611339106865,8.978184241527451,0.23734779691875252,1.6093499481691205,-6.849725589946347,-7.000107371499621,-2.260041244959284,-4.687121452160484
142.0,0.9585678602457941,4.705262482018131,3.746694621772196,-2.859951178738187,-1.4222394017879587,4.270849022440517,2.1117185808876338,-0.806134203625977,3.871839466110439,-2.832720676303017,5.495144135562619,4.487011242595552
143.0,14.629426917907459,11.560496148368994,-3.068930769538345,-13.124236789815471,8.899725757156286,4.212212995024704,-4.348105892057695,0.9297316428547692,2.790417468232792,2.582412566627064,3.9399141851169714,1.8951329003905464
144.0,11.162457865395764,8.360741362220008,-2.8017165031754154,-9.795813795780013,6.9516689367282725,2.8254159327456163,-2.6993576373062966,-0.023466799325243815,5.054591518544997,12.55032322187999,6.9030769832670265,8.021635242173058
145.0,-16.72649155902949,-7.702376479329187,9.024115079700845,12.252077202559402,-12.831573384127996,0.7081331866088635,2.8057726722352054,-10.67795741584494,-6.10338908369449,4.1935566127042145,-7.287302374440307,-9.325883105904504
146.0,-4.335229383553606,-1.274990437766835,3.060238945787171,2.8362306897700464,-3.7391576108479967,0.8624552120935625,-0.4397954200235441,-3.590639040924464,-7.341260111236453,-13.642709133079435,-10.978642395702513,-12.693202485306976
147.0,15.394253900885275,1.0970634822350718,-14.297190418650093,-8.21872829014302,14.797553336061288,-6.630177131300314,0.28975582722957816,5.149547277733109,1.5244295815354962,-8.687678766858621,10.495581802048232,9.49866719903434
148.0,10.148383527624082,-18.170949736056944,-28.319333263681198,3.95854539589909,19.259404061369853,-23.277396898534068,2.693687406506841,9.959250907859266,8.383027043277147,11.699704600719631,8.049577180494897,6.880736513720775
149.0,-5.959025929069487,-3.190963589558228,2.768062339510829,4.603197784864603,-4.339418985721791,-0.1692183525986959,-3.1573135472259817,3.5024836206760313,-2.405321655730611,6.599465363632945,-8.51718509076695,-3.9620076975359284
150.0,-16.444523392974045,8.017397384278302,24.461920777251958,4.167433195134596,-20.42608984255887,16.198024299553577,1.4807900827201261,0.6714009552901645,-1.247174182522015,-3.1295720813701573,-6.355717569749574,-2.449194774519093
151.0,-15.870096218468703,1.6267553897856715,17.49685160825411,7.159839665452582,-16.649803157398324,9.594948903787502,7.041653419838594,3.2981693429107737,2.401363277042421,-4.256892090675594,3.1838851902745757,3.623367808395545
152.0,5.297580269474116,6.948231229687468,1.6506509602133637,-6.157767259296346,1.7860260667402912,4.331695313328129,-0.41193087460850775,-8.598237243620595,-4.017332200225008,-11.92129263940691,-3.2883591783682897,-2.263985932206016
153.0,15.295860343607057,4.161103445912285,-11.134756897694606,-9.679424917974055,13.183631832833848,-3.5300234502285237,-2.0626858683795364,-11.302916886628317,0.9322769710444525,3.134772883071368,-1.802185289687102,-1.565029009800845
154.0,8.81752552037722,-2.721560831559054,-11.539086351936092,-3.073573954104943,10.148271583153466,-7.087361049489622,-8.540058206943655,-5.106887359170074,6.161872996799072,16.04998391543788,6.88982263806246,4.24385223508504
155.0,3.9014005726305205,-2.5469258438784728,-6.448326416508777,-0.7001536876636618,5.220520407437116,-4.523063869446361,1.627198373852416,7.958951670624375,-0.32650335889908755,8.375860052500173,4.102863404446735,0.18944980074284068
156.0,-11.934549743619002,-4.63974874437636,7.294800999242767,8.34404478944936,-9.654337900980511,1.3135651810531819,1.4967424847519177,5.766633102002151,-3.457834872695206,-9.27547755685556,4.033755241800363,0.7438070567710146
157.0,4.826891711563036,4.7922844375557725,-0.03460727400706731,-4.8319307714604145,2.462072252241291,2.375561130908921,-5.7829433218484185,4.256715290831193,-9.697495055185161,-14.785318501711364,-1.573717091148411,-4.22865729657151
158.0,-3.609813529823033,4.132134287073507,7.7419478168966736,-0.28512483546150724,-5.651080735703052,5.942015042260346,-2.6966411502787047,-0.144898422890543,-6.006132879060194,-5.275421180631077,-9.921725429239357,0.10614136898346604
159.0,-1.9904171257427907,4.658202908804378,6.648620034547156,-1.3598111545343707,-4.298300262360405,5.662988552691189,7.10129065672041,-1.4762925048968885,7.494140868677007,6.5304811928453335,-0.33902354273913105,-0.08246120340669644
160.0,1.1163066121982115,-11.715696565149141,-12.832003177347453,5.351260147280672,6.916577853408326,-12.26413592638217,13.020565580588078,0.13949022002208955,13.72216132497152,10.892614939586718,-0.5757236158648831,-1.7842296683640924
161.0,3.442812452249103,-7.034520820968561,-10.477333273217814,1.7689403541438633,6.984390118468275,-8.75096938953162,-1.62746115624733,-0.730885673238421,8.112955366348752,6.165443281875293,2.8639734542140878,-3.0494333098109143
162.0,-10.323814463885707,4.359879937372788,14.683694401258467,3.035878678659962,-12.552716715047161,9.517193267665972,0.06049763118083962,-4.2056239548032455,-5.39591060040189,-5.148941613875176,0.8569600836426796,6.607261856569256
163.0,-2.094433569177146,-1.572258847029024,0.5221747221480539,1.811919459004202,-1.2717521942241268,-0.5431276535723146,-8.177058538483923,-1.8681885566021488,-9.111978455799283,-6.609806067747388,-1.4710182218240753,3.189958844023941
164.0,3.1655023933505086,-1.4275647362799848,-4.593067129630709,-0.8865903696280277,3.92282565638453,-3.0440923278302625,-6.050071682660859,5.43792223105327,-5.990509613359974,5.122861731332536,4.728048728941209,1.346023000491218
165.0,3.837315920058339,5.5137044011550875,1.676388481096543,-4.689827325092251,1.0514005998439175,3.6245555610135174,-2.8907736641160735,-0.03805628606946132,-3.4923098739676153,2.7789654874850105,1.101228514025684,-2.014838596681115
166.0,2.6318673487945574,5.742025762461643,3.110158413667074,-4.198864806941703,-0.263847481907757,4.442888561841322,4.740507068424802,-2.7173082513491833,3.938739984901468,-11.263293851446326,-0.6734772236607046,-2.87313346255013
167.0,8.457747594787325,7.523547210737682,-0.9342003840493474,-8.000938155692213,4.673241961492223,3.3033903764662575,2.3029854441314237,-0.9957582428263306,2.6900132966245685,-6.114042792957052,2.6926266624867043,-0.16329028396608125
168.0,-1.8131991172514805,-6.945779809064755,-5.132580691812883,4.449105491974615,1.7151342826051854,-6.033197739851383,4.019528313425168,1.6492408132895222,6.049542782281209,0.8689652675078323,-7.061883148971159,-6.8191366335819295
169.0,-3.3574032112162255,-2.960591429676815,0.3968117815396739,3.150515853332925,-1.9033161948187116,-1.2737898958932226,-0.41886780963352743,-0.9222339138935658,-2.9280961290015552,11.738069173614072,-8.436058460850683,-3.1256746933191604
170.0,-6.708116713604077,-1.5045989268080406,5.203517786796088,4.097437342280484,-5.908092973376911,1.7845075297184194,0.9390188972121272,2.0788498192687306,3.1953423593760197,11.75951538463069,2.43760398002322,9.792890404594633
171.0,-2.105315908200992,-8.824968684676033,-6.719652776475261,5.4538206752916984,2.2699527355531695,-7.750686543891241,-0.7216715970296513,6.025733527272813,0.580706374314645,-1.4733456085957881,11.577464526606553,9.812955177934366
172.0,-3.650992847597921,0.32445424908584997,3.9754470966833666,1.647026032282327,-3.8572477395627107,2.1803137298743027,-2.633257977368848,-3.444062074286994,-4.39883665667402,-6.818690233437545,3.5246876912050427,-0.4715090597877065
173.0,5.409873952300868,8.701890101452532,3.2920161491512654,-7.079297619679546,1.0872318813711135,5.957325907516723,-3.9012337866386875,-5.463869278034648,-7.169263088156718,-11.329887600728352,-4.656139822152722,-8.695396042631291
174.0,10.52230358569853,6.732074291700034,-3.7902292939987534,-8.580089459821409,7.17966115047181,1.5181059232688434,-0.2551147095034969,-0.8487002139177351,3.9609712080349553,-0.22411497183509965,-3.3449904498547602,-4.082049203120828
175.0,-8.864986715946916,-6.187322344125581,2.6776643718213715,7.486905401516765,-5.750461817917514,-1.7797612306179222,4.1158411161262265,1.833651337789649,9.079563483291354,1.011175997223627,-7.4584257048914875,-1.7037161607204339
176.0,-3.262633027799145,3.3208549330445667,6.583487960843966,0.0049455915659798455,-4.980810868918207,4.931655547001972,-0.05918925728014823,-0.042691379341893154,-8.411820471414341,-1.3858279722001188,-4.27956156156214,-1.963245915386583
177.0,9.384577842229998,-4.737810730477716,-14.122388572707433,-2.291906180221565,11.776893199542618,-9.37041500735047,1.9069051693467465,1.957772456657399,-2.9706300307708213,2.4917659215326293,1.1327929013488944,-3.1603180451645785
178.0,-7.867668260423498,-1.8655147961289416,6.002153464294718,4.819249731397106,-6.907774067589812,2.047286333702218,3.093324167203226,-1.4381465507464162,5.755595217094772,7.718392973574644,19.880170813154205,14.338705235232547
179.0,1.9360919869402258,-3.2830207968081613,-5.219112783748418,0.7061111148552044,3.5297541432661697,-4.277317155555155,-2.9431667404522273,3.4974058580364735,2.661394540029251,10.1804224983448,11.06408425343354,8.667743702017532
180.0,0.3514785544457165,4.212285036071543,3.860806481625776,-2.326923740648793,-1.7212368479519498,4.002859113471678,-1.7411808942432483,0.38897713626024644,3.6586591226189698,-1.6103047408982736,-4.639835239646301,-0.4094098190294502
181.0,-2.446636116776628,5.3147887518594885,7.761424868636073,-1.4006348065645788,-5.070213254042657,6.575342766993472,-1.5849231084337996,-2.393345622691188,-6.127480025903867,-8.405576194201865,-14.07544685782815,-4.5227892154593565
182.0,10.724717508842827,-4.996823230192377,-15.721540739035252,-2.91128215292889,13.176332948208426,-10.328017911967835,-2.696092948861082,-1.2554416475809107,-1.6392256730642485,-2.6964668032598134,-6.9512335856601055,-14.810373823137605
183.0,6.46043362104604,1.6047312948839163,-4.855702326162269,-4.004651588342702,5.60807853328186,-1.6756487537278268,0.09788014087896713,0.6748154645081643,-1.983106648245581,-7.712538718927327,-7.037481161426472,-8.944810559390524
184.0,-7.130022402932222,3.9168479631794275,11.04687036611146,1.6303188985830313,-9.062347552685951,7.512055193243135,5.154762557506257,-2.2836831681288663,1.642897350242399,-2.9116518604030572,6.040948245930782,10.409922868181003
185.0,-17.786346893161898,-6.40434456523969,11.38200232792195,12.114957949330808,-14.558038369019041,2.524186942528484,0.42165669950235163,0.08334623139848141,-1.6365204041695625,-0.050566823361541335,-3.2887687556936696,-0.18593298181269446
186.0,-7.557644327479911,-1.016358777731511,6.541285549748256,4.224427036078523,-7.019108441794751,2.726011549523904,1.7502291713386104,3.4573116971630475,-0.6116616144349527,9.900026234853009,-1.6589731418454532,3.456546483604851
187.0,4.321253953854382,6.871914527578662,2.550660573724387,-5.582776783722269,0.8452436245345778,4.681223439842644,-4.637075618528247,-0.6775700820116615,0.8004432282543471,6.037658636606903,11.612557306336079,8.107216873962042
188.0,5.617510043777122,-7.563713259475261,-13.181223303252144,0.9858499086214634,9.44865868295818,-10.320062032900713,4.353271145062939,2.473334213226582,7.928039043467608,3.8628610537032424,15.901437086912999,9.773520901921238
189.0,13.846332606498715,-1.878065322101413,-15.724397928599874,-5.97101324728993,14.765605317912158,-8.827748043493852,1.0508961952848364,-2.7193779732209906,1.3587053513877891,-4.987330127754223,-2.962715393824139,-4.382639748126305
190.0,13.783582678299648,8.229551861651325,-5.5540308166481545,-10.991645503409304,9.654514841415944,1.3072041787033104,-8.136903753403441,-1.1988951092594387,-0.21501713605849315,-5.365959954443582,-7.0049787820730405,-9.883563984176508
191.0,0.297824872833365,7.941376537673728,7.643551664840521,-4.180278950517962,-3.688155378186425,7.833984759081832,-1.3943137793341265,-2.815445489915886,-8.855883816029184,-10.166931565902495,-8.689639906814023,-10.297965698738306
192.0,-11.824936986903115,-3.91759998081709,7.907337006086059,7.89376689235504,-9.889089386359336,1.9503306207372075,1.490289803843704,0.8109050028946585,-8.777810024780921,2.169510016275698,-5.091038856059432,-5.5159986997595425
193.0,-13.243919675293306,-15.780107634448129,-2.53618795915496,14.540161113660037,-5.310300808260578,-9.129851760459925,5.674422606772344,2.8566953384169564,6.441718211951882,12.75318446234014,3.636600387661942,5.206570973732107
194.0,-3.28764331642126,-6.9370832158256945,-3.649439899404748,5.068455989070152,0.13267879521747794,-5.268199677532327,3.9917937380251924,5.353781063317853,6.9332438451676,8.43651897646571,7.571185450752338,9.8195909424946
195.0,3.577428112306519,6.856077388220618,3.2786492759136907,-5.174677141953888,0.17029854484964724,5.091948764899562,-0.26246335811272337,1.5646594616273868,8.842974810808986,1.1604894327804356,4.224520362197731,13.673825768609893
196.0,-2.5582627984373985,12.86024150062376,15.418504299060798,-5.180859213282671,-8.970492950108298,14.086423760576022,-5.260906953046081,-5.019074195435843,-6.182117088855126,-11.296588900133187,-7.718094950235397,-3.779854390540991
197.0,-4.978915759002084,13.594324558920164,18.573240317922153,-4.253779077719165,-11.753644866880627,16.110897656657432,-0.9249441748995424,-6.822132606132277,-6.666429778133754,-14.874796219835332,-11.146805806059195,-13.491248234395782
198.0,10.846244558655442,0.8534939042663865,-9.992750654388857,-5.872735896327783,10.452296797208538,-4.62112221734428,-5.675947709431774,0.07024475538331831,-2.5261097083830544,-1.3379313736736869,-0.8138448616989291,-6.9665724823811965
199.0,6.609375726650462,-11.525582729987986,-18.134958456638113,2.4333583110900303,12.33852204591598,-14.80435253157265,0.3621283186853368,3.178747197912534,-1.035065922467093,8.565571014779973,9.696617108041274,6.714049620724711
