Time(ms),I,II,III,aVR,aVL,aVF,V1,V2,V3,V4,V5,V6
-200.0,-2.9038074302908274,-0.7578332271554973,2.1459742031353084,1.793110189455756,-2.5208881162355303,0.7230219253411421,-2.2989856072299095,1.104665636630577,-2.62707375238527,-3.301074437746051,-3.8771493694621126,-6.353403611118854
-199.0,-5.568423613108125,-2.015052642666006,3.5533709704422076,3.8338743307588463,-4.555043971281483,0.7213763066700211,-0.1045993409740216,0.058396947710462,2.179482301879113,11.95142475768709,3.99094377107393,0.9163326236636467
-198.0,12.252888541105014,6.070148313648607,-6.182740227456337,-9.196693642125158,9.219917585395109,-0.02521871890446792,5.652413815223575,5.542563344585143,12.895367179209371,15.793768917358154,13.123372938511045,11.548654045207607
-197.0,1.560174549172256,0.18320386640634823,-1.3769706827659127,-0.8260094115543519,1.4625459040958815,-0.6451052945638267,7.143657268240732,0.9552677810539707,9.06422235499368,-5.73056039181185,5.375140381321623,9.852311888431057
-196.0,7.221021145840347,1.5613104992922109,-5.65971064654819,-4.421701506037537,6.423513876241279,-2.018079768433148,-7.330291939547282,-3.9717642976530714,-9.476216561729142,-9.603404312951993,-10.271701405714497,-7.99934338743551
-195.0,0.0881040804317531,11.605988093135029,11.517884012703254,-5.796676969893569,-5.66482701066534,11.596123740534683,-1.4751074479410362,1.6765938125006756,-3.657213599422671,0.9665593617417763,-4.89964338962178,-7.171498312091938
-194.0,-10.01673587645544,-6.019224416268346,3.9975114601871082,7.990374025917459,-7.047327963519664,-0.9710926328470775,-9.865283809714683,-2.504440340668519,-4.4479713338895355,-2.527383256458264,-9.812060482153065,-3.15440747671975
-193.0,-5.685883177530081,-7.333438351317076,-1.6475551737869623,6.480880421256131,-1.990991616093981,-4.5228239382561775,-3.9754332113762665,-2.0334765982430394,-1.3345720193798853,-13.942533755132759,-3.6697302378417227,6.927212425917894
-192.0,-11.572352133712624,-6.4310319501506825,5.14132018356196,8.970174478386182,-8.337445531664487,-0.6716644510281533,7.55567457359224,-7.77904377278368,-13.688985023541345,-13.837738527525554,-1.7330890508078736,-5.359669162996045
-191.0,-0.2516744565365494,4.422222759285531,4.673897215822152,-2.040953238189206,-2.5289572463281713,4.523734723803392,9.861403721449705,1.4393398449045953,13.062471633218527,20.638615645180657,10.519981164069819,-1.8032519506015494
-190.0,3.4136947603186267,3.5702430949914383,0.1565483346729617,-3.527672288420599,1.6369007921822638,1.8378798205119227,7.883788099955269,9.300721228276094,11.988226776781726,25.196308151985722,21.785102667644228,7.86987507833936
-189.0,10.471052042091436,5.062027897452234,-5.4090241446390195,-7.721868433712395,7.947487723687212,-0.12428999393447837,-3.36182961794941,1.3462973717626818,1.9038230021913085,11.240690025896475,8.82982489821064,5.760185105402544
-188.0,25.114193018016945,8.922783709981509,-16.191409308035276,-16.96942119911926,20.663412883623405,-3.5901606185211445,-10.82888974356939,-0.3263971689860816,-3.2096897767356234,-10.420960675211058,-10.59478562689237,3.260923303569622
-187.0,6.893153510959852,-8.046770285565621,-14.939923796525441,0.5525909150204384,10.934316578324633,-11.532090667035087,-8.591593166558845,1.5670715619879758,-4.06374599414249,-23.64078488925882,-19.554297759894887,-10.853117271188957
-186.0,-16.078471865318942,-23.01477322677665,-6.936301361457798,19.526358673050034,-4.543256827389449,-15.016126431187452,-4.298056125324652,-3.6975835076084045,-7.939231768239425,-18.395084717997477,-16.957480498235572,-13.483638677833738
-185.0,-22.433188577053926,-3.4833368312608206,18.949851745792966,12.938266891396651,-20.731619514923416,7.772372820270889,12.950018861732566,6.543520540408813,0.5801454141154654,-0.6893955735601196,-8.222102393516856,-10.54540787337963
-184.0,-1.8742091165939012,19.129326379110424,21.0035354957042,-8.651523266116413,-11.469910995697273,20.10886730825897,10.688228601798215,4.473591852028141,7.356739310670003,18.979437263023264,15.128207781885,10.855127858571281
-183.0,-7.4097478381222555,9.449221870852567,16.85896970897469,-1.0503827559111283,-12.081524800883201,13.122306380885883,-0.7900080412227073,-12.050611450204043,-3.204939313085605,14.863526102373866,28.75724385262134,26.483621665915106
-182.0,6.291092883573752,8.288172632329365,1.997079748755473,-7.2479349327909635,2.1210898239323557,5.115107743083856,-8.182502257034708,-16.392356835292386,-1.7360866601075167,5.988029522507212,21.628024521152927,13.830717431234874
-181.0,8.269662526950658,-4.626683635297624,-12.896346162248427,-1.7828888353595467,10.552054859208823,-8.786235727309132,3.993249068169294,9.38726435931472,15.4554461431273,7.915024872729974,3.0537622128955775,2.4133800299501837
-180.0,-0.570026039128642,-4.403471634789841,-3.833445595661237,2.5271543482289065,1.6707270331095678,-4.063738894398501,-9.704627069380397,0.6392564042415776,-10.867134534821098,-20.600379310379914,-31.20791423956857,-21.249358208323414
-179.0,0.4490371249047591,-16.123642257457018,-16.57267938236165,7.805044644813577,8.539442640646474,-16.37364062581959,-4.589078306238398,0.2314037392069972,-13.172624535878064,-15.541184455050406,-29.04227859431529,-24.420097454095952
-178.0,13.305071685753605,-7.32602196761372,-20.631093653367067,-3.0139280288702945,16.908248807019945,-13.928507017359397,7.078186705778063,7.72332237134073,4.394953433593212,-0.3053303985438731,-12.343927885789327,-11.122412655653251
-177.0,0.25975150960257753,3.291870712180261,3.03211920257791,-1.7938463499262904,-1.373947799852968,3.1289265028051885,0.8505928735633987,4.458061274099194,1.6618549871599069,1.447384931252586,0.33692779552541685,-0.7344224126716039
-176.0,0.7165264155407671,8.489663342292827,7.773136926752191,-4.618925939773834,-3.518179424805348,8.093688080697241,8.414684701192295,10.982243946349932,2.704896238526424,-4.226730340962006,10.00537745345251,7.237944373504655
-175.0,-1.3734713898901445,12.033648642542344,13.407120032432498,-5.270335217789942,-7.377148984348324,12.757672729970283,4.517848639080158,1.6050690813510031,9.195884065541515,9.805755326171903,29.324564294230456,24.806911245918286
-174.0,-5.964460510509958,13.952644456048956,19.91710496655879,-4.0211103317220935,-12.920146056936783,16.891870069112123,-8.46602970262739,-14.770769287404898,2.4377289357887237,15.97435355375806,29.397188220801475,24.415613921597675
-173.0,2.5765533203375384,-7.5576158195904455,-10.134169139928208,2.452581735527563,6.307442735222523,-8.808432804511176,-12.083138297896435,-11.244188096605868,-3.9057923651425948,5.3532782845248965,4.930824380531048,1.4461620610548405
-172.0,-14.537671606104638,-20.19126963281159,-5.653598026707273,17.394187547726197,-4.400697742048962,-12.879696474568052,1.2382237414170199,-1.7993696547340203,1.0257183189272228,3.7551467895900856,-23.282305791163324,-21.354507277450487
-171.0,-0.46287151645172653,-9.787856140733716,-9.324984624282243,5.146618102175134,4.402116232648421,-9.584275617939706,5.231205612429761,4.1965790532087075,-0.5332491667360029,-3.85899216613503,-20.196381543898497,-17.221937151799025
-170.0,-12.51896831713967,-1.1834111832249103,11.335557133914858,6.868626754975419,-11.951455911246839,5.057784056495757,5.708161927714229,-1.0118719921929795,-9.413177996502185,-15.91786625081648,-11.88162238494597,-2.3418962770523137
-169.0,3.6880297537881765,10.12843296105492,6.440403207267277,-6.967940278309789,-1.321259368003194,8.275409209902389,5.332847315775252,1.9988102457198371,-10.558363780364159,-14.343850416761427,-5.080007394082704,-3.9128811039804052
-168.0,12.091252413602685,14.925297120776206,2.834044707174083,-13.48278852186401,4.6011978478342686,8.878324087155717,-1.594357022199763,3.4267152554729554,11.464549342898824,-3.875156479527223,1.3251655354876126,5.841077712448941
-167.0,11.314284160917065,14.47018229938227,3.1558981384654357,-12.857169690700506,4.045501545091387,8.817058690907926,-3.650032977721195,-1.780469517949916,2.1389855274832836,8.988583557824219,18.224943987420776,15.829822991112831
-166.0,16.94230773865101,1.868605375026985,-15.073702363624065,-9.438831197271266,16.045715585171937,-6.595584520037636,-8.756092291373722,7.6020459695778415,2.516666414073474,15.819527594035412,19.473619464430158,8.968746401902095
-165.0,-0.6301622794238679,-14.610019989929436,-13.97985771050578,7.595242815147438,6.705655836562057,-14.287346214477628,-2.8600445752009205,7.961094184338552,2.3126466174965463,3.984780821389176,-1.1183493609719957,-1.6428563240255194
-164.0,-19.8002333629578,-24.0815665016796,-4.281333138722035,21.999503763045407,-7.812908934182871,-14.17552426335814,7.155069172253109,-1.0080757449573783,-3.32546768998189,-9.814924146884804,-23.683955420446097,-19.60524606874014
-163.0,-13.79366089084605,-10.193728100155761,3.599932790690178,11.973390151090914,-8.675458591634342,-3.295080991325878,9.313865421971025,-6.1161278005096005,0.03380080041860106,-8.128609151661285,-16.65255650338512,-17.284768309877755
-162.0,3.8409536717810724,-4.901801267434129,-8.742754939215164,0.5053928113132269,6.310331140430346,-6.827134711557886,-0.22043358031348426,-5.754393161669993,2.059849205106332,2.8756794869296924,9.239520011241863,7.809380243864591
-161.0,30.653577626034405,24.186864892614462,-6.466712733419888,-27.452910451295843,18.576086625570206,8.846235938825178,-16.213192461375485,-7.301929304790928,-6.758430300062091,5.179604948133795,23.547035935828394,5.773018468158259
-160.0,-5.864692917392132,12.920957739232762,18.785650656624718,-3.490086248300557,-12.390762142665913,15.829091821008394,-3.4126268596955,-6.07040572439827,-14.292133455049678,-10.595465201034093,-5.412384076849916,8.889848860488545
-159.0,-36.98117819067414,-4.934388890938735,32.04678929973504,20.99015600690126,-34.503811619684825,13.600578962187058,13.182949443116856,-5.452526328456098,7.223043727497256,4.881220339477134,-13.782461902402794,1.675269011994228
-158.0,-13.850938696293525,20.38567684716105,34.23661554345424,-3.3152173052285816,-24.036036525260858,27.268774405876822,-2.1005320285483555,7.753904471723021,18.49355330629016,22.70048999596517,21.574452146112527,20.955264717516357
-157.0,14.919748612798767,12.3928583155409,-2.5268902972579728,-13.622334527436246,8.730336914713105,4.965239564654926,2.3781586335905605,19.96998632842636,13.354197365155114,14.91359132394295,26.495858585710735,18.11405926816944
-156.0,17.482891201774976,-16.742054121486223,-34.22494532326072,-0.3301566102372684,25.86284447550559,-25.450549772006664,14.907899652659546,20.539877516633528,3.1006571513616183,-14.819681596540224,-20.660134228471005,-24.93276830797125
-155.0,15.847156135303639,-32.464824222615945,-48.31198035791874,8.277438214592191,32.09317217244625,-40.428840073205016,-0.18043975153142222,-3.3821959537467334,-10.526081380001287,-25.004998180987972,-41.858288636552366,-40.534057733715656
-154.0,-5.481486837125585,-24.528246700230355,-19.046759863104544,14.978837857794119,6.802869827398137,-21.81911189468386,-10.899265225823155,-21.92656257331588,-22.678132985910437,-21.639228713003547,-22.21101567516262,-19.820144549284443
-153.0,-7.699030254560661,11.057211530032541,18.756241784592902,-1.7030185504498103,-13.279004375188554,14.964211112527265,-7.823525883426559,-19.779909411213698,-17.854236075741305,-8.404575370837081,14.980422937360666,15.679865009450106
-152.0,6.330751839163744,22.123964642369675,15.793212803205464,-14.252400149691084,-4.697540212198209,18.946887762590706,-13.70378639954685,-5.17555266230349,0.6345008143609743,18.642617067757204,32.80231061440514,29.321059041906015
-151.0,22.77761492987616,22.741296433620562,-0.03631849625602257,-22.70863965539656,11.366770988973077,11.347396630792613,-5.962970730944067,9.94931587278008,26.22473546066148,43.86836843467875,33.937906822931524,25.261807722975725
-150.0,-13.903894389841806,0.8134703150659011,14.717364704907311,6.593297583369305,-14.346972791019793,7.762400881127345,6.205176265488486,6.687724346395432,17.237886819617483,21.52126342289376,5.007374647342015,4.998512959982804
-149.0,-21.623937561882094,-8.89756111762111,12.72637644426081,15.228940399212714,-17.12875008107395,1.9083908752859848,16.750057920592578,10.30355372822713,-4.35236715507005,-25.787271423595172,-22.43067844764954,-13.549517765184891
-148.0,-17.96757201499645,-18.303928869830365,-0.3363568548337552,18.104698218919413,-8.76394346131952,-9.33354537094718,14.731024324339979,4.755280324679649,-9.80764966852369,-30.138576063805374,-29.553007720413493,-20.96438993884474
-147.0,3.636936235648979,4.7015003037714616,1.0645640681228397,-4.119621646553556,1.26588054228491,2.8595852940929145,0.5215168520050311,-4.81659103780915,-5.313945218703949,-12.650020398725518,-11.042059979913383,-5.1320721802823055
-146.0,-3.314775654616067,3.1360257358640737,6.450801390479935,0.06192373059444023,-4.89568550337478,4.838178148143912,-3.5509460252294374,-5.952498664175209,-3.624955989986703,-3.47658815860124,-9.841326134974656,-9.802730039929063
-145.0,8.932642394198407,8.544054358939047,-0.388588035259378,-8.76556049069825,4.654036636960345,4.11328099540226,-11.258299796999438,-4.246806612015086,0.9009511862800235,12.106121399619298,11.070892367590314,4.623259046609168
-144.0,18.543692192981176,-1.962909356436863,-20.506601549417894,-8.240715231596525,19.52201059400711,-11.284990042173403,-0.034499420183156104,3.577048474072005,7.913073224164568,22.010403994725664,20.381231800364034,6.445640706070196
-143.0,22.32788271733459,-7.261133536556782,-29.589016253891405,-7.566132573943769,25.954776066621555,-18.401619234157522,-8.08593617589301,5.764085173279232,3.1633535553308096,12.780539314847864,20.274073765975658,8.98208191616244
-142.0,2.3074098440466972,1.039610775206743,-1.2677990688399863,-1.7106526809463327,1.7794075811541514,-0.09461747516385621,-6.310169492356896,-2.0753929618096056,-1.1921023965637731,-5.837710072976236,11.04438515870392,11.20385449054789
-141.0,-22.530814271221654,-2.98896171823662,19.54185255298482,12.797944344368068,-21.051998366822865,8.213372836663124,7.386848567070132,-0.09181176652689393,-0.5722421333583659,-10.516753192176635,-10.546649093624854,-4.365989047274441
-140.0,-17.4107990171625,-5.45149456145554,11.959304455706928,11.467757152399674,-14.630729725466082,3.2656525383333275,17.739655223761847,4.140205155115184,-0.1015223830803435,-14.526595233066017,-30.49349443554852,-2.7730219518640546
-139.0,-3.9165768845177347,2.5484243121886885,6.465001196706499,0.642966438125895,-5.223627971476427,4.514911793594183,-1.8531544428593207,-10.13051639359075,-11.131777505265532,2.997770350511475,-3.818236030604666,1.4521670860862725
-138.0,3.556826230039216,2.6128419587502854,-0.9439842712888762,-3.044505173124026,2.289407657179698,0.8405509764921328,-7.557030905656018,-4.479540299153376,-5.2617293594373695,5.701502264451281,9.571541668735426,0.43701353783882624
-137.0,4.045521432265713,8.94334979103941,4.897828358773694,-6.530272192546576,-0.47083255734753515,6.927209097837988,-12.91872961822537,-10.179936228958928,-2.1761526781341414,-5.652022047439667,-4.145199431505101,-4.893925767314687
-136.0,7.365014857385919,11.978836483714272,4.613821626328439,-9.628554683655297,1.4066520386185548,8.30656849826831,-4.400805905987383,4.883284435882967,9.384911287915806,-1.9727938319253056,-3.5148831148511035,-21.942933799104093
-135.0,4.694382148580191,-4.308026771676403,-9.0024089202564,-0.23163783672814287,6.799293314895859,-6.638534936419897,12.865645749586713,16.014555128115838,17.801922339643827,10.243471774266695,8.04471815624734,-8.818784894841883
-134.0,4.638627126151109,-15.544494396072635,-20.18312152222333,5.4077603316827085,12.440402652332203,-17.917653214316147,9.688032016884462,15.753440249372884,5.787467962954403,8.63729833008086,13.20436807838783,18.5657981968006
-133.0,3.4201963833465485,-6.189224633400393,-9.609421016746545,1.4091765166447923,6.5452546260002284,-7.865841889047461,-0.7437593050123752,4.293052885639466,-3.5284751585358896,-4.518313019468143,0.3441381799525196,21.31175420999023
-132.0,-9.986332090341422,-0.743647469088824,9.242684621252621,5.381022910449731,-9.661072762646663,4.2117880580040685,0.7647278395764562,-13.795630019150618,-17.927199425028984,-8.377713935808869,-2.940572943065792,7.658609223539695
-131.0,-13.274136486406565,0.8425658904359415,14.116702376842031,6.226033189371009,-13.660890023851428,7.526055447059453,-2.065018740354758,-14.803973055865653,-7.201582938198072,2.9005114275022974,-2.4108674352278516,-2.9633170462507907
-130.0,-1.7725837977329144,3.0589069119262255,4.831490709658306,-0.634256942062386,-3.343533660507795,3.9154157817425626,-10.923108071468825,-12.066201648502204,-5.227588588591699,-0.5582001716328269,-5.349352279688313,-12.152862788836892
-129.0,3.5226293453869153,13.005294549216396,9.482665203828747,-8.251907041770314,-2.9398978057888363,11.292323113639727,0.6455025946737729,0.8446077573119464,11.151546453996833,-0.783741817177058,3.9936894233787936,-4.518790294486097
-128.0,10.661978373694305,7.926662053331536,-2.735316320362928,-9.275990721188748,6.662722590964742,2.5616482522454396,2.5610896589291974,12.288779831229736,9.496890786006606,3.5028835564913816,0.0685592502956267,2.609087132542081
-127.0,8.150385543972552,-0.9210943050712639,-9.071479849043259,-3.6677111739969392,8.655873769150878,-5.036134777928974,-1.6765624358145925,9.796444631367212,-0.922971947610689,-4.231399433123968,-4.218184766136143,-11.800988579252502
-126.0,0.975603100044987,-12.780597740177555,-13.756200840221847,5.8561129430878545,7.333092362105079,-13.23610924754948,-1.1192029238920649,3.017445232877378,-8.819141829347519,-4.066424942162943,-12.513407045991443,-8.42398467190612
-125.0,-9.42890836537927,-15.582792373872726,-6.153884008493025,12.543416283830068,-1.5921346822784361,-10.841660132310423,6.181767899741241,-1.6719895400420457,7.008190315456039,9.53696591251473,-2.0445503306779242,4.656759206809425
-124.0,-9.963325032372634,1.1484691857538873,11.111794218126573,4.448879377347822,-10.573101763756787,6.0751007702277935,7.305041195319056,-2.1486022492476184,12.682291444771549,2.543655193158939,14.662174377897772,16.272199406489175
-123.0,0.13226083769965946,11.560104594111218,11.4278437564113,-5.88026279839916,-5.686445004341272,11.518321062535792,-5.777691480763291,0.3468452342598405,-12.638743474012388,-5.1014337688021225,11.090147677138333,6.892827089462335
-122.0,-10.791674279558366,-0.7430199333356251,10.04865434622242,5.815119190013817,-10.3826951950605,4.6811721093758605,1.677466738529528,-3.103655417150714,-5.877365053384759,-2.3161946884536224,4.03865054980382,3.347228336450419
-121.0,20.20474915148175,6.430186155015814,-13.774562996466123,-13.345292754824655,16.948025220028903,-3.6378449832656328,-7.106520450328399,-11.065898572406793,-4.954263418461199,-8.333559452983042,-7.068750467190814,-8.965046650470727
-120.0,7.449608321018465,11.393670467879055,3.9440621468605563,-9.44640346604723,1.7931965134278078,7.630287665262236,2.043137377657739,0.43643294442185887,0.3531645169854136,-0.3664455458930864,-12.185339333387859,-6.858338346237068
-119.0,7.679956568071553,-10.012285377467272,-17.692241945538697,1.144145310604186,12.733612371822762,-13.887189226858931,1.6625111995494057,8.439482253629887,8.166055075328995,17.357574094940748,4.336193334731536,1.0820922951117824
-118.0,-4.43261426412721,-6.726712853310795,-2.294098589183399,5.638629809156873,-1.0911338035485745,-4.544863552868307,-2.9488668007042946,3.2746341634656826,3.138785461852641,7.223792441143536,2.982572230246998,3.406392865093864
-117.0,-14.396180300654969,-7.613161955857478,6.783018344797613,10.986354420576976,-10.60265499113217,-0.37313731371676706,-5.476252119518253,-4.699591282546849,-2.440313164200224,-18.438108521865384,-13.365701502821665,-6.986782013913281
-116.0,-7.448982825680619,-0.10712631799013472,7.341856507690466,3.7599554896358187,-7.403282597723683,3.6554818258109174,1.5005949908247098,-3.391495946898433,-5.132540269149294,-8.53674429740845,4.075192781579066,-4.06992887193844
-115.0,1.8646666112552541,3.994276115245057,2.129609503989708,-2.870546547891081,-0.14088160605169087,3.017566919771729,8.082851517726477,10.39491369518931,6.530107815322518,13.80004883330583,14.137955960875907,10.639993168082896
-114.0,10.057379318677112,9.193270205485238,-0.864109113192066,-9.649440169258169,5.445821952143113,4.196202635582705,0.5984540624366037,5.3607161886363786,7.323458663934401,11.213657238674946,8.428097667860577,11.107208081452043
-113.0,-7.424457324010225,6.813512090822411,14.237969414832463,0.27443515217235426,-10.856770012688852,10.555554248340199,0.7679829282829684,-6.242808260522988,-2.1614323867670002,-8.195031891464009,-15.034569440314137,-11.77021223825709
-112.0,-3.5333587269790936,-0.04693081724213943,3.4864279097368467,1.7504369542915899,-3.468182060269729,1.6691535059886884,1.264456561332906,-6.6616539455055355,-12.769834723022317,-8.946630935684,-8.292494560732674,-5.503449993664039
-111.0,0.6045796514807982,-15.03725504319237,-15.641834694673157,7.24677534725362,8.156097632810875,-15.313812848746359,0.6987538003507361,-8.268763216584865,-6.540840459257936,0.18990236276026806,4.424915301779793,-1.106244925224607
-110.0,10.282940318131402,-6.986176501297998,-17.26911681942932,-1.6243228434739936,13.72648468720493,-12.18419062728406,-3.460967754469406,9.340286763401798,13.514755317172185,-0.1459278348724199,2.169259608612175,2.7615190068927253
-109.0,9.739460224002617,2.450034376471958,-7.2894258475305245,-6.0732311539823876,8.545700025082654,-2.401501267470337,-4.289510268128655,4.151864932489013,-0.3745044427640343,2.888693687594678,-1.9520166143734046,1.712023873615558
-108.0,6.955956606804734,11.303183609928887,4.347227003124275,-9.106388948781062,1.3419941970675073,7.8403111150173554,-5.122746161865518,0.8765162399845376,-0.06034552799447157,-2.7080262033237097,0.7816476521447242,-0.9658514620558571
-107.0,-10.640648128521915,-1.2213522054429005,9.419295923079048,5.880359722072065,-10.063242335106585,4.113483986037405,0.24309926254125447,1.1466313357741416,-1.4919139686029939,6.912545571544113,8.412936956558616,13.034803483441344
-106.0,-17.829915971519856,-4.610036889683906,13.21987908183581,11.175769627003742,-15.552028030163472,4.322322918337767,9.511427532040372,-2.932848895803856,3.5226277536986155,4.5978804547547885,6.224028893270612,3.9059060574163618
-105.0,-1.4156891290501896,3.2603333386286972,4.676022467678635,-0.8817143105420673,-3.070913617753911,3.913109097767038,-1.8868887734125148,-8.919085154712855,-8.193763888801177,-9.019508071035693,-7.306926375695378,-11.166000708053657
-104.0,2.4867847960506393,8.273061113952581,5.7862763179017,-5.335106916503366,-1.598782509800532,7.061770983811196,-1.0438917475112732,-2.4882895567964076,0.28397177720669875,1.573415329042811,-6.700679205546685,-10.678656269594747
-103.0,3.572287178111222,8.6491180440158,5.0768308659044585,-6.143162349389497,-0.78658103972746,6.903560680151472,5.6857746597413525,6.044967661131193,7.056366321782324,-1.0093002794608168,-2.6689705461301236,-1.7153860044939213
-102.0,6.15431068300839,-13.158147194752488,-19.31245787776088,3.468016510617843,12.769764650729936,-16.26722151349791,-2.3456860898415157,7.17902926471678,4.031351477575118,1.7801988479593476,-4.636033072703458,-1.1193310187025665
-101.0,6.985703424826095,-9.82557310337239,-16.811276528198405,1.4609652737012677,11.849184334956973,-13.348122102376081,-7.431440995279945,2.258888856004952,-3.6046049215155875,0.6413985735993148,1.3915784285141246,1.7528459465031792
-100.0,-9.37859370174837,-1.7426280428951815,7.635965658853273,5.517844710223611,-8.481481545828466,2.914518120952609,6.762449510820948,4.359611539773949,5.175585346361403,6.784404196958906,11.738752196486535,13.210288540202392
-99.0,-2.598451146168722,-7.84478901581372,-5.246337869644956,5.252749732498067,1.3503197044563593,-6.505438890683855,0.8508064849257597,-5.828713606577497,-7.783428869875273,-8.08036715379304,-8.876540031358887,-2.938213488728083
-98.0,6.395586636372283,-2.3811005912486536,-8.776687227621,-1.9795432368528565,7.616686593747934,-5.547674264784517,-1.216341989811246,-6.780979718991695,-6.033102326678016,-4.3722698199276735,8.878935657535674,4.191782716085866
-97.0,2.604984769962116,15.683934675895543,13.07894990593328,-9.19687113037773,-5.2793592187916945,14.403207914399085,-1.8157656646975004,-4.335823550840402,-8.545604835685864,-9.451734593017745,3.835968718137595,2.865513293327637
-96.0,-2.194341491355679,10.667076953866106,12.861418445221643,-4.209435010171973,-7.565254143402372,11.698918121595852,-1.5579071249912024,1.39703759673688,5.252248613723422,7.131843822606285,2.137030495737584,-2.5890618994172185
-95.0,1.21683889421795,7.074172184998646,5.857333290780544,-4.116792340396692,-2.27670426780694,6.473183455494147,-2.627483069217029,-0.23841748080179048,12.41914227842302,15.396261531190481,5.829119104393037,-3.767088177205392
-94.0,-7.297883659809533,0.5285017938341595,7.826385453643586,3.336517899776907,-7.598839365348492,4.182064734863819,-3.1068072497979626,2.0520635516116164,5.441720749921665,0.08023662252799824,-11.75083963207103,-5.312541732512424
-93.0,-6.7696117672657765,-3.9368454564434443,2.832766310822265,5.384752607616517,-4.763748547279196,-0.5467133564554336,2.609904060117652,2.4003816417944472,0.44106837895850015,-5.487923201227018,-22.268482494136446,-9.883072634341387
-92.0,5.872315185494731,-10.023046803502627,-15.895361988997333,2.0276727852074474,10.83645071335707,-12.949975170731529,5.5650067738666475,8.003748526563216,-3.6460462480826634,-0.7575623985939917,-2.1339088069946612,2.1328341890474882
-91.0,0.08594887542866125,-6.157722691418825,-6.243671566847317,3.0652605385930465,3.1906765246447337,-6.185410216365758,7.844580845880276,0.6938594483530842,-5.140886589486941,-3.0877780079715915,9.821475586069367,13.535212439733339
-90.0,7.550083495568291,-9.313551811487795,-16.86363530705588,0.9090040080284315,12.229533012795182,-13.06664974501755,3.1771216360636974,-0.9297057146744031,-8.230647278840339,-2.7667769448238904,13.787780629341167,0.170715833620962
-89.0,3.324576105573327,-11.06898063680124,-14.393556742374352,3.8192740645315384,8.881640439322533,-12.782355291844965,-3.4672620656482844,-4.838371199512135,5.866891391398288,2.6527390776948536,4.077715779300426,-2.549351030529315
-88.0,-4.822206294250684,11.632454290191339,16.454660584442223,-3.3791275807906382,-10.691952408325891,13.996352784078322,-6.157524765249349,-3.446990063776649,5.361490476281546,-3.7768738111435782,3.4445510570523856,2.2353622667981243
-87.0,-3.9584082920276957,17.867746492556865,21.82615478458466,-6.926353294286077,-12.862841978669778,19.880595318865332,-13.444961330961705,-8.405355653011075,-10.067246535126575,-9.108624135618587,-3.9546100582905392,-6.037258260202341
-86.0,1.4575837352053989,6.8640037389714585,5.406420003766073,-4.206888319714035,-2.019515724861609,6.169966995471151,-3.5037385993823715,4.194407522044269,1.759720119180439,10.954797451203653,-3.080053209917274,1.454222778813063
-85.0,3.1172151553006686,4.893428884762065,1.776213729461352,-3.9670924714801314,0.7069998806644069,3.370641400303028,7.00628483186344,3.7892323644939507,7.961043584829749,15.397397517867008,1.9244866521308,9.192628365119289
-84.0,-5.202603115022721,-3.404374259784376,1.7982288552383174,4.268510051823373,-3.463274057685216,-0.8444002600919802,10.94493893139815,4.7696437153329025,5.583603760118837,6.58786357683151,-5.050749185378017,5.287266867446661
-83.0,-1.6257645162984184,-12.645931806036398,-11.020167289738025,7.183705614985881,4.6539310377962035,-11.872126046368495,3.4271897815576065,-3.615107429716156,-11.470490761867719,-17.484693415270446,-11.40481959549518,-14.909804603728801
-82.0,3.1174284213676007,-9.19970892048712,-12.31713734185475,3.0116916244626974,7.670759781501134,-10.715997124222405,-4.7281392799671424,4.867594039647024,-1.9429475363904944,-7.9013040483244525,3.6623572011850953,-5.18773325788535
-81.0,-3.4370289444377558,-7.210567806812617,-3.773538862374904,5.292569512092889,0.19702672113507536,-5.525299446615716,4.6396605484436435,1.9872168179427767,5.940921553374251,-3.1783375587866596,4.712678427472597,0.18683107966440993
-80.0,-1.0436480721623862,4.222353009793857,5.266001081956205,-1.5466044970196244,-3.128118469320925,4.792931906595586,0.5868721896031843,-7.952140866750058,1.954161734367726,1.3684674767449914,1.698235395507842,0.12376631841777619
-79.0,12.814156844819902,17.604848263346803,4.790691418526901,-15.252295980379168,4.038879753628896,11.170990970829944,-8.291903473426164,4.179307084065016,0.8978902487051744,4.433949095833651,2.4716691091112284,1.9842810472537868
-78.0,-3.1712797401455655,-1.6282680269709893,1.5430117131745922,2.428290937307631,-2.4056955932212003,-0.06655662328112566,-5.808733501662673,-5.58480821324204,-5.299451965957098,-0.13102074529792862,-0.49528021049767146,2.0616013388088983
-77.0,1.6747336801005075,-0.12192577109527347,-1.7966594511956915,-0.7546746671028461,1.7705578179499843,-0.9024169542849023,2.7897100040541485,5.0889841298047225,5.973993939781517,13.361456395762996,3.211361408006348,10.656445717297624
-76.0,-4.933038967719501,11.942628754585954,16.875667722305533,-3.488314985831028,-10.943731478857519,14.388118005244138,-0.24951260193960445,-6.28646394996184,-11.221966404810736,-0.7864616352814808,-2.0323271360184827,1.1143181726561986
-75.0,-8.64468610815969,-21.543116042367952,-12.898429934208265,15.028337773428975,2.16869476586439,-17.242394323377173,8.47428668958522,0.5523835104029,-1.3613272459276797,-7.042583196985889,-1.209379069047973,-3.342208987556752
-74.0,6.119470852111922,0.17417765818122177,-5.945293193930708,-3.134838209809617,5.994409056725232,-2.9090957661691457,2.984457824757651,6.003266464007195,10.610270966471198,0.5208281293363024,4.5043683995328525,2.8502056292630416
-73.0,-3.514142802367828,-9.390985331739962,-5.876842529372157,6.465505969224204,1.2171023545456139,-7.5815012384029465,-4.7735133629146205,-0.6795316857065661,5.479962568092736,-4.470662712428825,-0.06125335687291486,-8.097289524122374
-72.0,13.637623043922328,3.971968127502826,-9.665654916419516,-8.788697760572264,11.600348160273354,-2.8762834728782187,-7.360830698937109,3.2661466616541523,-6.41604980457552,-7.3777613768865615,-9.304617910325044,-5.6043452029480925
-71.0,3.871600282146594,23.024299503832154,19.152699221685516,-13.426546432907697,-7.622845668448271,21.134847120381625,-2.3601565319584656,0.7068537600648553,-6.546126644429545,4.519931720640523,-5.9979942738447205,-5.118151348765118
-70.0,-22.76497778036758,0.31965995452769924,23.08463773489515,11.172564105677775,-22.91587126075662,11.667080002234302,4.708016309051347,-8.790841725122597,-0.8517782550844735,4.248809515312077,-0.8799813432029582,-0.6735637338811845
-69.0,-10.359386821380818,-9.37310447562642,0.986282345754212,9.82496785634643,-5.6692931397469355,-4.230949781860233,4.819540671821396,-7.009452160638299,0.48313441602958984,-0.4699952329448789,7.063499962502407,8.989250201493544
-68.0,17.935248454950894,-0.8712704492245553,-18.806518904175597,-8.484807888043752,18.37399165380434,-9.80018322528461,7.686232509085411,7.1692036637283385,8.109951458220834,2.7302876219539156,7.176841727149647,6.709527150270311
-67.0,12.358603196704497,-6.129575244225631,-18.488178440930195,-3.0579404156673555,15.43134215531914,-12.272954650525898,-8.200997988354793,8.866008640532412,5.057062901917215,5.007576590763886,4.14237414688358,-0.42608969996410373
-66.0,3.6564760955759237,1.7966764153589576,-1.859799680216927,-2.741539955478812,2.7751913558405477,-0.07768546522816688,-2.0663295606042,-1.8700085664033415,-5.078866565413083,-2.4432244872568125,-1.1124926953875485,-1.8679049867399664
-65.0,-7.7750831541389065,-2.8401469185439847,4.934936235595023,5.295524982424464,-6.405333530404695,1.0761883059492274,1.781988620253811,2.8906830591201533,2.6411823639389054,-1.3104759198203575,1.4398248403485825,2.8066843589800827
-64.0,-9.893702404880582,-13.150656560420227,-3.256954155539561,11.507062338077617,-3.278638616482696,-8.257773404458614,-4.092632131703184,-4.443241761031792,-7.303850999745613,-5.139273431521017,-5.738468794669101,0.9426225752232575
-63.0,-6.018403434419899,7.912520972427707,13.930924406847657,-0.9710474786134293,-10.004481046168866,10.943144644205741,0.7511786767737663,-6.662908793813961,-4.947321736700365,-0.02679834187112684,-4.452755406763746,-1.338896467785167
-62.0,3.4926800644723572,15.50037202056019,12.007691956087811,-9.533034283849696,-4.281592658393436,13.773878554222282,-1.490340280318766,-3.209573104952356,-0.83018613553359,-4.333793907434478,-7.1691292176899415,-9.152965383472605
-61.0,7.303900435745546,10.938580511797424,3.6346800760518336,-9.09123719703199,1.8909640822649787,7.307736787467475,1.570290778633355,1.6627166105474354,5.974542330002585,1.5443642745453692,-0.45231723244160005,-6.595562849502064
-60.0,17.10305608392403,7.5756545889455715,-9.5274014949785,-12.31695124223988,13.290539399732749,-1.0288485218591417,7.96146635598289,13.748152748973023,14.660947877899915,8.245726199769807,14.161079038841375,9.781520209194765
-59.0,-18.399618004842477,-24.054204202647846,-5.654586197805375,21.249466724079056,-6.324235097284326,-14.820684928427271,-3.3494708103783077,-6.871776754660775,-12.440729532854457,-3.7104317947681222,-5.15427060526574,-5.740496293778789
-58.0,2.5400914367610596,-11.526887216978587,-14.066978653739625,4.524432066641254,8.26470265944791,-12.831685561663493,-5.763893493197247,1.4649418090635429,-5.090855576711445,6.467864108116802,4.211790693317388,3.591954883605365
-57.0,-9.943357197630279,-2.785499110773827,7.157858086856509,6.331251357822392,-8.59898036795395,2.241200324567547,-0.21434165936075145,1.316153756483494,-2.4191019081273475,-5.111312196728321,-4.217053671836319,12.34261885443625
-56.0,-7.1516332761976145,7.760626547463925,14.912259823661614,-0.32139870383026325,-11.010389414585205,11.322380579871398,7.349087767445504,-5.837336728189485,4.162095994388004,-0.006003337553488475,2.0687433461669222,-1.7135136658259595
-55.0,7.979510942870769,7.540216295845536,-0.43929464702516885,-7.763649416705515,4.224883080897856,3.5425702829588497,-2.2372527706048357,-1.3970174996847704,1.3628782258551442,-0.4565665595116728,1.6203708545993873,-4.587728859835217
-54.0,23.361204369843875,5.692956770122361,-17.668247599721482,-14.524804355229787,20.528337965328536,-5.994430215465529,-5.126181471671222,0.170009705770938,4.91802249104303,3.236305901940113,-3.868650549948441,-8.005010423271193
-53.0,8.306978789678048,-1.6051709493170545,-9.9121497389951,-3.351399250043742,9.125778308862477,-5.769830305006903,0.18477693515686955,4.8870315642782005,5.22383440923057,-7.642761711163505,3.0243245322083596,6.453614873117764
-52.0,-19.480429891764167,-7.282604253929575,12.197825637834587,13.370158821992028,-15.81696901501825,2.43756069516417,5.31267384361888,4.433294149049141,2.2922942332424348,-1.7535032727587443,1.4467154934310305,2.2603778309891753
-51.0,-19.96413719440745,-1.8269196212998908,18.137217573107563,10.868140583494085,-19.100054437413302,8.202681831026256,5.564739176508647,-2.9227609178301472,-5.594863763305817,-0.15485357029758162,-5.191285904392402,-6.62887199803349
-50.0,1.9072036965769446,4.001542465451301,2.0943387688743877,-2.9200530897293078,-0.13661789225009002,3.0060414167357816,-5.987239865102746,-3.9509664800214424,-17.429738240536945,3.680993034938176,0.037549192300446066,3.5768279640002683
-49.0,-3.6433353800663912,-5.890715599064302,-2.2473802189978507,4.787396346378135,-0.6582628405279436,-4.039908293195,-5.658909017588092,-6.64258225422696,-5.773774180797859,11.207621803808854,-2.3113769105447517,-0.3692271300995036
-48.0,14.914659804336413,10.359218970554386,-4.555440833781999,-12.624530165704059,9.77616468300021,2.9277362979791155,-2.864600212572366,6.887189369110883,13.591382659849685,0.5435296377149879,4.3298367979982855,2.427930973129212
-47.0,10.80858227123694,0.747228496563694,-10.061353774673277,-5.766401944049049,10.396834922418515,-4.708834322908908,1.6276188222659735,-4.084522834618834,-0.3858710928735585,-15.73036251187373,-4.162384322318225,-6.329427901194799
-46.0,5.795528663881658,-3.4859842323487404,-9.281512896230485,-1.216517139362344,7.499340977969418,-6.352596710857425,7.744642322215522,8.112153953809113,15.306265920740737,3.7336431956349676,2.633705257286485,-5.707796490164763
-45.0,-0.8011460751724389,1.4313479806176383,2.2324940557899735,-0.2879199298187596,-1.4773830651470665,1.868018452285098,4.350545419974093,4.4878151197957505,5.9603359951516195,11.428143369037645,6.798783460849549,8.157454444960969
-44.0,-10.817634471622215,-7.04712502316727,3.7705094484548596,8.893568968659093,-7.2528208731302835,-1.6775973180606756,-0.2340455419719083,-2.753753557975637,-15.532382292297212,-15.296186298740283,-8.441200402663835,6.535838072394745
-43.0,-7.281894850089138,-3.5953976388062014,3.686497211282868,5.491944065844267,-5.517754443581769,0.006492595961890224,-3.344445146892908,-0.4459449156974411,-1.2187527072953097,1.1286580006714533,3.953099795081716,2.4160589497769487
-42.0,-8.941367718650884,4.4021207321817375,13.34348845083257,2.2564048943747617,-11.170707322815236,8.909505309150024,-7.005370783437493,-8.396507953179226,-10.265804584956747,-1.0894694131092013,4.681738950650659,-4.963589752009954
-41.0,4.590806777238991,8.28745937758017,3.69665260034117,-6.44271871291564,0.5026750837435507,5.945226797445084,-2.330288048527285,-6.112963858285173,0.17454417003218126,10.057386380174634,-1.2796224539667727,-0.1961883974355576
-40.0,6.541337901240961,-4.995564416619073,-11.53690231785998,-0.770626423975965,9.019267882184609,-8.23852122154203,-2.2402562231301792,2.503094649532695,12.062080398896978,2.7614021330469125,-6.462504373205904,-2.9351846677545783
-39.0,5.88512844547763,-2.1541656078223648,-8.039294053299873,-1.8619015375301062,6.942557534228127,-5.070437522848416,6.6025339953088045,8.375691676267865,6.271018120328074,-2.574127881873025,1.1004223081355349,-1.7731338389498417
-38.0,2.1177538009462946,2.512560500952395,0.3948067000062476,-2.3148544584846324,0.8385210609572775,1.4823780150682704,8.422444804783577,4.856133828981533,0.9355933246910455,0.26474247777974713,4.21300845046161,-0.8197390587146669
-37.0,-4.2931714332289825,2.855939301981275,7.149110735210327,0.7118207646089247,-5.671464257532099,4.958012215835796,-0.18269440947310311,1.0084434936934357,-7.789079190546975,-6.155127929102002,-7.357020862393785,2.566160331632727
-36.0,2.4810281981746805,0.2751422007834634,-2.205885997391235,-1.3941674825806853,2.3070114605116436,-0.9246144111693964,-5.980826143231677,-4.514498767659489,-7.411469673401857,-4.342159213992229,-7.383644455876202,-0.4128680853905653
-35.0,-0.9944669299864075,-5.847018657701998,-4.8525517277156975,3.3954038477216244,1.964719271364515,-5.383051995619563,-5.114164054679626,-6.614726042032904,-5.326584942504612,-1.7036452495637748,2.899290315146006,-3.077073828473682
-34.0,-8.682094897019974,-8.513907139490128,0.16818775752972637,8.644428433773761,-4.47224921857509,-4.205466660580921,-0.9984709482048437,-2.1800447968025174,-0.4578736718497869,0.9784317756259107,6.047268506539419,0.29377679086363506
-33.0,-3.9687134095393892,6.530715751930598,10.499429161469905,-1.2377046265502258,-7.202690365227996,8.556915278751914,2.5054892642026303,4.460957040809456,13.435222334208497,12.762766542677074,13.682617378692159,8.913189483655389
-32.0,-0.11035028366671562,8.247309713176158,8.357659996842823,-4.102771427333956,-4.1989395483814285,8.257108025996146,10.739855933702778,6.1153148206934915,7.546885511893771,4.580741901029315,2.9615404402568775,2.781580643630816
-31.0,14.96576326291178,9.641140354278225,-5.324622908633573,-12.333005743561577,10.108240091966072,2.1811240840604054,0.8359393370472064,2.0194380597173662,5.531050622024981,-1.5710166460608468,-2.382996721844755,0.3605103302896664
-30.0,-0.3465053347820479,-17.80492479486629,-17.458419460084237,9.052982276132926,8.527072011940884,-17.618703270913393,-3.31564838330902,-4.306064745106726,-11.410966983245908,-15.395360172454327,-14.350319955321915,-12.297918071301359
-29.0,2.338767096007199,-3.5747875427257894,-5.913554638732952,0.6811384515548267,4.183403721455344,-4.738281206436368,-10.682083477187364,0.44164251965107226,-7.805066233736899,-4.219286601187355,-9.933030325104255,-4.948442995194227
-28.0,-0.562221308289989,8.910513937048124,9.472735245338171,-4.184107449886669,-5.034087584796427,9.194289772172098,-2.3886186603538766,-0.9478987002698244,7.174395022367324,22.007409392419984,7.036645001795346,9.268662241587858
-27.0,-8.042390119234735,2.1075541914329605,10.149944310667738,2.9602481978720006,-9.111446625650826,6.131688336331614,3.0026071053526797,-11.018669918317434,-6.51622377244144,-9.641778392419424,-3.179363244633712,-0.6541984903105811
-26.0,-6.979301056590934,-2.0378305018597724,4.941470554731201,4.500515338381868,-5.978018188507333,1.4571268287556558,2.9324785631145,2.994500758032655,-2.583335317536858,-7.931097174763169,5.603256528587906,0.5375166048966649
-25.0,6.853256090570723,-5.84187118094745,-12.695127271518206,-0.5182038448801372,9.751331899253099,-9.2604286734598,3.9731021592539366,4.133020642377934,-6.277918291015427,-9.517408932904111,6.3337653454961735,-3.80576762194905
-24.0,16.938960111999513,6.029141925944875,-10.909818186054704,-11.503545214313425,13.973477177253947,-2.508997551286638,-0.1942023109041684,7.388614014486441,13.217825374556682,23.015644975222187,9.083225525315061,6.399888879627012
-23.0,-13.062019194600518,-0.5497899458407451,12.512229248759713,6.857407335510807,-12.745268579480662,5.992554152956018,-0.1602641365966323,3.5814039302115566,5.075487508548714,6.839213728161205,-8.435612484753243,-7.454773218364235
-22.0,-17.423765985303334,-9.206487051883842,8.217278933419541,13.2812451218477,-12.864565335267631,-0.48178904299857916,0.6431377791282472,-1.964765534882087,1.5631561766724085,-4.285446048072812,-7.1024549147206955,4.2211741819529465
-21.0,3.2364859564669057,9.821159440471657,6.584673484004862,-6.488040613927112,-1.646550442074207,8.218825171561067,3.8205546910509147,-5.700280301073782,1.9994752636511546,-8.763321188729936,3.8942635813196826,13.117900533192923
-20.0,-0.3614095107390334,-1.539494314648965,-1.1780848039098615,0.91153052435148,0.34972437300894976,-1.337363483047799,-8.222988802341447,-9.897528954277522,-12.340162152281513,-20.782450881593387,-4.4942893493439815,-7.708845656186552
-19.0,13.859576900939185,4.915970985507497,-8.943605915431682,-9.346067469125403,11.414310763638726,-1.9848386594564653,-1.516470037782467,3.676803758658443,-3.478016095430532,4.255536350989647,-0.3493465258947044,-5.071112588314513
-18.0,2.4489872490519344,-4.2495738774934875,-6.69856112654554,0.8670220749426001,4.580028149035683,-5.515796068014969,0.8063720110361701,4.844540222543289,5.556735768728708,19.669541131393064,8.027937600136811,1.6506690251609517
-17.0,13.36838893348523,-0.5750759881448837,-13.943464921630175,-6.425443957155167,13.658128167900665,-7.294479662075675,1.2639072581702535,7.106817146922223,-0.5936719122753569,6.776070564263891,-0.9445450778165827,-3.0984881704981095
-16.0,-2.519308436515659,-3.685959665541758,-1.166651229026007,3.156702087742534,-0.6744219730755487,-2.379310375825602,5.638691315212637,0.3093516462932029,7.138633519257188,1.1446127790897558,-2.7801511499641833,-4.45989023266894
-15.0,-12.23243951019402,4.021836555077357,16.254276065271608,4.083526767569404,-14.237441383459057,10.106310111583431,-0.7217127424140779,-1.2017425703980285,3.488417367655091,-0.4483762434233742,0.11525533687518158,-1.8707249701207092
-14.0,-10.67253972961294,-0.35168102887723185,10.320858700735931,5.491529423207698,-10.48315685226552,4.950315514664288,-5.265400480992155,-15.42977118287177,-17.776087854987665,-18.30907442096162,-10.752893261616508,-5.527348992639306
-13.0,-3.0686124437735494,1.4008694548134555,4.4694818985871505,0.8913090872613041,-3.746154933725074,2.9763296604234784,-5.490441933837096,-3.289064271263098,-2.651176747576014,-1.7184944135175488,9.76800197404441,12.959824822670639
-12.0,3.8048099299613494,-5.596188729918075,-9.400998659879432,0.8718574907949332,6.555573049442343,-7.4598180346881175,5.122545033779083,9.985625842395816,10.65646659299897,3.419636981922206,0.8406627733940306,8.925807101349864
-11.0,11.459781597424742,3.2732837645135247,-8.186497832911439,-7.394099427669134,9.859968513792804,-2.497089674222284,1.6899224295411928,4.210069490606791,1.749293602285086,-6.847169289076836,1.1715310681604307,-2.367296404268232
-10.0,-2.821143769835623,-3.536993818893192,-0.7158500490578437,3.1475727271450182,-1.0933974351979456,-2.0870804076768743,6.382262190673081,9.376574494779597,3.551634473007988,5.825941029102741,5.300677943943166,5.053890582532413
-9.0,-1.6215873063322488,10.94872104736588,12.570308353697895,-4.6191880346496665,-7.139219335271072,11.721461639192576,-3.141463789239036,4.1647817361887025,2.6419758397472286,18.053634704197812,1.8006228466233174,-2.690461037856304
-8.0,-1.3412674474418242,1.6291581626839706,2.97042561012577,-0.10037672955255106,-2.1245750647687824,2.340491017728731,-2.46952093727577,-9.984475132080513,-4.772212107682185,3.9585753321095076,-7.745882268473397,-9.748527574554547
-7.0,-11.452130543867117,-9.502111891214842,1.9500186526525116,10.443497388447849,-6.6731440884794555,-3.8165721175512015,6.837558333339574,-10.974043778555691,1.0862367564770596,-11.006236238862655,-4.813230688292688,-2.303840714554516
-6.0,9.113497593476513,-8.124843170633747,-17.238340764109818,-0.5245916491902625,13.203280787318313,-12.727053961816186,-8.631253658167044,-1.4393894322160374,-4.940904272126635,-7.94340056815129,-2.4956566461735474,-0.9410496889338313
-5.0,10.586184811010135,0.43693100239160065,-10.149253808618232,-5.459102198297927,10.397714748599848,-4.829033045782996,-2.065350500047264,4.755943100502371,-1.9417862888510729,-2.335730314161693,4.683463913471273,5.932194592328837
-4.0,9.299723959101884,6.545911851846439,-2.753812107255443,-7.945861518185417,5.9828122998582804,1.917694312233941,-0.7905287264543845,0.322270832436121,-1.380167287303031,1.612491500481227,2.4117546179633673,-14.677754534545995
-3.0,-9.615676466451653,4.890983600015824,14.506660066467287,2.3408545030670913,-12.09987146193753,9.717264121422815,4.611821572197095,5.2576013908056565,3.578915402678003,0.5092817440265458,-0.01879150126223461,5.932610687427292
-2.0,-3.560487386526174,10.72520726111933,14.285694647645265,-3.604328498642573,-8.957443965323357,12.523487002003561,-2.6853388669387237,-6.749975731091466,-7.660711807995147,-3.803256539449546,-6.389404686940187,5.791335714670284
-1.0,-3.9751861333645886,-1.0653116349753802,2.9098744983889553,2.5748340759552297,-3.3950825681571386,0.9419782508165664,-2.055883109449896,1.082616784717239,7.596120848578754,4.744233201945646,4.595133110727689,7.463495532550754
0.0,-5.986953994056801,-15.890109812468172,-9.903155818411516,10.911096448992241,2.0077621347999357,-12.953326664654698,6.662653328818946,4.376366276514934,11.862199278846564,8.238024855632016,6.959447910740516,6.28319789002656
1.0,-4.944258359319127,-7.646032773357906,-2.701774414038832,6.342711726852244,-1.1481762642227409,-5.22856858889124,2.471296677671545,1.67353461265769,-6.0922034713988955,-0.5663355902028497,0.596493657353588,-5.996140569940612
2.0,7.808941653990254,1.980745980692335,-5.8281956732977545,-4.929923493569808,6.794308453552491,-1.8979262542937168,-2.4157768942075983,3.88044472131383,-3.987043902242559,-0.17913423778030266,-7.427780803181097,-8.425109125089618
3.0,6.485132526044726,6.37293699514691,-0.11219553089759238,-6.468059104679551,3.2777375916164724,3.1585778182607056,-1.1468207772214642,2.4915814152978175,4.851934150405736,1.980010390481585,5.34107559938821,2.58365195802398
4.0,-0.5015562938763329,4.495678834746686,4.997235128623125,-1.9613047330583138,-2.68790423256341,4.77901990124084,-5.651523401786599,-0.745497827416274,-4.278726753400402,-9.016588058683404,-4.111194309423609,1.3840409787366696
5.0,-6.1496937466185715,5.03894272650523,11.188636473123886,0.5871911280657205,-8.683148427596073,8.074470924416635,8.51506291211491,-18.432784760809593,-11.916724644831852,-8.838744718794707,-4.169076640006549,-4.067184439640843
6.0,5.791504133662011,-2.426387743083505,-8.217891876745455,-1.7333145787205608,6.992634465821419,-5.273974095408045,3.7788934982685345,-3.4621539619660187,3.8083350516607375,4.698008940660661,0.3639930360265997,-4.5259583565129375
7.0,9.13996275974701,0.11547043089970865,-9.024492328847291,-4.603291561741668,9.069829517322077,-4.476207103020004,-8.86231389107752,12.811097316089835,13.28437736108826,9.729922875405618,0.8851147252999585,-3.543647270028747
8.0,-9.898855373590992,-4.818048190619041,5.080807182971911,7.379797176672813,-7.505316501872805,0.11665183194685325,-4.513128908303712,-0.6979191851505382,-1.3218806440562503e-06,-4.072499464590654,0.16982864204575887,7.823762280790722
9.0,0.8328370248486872,2.7816603100094497,1.948823285160613,-1.866849414507497,-0.5004611233979177,2.3540337446121056,-4.512514231024406,-2.4111425982707217,-14.4392643833384,-4.384654089962993,4.1834370133611785,11.668728448511843
10.0,-4.8790075052811614,-5.8805967206458805,-1.0015892153649952,5.398151890138463,-1.9675884398237113,-3.4525420018819593,7.247696879142673,4.320658254169806,6.861809599044361,8.474120999933284,6.832238397639684,6.337540175366321
11.0,2.357619421788137,-8.836635071628912,-11.194254493417299,3.2588860934161725,6.738651535468451,-10.029871688786287,6.60812030893719,5.246784716336173,-0.39776194867403003,2.271394760175096,-6.6028378251973034,-12.32193752322594
12.0,2.178807624399169,2.0696372540700856,-0.10917037032897858,-2.1019467616229726,1.1777176881820894,1.0407108262400548,0.09570255155134344,1.249960588817306,4.728305520638961,3.3453076920137956,1.7290246758258405,-7.1414760059605
13.0,-3.830137959584917,12.215609933202565,16.045747892787926,-4.245037178969852,-9.909947443786567,14.109561429993857,7.635628557842893,1.5251635550245506,12.233866744229978,-5.260502291313044,-2.1793636259474187,-3.0037939975763024
14.0,-5.436218937591722,15.692635937848387,21.128854875440684,-5.097545890309593,-13.336111949932334,18.388861127944327,-6.0575144321761565,-9.054447895360354,-8.137768294886941,-12.68967429529873,-8.458404026035016,0.4164707356539079
15.0,5.848902491702237,-10.537435455850172,-16.38633794755213,2.3775857018929605,11.143122140155606,-13.403821330628956,-14.411601795943636,-10.219821163300766,-26.977826732480054,-14.468739503269402,-9.65567748202998,-0.8399759136473341
16.0,5.712596581544349,-5.601396883388839,-11.31399346493341,-0.10138145317474101,8.541752155166755,-8.476384017831208,0.3486142874992515,1.8115818390311746,9.219096133015773,26.019159972121745,19.749555759238945,12.65072547034011
17.0,2.2640941450530394,-7.2819609433189205,-9.546055088372487,2.537861707465841,5.8592084163755676,-8.43154538019041,7.934265837608265,12.35234456096312,18.853432442486678,5.765909139130439,4.814336956429371,3.436694972765883
18.0,-1.1485269957612136,-1.747029410277034,-0.5985024145163287,1.390827808096643,-0.23773240251687477,-1.1913055348152035,4.594373181107837,1.210108852190289,-2.1282815050903494,-2.6818752099916194,-3.282006634243965,-5.302375343640871
19.0,-5.00520493544353,6.099483951994815,11.104688887438076,-0.5335567306226816,-8.093496247023555,8.580054953172116,-4.364902279823912,-5.198440528578423,-7.981796968968102,-3.8514959077801976,1.8325357562943712,-0.75741228810565
20.0,3.6572315395337958,2.2561392169109458,-1.4010923226227767,-2.9494851980919465,2.5698199965311876,0.47906128046984886,-0.32685487570083555,0.33354894881660313,-3.774947013062795,0.24875648063122435,0.6342082756984124,-4.415764353870141
21.0,-1.550922683033218,-0.5592799770500894,0.991642705983387,1.0605935434319014,-1.3116279448923616,0.18366270103625837,3.344631061976451,2.1104427352533754,12.383830841435785,5.29515413721792,-2.857879564267727,3.1162863634355564
22.0,-7.264173116164804,3.5803896798135018,10.844562795978575,1.851938967969994,-9.0203374127784,7.2549257851838185,2.5647960717869203,-3.6788455028685503,-0.5470588352682912,-17.49076225587938,-17.82050939692576,-5.951542834035071
23.0,-3.316197148816957,3.0265306183105354,6.342727767127659,0.16519523774135883,-4.8793796322829,4.647180657159731,-5.442435462651271,-2.665542377476492,-11.023831997835268,-11.757059253812791,-11.725551361009924,-10.203390918707003
24.0,5.457053962787504,-9.412898341865928,-14.869952304653385,2.0116713384212277,10.187961392273348,-12.09840740624987,-6.140276025680858,4.3029411707886105,-3.6670375964879267,21.23793916570398,21.91905616153523,16.277633083466515
25.0,-2.3525086423330572,-6.077884036049134,-3.725375393716093,4.182593898883276,0.7088271698375062,-4.933408549504618,8.310979433513255,5.100604795822403,11.814076188628768,13.94883539749695,19.89493214757954,9.689218606152156
26.0,8.771920641021968,1.9393927414257002,-6.832527899596303,-5.380798445709095,7.825723174443214,-2.473355011389226,1.2987695028992523,1.3985851293326848,5.668071337523811,10.846046315409115,2.202879408183655,-2.1785063111031393
27.0,6.244606725534935,4.979532387021531,-1.2650743385134087,-5.636956527325444,3.7038984865263562,1.9138449673025597,-5.078904859698154,-4.005816754926105,-5.924910808476361,-22.751722743128816,-8.448899595832572,-5.58528229325128
28.0,2.38283086847055,7.87229342520794,5.4894625567373705,-5.159064401782148,-1.5186241497435364,6.661867302136921,2.709540418564573,-8.962607164044389,-12.53155174280929,-19.650092630729656,-9.159224088449275,-2.681647418503562
29.0,-8.579705326930943,6.681401725786108,15.261107052716985,0.9856598812747688,-11.9559257655723,10.953101840455096,-3.010112311684158,-1.9716371875866483,-0.054094491665604316,1.3727352248344449,-7.9896947856372345,-5.1142528409699395
30.0,-14.23540472778593,-11.230239921582262,3.005164806203501,12.758388047721148,-8.646510903608782,-4.132220756733097,4.748376452420769,8.012228111323761,11.995590024136655,10.19916004744699,-10.048101997587983,-6.326479200614294
31.0,1.5575632765320666,-7.113106804457583,-8.670670080989815,2.7956274611480003,5.175863528855988,-7.836269714675336,-2.6856091060207987,3.5494637500005273,4.6674937070894025,11.068513462442827,0.6417396104137834,1.507388198218659
32.0,16.07239805141885,5.214334558432484,-10.858063492986464,-10.628320320498972,13.456464506019769,-2.8495034885633754,-3.5623474136248334,-0.06741984495856856,-3.242492065518497,7.2212545621559014,15.883636622343804,7.976861287114609
33.0,-1.9776953466198819,-3.686053571158026,-1.7083582245380082,2.848585268485978,-0.13734893748115962,-2.729490099006585,1.2853530979732923,-3.641182847570656,-7.5208763379205505,-6.583682158971582,12.179340442072991,6.897263353884661
34.0,-5.06341962421817,7.8643002814402445,12.927719905658604,-1.4581861794869413,-8.99564730068285,10.43836998475371,5.696360738652936,-0.1907958749645129,5.643332506095596,3.8722219614836275,4.246840769021532,4.065138867420802
35.0,2.842032414458485,1.272114477437671,-1.5699179370206942,-2.1099679761605796,2.2038866407425552,-0.10986445460839667,-0.4369310203036898,0.9847148530481287,-0.3552390368409687,-3.012882388175138,-7.780929650786804,-0.25079814896864616
36.0,-0.7466046580226124,-15.367236563503104,-14.62063190548046,8.086887425688838,6.927862048937597,-15.036342107968292,-5.147928979903414,1.4961729441413107,-7.013403009771119,-17.92868675098327,-13.473185699139593,-5.534648682848648
37.0,-9.72611029613537,0.8407576097879197,10.566867905923193,4.475776470782944,-10.16713114005558,5.659050040560421,7.297048072635217,2.5127349660295604,7.907139938176427,3.5799412160077084,-0.4095794490654985,1.715873193821892
38.0,-6.994972020254991,4.264414020702736,11.259386040957448,1.4009617418447862,-9.083243273290627,7.793790140178231,2.5716275091674303,-4.979953450846611,0.5431415494528602,-4.396520584069978,-3.1520946091599096,-10.143289979568392
39.0,12.795383697035952,10.177666128362638,-2.617717568673754,-11.527083584772539,7.657431571303114,3.8102956701330073,-10.869732405490453,-1.5547837079766864,-2.7686709968359224,0.35155002560609216,1.6400182268317,-14.95455221982762
40.0,13.19997714112573,7.398187438063896,-5.80178970306215,-10.337077307029114,9.51880756613325,0.7492235733338994,-1.2738652227348934,3.816095109744306,-7.354524007510589,17.28234825602593,13.125821671220308,5.170620832553262
41.0,5.5899353948642565,-3.3256924632710834,-8.915627858135371,-1.0890350491918754,7.263751393743684,-6.089968462098731,-4.515257358464637,0.6559847011688045,6.820293854188543,11.846810939896763,4.473586221753759,9.193791395948809
42.0,-23.841546261079124,-12.707672422266189,11.133873838813203,18.319240418369567,-17.47802652711685,-0.7536583414322546,13.212022603059706,-5.327883502253746,6.532483919527805,3.7675359048763672,-0.7302928728843368,12.958923301997867
43.0,6.92976309591336,-1.0847711196772778,-8.01453421559026,-2.9563815194699057,7.4855836667940086,-4.591140929497477,1.6831439775057087,8.359484356433919,0.07003889010466935,-3.4890130601338285,-7.990854418417142,13.286258811858787
44.0,-5.629044912713675,3.60034163914857,9.229386551862538,0.9793044473429684,-7.4089319882884075,6.378468429119938,-3.9161934014439677,-7.304546480068852,-12.895917017641441,-27.09343226517254,-8.308713844545979,-1.560801090875323
45.0,8.908474120761126,7.8838684247524675,-1.0246056960085816,-8.433091177740458,4.9155187651232595,3.4776153598543105,-4.577604138437805,-5.948152683818077,-2.7750230262893565,-18.521740128345122,-3.1561065964485415,-19.223769845642064
46.0,0.006776241231974733,-4.682312230585853,-4.689088471817957,2.3783821095853535,2.302837867048812,-4.710980184892936,1.4716054762552482,1.4423557508248204,14.241286033247285,14.981985049936679,8.932702488900603,-5.128323197289113
47.0,6.340478136814773,-7.199771667030621,-13.54024980384565,0.4711345938762691,9.97736748646436,-10.31210645905956,-2.930524755746967,4.58610221154925,-5.561012974925528,4.634993611778882,-4.709577320115126,-13.879841833648516
48.0,-4.299969403818153,-5.794653524449291,-1.4946841206313732,5.0136595736991465,-1.364805280544005,-3.663215314565859,-0.16951414121837938,4.562212906657822,-0.6832613417735965,14.899204833042798,7.657850070671553,4.065780807345948
49.0,-2.7984408001898187,-0.8826627070544929,1.9157780931352328,1.891308981669098,-2.3989651870579354,0.4972542432832968,3.703142372701471,5.685182706859905,4.384703883513859,14.677406969402787,5.083993669214106,10.97593341498067
50.0,-7.912749583013793,4.0018355178548735,11.914585100868772,1.933273907449591,-9.87867032040251,7.934831184415815,9.093499765660875,1.4738237851714195,-1.8367122188778062,-5.345957771680222,-3.65264189834443,9.663799893564608
51.0,-14.919410032953284,16.029090205954443,30.94850023890801,-0.5733995011906889,-22.901245506607665,23.458726182032276,1.1430543496469172,-7.445971630793026,-1.5710775337296992,-20.627268217993674,-2.832408294410155,8.104771657806094
52.0,13.498506584025733,12.58680346921599,-0.9117031148093986,-13.0615059569368,7.156729804848168,5.8784106956895865,-8.348787662304497,-2.3161851231851314,-2.1812995486085502,-10.303677115632516,-0.4688103613571353,-1.860014257474809
53.0,16.190068351896276,3.229923769806407,-12.960144582089624,-9.7333799471913,14.524750805866843,-4.8315915090056585,-4.230089131866654,-1.7805243961771766,1.7830056440624777,6.586110531996237,-8.515358295241475,-13.042198907629224
54.0,-6.2926634159914805,-19.309581566380178,-13.016918150388667,12.848937758922094,3.3895475264979,-16.135570086272466,-2.9353936878817253,3.4473692848452107,13.182001194325519,12.709187841071651,6.530730038114061,-9.144389275154769
55.0,-8.313448332820306,-25.208924988063195,-16.89547665524296,16.721891489989076,4.319203126308727,-21.10744950823457,4.767914616464152,-6.822253662277848,-18.052494217743057,4.451089999284353,2.58008215250658,-4.195897575251837
56.0,3.6746376613277985,-6.715318767793654,-10.389956429121598,1.5528344776246108,7.063351088682033,-8.532041069862931,3.9284573363364714,-2.8798758512089835,4.082982088314533,-0.648218408610794,6.9311635600121155,13.48587746933493
57.0,10.17420609396209,15.156467980231913,4.982261886269601,-12.637121522546911,2.5528151741971197,10.009278551232539,-5.278055486370228,2.672331753358626,8.446759518985377,-2.9677002536707944,5.235108774595463,11.665886510440203
58.0,6.957765479102152,14.139841098293273,7.182075619190938,-10.522258469655409,-0.07151159186401035,10.678881506893507,3.0187894558818784,6.979479197878122,-6.400258217634115,-8.427177930753388,-8.77953209510728,1.5740950358230732
59.0,-13.593642919605669,11.764215674022019,25.35785859362757,0.8622826374342014,-19.509701380474894,18.58007593457561,-2.629764635540172,5.322011074724973,-13.304481640254153,-8.402545366917732,-23.53926185462438,-11.457436848570339
60.0,-4.718045262926194,1.5684142429156998,6.286459505841952,1.52214969957348,-5.53390745801299,3.9500398291981575,3.6589716011429547,-5.75786851385653,2.217474163459376,9.500863516339619,14.068399256177536,-8.545638794823354
61.0,0.40560924699667744,-3.7183991847655293,-4.124008431762033,1.6813081082821046,2.3123090335295027,-3.8926126557272704,0.21512737220170153,-4.203111680611238,12.699626935189189,7.94818000467615,12.388457018707069,2.8438273845754107
62.0,10.15511078990669,-6.7641204368323145,-16.919231226738674,-1.6727442609115335,13.505386892260328,-11.884228557961123,-3.8582080511161383,8.764384256060799,13.095010643048592,-6.511896125556458,-10.049303663565286,7.786864125878191
63.0,-12.174429799872431,-18.255377165181045,-6.080947365308232,15.235098832147187,-3.078519083034518,-12.202755969471054,-1.664721108289123,-1.2572149495518303,-8.339632957846353,-9.88980593736856,-3.427851450150257,-8.729405047900961
64.0,-5.498218766951512,2.37394727716309,7.872166044114796,1.580179064260082,-6.6364411149552955,5.174361112129349,4.701579334114034,-5.0311045997749115,-17.875846647459703,11.90872129266381,8.645775155268627,-5.288061498684293
65.0,6.256012877092107,8.074016451564141,1.8180035744719036,-7.226767690812235,2.27152611746334,4.924272248064993,3.2624800762110735,7.306392334489352,4.338240686945904,18.061340159750735,14.78462970850925,16.170654542410503
66.0,-8.391049205856259,-1.808929843981815,6.58211936187399,5.1176304291831896,-7.508179858678876,2.3691277965597695,10.879520661891346,-10.811468314805213,11.2797453317655,-10.440752866602397,-11.329497668496725,8.087881241419879
67.0,9.167883019652995,3.843515276583484,-5.324367743069933,-6.485190376535556,7.227946494399111,-0.7546556375115303,-18.65382792248058,-3.624433698663196,0.939072397215909,-13.10541630306916,-9.934956881664464,-6.723716096190653
68.0,4.159627428238348,-1.5947041695699027,-5.754331597808431,-1.3351940900085206,4.938982136508653,-3.6074203556635234,-4.394385419125599,-3.8001311132369278,-12.278555821885812,-13.924916122189984,-18.29287681258037,-11.861672824936944
69.0,17.85938248637829,1.6518121597761461,-16.207570326602013,-9.721380222582342,17.011555235356326,-7.287675120647985,6.650253656396168,17.77378867889585,15.796237779403686,23.58507373552259,15.111528458308095,9.61784173870723
70.0,5.894364035871376,7.880135367007277,1.9857713311362275,-6.84275488335071,1.9251560966084562,4.923699417838076,4.305500241475009,5.36121973092745,2.40920829452942,6.6416305480015545,15.672608059412482,-5.617492587603208
71.0,-23.893987919160697,2.5159540096981425,26.40994192885916,10.665741251768504,-25.11073381717467,14.452114284429545,-4.930175665076797,-16.068389483506785,-16.37263683375189,-19.169011354001903,-0.1112538507447951,-18.51338291099703
72.0,-4.474685364958377,8.787300227523218,13.261985592481821,-2.169764081086761,-8.834241355106423,11.009654669413939,-12.84284182835685,-4.501392331407223,-12.625261685215621,-3.64324793698814,-4.626103654969951,1.695680426894099
73.0,1.7285695173271867,-6.812198358941501,-8.5407678762685,2.5352842535531432,5.164363757699647,-7.697848879467927,4.121080666820278,7.689463114317421,5.844878353944282,5.600368663737919,4.155187756724269,18.138684449281122
74.0,-14.442767068589339,-33.88294552835119,-19.440178459761757,24.159421856339186,2.4479566632676395,-26.611581593073783,21.78365066038575,6.825680810854921,13.858141328625825,11.261809573329788,1.6841370995672067,21.007460841843614
75.0,-5.609951922285698,1.797892934578611,7.407844856864246,1.9020819379499727,-6.481223461688969,4.567309496932662,10.362801428889696,8.09199384135075,9.004810178523776,5.728775269162452,-9.989911607099216,2.8382278979648037
76.0,7.014925671331565,1.4658382462824158,-5.5490874250492634,-4.247188057125692,6.230201739082933,-2.003154299783648,-10.81874801073359,-9.760716113618685,-1.6689808803116595,-0.6957673533028714,-10.045344270176106,-9.817480079710663
77.0,29.653509872411185,15.810865609932268,-13.842644262479029,-22.7424547265394,21.7726876712975,0.9418893926544267,-11.369979751189259,-7.362656429949217,-9.04834544261404,-14.802362079226352,-8.985940250621802,-22.41699671599684
78.0,7.930177948534114,13.07716714038089,5.146989191846628,-10.437800610992415,1.4123085649313385,9.149136915354857,-10.518787344320096,1.6112701459088132,6.684433487156332,7.6780325161640235,22.697499279612035,-6.188531564004979
79.0,-5.758729483340003,6.564810230613249,12.323539713953078,-0.41714693476477205,-9.103235904732447,9.483046174292483,4.971799883272407,-2.705601356580784,-2.1143929540693343,-7.139854734204924,15.49916662961046,7.501976635922662
80.0,-14.91384547123824,5.582776783103279,20.49662225434137,4.651024856193841,-17.69055848360742,13.001389767006593,4.776454628292564,0.3991959473812543,-10.937180684822843,-8.511532825995205,-18.18313163307106,-4.2454975914068775
81.0,-4.471046010908427,-13.959171055309248,-9.488125044400917,9.199740013956973,2.525528762604079,-11.761705749073691,-8.744324921576263,-9.782402190553608,-14.621336432008533,12.271864442362416,-8.446896058812177,4.355273609753232
82.0,-14.006874106322389,-15.23055717117131,-1.2236830648489172,14.600696702503996,-6.366962760280252,-8.26622693479429,10.104342866721392,10.345409313889109,8.727130649453404,-0.44753441542616645,6.3722818272733015,10.972876041926577
83.0,4.8916635706575615,-5.662125055078484,-10.553788625735969,0.440751172058512,7.759454230814011,-8.069518292338262,6.898607071357258,14.973619702312746,13.023194316126322,-8.374290266058376,0.6270215240970978,0.6277847942672485
84.0,15.550563212328324,4.829941459500641,-10.7206217528275,-10.221118471598464,13.107318222934381,-2.9066588615008957,-1.891340952547199,0.244914549399061,6.161694522614026,2.3019396007167514,-7.210116909738766,-3.8458737550652926
85.0,5.531067970860983,-0.864701222887879,-6.395769193748673,-2.3730664214195176,5.946708463413844,-3.5887801311740652,0.07992852926420346,-1.5944160944244796,9.098480622258029,17.066797574394155,11.360703131795248,5.039155979986931
86.0,-14.573585159958498,-3.7075950690314157,10.865990090927246,9.170728233456963,-12.730558097660738,3.5471564383333645,-4.592971776448064,-5.375548530676829,-4.7285679532126474,5.832016416508893,7.621569646866194,7.238905892299686
87.0,1.254211185724452,14.253042571434802,12.998831385710403,-7.73015875272635,-5.884468003415817,13.600579591850654,-2.7301723176989205,-10.794734830064002,-17.620617373152395,-13.783670111677518,-5.269065654798959,-12.009176481754947
88.0,-2.8173516715284506,-0.8808147889404223,1.9365368825879177,1.8692340853769176,-2.397101772805322,0.5092694790661652,6.399781841824575,-5.13996198150927,-0.36845888589007103,-3.152536017638943,-1.9798744272163278,-9.395798119744118
89.0,12.593200194031962,14.218797359383013,1.625597165350888,-13.464125939316586,5.530670389012524,7.909503339532477,-7.58981843502341,3.338976293470913,0.9452960671655921,-1.9769527568576475,-6.217524097433701,1.95401176756807
90.0,14.990192259017054,18.876069567303848,3.8858773082866027,-16.908700735882178,5.508845911683401,11.372947943560872,0.5535507150382066,5.769888175425837,6.157315183605775,-3.7440080136776537,-2.448839783901784,6.4881118996548865
91.0,-12.699721613702959,-16.872640711623067,-4.172919097920256,14.816655396267855,-4.235395031112078,-10.448766979489037,3.3717611804242136,0.3280397518381859,-5.909030261927612,-3.4034733682979756,2.644714685185455,2.219941751376377
92.0,-28.45219083973467,-44.07405707202875,-15.621866232294195,36.22173577170533,-6.388522179030911,-29.85130204240353,-3.000693887779035,5.0582158257084,3.990421742464595,8.705404476776314,3.7498500217967736,-2.6561981247125757
93.0,11.595828957613346,-12.469390557756267,-24.065219515369648,0.4017446454248059,17.86156125877453,-18.272240835284073,1.9553613230517919,7.678291810880504,5.059038601848607,3.428270401833598,-1.067404259752085,-3.307656978794295
94.0,13.838914849881668,22.554698639039948,8.715783789158312,-18.148464766057188,2.521491238358412,15.624435290939484,0.44675659489159236,-2.6226853180054177,2.4384582221126547,-3.913108392268356,-2.2955597389241427,-0.9607077058020389
95.0,1.27774914080452,25.02669546057844,23.748946319774,-13.101919822419273,-11.268529639569019,24.366268087526837,4.114304745263044,-5.8056328857924555,-2.8899768218766098,3.513789288258398,2.288041714302636,9.052351482609776
96.0,-8.647227454408597,17.143237627346604,25.7904650817553,-4.27777097765826,-17.169888780819036,21.430550070451773,-2.5740297143511564,-6.337262501410875,-14.909552162677755,0.1214186762461068,4.803560653545155,3.4424425821545914
97.0,5.743736756500573,-0.23486940368139386,-5.9786061601818385,-2.788804737177972,5.828543411702086,-3.0804779341193207,-3.0790825587334263,1.0642766800153964,7.835579888612719,1.3871852106913316,0.07959564462702051,-6.594101528802859
98.0,-9.745116623535207,-22.000459064501634,-12.255342440966283,15.831449691700588,1.213965447963459,-17.115607307687043,6.4231012459674375,-1.7288356544196648,4.157108307612195,1.4679031178347002,-3.3950599375593367,-5.953866847830937
99.0,-1.0273976440285517,-16.233282059220464,-15.205884415191763,8.660293844709049,7.115097416331745,-15.715430175692104,3.3267624099562596,-0.501073549153686,6.240967021157747,1.926448635204011,-14.260438647787286,-3.6739767667514958
100.0,4.164546287556538,-11.463450290902525,-15.627996578458948,3.6737283494139437,9.910886481128594,-13.54158271304374,-19.047537691253577,1.1648660007824265,-0.4131870940586979,-11.840716665459508,2.686689694822988,-1.6582780542907536
101.0,19.12210033316732,18.678712039220954,-0.44338829394629364,-18.87826300170963,9.790289149142536,9.130095355031049,5.813930988361252,7.854383178358423,-10.64585346819735,-16.01879842230384,6.7229647689667065,17.158113107652955
102.0,-6.5180517962409015,7.9015671145721695,14.419618910813094,-0.6676839515846584,-10.461941247307442,11.187572338611368,7.352795096501482,3.472125891173774,0.7854185941190797,5.3533517662806265,11.670589111114044,2.851827806761258
103.0,-24.99824247593842,2.773927787763874,27.7721702637023,11.062613675389546,-26.372485914756037,15.238443159474215,1.4871894332799194,-12.150251475626234,-0.8520733868910384,19.41359264686983,1.823825337542642,-7.750512629917301
104.0,6.668865660103373,8.46481020386252,1.7959445437591732,-7.609808860383025,2.4593899780372936,5.111496022205233,0.37623854719828875,1.363844738377776,8.384721212118937,17.485159077190723,0.612397714919902,2.208795980574271
105.0,13.099679912500797,4.118435774419057,-8.981244138081705,-8.56719623551832,10.995812587271548,-2.43927427494438,-6.291643529732956,8.085294018027673,-3.232054723634677,-7.6332497215929855,-2.64263824519135,2.1241157089019427
106.0,10.402802229246106,-2.835648493823348,-13.238450723069452,-3.7376279377884964,11.784631160734225,-8.040324492961346,-6.03057416386495,4.0893275606498145,3.5145152496301377,-7.93867171564072,-5.444514211649323,-7.545784443770727
107.0,-18.636393555726997,-30.399729607007473,-11.763336051280536,24.48660811248501,-3.38998721564656,-21.08665891708826,6.120628321390011,-7.876991125043197,-2.960047876425392,-12.666019675493507,-8.33676343777938,-11.69893475252755
108.0,4.587696514082989,0.8665224582869442,-3.721174055796153,-2.7597885317436717,4.1205852254772575,-1.3608296494571412,7.670802943728777,-4.462625763509334,-10.21594455917629,-9.617133425169065,-11.232158979010455,-4.517353255331784
109.0,6.950955866429712,6.1653251546685475,-0.7856307117612922,-6.59359381416793,3.907329597116739,2.6668887328399737,-0.01985831519309933,-5.288938603343338,0.8512890818010228,13.435828611237177,-1.5189370908958337,7.092706482471897
110.0,-5.670249590332672,-6.793410564730087,-1.1231609743975275,6.272278177606512,-2.3209353785955704,-3.99377695991474,-0.17967742074975285,13.161289381084382,12.283509048625975,5.1216658954428445,15.33083747932896,18.438634321971808
111.0,-21.949780154453645,4.951633547105679,26.901413701559242,8.53777093337762,-24.400971135815936,15.957082966876575,-6.263602085794747,-3.4230816775443005,1.5276793652559668,2.034542410523435,6.4570167838978865,7.824216996231648
112.0,3.495560645909757,12.939050325236686,9.443489679326886,-8.179103937116528,-2.952897336215411,11.21062807946528,-1.98910981723933,-9.769877737640948,-7.306163219604379,-9.609857572969226,5.972215731912601,0.9246747377763533
113.0,14.85617693275199,20.642491954497963,5.786315021745956,-17.790135132569283,4.556671114297226,13.147068744461855,6.941994901299342,11.293728991153568,7.4450061585515055,-2.5051883654111253,3.1643936198474893,-11.238441470878874
114.0,17.31092124162676,3.7334391124937856,-13.577482129132953,-10.564549338211897,15.391780547802506,-4.913541988790293,-6.058179213898877,10.65921699321655,-3.9960454898141173,7.681248444989566,1.5890556036200534,-15.758336511601277
115.0,5.315185444391536,-14.790992486288584,-20.106177930680076,4.770335423881516,12.744119590317464,-17.43671636813833,-6.705455425886963,-7.50860019604825,-1.83037604793013,16.32878982072323,-5.359825140506871,-3.202204877078236
116.0,-19.135319663753513,-18.254341844891176,0.8809778188623945,18.642451285683038,-10.045694267953632,-8.6648749262052,7.1109796908212655,-12.45450352798201,-3.6039393789835845,-6.671414036095026,-18.033309596413694,2.8194574934914725
117.0,-7.865059833305459,-7.266554347986721,0.5985054853188045,7.585744606865159,-4.183827206452786,-3.297184252332684,9.201255219904132,1.2982097193366249,-3.32922347871412,-17.182708285323464,-13.722919074166857,4.528803882192235
118.0,-3.3091215945064754,2.423599128623551,5.732720723130069,0.4584760452255363,-4.5469690592138186,4.053175208485497,-7.933890451219751,-1.946566441747723,-4.783521594206414,-0.4589506579661613,23.977759475475537,2.4167881629417076
119.0,18.525616094412893,24.218948108371688,5.693332013958753,-21.356247187347012,6.392754439387938,14.945691800896146,-7.968733471331762,2.861409087920739,18.61908030645896,10.879403995226719,-4.613730185807043,11.409939058995377
120.0,-14.52106926039957,-24.11822441691814,-9.597155156518678,19.341592154212893,-2.4840709529071363,-16.86010322006846,8.776510277883569,12.754408130155726,8.94158075924432,2.530182210076164,-0.5733302787410759,5.092421536151936
121.0,5.54697047881676,-4.517541510614514,-10.0645119894314,-0.5607781309649166,7.863253353283268,-7.29449982234903,7.800795978235801,0.9247958302426529,-18.761221231412147,-9.655392390711985,5.187608333289433,-2.3890143895107827
122.0,-4.773293048836951,-2.995268638717688,1.7780244101191693,3.9301536484326474,-3.295838959228371,-0.6223716032263915,1.5893561078173284,-5.250858616020317,-1.1744261410839165,0.4040363647862544,3.3744347951327605,-8.422951567825418
123.0,-0.04978701868017199,21.40501269429214,21.454799712972267,-10.698098783496258,-10.692840758395015,21.399210660233923,-5.174114985675949,-7.773759975732103,3.887093352503527,0.8306295585855981,7.475473761566629,-7.214380871851965
124.0,2.720677374270509,16.41407094963284,13.693393575362355,-9.579304149134732,-5.506198265683548,15.082725889905412,-12.980970020389936,-7.618874870420646,-11.893280571954167,-5.9632259499093,0.2943699167322542,-7.392133164356349
125.0,6.939492470986709,0.7581019950164585,-6.181390475970185,-3.8578681048880323,6.537202851481909,-2.6986196498585207,-2.064414528148234,9.27468773433996,2.4006038796769027,15.097522485477153,-6.460760803490438,6.372072669168754
126.0,1.4904797402478618,2.2062566691739485,0.7157769289261688,-1.860401537106465,0.3573051862570651,1.4654032736095042,1.3736041464271327,10.353358166930217,22.65060220563912,7.041007591873287,-5.065943849512726,5.752069563839278
127.0,-11.986763283151191,-24.282963805065723,-12.296200521914479,18.11557933847381,0.11554451908995489,-18.284555930040167,19.08895627037336,3.6286850514044504,7.1869692122555735,-5.2234078190148505,-9.49353505935883,3.853499746620594
128.0,5.96238310422838,-14.02733400228972,-19.98971710651809,4.082907011320277,13.006829478219533,-16.9944993141759,-2.0832567013442826,-1.6961896461661161,-10.733637149232514,-6.953994658720563,-9.039560281070093,-4.0514353878973886
129.0,1.0672078811215242,0.0969088170525616,-0.9702990640690334,-0.5399416975636298,1.0442600387155712,-0.4087124996979785,-7.180315550060129,-15.772667527852597,-20.209349800913014,-2.5177655340066067,4.505540349093349,1.0626930875052283
130.0,8.386707993447425,28.290933066314174,19.904225072866577,-18.38134680314632,-5.732757578781591,24.06105742613883,-4.767211708970573,-12.609224556203925,-4.431030510642813,-13.690717030460732,2.649812298125699,-8.781544146740153
131.0,-11.57004825155873,-14.842971895596708,-3.2729236440381957,13.161107304607878,-4.116177239428676,-9.08420254784695,11.631557408329034,14.510971507336423,6.559474082019969,6.080637015407135,24.86641623437833,12.31629244269931
132.0,-7.54583894770721,-15.312029066955056,-7.766190119248016,11.46204533912106,0.07385590151177901,-11.561478297001496,-9.86361980246446,1.5928515631611875,2.7774673742954405,7.360516088767978,2.2496744001768256,4.7774382719819375
133.0,5.462720417552502,4.40325499636632,-1.0594654211861885,-4.898497306087792,3.234715318246902,1.6471416918101365,4.259667491473907,10.204922875766808,15.4175691492053,13.361663598789498,-4.3528365989946725,-3.0426495879764754
134.0,9.91603034720718,13.099869536225924,3.1838391890188866,-11.550557783536034,3.3456828055826193,8.189364115496709,-6.183270890048073,-2.291252941793771,-1.6213612905181893,0.8647152515648049,-8.28135185082751,0.05466838857100642
135.0,-3.56867737588427,17.922658549448705,21.491335925333175,-7.140223081764162,-12.47228319104585,19.746867190003524,-7.938489887047794,-9.319279938979507,-12.390764113625817,-12.19415913486768,-9.423631478992759,-11.261718876479566
136.0,2.1684714168462746,6.41163141840475,4.243160001558686,-4.333285526074556,-1.0660352453075412,5.360829162784602,2.8765447561740203,1.1779955139293135,3.95365582031181,-5.0941719195982,-7.284573221232935,-12.645920487431273
137.0,-2.770277920988466,-11.405597763010913,-8.635319842022287,7.120265065378998,2.890935516376446,-10.07000765172353,14.436708766073506,3.486340316071884,-0.34772519971691684,-7.425964350047968,8.154653582493282,9.579621656135007
138.0,-12.249708400771416,-14.806921413049523,-2.557213012278046,13.477600800908151,-4.823602962997072,-8.73389674650949,7.733738684450249,4.687435008638209,3.8709706594523627,5.566965945816294,12.566486423093314,7.267268872345873
139.0,-7.111111635688809,-7.31462278060642,-0.20351114491767675,7.236994909855564,-3.4429862520481507,-3.733348330475552,-0.02633490578742448,-1.5510595891930363,-1.978690383577992,16.41787781339774,-1.9611680552900541,5.942396013241035
140.0,11.444211062292736,-9.951876925077306,-21.396087987370155,-0.7239718940929105,16.425459879617314,-15.649255122012757,-7.790819516292952,-0.7785501541589916,4.06789723260664,6.033517592262435,0.7875486974776424,8.377463068803603
141.0,15.338542821952093,5.3501327698075425,-9.988410052144639,-10.321027224942021,12.671311277608254,-2.29572124169181,-7.503392295630684,2.454614978715504,-2.4336809175508916,-13.788662429287417,-6.566064539111364,-4.404602284516253
142.0,6.851188985167209,14.11877395569202,7.267584970524799,-10.53612226296224,-0.19071081396920864,10.63614417328012,-9.893426082837458,-8.135262426876912,-6.856995880350443,-11.951459155807935,-12.167220784802957,-9.938792110891924
143.0,3.5642674700276835,14.936912401694359,11.372644931666724,-9.216334143971954,-3.873191199881585,13.17481897313538,8.458413674606502,-6.041927452205632,3.09403722026636,15.283673066090227,9.879421067509096,-0.021417956864356213
144.0,-15.683722508127932,-12.883148220624175,2.8005742875038138,14.246426873490858,-9.27704144545466,-5.022024712738549,3.4049314887661075,-2.670710155168054,-0.4000153800358899,-2.7713993995345687,-6.52332513997592,-9.030325108949443
145.0,-15.464418717029131,2.854428446243535,18.318847163272693,6.353327485421901,-16.918385164253763,10.52834237189656,-4.706683775705144,0.044175516751031374,-14.741093306960568,-15.470415417522158,-2.7905204059258573,-2.7317542427056747
146.0,-3.6484850134692373,-1.0941434589174768,2.5543415545517094,2.345086723816377,-3.1267912957819606,0.7545339478584288,5.11324974801804,7.523328193756596,3.592696268647931,-3.6728365398040976,15.426615586971936,11.697755966198272
147.0,8.988752479424006,3.386863079817873,-5.601889399606263,-6.213140974025038,7.265286274050799,-1.0763065581405562,4.351931780515621,16.39408045730791,22.212572077961628,16.246942543389135,12.193088172238003,7.788844160155483
148.0,-3.1216383961115595,-9.649637164051336,-6.527998767939948,6.436613779157733,1.7442827061443777,-8.049237477026592,-0.05923078460318498,4.548250724387095,9.956514919290708,12.603375233658745,-2.6675024248480654,-0.4521895150840063
149.0,11.054804781659566,0.18247151086659752,-10.872333270793142,-5.651340562583765,10.998052982883596,-5.376386167729489,-0.32604584093511,-3.5981115790637133,-5.7001850906699705,4.428819246230917,1.0072012808188386,4.05629138861832
150.0,3.1695481411558317,-1.3004903235955407,-4.470038464751376,-0.9731436647889296,3.851710713174061,-2.912270219694461,-6.925470604762659,-12.738457190973817,-11.609175332493301,-7.472188680406397,-13.71861540404148,-5.318725423282874
151.0,-7.483362214839423,-9.315727076510745,-1.832364861671211,8.434463919463864,-2.8699112471954313,-5.601760874494093,5.76977452420536,-11.79755842663631,-13.17910935929082,-9.441541054327766,-7.481611225086744,-9.028079744512773
152.0,10.483429340238978,-0.5321590612395257,-11.015588401478333,-4.943990351674806,10.789873224180624,-5.7290494156519856,-0.6048462513209844,-3.5115131765029206,-6.6850034746005935,-14.449918288273789,-7.149021063854249,-6.459891793205106
153.0,8.637013362095253,21.32702165710335,12.690008295008251,-14.951373282828618,-2.0581492823854184,16.964285745191578,-5.353445818812232,2.4969496324266784,6.393406004846787,6.207517303427464,-1.8480708127863315,-3.613603024082134
154.0,-19.175815030609648,4.017863129553443,23.19367816016315,7.531523484755077,-21.212077981203127,13.628557099271017,-0.40688365870669996,10.743966634649922,15.402210338680208,9.818199051152604,8.032585325091965,6.5165486114088615
155.0,-2.6092259924941086,2.739441297091583,5.348667289585647,-0.11136687830262337,-4.006517154767577,4.056641467110594,2.477041232851916,11.385256924688239,5.341517889753627,1.3587502364443091,10.307089062881593,11.239286874785433
156.0,3.294225299144819,2.396747111690246,-0.8974781874546416,-2.8122161490103545,2.141682233960992,0.7558161696442656,4.751905231849542,-0.8470480083032648,2.0860262152999764,2.5251996880837515,7.15999198032831,11.634317140353843
157.0,2.5431748026784122,-24.703375410667636,-27.246550213346055,11.113376123907697,14.93121029962131,-25.9705337589314,-2.7840340622642312,-4.644135343237437,-2.635758973573739,-5.530167317717544,1.373805463897079,0.5086302744711002
158.0,-8.677246509363986,-10.400371304181123,-1.7231247948170516,9.492839624515902,-3.5310949815643777,-6.055084468915219,-2.4357387637359276,-9.542708560081214,-12.623238621465477,-3.6225859299483703,-3.817452069451696,-12.362937208696659
159.0,0.33522659906103647,10.71216191358942,10.376935314528534,-5.491255442346166,-5.0075392723518535,10.555714921992259,1.9594037203095698,1.7982747691294199,-8.830204045443153,-0.01238391330435662,-2.911626414240187,-9.856564351880593
160.0,1.041422554020777,9.384460993922728,8.343038439902083,-5.258772949145159,-3.6464025576179355,8.801020731256155,-3.0669964703151273,3.451282504005284,-3.7353370138007245,1.3189679713980462,-6.410900430837405,-4.809178347329436
161.0,3.985602097829585,-12.313230227625963,-16.298832325455493,4.19833987217157,10.1419314557486,-14.28605515167893,-3.82808907231605,0.8965387105817338,5.466816100612523,7.377928658408867,-2.7025205123529163,6.723244658339797
162.0,8.996665330456171,3.6988812232579384,-5.297784107198252,-6.310858331547781,7.147341943267756,-0.7765259311461508,17.781210825791966,1.180772708564958,26.002322734866375,8.294938357043801,-1.2340426372604107,2.5834268752594847
163.0,11.550264252792362,13.860283796332322,2.310019543539955,-12.744961309068804,4.625583341864299,8.032207144329657,-1.0924231907794564,-0.3037813685082147,11.59294168234287,-5.053783231231744,-3.9874433969985565,1.140548010770444
164.0,0.5116843758312339,7.720509045646242,7.208824669815058,-4.076474496299741,-3.3339821962011107,7.49464167608913,-14.09960075382143,-10.113196370081422,-21.496201255453165,-10.0874268620442,10.346354714582615,-0.7208821389651456
165.0,-16.226656120212528,-7.041028787579117,9.185627332633512,11.592676184128027,-12.759322873197002,1.1086512039573435,-6.236432877169158,-3.348727889039054,-19.8651873866021,-11.976121855637578,4.711930177345222,1.2951795244177835
166.0,-13.064958818895388,1.5861131749048551,14.651071993800322,5.693591039353265,-13.821927177508329,8.084525506329589,4.791560843216137,7.751037656203703,0.45252811058545817,-6.0893311727309625,-5.964824455078252,2.2478904455527045
167.0,-4.106506515743874,-8.321171942340282,-4.214665426596406,6.240640069288297,0.09799610071078568,-6.214619203596773,3.7874808051918,10.546198159634065,9.022677830066478,16.301984778405295,-3.9946784345370983,-2.359673839837115
168.0,0.09992025248791458,-7.192097145801096,-7.29201739828906,3.5672912463460804,3.664661538891548,-7.261251233838647,6.102875287536797,5.190487656598538,7.5763705863337805,24.037866730585925,13.566314558537433,7.1662417970154095
169.0,10.093675470273912,-5.154410194790073,-15.24808566506402,-2.451611275069496,12.63834169014864,-10.219154989999424,1.5928812617093966,-4.799982449491182,4.095674134098268,-7.924564023319695,1.4074043412814652,2.266075662043952
170.0,4.892129069251233,-5.788242937767872,-10.680372007019132,0.4662765410547278,7.748753832842173,-8.257279612662416,-1.4416502214770897,-7.243862946056188,-5.066423369054747,-9.22767898640938,-0.8681712078030457,-4.409740065315855
171.0,-0.6824886074494962,9.171065386520802,9.85355399397032,-4.3016176448248755,-5.233123276486355,9.478584039392192,3.9091511365369325,-4.987742795065785,1.723593402663546,0.6535418523444942,-5.240220576958793,-3.5115613911223726
172.0,12.1575733727294,8.57537735970552,-3.5821960130238395,-10.340383891138599,7.899844776270932,2.527885975114385,-9.641532809264357,5.563959444931499,2.758549725681203,1.2312868047130858,-6.401835981384469,-0.3586155252350758
173.0,5.753275873141872,27.267658560486993,21.51438268734513,-16.48032219087982,-7.851923761353066,24.40949663890231,-12.298048156479034,-11.842945571572349,-14.121353118976247,-21.372107632639235,-11.540631815453002,-13.333934269659274
174.0,-14.259666110259571,-10.384026549291656,3.8756395609678673,12.274796344113174,-9.114773853459091,-3.243943478251216,3.9945764175045717,0.47719605595104064,-0.5558752390354771,-7.230540420337395,-6.5624946381263936,-10.293260131218892
175.0,-4.0812630240365575,-16.254355772500503,-12.173092748464025,10.197582032779518,4.083948074175544,-14.204878883912013,6.824467434156362,12.254138316227182,5.387506528162869,25.62497580350914,14.40377978796359,6.097300178112008
176.0,-9.456356950302727,-14.420204843882011,-4.963847893579373,11.884229672203286,-2.2792582443640748,-9.67761932443196,5.21909120838659,3.000035044773507,5.108725160174604,12.2193863133869,-0.021556631335787557,17.807633282126762
177.0,6.999619409739616,-5.929927592246856,-12.929547001986535,-0.5167526028131233,9.938150706496726,-9.483332324611258,3.9710839206839825,3.916192634991165,3.5906727972087418,-12.750168628295256,7.942718368366599,18.79936962709396
178.0,3.988294826419148,10.49203582679525,6.503741000376087,-7.227886784272898,-1.2019932743825161,8.53602298472817,7.113714074737652,-0.9495296987961519,-0.09869903625623055,5.138298089754283,24.527923387282883,4.352879822798636
179.0,-3.199962987538167,8.845709273004559,12.045672260542778,-2.8135147825199933,-7.64664401996316,10.417119210735683,-8.910378164424587,-9.50593968380004,4.62057644295954,-1.1686757685076343,5.256590057735298,-4.314932812911387
180.0,-0.8535169103304061,3.221266885766088,4.074783796096588,-1.1735463591599915,-2.492909241892199,3.628000082723224,-11.321461189093707,-3.2096302732560087,-20.572352469761036,-6.138142197944509,-25.942136113875115,-18.315017994615904
181.0,-0.12243090152471403,2.7828791302625073,2.905310031787326,-1.3155814062906948,-1.4718048831396537,2.9064008727963246,0.6553492552505356,5.674329090442929,7.284534599630918,5.7836541264216725,-17.385054049396835,-23.334066579646354
182.0,5.8541733625960575,6.899996555322353,1.0458231927263482,-6.356620692653481,2.358366169172487,3.954874326027771,1.4954657458951743,-0.21702435929094333,0.8825479065876485,-7.157340354906546,-0.4011411351960632,7.668381880934083
183.0,3.1557811191605007,0.33842851621513537,-2.817352602945385,-1.8003313780428427,3.011061435045986,-1.2632727658931795,1.2374797364043715,0.014604502822016308,0.759211377674847,-5.821309517160375,2.6130979764307996,10.188477341553835
184.0,0.7973605497795417,-7.16008945765138,-7.9574500074309835,3.130784070292746,4.3954796629114306,-7.590583516053415,0.6780685756046911,-5.276219421694922,3.1364702993909135,0.5158820965804811,-5.5175348382228675,2.873023070997043
185.0,-3.5166175103533166,-17.295625849208875,-13.779008338855638,10.434179169351541,5.145293416002071,-15.498146851481437,-1.3870786129405168,-5.031661559184095,-6.294305257246417,4.632286938103888,1.4388867529172842,-6.88547492507903
186.0,-9.487538627002818,-8.950674873199024,0.5368637538037291,9.245198296786866,-5.000125390682818,-4.172967373393754,13.76843476408062,6.9975216193356005,2.5308674682191286,-2.052772191311073,9.846769630679592,-1.2432901654431912
187.0,4.74012442711631,6.033927829333036,1.2938034022167317,-5.363288446650854,1.6555003985795889,3.6177819632077632,-1.0056067634561838,8.515123182606098,7.347283081442411,7.075513680296856,12.870609667888207,15.579614659599272
188.0,-0.9064398314453997,7.420168381154507,8.326608212599929,-3.234642855053026,-4.606047388905049,7.908865202075999,-9.512162343547374,3.0096105798641393,1.4002843704599555,4.18840859250915,10.093458311799765,4.140013161747581
189.0,3.597917753086783,7.078322469152061,3.480404716065311,-5.394746120352385,0.06906438792838943,5.241797552876964,-3.6350814506755578,0.7442557827021058,-4.256971514581184,4.1040143370449504,-2.9687364487900583,3.5125733924405558
190.0,4.787564054969312,9.532312502524839,4.744748447555569,-7.136435650684991,0.032811499925908594,7.186208064227754,4.054370616893927,-1.269975337320691,-3.229069871033416,-2.909774025781998,-8.631509575784598,-0.513922292420192
191.0,0.1555486900804408,12.090353852041538,11.934805161961181,-6.175442889356671,-5.874705964742272,11.986386505261013,1.5078043588326207,-8.122255599547302,2.235611925193342,-3.2673436638182327,1.8611175880782085,-3.857993034710062
192.0,-2.6656747609824247,-3.7824412483226775,-1.1167664873400853,3.254422580263041,-0.831430033836955,-2.4744963216694695,6.813965755951728,-6.11995081270742,2.253310136886194,-3.1355368590773427,-2.952501220039278,-8.691013618801275
193.0,-16.19501107755319,-21.23791683472831,-5.04290575717493,18.75224329978819,-5.543963787000779,-13.089715452321215,-12.074337027096973,-14.124828225552287,-15.877908789122738,-11.601794036997582,-19.677603927027114,-17.974489600247544
194.0,-0.1679435703812917,-7.015397156045145,-6.847453585663745,3.5550999988596192,3.3846331451990554,-6.966530533069827,-9.35806203451802,3.3421266615225282,4.059326317410841,-2.3942689948090647,-22.35676510956238,-15.894425513200867
195.0,5.403323931286779,-7.905147786873565,-13.308471718160394,1.2997254919647303,9.335180848266392,-10.650874543328666,6.574546242549642,16.963432539113338,13.067791948260801,9.36230280311373,7.000521560857125,9.738264002353135
196.0,12.317667880010694,7.813161440688869,-4.504506439321945,-10.089491031569569,8.401116128342371,1.6809825880894103,9.032648740454423,12.28529746104227,-9.8615186623221,-4.570480045300645,18.394221022193598,23.077827950352475
197.0,10.678585016479786,6.038797724330945,-4.6397872921488945,-8.378493114731588,7.654968796569378,0.7217742538361054,6.658319032253695,9.241900425687401,6.486869810789969,1.0140047077542156,27.878949670007493,19.90481130355208
198.0,10.991502153823598,6.014189180959587,-4.977312972864019,-8.520107851023344,7.979515811764148,0.5414634972455268,-11.672184235235942,-10.659481866058712,0.91920930411955,9.173520437485065,15.971757801737086,2.0881449296732217
199.0,-21.847511963448557,3.6884900616648695,25.536002025113294,9.06371955096793,-23.703385141158925,14.640756782690714,8.596074906773966,-15.107932005198816,3.9808964091014447,12.33391044487902,-5.5530393715826305,-12.429690178162968
