Time(ms),I,II,III,aVR,aVL,aVF,V1,V2,V3,V4,V5,V6
-200.0,-2.885183088587426,1.4630536853765097,4.348236773963974,0.6796517818938641,-3.642634741120532,2.957759741288323,-1.055966826941556,-1.6269839487315465,-0.35732786176966713,5.656019695925354,-0.2756896208233256,-9.175585991432559
-199.0,4.730340899083309,13.435874176565271,8.705533277482026,-9.031664846043462,-2.011282565632144,11.049744616061348,-3.1014488148212287,1.8235330342714113,1.147979767454318,3.9155162829381815,0.35154643193132884,-4.553049194185433
-198.0,-0.1343536565353809,9.07338077076345,9.207734427298963,-4.493424438201858,-4.615765828906523,9.121268923351746,-0.9895237357972153,-1.923071684652133,-1.8870652223095687,-2.1631911001224355,-3.873352844649287,1.4743121436348647
-197.0,-2.3271349350263124,2.4513765193596133,4.778511454386086,-0.08456334063958515,-3.5787018496646787,3.6721119006308456,0.39158127088538897,-1.419748707253884,-1.4841067673364625,-3.0538714058144043,-4.471387593812385,10.161201909077358
-196.0,6.034503882430352,-10.631026389715865,-16.665530272146125,2.2745888093151145,11.397687314051922,-13.6754483934278,4.199408280597921,3.1139477626045124,2.4798258913521583,0.5689647964182702,-5.219362954256141,3.9603760632885674
-195.0,-2.6565304580426212,-12.412067504192457,-9.755537046149847,7.585422636136001,3.5108098098704357,-11.118782575053952,1.6368615492040817,2.6769095102276177,1.2604159180881744,-0.7642184814489488,-4.220224548688616,5.0239849112583785
-194.0,-1.8971895587145264,-4.218393162136999,-2.321203603422579,3.024163072186915,0.1643736087138592,-3.2347746643620843,1.4576661746688342,-1.214417837586637,0.522670477708574,0.42710124509426617,0.38318238124067355,-0.9984308038308161
-193.0,1.821915217327445,8.491811471405878,6.669896254078285,-5.1187267476700455,-2.4013882324854787,7.607511118669857,-2.014627295307682,-0.6345088437811279,-1.2141406323687154,2.6866118783070654,5.307660196325358,-6.895812441837157
-192.0,-1.068351066258589,4.486749728896104,5.555100795154576,-1.756715047182818,-3.295224261850823,4.961997831247132,-1.7107403432617732,-0.889733838334994,3.1010567306221244,-1.2934990734506109,6.103384400426659,0.6798553968528234
-191.0,-1.9846620342227206,-0.8362350154240872,1.1484270187985954,1.4356237692454807,-1.5522473335127946,0.17143363870108352,-2.566568681728744,-2.0107837159057973,-2.6329221821044846,-3.9863411667470463,2.5050408786324976,0.405699304415331
-190.0,-2.4453500071017804,-1.2215739909559185,1.2237760161458993,1.8537240325969928,-1.8182688700345833,0.01464462862108551,0.0164867302518108,1.7990486806946988,-2.719012417443938,-1.4817244316755722,-0.027924783476714232,1.514422125648212
-189.0,5.061439532740815,6.27002350511545,1.2085839723747167,-5.649345828060277,1.9478717628485898,3.7535104886594834,2.5920883566825115,1.4307775854592149,-0.4300435813785528,-0.3981205233109276,-1.6295853538833116,-1.7230210530369585
-188.0,3.7710482551045876,0.8000299214148254,-2.971018333689673,-2.351010308312781,3.3200970275375266,-1.0689404403895395,-0.982225329157232,0.622429958278241,-0.33991670428666704,2.9540427631325885,-3.553732327464691,-1.3777945612425755
-187.0,0.5037136465565006,-2.6664438851379484,-3.1701575316943273,1.0922198445099844,1.7916406991813627,-2.9775202640864933,0.7231910693990993,-3.7127391759544546,0.7508315001692634,0.15470374662739728,-3.272652951844458,0.566993226298362
-186.0,-1.1957279273020056,0.695419709372167,1.8911476366743125,0.2595492137356712,-1.5062572329385493,1.3155060608637021,0.5839893619114425,0.40593266302071096,1.7167519871646526,0.9836667919525564,-0.5923504402495978,-0.2320279232169984
-185.0,-3.7402534768690825,-6.747333353222305,-3.0070798763531092,5.253218644820433,-0.3277322749776875,-4.852979729183331,2.1743359470706527,-0.475146936462447,2.629771284534006,0.9227475660511384,4.834445877025189,-0.30824227424040357
-184.0,-1.9433689152696112,-3.0849455259884087,-1.1415766107187308,2.525522329892838,-0.4404646482691615,-2.1662269251046467,-2.9296754542832826,1.798015138601384,-1.0257233943910882,0.5619049085545966,1.9075072636868085,0.16868430727661843
-183.0,-4.652020948311906,6.6680049605306575,11.320025908842545,-0.9927796245046336,-7.946755275383572,9.021636940757178,-1.9150561298668094,2.275384720813908,-2.3371886581868675,0.8589401252671175,-1.3477624657142773,1.6888412713311374
-182.0,-0.5930720469382372,-2.7899376222809766,-2.1968655753428052,1.633207371785567,0.7633629347752686,-2.4628075016779833,0.6828625202685594,-0.760749312843743,0.20206105713892875,-3.230806628854673,-1.858415918821742,-0.5114326851262192
-181.0,12.029304113796204,5.721259095316607,-6.308045018479697,-8.849089184601667,9.132717067909413,-0.33686778420835983,-0.49761310215338206,-0.28625061626975323,2.1290788635418645,1.34702233173669,-1.0028095164007786,1.7951969900164189
-180.0,6.125767240832606,2.602494678467025,-3.5232725623656633,-4.332750671307933,4.871630168477994,-0.4187284032536602,2.8132617876952577,-1.6025543563500688,0.8199872154624135,2.7866784275972893,3.28221777185058,4.526631829643625
-179.0,-9.21559574291299,-10.181691812176975,-0.9660960692639997,9.654903373353655,-4.072388986309398,-5.603562752445918,1.1493253005471669,-1.0187237548871746,-2.9918486818076113,-2.6275416017277213,-4.935341410801087,-5.891272157055373
-178.0,-8.299474492470464,-1.0654549578565011,7.234019534614017,4.718767024818798,-7.788666131972512,3.061839876144798,2.130140536690691,1.120054514508102,-0.23809823306592337,-3.2864096890783587,-1.840168191488795,-0.8288373432259055
-177.0,-0.13877903016545456,5.048030601668039,5.186809631833598,-2.498492654662945,-2.6831133969748815,5.179195605845715,-2.860724377025904,0.13243603454170078,1.6680182086915853,-2.2702839720927726,4.532684457216162,2.22143861453354
-176.0,7.169435012191302,2.450607033818017,-4.718827978373178,-4.779115832356412,5.921019733751625,-1.148959274969847,-4.236241405245067,-0.09659503910215816,-1.9327847498492274,3.401087080177728,3.972264959769254,-4.167916912799664
-175.0,4.4022129228290225,-2.0724576410998634,-6.474670563928853,-1.1397971988067122,5.408072780949177,-4.290816302850484,1.475117427603805,1.6764516806028409,-1.0137309650576216,0.8867410208870998,0.42935179225706,-3.8199438123154805
-174.0,1.4048419292400578,-1.557863984930377,-2.962705914170456,0.016370588771875805,2.2221163068527634,-2.284792913818082,-0.9376923605566532,-0.8512328034827039,-0.40700963645739324,-1.8340383577553876,0.8874816682126254,3.6829834423061776
-173.0,2.3366512781952773,4.267657522835119,1.9310062446398093,-3.289146268979313,0.2313131664413468,3.1423418199468,1.0452967073804476,0.19467038175496176,1.6439009945199257,3.0318347874069373,-1.8097470662997162,-0.5722578594203949
-172.0,-6.694378041853817,3.007550286604215,9.701928328458012,1.8532103511964988,-8.25484189784986,6.3058590024750565,1.8876382123451765,-1.0165502156767259,3.427280991830934,1.3551553946110886,-1.9889244405406283,2.972357658125277
-171.0,-8.077067357614458,6.542762957026876,14.619830314641337,0.7772235710836501,-11.327035726374966,10.598948582555309,-1.0306586887903497,-2.7684528440068803,-0.6473900438469447,1.125286228108725,-7.310146309591137,3.5611796453806717
-170.0,-0.7453911070601826,-8.05352473793764,-7.30813363087748,4.413579644555875,3.30850901900604,-7.671633252962828,1.3010717184875489,1.1821008797601493,0.24786658276773593,-0.09672830187016224,-4.9203263351762425,1.8826173086954283
-169.0,-1.9844173349916348,-16.69674388844245,-14.712326553450865,9.361903638398969,6.401660566507462,-15.698032921040143,0.6541674904477512,2.976001449050714,-1.3842376422721427,-1.0078975292456902,0.20925632716509446,-2.794366900934073
-168.0,3.1311392582883935,-6.539072802582552,-9.670212060870996,1.6556327619852769,6.371777013361884,-8.09455153089929,2.296297638941816,2.664262125499256,-0.05856582485757822,-1.8775299702157249,11.03919894616277,0.6872014708222469
-167.0,8.207920806676915,1.208000072956678,-6.999920733720328,-4.74669978833977,7.584849329953897,-2.8771339563607827,-3.587627596182056,-2.973239253197252,-2.528316786493344,-6.581333088580977,6.07956966164971,-2.0712029144185395
-166.0,6.6940394669437895,17.137629672700143,10.443590205756216,-11.866857321087021,-1.8894051310397066,13.742168847429335,-1.9275511310051572,1.5226322943308064,0.9869147343554542,2.3595920029262283,6.411971579368366,0.2326833127118899
-165.0,-0.6121562680309824,15.55878979268374,16.170946060714567,-7.495586702095778,-8.408187527775247,15.906564048726317,0.25110409960562285,-3.002727076539579,-0.3183518992701612,0.09971582147178126,1.2972558691125198,-1.8603717675162519
-164.0,-2.1615963032764136,6.99518265778613,9.156778961062443,-2.355057478574112,-5.682987225203071,8.047875977090946,1.2957452000753986,-0.28828115253148656,1.215781654662029,4.689143188230103,-6.635320950472864,-2.1765993572825177
-163.0,-3.328105124034691,-3.78217256527042,-0.45406744123573084,3.540227063278742,-1.391381573280837,-2.1408509954869688,-2.162875259759609,-3.020684695978269,0.16385213044719027,4.621167877548344,-11.432395128806,-6.811603562961299
-162.0,-3.713028971572048,-15.891651402925552,-12.178622431353396,9.785529464150539,4.270369841092508,-14.055805688576108,1.9014096357748065,1.8018321317247983,-0.9469760394151049,-2.032820560065899,-8.556213471187736,4.543501397873515
-161.0,-6.164373624540863,-12.735790534969901,-6.571416910428899,9.427078696203733,0.15793175946570637,-9.59551398102355,1.455931388879098,4.280215365657384,2.789537919220253,0.9295940017186636,2.909301802077501,5.765326458950697
-160.0,0.4569096205992986,-4.899573718864709,-5.356483339463903,2.1885675634306025,2.9396520852419865,-5.149301008105587,1.1320610597823366,-0.45356348371082067,-1.3863678001673243,-1.607722917159773,1.5603787194649152,1.977590768326058
-159.0,1.3809328437269943,-2.3122681732688113,-3.693201016995773,0.5000945411090196,2.572741781114407,-2.9456763430182256,-0.01698039320486555,1.8607713979409177,-0.453173922724038,-5.163605362486239,8.078130395683942,0.6805878251716693
-158.0,3.052895717075615,9.896444048345018,6.8435483312693295,-6.451296119164057,-1.9350922977930707,8.347957075913776,-2.840267021279136,-2.189291877202234,-1.295456143827999,-5.684081592063114,1.4072754782133705,-2.292939992833767
-157.0,3.911077998492895,12.001665935813445,8.090587937320425,-7.941480471385586,-2.127789707985666,10.023088779458298,-0.6592538346002099,-4.056541432867902,-1.8996071117949347,1.5469249130752727,1.4723079587362915,1.188659233532532
-156.0,3.313630191702697,13.397882703327856,10.084252511625053,-8.345516274839072,-3.424134649053175,11.715785822896965,-2.403935967856277,-3.450883103182342,1.9958376727272735,4.400344681920839,4.872059886286951,4.355122657425787
-155.0,0.5411485198008674,-1.5529374162374028,-2.0940859360383026,0.43692402572428346,1.3548641895356552,-1.8521210855874388,0.9172007817952088,4.721862712332072,1.7347354323630884,2.5940825590457917,-1.772228401856966,-4.2295920334905635
-154.0,-3.315494739120271,-18.27520960898984,-14.959714869869545,10.808592456630732,5.856441939194485,-16.570733761590393,7.193558103803062,5.587135617920344,2.175562078104916,5.218905766635705,-0.6062574153182618,-5.521463676728982
-153.0,-2.3436813064055517,-8.695811645140648,-6.3521303387350745,5.539777845498441,2.037032846250617,-7.479387134333337,0.030876613970083344,1.4385105285707405,-0.4922236375697365,0.688122994813541,-3.1921962966621926,-3.1197533162354887
-152.0,-0.18850303044429717,5.995634241024542,6.184137271468838,-2.874204319676605,-3.231680846947003,6.0558532319742175,-1.1410399723909863,-2.24387980222558,-0.544320207768468,-0.4971665049424878,-0.3842161854728867,1.7364922097775068
-151.0,-0.6582907504810769,5.72500405767619,6.38329480815724,-2.5718952662951926,-3.485158178397611,6.02273912516226,-4.928666989344962,-3.446240737291129,-1.480585561769723,-3.283031434339591,-5.078027814882696,3.176493425759704
-150.0,1.9027892407863158,6.151312754519593,4.248523513733298,-4.054487689575593,-1.2132606230970109,5.251735082999456,-2.1961456296388295,-3.7816292853184343,-1.0762159342223911,-5.6698079916054684,-5.736603552221851,1.5242713123272469
-149.0,-4.57086247354544,-3.6843060976358046,0.8865563759097128,4.188776596395621,-2.7671652358971146,-1.4206879829688766,-0.3444168326762287,0.5955297527095242,-1.8428166450585475,-2.8407861117185162,-2.4373090143395757,0.696128487036809
-148.0,-0.9396646414226053,-7.188706511434849,-6.249041870012103,4.053704940888359,2.6953096986360667,-6.736332171814051,3.588590559671884,0.4068327659332763,-2.052332155524959,0.6566322104814781,3.2529406459817527,-2.536759095914957
-147.0,2.5068822742213777,-2.926707299623589,-5.433589573844856,0.2022231857835668,4.009308169399599,-4.195259771095438,0.2997081383118845,0.8657578713651,2.269847442494891,1.0315647095323153,4.056288972185614,3.4347538333765266
-146.0,2.695639721158989,7.2651560986908645,4.5695163775318655,-4.990631845147318,-0.9798931832050322,5.980479430709825,3.8552689163850484,4.984065314612636,2.2079851555014267,2.0450709230099613,11.308098806568731,9.066111163761361
-145.0,2.9421139574687722,-1.885141375704441,-4.827255333173329,-0.5468254040236595,3.915865249876684,-3.3754397453623763,0.4415502253129362,1.629975848513519,3.9661411777259956,3.9436596274493496,12.620951618893821,-3.057126965831572
-144.0,0.5509314543665167,0.09210734845985069,-0.4588241059067944,-0.2739164159215337,0.45193629934933466,-0.2090677188534652,-1.3632671791888757,-0.018934410631696097,0.2422091057273379,1.2779072074949047,1.8186689842943102,-8.939961310887677
-143.0,-1.51965743325069,3.949457594522324,5.469115027772919,-1.2616312699865264,-3.473955549207719,4.675187686155518,-4.659808943575296,-5.375582893146969,-4.266472551040866,0.7337929008243486,-12.250403398082042,-7.637262188512652
-142.0,-4.617015710203425,3.0163029390491487,7.63331864925255,0.8167170155341421,-6.1093055659317095,5.3604935101114055,-0.9461288382631361,-1.3975908339397272,0.1441516703824619,4.369989372929889,-19.645848498533624,-3.3502655850088248
-141.0,-2.092619856016071,-0.6014486653979372,1.491171190618191,1.3506360047189854,-1.7791111368617134,0.4723534841141501,1.4617400675225998,-0.25455791799859373,0.30137116281689025,-1.5986469342250995,-14.087587315248584,4.4942170824487775
-140.0,4.793261736902401,-2.6193992000154056,-7.412660936917696,-1.0905714424131863,6.114577265372608,-4.995049373185521,2.1669021781163544,1.9832378139404951,0.6259791532314714,-6.253347345627974,7.034335334026784,9.504858545094796
-139.0,3.359171208284215,-6.742006008770721,-10.101177217054751,1.6876837704310679,6.6639624461317055,-8.483975178059698,-2.5497580376346622,-0.2113367380364608,-2.4324239642696193,-13.149566128185842,16.55252393445489,3.352739671511106
-138.0,-1.4539238939761066,-4.160910043025355,-2.706986149049164,2.8108948271443057,0.6421459412695327,-3.4206138574694585,1.9160080901081835,-1.6068169209802405,-1.1346606444633602,1.2879759368748491,9.116734163279615,0.44229099491129054
-137.0,-2.485358678633969,5.399880582006369,7.885239260640301,-1.4407815067936531,-5.164499651001503,6.653962964270976,3.2101255719906225,6.266255487570616,3.6824530448796446,13.990205890357855,2.0018603067598644,1.0986005088480006
-136.0,-6.743323161830416,0.6920347347999081,7.43535789663021,3.057959868230636,-7.061573964711072,4.073966618508313,0.7238950380332336,-1.2033031870569166,0.008264584773896244,5.377272364569123,-4.475012978754422,-3.0706984062073506
-135.0,-1.3110957217670618,6.840831542591934,8.151927264358871,-2.7963102202128733,-4.774536307703753,7.506396420117906,-3.0655624006079867,-5.366231721391918,-2.8536947117772686,-5.528825127872517,-6.1584126519708615,-3.1458306264606244
-134.0,9.935754184237767,7.684336975145515,-2.2514172090923004,-8.830669111618233,6.137022646125148,2.648863870392783,-5.878124694476934,-0.3843160691955543,-1.5045209282831942,-5.608918760791402,-2.14597759341682,-5.564370897413707
-133.0,2.78969480619217,-2.67511671929508,-5.464811525487272,-0.07319282778637293,4.098015591023508,-4.055514317387074,1.4573154093643237,5.217992544076141,2.368967364703471,0.7313086688877344,3.6235880630647737,-0.7804852832524687
-132.0,-1.9683222759137922,-9.291177740671113,-7.322855464757351,5.612508285542422,2.6513736675476864,-8.286542656933596,-1.4418168113496503,0.4001429361133251,3.9382365339032983,4.441418074511162,3.789540902802392,5.054810527865087
-131.0,-0.3970473653208241,-13.023387196038865,-12.62633983071813,6.76613933414105,6.167708072383306,-12.795882818951224,3.8830896321143165,-3.774501395912644,-0.5637046021175947,-0.5976318859011212,-3.8208275182518063,0.12403357234809809
-130.0,-2.9934623974183,-1.1898457152391648,1.803616682179043,2.061721658944322,-2.426710589717801,0.3454091589947348,7.842458506933781,3.25705307108852,1.4714370369868786,2.0194507040034653,-4.199623447675829,-0.9414401819575202
-129.0,-4.019127676685026,3.547105626611164,7.566233303296155,0.2787822895282963,-5.824807797954142,5.524630828238842,3.4996963618057433,-2.210137778368353,-4.474316605022332,-3.152895147988113,-3.3612889504327463,4.6148173384774545
-128.0,1.6229392039399904,12.502379254398623,10.879440050458665,-7.102046555228235,-4.5854431997473775,11.663318586333617,-4.3062432801058135,-0.8820151994512373,-0.9596373418810678,0.2290709760107712,1.8287371558839878,-2.5827475220197798
-127.0,6.21578681595512,13.152580950617661,6.936794134662583,-9.645355195821237,-0.3986677108652148,10.016624954208094,-9.552396513416557,1.2449109523186528,-0.46129794549087055,0.31451633721125616,3.4527344777741567,-3.515131444079922
-126.0,6.972293459899426,4.147384063953919,-2.824909395945446,-5.598353764440671,4.939255472323821,0.6285454163656192,-5.528021108536866,-1.4197537412141585,3.7350375611919855,-0.5797234112301436,5.746851434998146,3.2793112115175824
-125.0,-11.162680074259143,-20.65765380244385,-9.494973728184625,15.952186044404778,-0.7912680420225677,-15.036578851417314,3.3573968784245314,0.8821695025164257,-1.4660834847787034,-0.9991865658791006,-0.7905767205527536,1.7302563968016331
-124.0,-1.9658561568916468,-6.2670960382162075,-4.301239881324491,4.080406640753064,1.1339006214304082,-5.249437648967853,4.046265543186004,0.5984265202876732,-0.14401486884861814,-1.4460510957050716,-2.161349373618125,2.1078014851875024
-123.0,-0.8248891707639463,3.4796962305261605,4.304585401290176,-1.3647866605951933,-2.5974779507955454,3.925286453703178,3.7469064511811623,1.609865950859239,1.5639759463460103,1.3689176634696902,-0.49209423427139076,2.583715379031159
-122.0,0.8040006491413139,6.007241673771963,5.2032410246306355,-3.367488581809524,-2.233886502683167,5.56168706436092,1.1449910990864858,-4.640173967165531,-5.724701204984915,0.351294266842785,0.3239092501511389,-3.8076078219991665
-121.0,1.4065081301762796,-3.45638225022628,-4.862890380402645,1.0587252645186402,3.174912803377501,-4.120437394130019,-0.11055845349366522,1.2414026602025257,0.5038070005385719,-2.6560771888443804,0.3728849983801179,-9.474974594526312
-120.0,0.045895154127677085,-2.783378844810987,-2.8292739989387856,1.3194703195557558,1.4716854122085612,-2.8426088172849875,-1.7341658633380936,1.303144081645045,-0.34157817293047116,1.1734261879317636,-0.9425081887703428,-6.086995508155091
-119.0,2.3970158696428188,3.168931545746065,0.7719156761030985,-2.7567190889503017,0.761420542867508,1.934282247126348,-3.0558603744764588,0.8078099139322263,3.745591229826965,0.6895835044944307,-2.544043941026542,4.4055108355151855
-118.0,-4.676515893391444,-2.7239155832811623,1.9526003101101495,3.7250457163558797,-3.292367081854956,-0.347037151386971,2.069467728780412,-0.32123068345300176,3.801442165044967,8.296061107403272,-2.2584803120308603,8.3236420899117
-117.0,10.703298900776318,7.071184876574928,-3.632114024201403,-8.940448844560942,7.186417586087192,1.672111638197816,-0.7717585383317278,3.06435748788922,3.8499062460494105,1.8768957004177529,-0.5185058539543526,7.258823884810704
-116.0,0.08027222880338503,1.5576764543453763,1.477404225542084,-0.7905395525722194,-0.6811702616319631,1.5405405211132714,0.47463482974796034,-1.8898052712916078,-3.5642225019744975,-5.223370891741301,-0.245957123697919,0.3081755505741701
-115.0,-8.296894550280943,-1.748071590156632,6.548822960124457,4.977033608105094,-7.483684396446642,2.416762874943883,2.184570366790008,-0.38052288458333194,-1.8383566538594946,-5.291838119665502,8.317162300409581,1.3863208018151005
-114.0,7.171411256954881,4.050541292834142,-3.1208699641206565,-5.571353639321881,5.165928379996331,0.4783885529474623,-3.879135839591295,-0.6485538827884342,-4.162125131862481,-2.3603662673865458,-2.091507482478999,-6.330991444284405
-113.0,-5.829222561295758,-5.6811719762519255,0.1480505850438163,5.801645941629739,-2.9660261378701156,-2.751488055425724,1.265584349761491,-0.12029711477951655,-1.5722910836418236,2.671128099784342,5.858680556024046,-0.965767483394548
-112.0,-11.239846140121143,-13.031301243993298,-1.7914551038722464,12.109255735188572,-4.776693646601156,-7.391454803818604,-0.6074019578168379,-3.2722695828020303,-0.45685134712643805,-2.582635430641576,-4.158624107934607,-8.26484895388303
-111.0,0.6050359569383752,6.042542825877572,5.437506868939116,-3.3463414968621867,-2.385585997739448,5.687386393109563,0.5476097787950835,-1.6316127083707157,-2.44676348244898,-2.792419796622685,-3.1821111802713813,-5.242891495762146
-110.0,13.779774154137334,4.672794994920889,-9.106979159216504,-9.248120976210169,11.478901515875327,-2.264157170666534,0.30311514089263714,2.969462697856528,5.765076503179782,4.91647718713798,0.9257775969626607,5.017201219235208
-109.0,2.7201433515169127,6.533431317758104,3.8132879662412056,-4.6508513703711785,-0.5851603393523854,5.208922781029772,-0.46422381375116717,2.158481149624035,3.9380374087237313,1.9317245444327305,-3.522370499766826,6.828638489042751
-108.0,-0.31591506375565936,5.199505391046113,5.515420454801864,-2.3913276986485212,-2.872218603736315,5.395230942701851,-0.8228344042666764,0.05347575971128049,-1.4935335868368966,5.023776515005954,-1.511648540698622,6.980209386964959
-107.0,-8.39582173790738,-8.204482663141164,0.19133907476636347,8.345669627810175,-4.328095685405372,-4.046265654412529,5.237144820389164,2.2685109783465567,1.6580058083673652,4.4757611653839655,1.5636733180051108,0.10062679605420222
-106.0,3.0954971192029435,-8.755586083007667,-11.851083202210527,2.792097200960155,7.436376354607241,-10.26303250499314,-0.4575232701293164,2.9770205949325654,1.5986172474868048,-4.005374872295043,0.3762164076399186,-2.4757174090642446
-105.0,0.793508584197457,-1.3264301989903498,-2.1199387831878083,0.22442678589916953,1.4931489509938987,-1.7599344163213995,-1.9005583749927568,-3.657724697352555,-3.2538332656181326,-6.240092312366466,-0.021151424859797485,-5.381044504865205
-104.0,2.9348467693044435,-0.010854255052335171,-2.94570102435684,-1.4288236401222174,2.969355844345377,-1.4342224673201855,-2.649536393327602,-2.056732739920723,-0.8738009691937609,-3.3801940902697893,3.750522930980316,-0.5075811908113299
-103.0,-5.915707333068051,2.8749493585664743,8.79065669163446,1.550261641444553,-7.410419210550295,5.799911003390907,-0.5163262217466511,-5.306339599100711,-4.617981635348732,0.5294279850363353,3.9416827806749537,-4.1556649952834315
-102.0,-5.9996403276628865,14.664563177039447,20.66420350470232,-4.384599752178797,-13.31634942991319,17.632170288519664,0.03561431901673101,0.3599147089705461,-1.4407344920539782,0.5818896080827201,2.1262297234360688,2.089533123626505
-101.0,6.567935893632,0.783411433791537,-5.784524459840387,-3.652290271595204,6.1889593522150355,-2.45530144873708,-2.2348740078310465,-0.2449848475970623,3.190759684614396,0.877719326602862,-8.939684122982426,-2.75160470160549
-100.0,0.9433868037489428,-3.651611494263151,-4.594998298012005,1.3747208254235934,2.782787752727323,-4.081830895001142,2.7095640859046917,6.06510218506834,-0.7003622316327718,-0.00437709807798381,-2.2450731929285865,6.75810662891735
-99.0,-2.592970300020238,-8.005534907950608,-5.412564607930317,5.2395827590470025,1.4274827350705932,-6.752587313100126,2.6183319351534764,3.3306404901146034,0.33915985857718156,1.2919399113107006,1.1917471540103417,6.681843593890883
-98.0,10.884587430202187,0.1627999685440944,-10.72178746165807,-5.503917457875881,10.747987979620914,-5.330940746962839,1.0665526750497583,3.6623091956503107,8.302149245233956,6.537652349244606,4.951019349874914,1.7374149970928676
-97.0,4.355012465081389,-1.360511287565228,-5.715523752646611,-1.4737739589130139,5.064537990123677,-3.5185480483369993,0.9889116952574508,-1.8723056736606372,2.08282968855988,2.2536771327147993,1.0670366118922403,-6.299310724772708
-96.0,-12.068088941336708,-9.090872734929935,2.977216206406753,10.609810803498377,-7.489527278526998,-3.0428573970148447,-3.656046955094417,-10.177178508160626,-5.972639187916054,-6.103732518981371,-5.246575391363516,-9.12119075521121
-95.0,-7.494808959465937,2.137098023932231,9.631906983398103,2.639706625074013,-8.607887801236753,5.89730439994927,-0.7018410466623797,-3.575840830934135,-4.733773320932238,-7.429382712296423,-2.1235625539906837,-0.04751609557815595
-94.0,-0.5944152598036716,7.514390759992635,8.108806019796242,-3.4889780728347803,-4.397517533158548,7.828404335366155,1.9282397500151753,2.2600061089327332,-1.4198100030420568,-3.7626005373852376,-2.057228342411236,3.849141216623146
-93.0,4.893379318169634,6.823338615241644,1.9299592970719521,-5.799501231493398,1.5121001688716662,4.40183707554032,0.4434235798000302,7.101006452978894,1.8539733159976106,5.01621251556616,1.3496388975894242,1.673885097154899
-92.0,3.5083385616079443,9.625028158936443,6.1166895973284765,-6.580408653406903,-1.2753977814696196,7.827817769128309,-3.46653520628227,-0.4457298573642343,-1.0161984881419601,6.9422080259499905,6.662170890388443,-0.7623128510932617
-91.0,2.33962009394327,-5.000586989173935,-7.340207083117182,1.3186852235161846,4.869480666017658,-6.20368544615629,-1.3340439612952555,0.3724036829263293,5.6658496176750575,8.123058959322504,9.27375853528444,5.8803913413700135
-90.0,-2.3326842390123432,-16.012084118772105,-13.679399879759705,9.157919897555576,5.6278652776911935,-14.793900663094501,0.9639245040520495,-1.577238036479538,1.0604654894369507,-3.310694910638778,-4.827015879481809,-2.79874935867934
-89.0,7.462695132410058,1.4396355429970127,-6.023059589412975,-4.472118107275508,6.781993428915747,-2.317178920846719,5.51048762471705,5.210271548222812,1.6465378302243074,-4.109953270052889,-16.770873756720103,1.5583316488458858
-88.0,-5.92164453195222,-2.05421416399881,3.8674303679534443,4.037111517679955,-4.927719012632748,0.8774110200412233,0.07178992615064406,-0.2761382501730445,-3.7625682737037955,-6.663157393535452,2.3844601795356546,-0.4142703084081576
-87.0,-8.543551816777937,-0.5244579901591954,8.019093826618723,4.495765400309233,-8.309194554357118,3.7889289156927117,-3.511220892514923,-6.488669113505091,-3.663145295612752,-6.945736613284456,9.328087284291701,-0.9083620821316323
-86.0,1.762122243112433,7.008581191744899,5.246458948632396,-4.3518048073288025,-1.6883931543841992,6.158722500398373,0.9204464436781401,-4.585454806377575,-3.927990241872168,1.9825918536147178,8.844734276750273,-3.586297946942244
-85.0,2.98971531024344,1.9068676553310624,-1.082847654912464,-2.419040216794314,2.01133903237107,0.35364193897314067,-2.0218865571914004,1.574650319300932,3.7056282424159797,5.061567324366623,1.5543160346077292,0.7161238623030939
-84.0,3.266582286855351,0.6353467303952665,-2.631235556460153,-2.0020392068768436,2.9215327473592643,-0.9868174228286573,1.950283429367925,4.8347253019107645,5.005387723447419,6.773735680030887,-9.072838975255358,-0.8920838381191467
-83.0,3.7771349317528524,7.599624636564956,3.822489704812078,-5.660116375389346,0.024822033896631623,5.716107465202361,-3.040780261134601,0.5630993320570523,-1.7855530035074865,3.225764068039112,-12.054846174605892,-2.309745437523957
-82.0,0.631255361010131,2.3907940343026897,1.7595386732925822,-1.5594315517099553,-0.5994323111976829,2.078310631566724,2.293507391720164,-0.16426702258216364,1.941134101428412,0.3703059870343137,-3.5906099021810065,6.085776258045719
-81.0,-2.3260356819881878,-8.206295612866812,-5.880259930878581,5.299656773159571,1.8174830681248912,-7.037708507048183,-0.8841691243189433,-0.5038973648545054,-0.9932138541134207,-4.7211357346599705,2.3729819892926747,-3.0091593687667952
-80.0,-13.429873188662203,-16.7433633966672,-3.313490208004967,15.045427638148446,-5.098047426137219,-10.016819714330168,3.171246595903327,-0.14486353276201547,-2.4588317534316966,-3.818242232671916,4.686312571991509,-5.158498476859395
-79.0,-1.5014481459712856,-5.077013003855237,-3.575564857883944,3.331612737810283,1.0761885067849088,-4.306396822423471,0.022123298175501516,0.5805735740113263,-2.8551761244052454,-4.049444872057313,5.523505722088843,-0.4027751376819202
-78.0,11.608969966140855,12.77321776806679,1.164247801925928,-12.14367874104488,5.18433621259277,6.918874683009092,0.4972813502592466,2.4854410354469305,3.4080217910881343,1.5912915313710152,6.651252304047445,12.03515122176867
-77.0,1.8513332296526306,7.960710335180755,6.109377105528117,-4.933125206765664,-2.085907855596279,6.993716620592365,-3.3612296707157894,0.23789773869872022,0.8379190344024281,2.032994707895774,12.466259137984153,10.534382428770304
-76.0,2.466410698367331,3.7994005531925374,1.3329898548251795,-3.1576906047764757,0.533772079523786,2.611095112526036,-1.5452502546226012,-4.735961824865526,1.8601954374257599,4.481814694400278,-3.377604350483872,-4.969611665114321
-75.0,3.4300528250802165,4.108589904341176,0.6785370792609351,-3.7942678106275216,1.345636870172048,2.444744456422266,-1.8091494754701505,-2.222580346263607,0.5640539628407849,3.4904505838128164,-12.019988181368927,-8.955590515722788
-74.0,-4.949810525389559,-7.458581770432847,-2.508771245043323,6.17704049381282,-1.1688222581159473,-5.0062250956184595,2.42773386292815,0.2489458676783458,-1.8436242109224887,-5.202727088554003,-13.503425277636794,-12.32201071266926
-73.0,-1.1888951627042732,0.8448052578154268,2.033700420519663,0.2206865508427076,-1.6347953817864391,1.4202528691450254,2.8669879498045505,2.6146727382294817,-0.3757010677199726,-1.3212261792865634,-6.019093706932625,-1.0100644155382206
-72.0,-3.3195632929226093,-4.979912897005803,-1.6603496040832322,4.196175453553431,-0.8490840458138719,-3.337348403908825,1.4582879847831278,2.453618516922857,-3.7893939307803293,-2.5072350830915138,4.155299188507023,5.2401346282833146
-71.0,-4.0605544692609294,-6.728604494202954,-2.6680500249420573,5.3616829759254525,-0.633076669962214,-4.715731384270069,1.4099355056971714,1.3731282163725842,-0.9844646630348973,-1.2839971595900226,12.116388711117233,8.014064626085185
-70.0,-0.6741452716848667,-7.293572280744495,-6.619427009059634,3.9518056132788812,2.959666566697073,-6.897388498332104,-0.9212824924552998,1.6652720524690516,3.8393049204187046,5.14162481287452,6.637285397546372,5.469283040597711
-69.0,1.5714154663217548,6.186766443400746,4.615350977079023,-3.8312784556112316,-1.5350918319020321,5.377068239594868,-1.5424892098615068,-4.859699118954787,1.935049513611123,0.4468539686702786,0.37317466788597553,-2.6499903047626576
-68.0,0.8809088770630149,14.407963414749403,13.527054537686453,-7.67558894823012,-6.340163546355981,14.015690011343482,-5.50690968838586,-5.336764471511161,-0.45531926681602775,0.5745315269942102,-2.3047968994012615,-3.8868934374896393
-67.0,6.87632365768798,10.100362749589877,3.2240390919019584,-8.443652787399799,1.801226657580931,6.6228967080498204,-0.9755968104432862,0.28967837021179665,-2.0870529952718497,-1.1752749905657218,-7.012756898666466,-5.434807316448028
-66.0,1.671362553825599,-6.568095900808438,-8.239458454633976,2.4082653066108497,4.998820989384098,-7.4532951961679155,2.0271525718916616,2.491011105259932,-1.9348487441603304,-4.595804092038461,-4.758190119088035,-0.9109006466694645
-65.0,0.5057570168447245,-8.523442404835862,-9.029199421680532,3.9604771144669946,4.721383527848417,-8.757197969070033,1.4056616164854812,5.315259609133784,0.26750290000156185,-0.24633267391334934,2.133850149864645,3.806285126323014
-64.0,-4.419032812656329,-10.30877648733499,-5.889743674678617,7.386007483884526,0.7594330408864649,-8.08783769556641,4.051062664915288,1.5140090339717927,4.155640116594107,3.9073518519111383,5.870409333065689,5.835393913596288
-63.0,1.5169471129882401,-0.9818605799919595,-2.4988076929801855,-0.25095484929676637,2.027372898083109,-1.7318981636238302,2.344446636453255,1.1479727734443936,5.770433284999929,9.429191976845654,6.8882883378455055,6.733186894721486
-62.0,-0.6768274675275765,10.228686604879297,10.905514072406852,-4.759889676843126,-5.771834765320793,10.578638040645012,-3.2672245023897943,-3.942065303499562,-1.226189888953088,-2.6006009537637382,-1.3881533300697413,-4.23016038353401
-61.0,-2.294962160099559,8.570476720429864,10.865438880529403,-3.116768570961614,-6.5576919723493035,9.738444525241025,-4.1169847391677585,-4.850870312996532,-5.981070466875411,-7.329033060264735,-8.01313189935453,-8.574315569565924
-60.0,-1.164392554056681,-7.416789661479568,-6.252397107422905,4.320476191238443,2.4922153394311195,-6.880023664909379,0.6811058523330256,2.836390760565805,-5.584344906342581,-4.920499337312819,-4.660229023682401,-7.031922641119514
-59.0,-2.947302940369001,-0.12461042786860121,2.8226925125003626,1.4968368999858634,-2.9330760516671806,1.3959074946782175,1.318241412340147,-1.3099833481910288,-1.6154727054791227,-2.3076449588867205,0.500984118057024,0.41745297093647826
-58.0,0.059190482553238444,3.037917782425034,2.9787272998718093,-1.5804565396709385,-1.4272755786330922,2.9872686632514327,1.450577425536772,-0.48450920547633597,1.2609551752952615,5.544527219453933,4.881862128573456,4.220776351141269
-57.0,1.2938469506540669,-5.878104999184869,-7.171951949838889,2.262661049197818,4.265351235216138,-6.540601989186313,2.8135402981329105,2.751094592145776,6.615045090494365,5.402494576708628,4.296583636979016,8.134657710191414
-56.0,4.648274075137168,-3.996392953866709,-8.644667029003823,-0.27929977449264176,6.599091090140707,-6.336984915440139,-3.070966930131947,1.7992623483825063,2.9980724175234457,-0.7508562170214361,-3.0853545712120694,1.5026323055838589
-55.0,-2.483785699734198,2.000566853990226,4.484352553724479,0.2033747345667103,-3.453906010550666,3.2196460871365793,-2.229143049710987,-1.9479120511056232,0.5809706497670986,-2.03972392989067,-2.0520605930528864,-1.1119241598377583
-54.0,5.359329967921118,3.90524516566165,-1.4540848022594468,-4.59876629855405,3.435932224929742,1.2720647787780315,-3.389742203786355,-2.8004486290973407,-1.6883080929116487,0.7526973042324332,2.1099277691238862,-1.6898766834177472
-53.0,1.5294903256131667,3.74134509595082,2.2118547703376095,-2.6072692401876623,-0.31293823075323823,3.013525977849423,3.913698702780245,3.6899045290452155,-1.3696191021715198,0.41369762313797365,-0.1589829698256003,-1.7557263783684163
-52.0,-4.601300382618013,-1.5474299753732184,3.053870407244709,3.100241047932904,-3.8797767145600734,0.7043457758771474,1.5713644665340298,1.0540002502291566,-3.864199020498889,-0.05204244990238305,-1.3834618839439135,-4.341119075724849
-51.0,1.8746117534546816,-2.0867023320506197,-3.9613140855053848,0.05419882272879217,2.863079866772697,-2.9970816487140652,1.5749702880462055,-0.16603475195894535,0.5992557090846158,-1.13461964786141,2.707602491993641,2.3222970027130483
-50.0,-4.298173234448619,1.1533478871159675,5.451521121564575,1.5241334470943029,-4.85404745628143,3.252131535142744,-0.48556049100870946,-3.1256934350769683,-0.39934729199837105,-1.9437792414036892,0.8450099245042527,6.398234246333545
-49.0,-4.64472187111891,-2.6057253894150447,2.038996481703903,3.6606094073465765,-3.32297275433921,-0.2496755212542178,2.4767850811293366,3.3040227765218164,2.9840127973604917,3.0615763611443683,0.3645794775149025,-0.35638658650941757
-48.0,3.8181923257462635,1.3073977899676024,-2.510794535778555,-2.5224196989413,3.1843562590679175,-0.5606396112483707,-1.4300246471494862,-0.8837367332964923,1.4118592974274609,0.5159323237247362,-3.8561629545492035,-6.804791136555734
-47.0,4.509174357450043,2.4499949828172722,-2.0591793746326954,-3.514149958650429,3.308923807951637,0.16518456184330432,-6.285564628367532,-3.7745201389865723,-1.0829070947483836,-5.782676557396151,-4.592960324559021,-7.0487983031872075
-46.0,-0.21679695685887035,2.9050221917560397,3.1218191486149127,-1.2984551268787743,-1.7148181500952546,2.9888564663061636,-3.4314162974121656,-1.3901219440167716,-1.9540773918763854,0.4927425650550502,1.3318169221844214,-0.1253179756669387
-45.0,-7.0091875064075415,-6.352014608214001,0.6571728981934227,6.6458551947752955,-3.789425301075696,-2.8693459097670493,3.193943637247021,0.8021185554899812,-3.6594795122897743,-0.13167794895563611,1.2674579998790092,5.757450664235439
-44.0,2.336065630744832,-5.800518281190781,-8.136583911935777,1.6926827380277065,5.211582103394907,-6.91229504709354,4.289955834953162,2.6892878105735534,1.2361195253479205,2.881712188377209,3.2210704477885557,6.72301348226008
-43.0,2.444110781939157,3.5369165638704034,1.092805781931129,-2.9582179998311293,0.6587601044062721,2.289343926367396,1.3532270751246775,2.8676125176028773,6.6735766046241904,4.393320187276864,3.3498659752349855,10.518744455565699
-42.0,1.399529876522309,5.882115258223125,4.482585381700813,-3.6155622982032463,-1.5542465293120484,5.152641412362585,1.3009403920197982,0.22810529160500592,0.9170334259420496,0.5058843035779614,-0.7946064568769953,-3.2054448635201327
-41.0,-0.755806121222331,1.306618466148198,2.06242458737064,-0.333613616234151,-1.4214515985385945,1.7295053151731854,1.2912219922466444,-1.5280985990511706,-0.20398133993726653,2.46765822485375,1.5315559217686818,-5.151991594683107
-40.0,2.0112165009696352,-0.6829014875589334,-2.6941179885283852,-0.6438726082239483,2.4164936348164336,-1.6465247025266523,-1.9028889425969409,-1.8652146395616294,-2.1804006118623236,-4.574899081547888,-4.372188430032521,-11.217424640902927
-39.0,4.528459840475739,-3.4300270804640314,-7.958486920939572,-0.5236548945485774,6.22419050624363,-5.7325162426193685,-6.511092177874272,1.768684569228534,-3.639686629430502,-4.006154499144561,-3.5102534403941004,-4.252134030175284
-38.0,-3.0611177844264192,-1.1285004419783569,1.9326173424482056,2.1306684783632117,-2.5212525833362838,0.3639965777941665,1.38021480429886,1.9986083707407793,-3.1511943190886527,-3.297557353041886,0.3006829298794962,2.6950212384844776
-37.0,-6.224024599844125,-6.139826936262112,0.08419766358207148,6.152247605647951,-3.1050016764447363,-3.063762140160992,3.9073688548466405,-1.1200581836010128,0.799861406162597,-1.5080073043582076,3.5745715785432415,4.11320597857048
-36.0,-4.431399094259937,4.7401362084287175,9.171535302688627,-0.1710087066301238,-6.836330311066865,7.002937761947072,-1.2076155169610185,-3.718804819365431,3.725952686839834,2.2339727553644413,1.7364228520342906,7.251603962608866
-35.0,1.9467059239240627,6.776721435325228,4.830015511401051,-4.368545527187884,-1.481729722587496,5.8568618171283875,-1.0709263631401837,-1.4814897751325722,-0.9642382417471715,1.5138723842444408,-2.7508949740949915,1.0482346866983905
-34.0,1.2247221576520644,-4.688169332279527,-5.912891489931786,1.7294224677225172,3.602207693003821,-5.318242954572327,4.380512710434571,2.7958707452657783,3.6475171640870263,5.611211561066718,-0.004742182403682765,-0.5147229837906631
-33.0,-1.2972877544745778,1.2610051587285178,2.558292913202851,0.014585580896911976,-1.8998317899294945,1.8987814535307908,0.5120356249509252,0.034933024407110214,-0.7592979766410854,5.398688627750472,-3.538309571858313,-6.560118530166905
-32.0,0.9389282174071261,6.270081158231538,5.331152940824222,-3.6141156416797404,-2.1739361703699864,5.7936844760959465,-5.30347947272283,-4.8638056794796825,0.8762441882747567,-0.0801141551573743,0.3392806239383501,-2.1946835586996003
-31.0,5.5798405774464275,2.2970381091596486,-3.2828024682867967,-3.8781766332633256,4.368492165529627,-0.5004366005662109,-3.409263099332418,2.6135980700122365,0.3649152518049543,-4.524396259270456,4.212416485129962,6.231580726055274
-30.0,4.1211853591781145,-10.271063702397889,-14.392249061575859,3.0470640343735207,9.266101878025964,-12.344666004665957,1.4766136724496985,8.679967450182101,1.8644319490455998,-3.4761413240421093,5.470139610621393,3.2138304085222393
-29.0,2.739367369286326,-6.197661155149509,-8.937028524435467,1.6934429867760064,5.84154525096542,-7.589264413485754,3.8901045257032214,-2.8211376534624995,-8.951572245357642,-5.604255624705217,0.33935784993887874,-3.812897726974429
-28.0,0.12188490163921406,3.7692381869165352,3.6473532852777497,-1.9073302127292244,-1.763594194477541,3.7554047076687267,-4.118413779991892,-8.781763121450899,-5.508509978520033,-4.426616266668007,-4.473417824186676,-4.1923350168784665
-27.0,-2.627050464978174,2.7727640328504677,5.3998144978288956,-0.11458096951693064,-4.0151904893617,4.047091680250144,-2.9395804983474476,1.3751532303162746,8.241941688231744,6.4413291025233494,-3.6685267628554827,-0.31678128599932265
-26.0,0.15930282930325834,2.8996929940441913,2.740390164740946,-1.49049152512691,-1.2888876001928855,2.8563993791652926,3.101872036030578,14.175726265414573,10.406998042925846,11.3827558188653,-0.9770847246298349,4.715419870943662
-25.0,-7.744845212449306,0.5789280922182765,8.32377330466738,3.625709229504225,-8.024985622947439,4.489443342841836,8.569796302392765,3.0412030686025786,-0.46787811324097817,-3.230166505020634,0.6100561391372228,-2.9937211605292324
-24.0,-14.367741298239888,-3.4863984809546875,10.881342817284915,8.894516883895689,-12.604697864256343,3.6621818725161175,4.13674671162502,-13.265361901721404,-10.929594847463107,-8.330921080811516,1.3821768710260858,3.291728303629199
-23.0,-6.955210578494282,-5.809898079815824,1.1453124986782537,6.351169775835161,-4.01955679528278,-2.3612570543521967,1.1997104159236547,-8.227368044864566,-8.820118572681595,-8.24286013036106,-4.189043280456302,-2.548471893802308
-22.0,2.1249249023354446,-3.031102080057872,-5.156026982393421,0.4195071874150911,3.6007875912837797,-4.039525305616445,1.9979324802717935,-4.457747501484361,3.1713088393411457,7.728746408074835,0.6872855755213509,-1.1466039240987673
-21.0,11.300573225066085,10.382887444755445,-0.9176857803105918,-10.801857315927121,6.07320991759089,4.707836570385334,-5.81216281668014,4.357279110473881,8.838514625722627,17.696906930162523,5.429529840672439,2.4950201543623285
-20.0,22.20704884996706,14.583312084154208,-7.623736765812757,-18.36222968488669,14.878205116452126,3.4501175554742387,-11.288514513988924,11.142048931091834,8.573461721035626,5.087136843956273,4.349809512744917,-2.4837108790434175
-19.0,21.973152005846423,-0.5116472514826604,-22.484799257328973,-10.783056422263547,22.265556919652813,-11.536202251849229,-9.093061335967128,12.588389812197049,3.261958976988715,-10.197846117302074,5.274815879339123,3.847895412473797
-18.0,-3.1376390783346615,-12.118451857965535,-8.980812779630785,7.65025998285924,2.951833689159643,-10.517611788057582,-3.393456262469045,3.606454605026869,-5.884411460732464,-15.734332849049274,-5.284414875564665,1.8008370611056748
-17.0,-16.829474993194772,-8.26502217969536,8.564452813499553,12.56859580338908,-12.67219649906944,0.17581896390573926,-3.24961605630899,-11.76610435019726,-9.298381162586539,-7.562256555535341,-7.683131553581538,-4.258775475936184
-16.0,-25.433527169089857,-9.770002173899087,15.663524995191027,17.62570013037157,-20.527245601548415,2.9719275751299596,12.52131084788288,-17.492802577354187,-7.313849541952822,2.1046564451044674,-8.084429937238397,-1.253492966534611
-15.0,-9.644824682746581,-4.580235102567883,5.0645895801790655,7.062997836469965,-7.413750916023201,0.27141607148747227,19.08875198802523,6.684696840386311,5.894750225335624,4.9692532803226355,-1.7807107127760964,-3.0352630042204143
-14.0,-5.262926822346459,14.422795874677156,19.685722697024037,-4.622695179140491,-12.454980951243769,17.011734107203626,15.721675981913709,-3.066709338322268,1.3809023139599867,10.608425574021611,9.244338568957344,5.003746525033064
-13.0,-0.923729509556587,16.811454990113155,17.73518449966993,-7.900863561352824,-9.388493176182097,17.23743087192181,-8.451545618015542,-21.263216618840403,-7.186671198341888,4.459683519572066,7.252682608948078,3.9792004926162314
-12.0,15.106795833455344,9.23390565759132,-5.872890175864146,-12.121223254090975,10.510897802216064,1.7266664376818381,-16.069755607978436,0.5915770987531226,-2.530676725837461,-1.5283416726507317,1.5064287189264327,-1.1813594607450155
-11.0,24.732597773437547,5.5480383260814925,-19.184559447356513,-15.16566736825829,21.98275248889908,-6.852352695651894,-18.821938705620276,18.644634347261714,11.417634175074479,3.5404816905194405,6.307227178556996,5.065688888607015
-10.0,18.034942308476737,2.786105711767952,-15.24883659670974,-10.434196058552892,16.671690827270098,-6.271102886554362,-11.358391022445733,34.77141300741125,21.45661559074275,8.794004009688381,3.383971438739704,1.7132336475542558
-9.0,-4.926991703591295,-32.40083520878956,-27.47384350519952,18.639044876993363,11.232579500623501,-29.905611668694615,17.82995580779881,16.102777186837713,2.0304852883916444,-9.094494777375814,-13.1566524931632,-12.19975032553881
-8.0,-28.67173848036876,-39.57239281813348,-10.900654337765854,34.17225435143942,-8.838154163167344,-25.210344750391748,24.35716409420356,-10.329008148791605,-14.413009829908384,-21.437297829487104,-19.135347254953707,-9.825086558117677
-7.0,-14.695335151961954,-12.166504573544287,2.528830578417475,13.397159872584691,-8.63447196517012,-4.793518136470132,13.248990037329975,-16.668223233420136,-10.437215095709266,-12.310679946169607,-10.909120366819142,-12.218299799855803
-6.0,9.544348612957078,18.36233664439284,8.81798803143719,-13.913729818508651,0.3472303830195216,13.542020959944967,-10.951744844182576,-17.54806444968976,-5.472846565217591,-0.5124084336111725,6.739249333282535,2.8278814338470992
-5.0,7.677455139003061,27.364689298068974,19.687234159068524,-17.56445594524377,-6.0183242316049235,23.567520323905573,-21.73399345071899,-19.005506468396163,-2.4612107576259556,10.242791832507212,17.995538258391722,14.490805380218934
-4.0,-2.5015061317595215,60.38472907635914,62.886235208121285,-28.908379635430805,-32.708976625088525,61.61267183670949,-20.43748281540082,-9.318935061832569,5.341817778980089,30.44764123799368,27.999823463243043,36.010588870282035
-3.0,5.808593654232725,42.844972761212,37.03637910698058,-24.371901502032316,-15.555226919724625,39.93239216178426,0.06871937859985877,14.610712503199702,19.494867338230584,33.55155360006888,24.195560624828545,21.861468683347333
-2.0,-2.9204598324277082,-33.95544140728803,-31.03498157486122,18.474227750290176,14.030487136196982,-32.492284374599,33.19129114450265,24.118326141153847,4.08880114234112,-8.68711095478698,-22.08597210323372,-21.42607265539533
-1.0,-5.819127014171846,-73.90271678782189,-68.08358977365273,39.90107724652676,31.098741001145804,-70.98512277059373,23.015881546983454,4.143654594033752,-22.245196853113608,-34.86842789399897,-41.1304856357708,-41.71477009966096
0.0,1.8624302668183197,-48.52719713514675,-50.3896274019684,23.297401964835935,26.165734742089352,-49.4528482719961,-11.946040860222457,-18.555586501111975,-27.720409255515808,-37.61876697083811,-26.503086652353037,-27.247124322548657
1.0,7.51752910532681,-8.810063156264793,-16.32759226159343,0.6131789081753531,11.958200634884307,-12.573027542989465,-37.22677737189095,-34.556673801137606,-28.739309350187437,-25.749826256302214,0.540741800529636,-2.6202869202633945
2.0,-10.215356003872255,26.657058596684884,36.87241460055699,-8.175782779005607,-23.59014902724899,31.745571413420098,-2.8047564372921414,10.557314828039106,21.23268061919703,15.271182461663974,23.95952917415919,18.516461891651385
3.0,0.861132809898256,34.7508945174028,33.88976170750626,-17.84241881490123,-16.485187946988184,34.28457870453991,12.547062381214971,57.59568275026747,68.12822112482064,38.186970306431554,22.679962901455816,25.43515242344409
4.0,5.8456958416209135,33.08408906918022,27.238393227562195,-19.50471844313566,-10.750577663574798,30.190264475332537,7.819534694323306,30.519550453299203,29.796408418706008,31.097482100572744,14.844583715357142,29.519822069193765
5.0,9.623912080949488,21.07975291267498,11.455840831728942,-15.315108518688117,-0.897675823882512,16.28907933598407,1.9718458041099192,3.124693596554965,12.173818559813649,19.061859945176543,5.112548389079448,11.908717454875296
6.0,-21.14836238922916,3.9163909148233027,25.064753304054953,8.653198939891977,-23.09560150152356,14.512151224664036,15.398671854672992,-50.91265356649059,-33.27362081058755,-1.0418759745267208,-3.2924062525628672,-10.30182006325262
7.0,-0.868165137378428,-3.312423700630923,-2.4442585632525815,2.1308862901096663,0.7918525193600567,-2.8491246192167123,-2.3358988320594944,-56.02924530245758,-54.594426768231806,-23.849518644172775,-15.770312035025285,-25.68107341775087
8.0,18.18662221310593,-18.726285764896314,-36.9129079780046,0.2366874635307994,27.54822339785677,-27.857080269403266,-16.970965178599318,-17.127709965130336,-17.417445167994558,-13.12089773478409,-6.715695107816323,-20.98799886084084
9.0,12.638699490930152,-47.69767711930603,-60.336376610239626,17.500928064062784,36.483955429717184,-54.04208476488097,-4.670540309170569,46.980170801978474,-5.432034100867636,-35.01709504114463,-19.652860464654406,-19.112066010659603
10.0,4.527994331670078,-32.27827188173677,-36.80626621340977,13.8489793934654,20.66583917740334,-34.55822044787229,-1.9162928716568741,45.4346285868368,-1.5006332837009007,-20.814235342235566,-9.323246795860815,-7.791751732073248
11.0,-30.541530971850356,6.9615009625040525,37.503031934352904,11.763557407705367,-34.016619618328335,22.21987046580355,7.291616369795513,-22.520215680829086,-3.509027805362482,10.344226283080973,17.726962406335176,24.109242972260777
12.0,-6.576312119431321,19.677391102451818,26.253703221883537,-6.500340226665329,-16.398176300462843,23.02951688749092,-0.09972297416859499,-5.770358470224435,42.310308856238336,26.533045470325987,12.368410484565871,23.70512575623668
13.0,17.617746826262376,18.189575926765006,0.5718291005042815,-17.855585301318047,8.475269108190291,9.358736417578104,0.43528914359556503,19.247927964379294,51.712932416429474,18.359948464850433,-1.692516975921741,3.2042401796707125
14.0,-0.5834946256829596,17.49635943456213,18.07985406024693,-8.487499422239694,-9.285020429856646,17.75614560446884,6.845911527858139,-4.62063058121951,-0.5704225768828515,9.696364574840445,-5.438524444091397,-3.975216071088578
15.0,-15.206846606721964,19.206964871809618,34.41381147853292,-2.0286982147553214,-24.827455819424948,26.846530419501818,3.74770596356021,-11.145521093526156,-16.93748838094825,11.064080810253685,7.405952554350647,4.016395906989271
16.0,-4.036189118534921,20.79796234788895,24.83415146642451,-8.40413954619941,-14.439962515835678,22.842698854781,-4.292688838741416,-5.42188855543238,-10.100033438282928,11.70001303897983,18.893143253681284,15.606947394589596
17.0,1.3073725280683766,-11.888611982339722,-13.195984510408064,5.353604880322276,7.254840694786866,-12.6016183558296,1.1639726930340952,-12.320025221371662,-33.49005038618675,-21.0938347098558,2.38944344104125,-1.5017788439944386
18.0,8.014019381578851,-26.615757208990765,-34.62977659056998,9.292923408895671,21.327429411605554,-30.607841237103578,-2.4137615795301257,0.8494055190855089,-16.837704924066905,-25.836166819286973,-13.04331172535852,-20.162234850422003
19.0,19.867761925244537,-28.55419693833906,-48.42195886358425,4.341011566638675,34.14674157757884,-38.47516011410939,-12.670518479500918,1.1419492084437088,-1.8612059293825398,-16.146911144572748,-20.855002102611124,-20.776491780205024
20.0,7.726927894019214,-13.203872293136609,-20.930800187156592,2.7374671013720286,14.321564223633342,-17.05460748627173,-5.124535213512931,7.160851577703161,7.437201816719105,-3.58729328141374,-11.688326240400075,-9.23585890912805
21.0,-12.244011248083517,-3.99551884765258,8.24849240043026,8.113752774794063,-10.266819887038912,2.139932915114775,1.3432968241348773,2.850034607845643,9.829454449591708,5.361116714978157,1.8479318068009727,3.2636365383545565
22.0,-13.998621149297453,8.824378608909218,22.822999758206393,2.5697946585894416,-18.367732464616765,15.759170069549302,8.452962451128844,-1.6765162374841491,9.079536957250351,10.998092433308297,12.052058648416258,14.507885031391858
23.0,-4.089945865374062,26.877354369429547,30.967300234803773,-11.426828852264451,-17.578531280169408,28.936927346306554,15.085034936644034,7.585754614169436,11.636994932355059,16.963161502243537,11.630617308059234,15.03567640542822
24.0,4.422844123384179,26.26744760613952,21.844603482755854,-15.316378849672638,-8.69277837580499,24.07052451687728,1.9891699436860124,5.078392136718783,10.18067177398109,9.481037277757236,7.9593711366810584,9.43400726948609
25.0,11.62840461774704,5.668061870326852,-5.960342747419691,-8.633335494108184,8.807194233835745,-0.13203837561936282,-4.733387447884683,-0.09308602002161281,6.320366296490407,7.36881761208088,6.398040920491474,0.4683971254429107
26.0,2.8290272108535395,-8.928838728145209,-11.75786593899855,3.0573137936018133,7.307266845528021,-10.32983046745654,-7.241440026393062,-0.7886315121641614,-8.874198417773165,-10.358521082370807,-10.197831194451819,-11.296160511525402
27.0,-12.74249284396559,-17.409683759893415,-4.66719091592789,15.084029470364648,-4.017045616309052,-11.02573491265503,-5.010317115782184,-6.4989076635528,-15.120517869649769,-12.074691629132083,-12.560265893752899,-11.358870290807698
28.0,-13.079783059511035,-25.244296086823226,-12.164513027312337,19.177958683360483,-0.5047800613754028,-18.771549520714437,1.076731932911696,-4.897571505101618,-9.403645755370336,-12.428858144896054,-7.095434727556762,-7.570118477730261
29.0,6.711113065514839,-3.0364770504205367,-9.747590115935505,-1.8872546052549843,8.195312694157082,-6.381523585689305,3.924686311654041,-0.12345320342740074,-0.06963782603342672,1.6898446932528817,3.7111457923739266,5.932599366956912
30.0,11.754838517857955,16.60619606108442,4.85135754322638,-14.13752416098665,3.5095608512677874,10.738895585252516,-2.444148513652423,-1.6529064431831761,1.5258634425614561,7.714675488604196,9.798491497149975,10.527731061584618
31.0,5.764123493166374,16.146746182136773,10.382622688970333,-10.97937669538878,-2.3188576834406516,13.275974801884047,-0.10232924350934683,-0.3850795229484293,3.2052826966010226,5.0398630629071315,5.777826606292047,4.735085584667047
32.0,1.2536662939206353,-0.4216088641034954,-1.6752751580241858,-0.43322696424451834,1.4630047798081283,-1.03388527636743,3.9859574189665734,4.286104391466024,7.135768649545582,0.9081214162175959,-2.2368766410490784,-3.4951593381308186
33.0,-11.001327098871956,-7.016749360889568,3.984577737982227,8.992325288231669,-7.4904018187942745,-1.4963334157801391,1.2745870815695182,-1.3707374949279791,-0.2495550478804267,-1.5814301200523664,-4.074344870476009,-5.047490454320287
34.0,-3.7954170093636597,-6.938526716961102,-3.1431097075976027,5.423638331741515,-0.32408011695684014,-5.093559653873183,-1.5079572937254535,2.5158118079393827,-2.1282062149759158,-5.051816664584857,-4.531681301800383,-5.856596986758052
35.0,2.076910153502085,-4.233766261130744,-6.310676414632885,1.0467432800198346,4.191295126630246,-5.240120180090436,-1.0865296132352176,3.192326808373747,0.10351933355902726,-0.17539626769737104,-2.075227739612916,1.45901942950875
36.0,1.110723719955172,3.6814797939569623,2.570756074001938,-2.3605914179523206,-0.7399027734997929,3.0842867327980406,-4.88451283186115,-0.9212350481026663,-0.08213441598690081,1.1393236380746417,2.7716284605195614,5.1145736591689
37.0,4.586183534510614,9.739094719759496,5.152911185249255,-7.217003720446753,-0.3014225069937505,7.48578786459117,-1.9436673627091448,-1.35859161807525,-1.3175740435286407,5.646199775827243,1.7734050265024452,2.74015598941332
38.0,3.4587264082664073,4.2685840168883065,0.8098576086222531,-3.847912569629967,1.2997349531372526,2.500984728943802,2.4434194115716084,0.7849584867392843,3.6404521156583685,-0.3697485398648235,2.7237019404605833,3.8390567702779643
39.0,-5.0843348376092425,-7.589985965432726,-2.505651127823329,6.348098354165193,-1.238590189259764,-5.008548440832375,6.851854909644312,-3.1232431520899384,0.43493489564559534,-0.9997337385566659,0.9230508028770454,-3.573193329310441
40.0,-3.4576189868377396,-0.7329351011804368,2.724683885657193,2.105626521641196,-3.0398645292249635,1.0322875062041388,2.6739038794849126,-2.350894860755817,-0.6103647107829101,0.724489987011264,-0.10590817825439666,-3.6977261155751
41.0,2.070900166327001,0.08167814730691036,-1.9892220190203846,-1.062976952288944,2.0057645541886786,-1.0000258336394738,-1.7054142351823727,1.4555037819034409,-4.4966147473135845,-4.714103414122774,-2.74445245438117,-5.223330097506981
42.0,1.8163217085829235,0.5643727828994569,-1.2519489256838088,-1.1719313929374793,1.5131362182711865,-0.39412698602373686,-2.1033781861013185,0.5673610692589469,-0.3844514746150738,0.4083783819136766,1.7273857253590332,3.0678863224427015
43.0,-4.06004962121681,-1.4019710458008565,2.658078575415706,2.6763968902699515,-3.3793695861965456,0.6535077118997252,-1.9797161623343054,5.054767045365746,1.623643108101705,1.9664199704283853,0.5799183986394272,2.4151977529667548
44.0,-2.7771464609445604,-4.528446560839747,-1.7513000998952868,3.603551866186996,-0.5369157630140906,-3.1148143445130723,-1.044403902506865,0.5036458153261076,0.8634634916253168,-0.44851763475627404,1.5848138825710012,2.625104895130849
45.0,4.936917998092966,3.857649347113221,-1.0792686509797877,-4.362895345252488,3.0546872675748418,1.4174217834728688,-3.462462774788126,-6.6756503691920175,-1.8631785675325923,0.13816789308427946,-6.03289698963812,3.5657145483047064
46.0,1.034800424607833,4.499110212154034,3.464309787546291,-2.7277915081379898,-1.2579983672462698,3.9379781159441833,0.1169611205990273,-1.2472439773416504,0.6078645317342501,-2.8084091988668662,-3.4801741088137303,-7.408407491998727
47.0,1.315654973434847,-3.3132642531675294,-4.628919226602111,1.042854191647633,2.9962985948551637,-3.9267212747955917,0.7858217381675034,0.9680245410050312,0.8609435495836225,-2.713492971704624,-0.5710686321796947,-3.349417505731315
48.0,1.920979360049671,-5.014425218030107,-6.935404578079508,1.5166196612576122,4.442798254090386,-5.999174509951678,3.6192690017674334,2.9579468344344058,1.3449020668896652,3.2232551686153,2.1868275252038036,3.505791318801956
49.0,-1.7750937892763994,0.5811009969073252,2.3561947861838317,0.5703353025383684,-2.0567575470249144,1.453370582997696,4.321064883714161,1.7186995975221508,1.5478980762397716,4.553525660567977,5.581854128032574,1.8353469083939102
50.0,-4.215153463271712,0.33541382755163063,4.550567290823349,1.9147751099665373,-4.375751816737142,2.4341680871986826,2.9749806711042064,4.756927919037127,1.3176042529225065,2.987259210680988,4.649616993569786,0.8269195907348006
51.0,2.440041874143294,14.060608277602206,11.620566403458911,-8.275756370724102,-4.5819214711961,12.835127108350326,-3.4747157724959017,-4.99122588812719,-2.9828395329713007,4.078092398571418,-1.0734781468757588,-0.9346294264539817
52.0,-1.0162243477039494,-0.8198906248576474,0.19633372284632244,0.9698385747084091,-0.67393720122748,-0.3168399954906187,-5.2981452851483075,-2.896760761098215,-1.6354856143167955,-6.9924483697516315,-1.3475636284638715,-0.5430421806842252
53.0,0.1976700034304072,-5.079623155533861,-5.277293158964223,2.4909763678766055,2.75153005343678,-5.106944895760613,-3.062673681442593,-3.7769393656955037,-1.8228363387900854,-4.15661085733127,0.4445245606771593,3.4243639107339074
54.0,0.8586361616355815,-7.91782846240886,-8.77646462404448,3.4994645185532463,4.8340875374942165,-8.358867018026741,0.41494145171007846,1.3402564676573436,-0.13525408733157984,-5.37261412497714,-5.2792022529616425,-3.1932089054647874
55.0,-1.2805588094755118,-3.1640179857121558,-1.8834591762367774,2.191266611545107,0.3199993818294651,-2.5421141032202916,2.480878374309023,1.261561009322723,2.0019705884182906,0.4563822934370694,-4.22650243644155,-0.26263559627468536
56.0,2.653484517048893,-4.079067402319789,-6.732551919368811,0.6810647375783834,4.713508915541308,-5.432596680110073,2.1495998227032493,7.70466610152597,2.8388795144518135,5.403895383816722,1.4614095999665084,1.0785840503169377
57.0,-4.737916823035707,0.8345930371288811,5.572509860164445,1.997737116121535,-5.2110277078295315,3.1677520935131525,3.756232546088236,-0.3772225167940104,-2.299533439291781,1.5294764603005637,0.7515155660098316,-2.8998145343466764
58.0,-0.7376645694002097,8.843405832365956,9.581070401766015,-4.008377365830706,-5.132869578416723,9.247521065255786,-1.4265938145541774,-1.9983922801387473,2.865661018363646,4.239479161657506,1.0943184731588937,1.2912225894847098
59.0,7.164177674399914,10.290684883312197,3.1265072089122183,-8.764169464841597,1.9717947606778825,6.739725242819988,-4.851628620842025,-4.330492337320965,-0.36700493398194145,0.10257531784246376,4.993591223362068,1.9899852154121755
60.0,-1.3034051786423708,2.7246796775517135,4.028084856194202,-0.7507328239167461,-2.6269847646330304,3.3295647241126196,-0.5612524610285254,-4.0430029271823145,-5.50627413654306,-3.63065935725332,-0.027912248535174822,-2.6953808273091573
61.0,-1.0790970269279947,3.1794066344773464,4.258503661405653,-1.0152257965842089,-2.6216514766728447,3.7565142036512826,0.3037921702322096,0.8967574952396191,1.6584348770787285,-3.2697269510700293,-0.9768860886765526,1.657760890344432
62.0,1.9083645620691871,-6.749326991360492,-8.657691553429334,2.373543583058167,5.259788940832047,-7.657519664415618,0.6421856513524401,1.999981378414206,-0.1175702938815787,-2.8789594142597474,-4.660207240141633,-1.2291143486504532
63.0,-0.0028436131045303514,-13.883823605947676,-13.88097999284287,6.973701351826369,6.922193343122268,-13.90736851899449,2.205863855668173,2.7727030425021004,0.4485557971967114,3.5591737198649875,2.9796351493386206,2.6957001880667213
64.0,-6.786133675776312,-9.528961175889577,-2.742827500113208,8.188680154008312,-2.0360788199671833,-6.157384387102899,3.1945883303013227,5.48575633669263,2.3640570903137386,4.424010254186642,2.3025543113397617,-2.889315524004096
65.0,-3.5565321218886785,-0.5213746138636135,3.0351575080248914,2.0726072941576907,-3.3128598397523983,1.2321379243251291,0.8021184896236084,-0.38453433714994323,2.7072945033754827,1.948640133032057,-0.5270657386921214,0.3243831524106612
66.0,5.7190874173955235,9.816294434977381,4.0972070175815665,-7.809908518365554,0.865175549563606,6.92197768671968,-2.2128756494578425,-1.8505955911250305,-2.2574757169439987,-2.86685002632874,-0.3269925386277561,1.3142513397073143
67.0,6.006935919734415,13.105082960504777,7.09814704077005,-9.596716526550495,-0.5811183591617357,10.131427535099824,-4.441329474962293,-4.109507214880984,0.011484316590081978,-0.8695831299390702,-0.7796513044629247,2.8989395373077014
68.0,-3.3977952148961936,-0.8116859206877951,2.58610929420819,2.14173038386435,-2.960816890564267,0.9030885307651522,-1.720243789252784,-4.32289666964813,-3.2792817401428396,-5.818311553761394,-5.33503300609884,-2.460666571126887
69.0,2.3955076104192248,-4.855420488114719,-7.25092809853398,1.1845009435149214,4.76528008300939,-6.046448111478447,0.6698175718129926,0.35920013113576577,-1.156502745310717,0.3560588490047274,-0.7826828594830768,-1.5415065721643058
70.0,2.065222949892736,5.514894509302671,3.4496715594100578,-3.7620533022910916,-0.6772273642871645,4.487754734560706,0.7360007223393137,2.7576450246692565,1.1846704119515907,3.1437991236164393,3.801457237575234,2.7390612751004246
71.0,-8.055058908905632,-8.29483061942127,-0.23977171051550106,8.197732807566986,-3.8921396897310085,-4.254577699059042,2.1744250677247967,5.273382009886091,3.0183408128729496,4.067496459577727,3.243963233260537,-5.273329229368451
72.0,-1.2907213347782167,-1.6508655780282453,-0.36014424324988825,1.4900102297810789,-0.4427742263095319,-0.9790577687642061,4.300100298026195,0.5406290638310254,2.2197169589836374,4.548566918316304,5.290743340373112,3.728069370670096
73.0,-2.6617400992124454,0.6339979615227409,3.2957380607352245,0.9533437474690141,-2.944500681185718,1.9288529568520705,0.6808092090554672,-3.8037543043104765,-3.5282815188900902,-5.770104306942452,-4.0965604685772785,-1.0450374616329001
74.0,5.223500117575838,6.590015586984782,1.3665154694089428,-5.886885207000331,1.8970151494730578,3.9566911294545086,-5.295221377275766,-3.93398012567762,-3.8683972541766645,-7.092999234860515,-5.579841489120896,0.0317645788409342
75.0,3.5795046132045867,-1.9570461846730391,-5.53655079787771,-0.7877857591484558,4.536939383633357,-3.759267795868489,-1.9489137252210558,0.5904412902533629,1.8136210671609747,2.6976691082737174,1.1940823633119038,-0.9050310924086102
76.0,0.9256890455044271,-5.950913923848075,-6.876602969352559,2.5403093045112146,3.8846575768607883,-6.424090512067889,1.4591582188050587,2.5184751913184287,2.11178538744095,2.0584745534294857,-0.9250121142955086,-0.2609816134882667
77.0,3.422386683464433,2.768837733220011,-0.6535489502444585,-3.143050612568456,2.019024491915877,1.121620628399877,-1.143193328900034,3.540909628633187,-0.1834400577150337,0.5256515212508772,0.018136897469759827,2.1004461232351055
78.0,-2.5292675112288054,-4.046153769204201,-1.5168862579753628,3.2423374076567204,-0.4549647824217109,-2.8053875161621518,2.772132719736282,0.8690608786979752,3.343913051486972,0.8078145593841078,0.5797405753407895,0.5710291971385175
79.0,-6.94207625580278,5.421457009691631,12.363533265494397,0.7940206921387024,-9.692397220807203,8.857568325351368,-0.6123626380880856,-1.391634334106679,-1.4661980470356821,1.5318015375804301,3.2081193989168075,2.2001005673443115
80.0,2.077673282881052,2.126850783534117,0.04917750065301707,-2.0694551407137185,1.041208594281212,1.1214907480519116,0.9292648026354594,-2.2157193473437333,-0.10051587131820672,0.5205391183837199,0.6968219931531976,-0.9759686388349662
81.0,-3.5852172159258973,-4.426775718468866,-0.8415585025429622,4.037483078178546,-1.3541775394903899,-2.608269643240877,0.5916971810347893,-1.4718931333814163,-1.076501444854971,-1.0725110217323852,0.07825010952158845,-3.150071205078257
82.0,-1.3366812637749663,-1.0848840881441373,0.25179717563083537,1.162619375494534,-0.781109743571816,-0.4731766007644569,1.527836001081748,-1.0742069620180075,-0.8560830583736001,-1.9835622573982659,-0.8033258038502362,2.0237894053757963
83.0,4.02391196937979,4.363636045496055,0.3397240761161804,-4.241665474314532,1.7772105977454906,2.3736902404263267,-5.792607128520026,0.40298588622969966,-4.241912103626228,-1.6904647835039204,-0.1060062821014065,-2.835603517509575
84.0,2.6089765078351967,8.749858819535362,6.140882311700004,-5.646469245025556,-1.7469247252637206,7.469820853480372,-1.64646522247439,-2.1019745292388192,0.3500982111757285,-1.1461022255290194,-1.9261057149628726,2.8432301909122657
85.0,2.8699541748248842,-2.7323366053437455,-5.602290780168762,-0.0315933982969554,4.262953672296094,-4.139581952015597,3.110206157471831,2.099233011236982,3.322484530497178,2.8820624397168673,-0.7392483571814366,-0.35063819167926114
86.0,2.21704709558274,-10.366528725180498,-12.583575820763295,4.03937984512721,7.435334157078651,-11.523576178733485,2.7824672516514224,4.81572436059143,1.9587993362172849,0.10822221135659205,-2.28615459876724,-4.920447524308951
87.0,1.1120025828167288,-9.867298444804373,-10.979301027621055,4.427993042690019,6.008383849638193,-10.470950529914894,0.7618008428747438,4.259451235861296,2.204291016483909,2.0862763530590054,2.2380567922559784,-0.36261525427055663
88.0,-6.326206396289177,-3.742931207122199,2.583275189167056,5.012091117006022,-4.48858238863071,-0.5490856683907417,4.204341765072528,-0.740873468111316,3.6799084884715505,1.3676870457576684,2.5478948438214597,6.025635648072174
89.0,-5.285637875471693,16.41680615481254,21.702444030284283,-5.585077248183708,-13.527469277850981,19.090228153468306,-3.4303100512473454,-4.591603043347183,-3.5377583162083672,-0.9287238328553614,1.435588925713991,3.2817078820887575
90.0,-4.490479664300905,5.771042299615958,10.261521963916833,-0.6609819300788393,-7.331985285018361,7.969963087261242,-6.167318778084144,-7.787833004224202,-8.356113244241705,-4.823230020705451,-4.706860775424957,-7.324448918997469
91.0,6.4979860243291245,3.717984184024859,-2.7800018403044335,-5.055317269528853,4.6818741141811735,0.5062939191167191,-2.8147906976201114,0.4154880848486142,-0.09042590261755512,0.41228731087444137,3.5006823858684504,1.4743973584637535
92.0,2.148580463932969,1.6897513556242763,-0.4588291083088172,-1.953337493736396,1.268411146878052,0.6603603827439478,-0.5085560735534406,0.9036675544321043,1.5094828502723878,1.1816430086852363,1.3099736933288166,3.706591998959638
93.0,3.062781612930084,-5.074175799050561,-8.136957411980656,0.9633230504999851,5.646143040532868,-6.630928357105482,4.829669517941446,2.4964943436609035,1.6205459654029346,-0.11086369539005847,-4.8639721461238,-1.66261208435436
94.0,-3.1890575014032017,-3.469975085901453,-0.28091758449815085,3.3605417557706017,-1.4820124003983697,-1.8941810128014822,3.679328235657619,3.0904884917994067,2.609533369618771,5.778466160584262,0.8384211372816293,-2.5882284165905562
95.0,2.831969585172152,-9.863116158166086,-12.69508574333814,3.5464195507482756,7.740761360963406,-11.295682488571115,1.6647656279773608,4.521220334937401,3.692301992707172,-2.10432006656257,-0.6846859997657182,0.8576258534907599
96.0,5.967756778060835,-3.740602498596661,-9.708359276657454,-1.0769801788629718,7.820151726881062,-6.744811655764783,1.1598249056315202,-0.9637497340637782,-1.3806199879163907,-2.3065021686284704,0.7586445569940227,5.345565804537075
97.0,-4.658409404299975,-0.3059520920116382,4.352457312288458,2.4505404586861284,-4.519239832985416,2.0723191461813686,-1.8269897937357553,-2.800310398855905,-1.9568629373771278,-4.674431986971898,0.5501757624721034,1.6767006154511674
98.0,-9.441862553842409,6.190296131692431,15.632158685534975,1.6067417062501614,-12.46874100194393,10.868480666287898,-1.73090551305455,-0.4452085662708338,-3.304824005976555,-1.2417289915074479,4.020752449975924,-3.2506229851528943
99.0,-2.0340887942208017,4.86500735193062,6.899096146151573,-1.4229972691121384,-4.474513787760218,5.904101843541581,-3.362543933014212,-1.8798467766950067,1.3947174207358455,2.0232395552656857,3.7187782358852184,-7.50543242980498
100.0,6.9907074695491325,10.779730770523564,3.789023300974475,-8.884947859679587,1.5943948829436616,7.294439068360531,-3.2917922784333786,-1.6631978112931274,0.13039922809129073,5.559955569730917,1.4996484938914754,-2.3827908334052816
101.0,5.408061440073514,-0.6272945535088885,-6.035355993582482,-2.3872957772117918,5.715026121338884,-3.3292077581426587,2.669130723891776,0.4466153531045439,1.651700683155658,6.821297500779495,-9.173790079369512,-1.1724413732288073
102.0,-0.7288282601081288,-3.6362575753593385,-2.907429315251431,2.1836225537168232,1.0800963074906358,-3.2728135539977177,0.35518658752982857,-1.2920677027046399,-1.532246759880942,0.12991415465363643,-11.826036281184825,1.9505337510057272
103.0,-4.00969563735518,-6.857570447061184,-2.8478748097061937,5.429203350886476,-0.5950451593227433,-4.85242111448224,3.2540140339360186,0.1950754358617538,-1.0426177065579785,-9.455700903188209,-0.13991458791128775,8.16783665818946
104.0,-1.6786115208911427,-1.134271355813783,0.5443401650772355,1.3948843919382803,-1.1324606671669044,-0.29047538230179093,1.9522474419696876,5.426003275888813,1.0292468211261134,-7.144852161671764,12.422845923084534,8.07181666534143
105.0,-0.051413931753555686,-8.437712548763978,-8.38629861701039,4.304806009736682,4.217341249238876,-8.402176431630373,3.4196714174713905,1.4400762355190797,1.3699428527396447,3.4630190749241763,10.064519265539797,-3.4786392676153417
106.0,1.0468655880850373,5.298051652723847,4.251186064638935,-3.196512626508948,-1.5602232544551362,4.710732493150555,-5.83802456357676,-0.48534940326185305,1.7054411480378113,4.095224035862403,-3.211235010682425,-7.2105985270962005
107.0,-1.3939691497790117,7.814557849678296,9.208526999457433,-3.2380079737096024,-5.345465689519123,8.530390618215275,-4.410115293744448,-4.832331674758302,-3.8182385954990883,0.4927125918263475,-9.53513629226024,-2.384673671676972
108.0,1.4643587390370687,6.557478281395343,5.093119542358368,-4.040569180048244,-1.8650440462347704,5.847037447350633,1.1226116541656634,-1.2117496422214313,0.3485493705311824,3.83341132758415,-1.5299824202985377,4.071881579870535
109.0,6.621411504570645,-12.909655780895823,-19.531067285466445,3.192373915445173,13.099173422665721,-16.196511322560816,1.7603700182286608,2.9686021144371257,3.7681970400189537,-1.2438853928255456,-0.8949955150821753,1.494282470146536
110.0,-0.9161049163638726,-3.5591854517418096,-2.6430805353779645,2.2851974945229676,0.8828918875088498,-3.075639383232634,1.9823806125844274,0.9980930363078107,-2.7216247960939137,-6.846114010097088,2.8944654113108204,-3.4939190047254343
111.0,-2.6888546982700556,5.188052848235859,7.876907546505888,-1.2823567064745447,-5.265231452205704,6.480613866767774,1.1129798000613504,0.5973812692022792,-2.750957562797444,-2.8932939484506517,8.233380270109759,-0.694661499236239
112.0,-7.441373657116678,1.8627893973906597,9.304163054507335,2.753473038931858,-8.35531184915916,5.533043836779594,0.20825109514985995,-3.6375735932576543,-0.27037540940976945,1.4821995876607086,7.367608745256645,1.6631078564396173
113.0,1.4468166232296777,5.143611468480692,3.696794845251011,-3.335405749914318,-1.1854525749956903,4.450504725812497,-2.996796810950147,-0.954827174430606,2.609229239358982,5.504242946384001,-1.8034656532950486,-1.5564351453016114
114.0,1.7363577823418772,-2.4748256592775184,-4.211183441619425,0.40323173807328794,2.9933473149165843,-3.309669655742499,-2.581431533070551,0.8617717938197371,0.8299641957588842,6.571790761846737,-12.772420927501335,-2.634860224489875
115.0,1.0856573793747657,1.000072905583828,-0.08558447379097212,-1.012041545469869,0.6066874614549114,0.4946795880845678,3.122288994138413,2.985950316799907,2.882427386739015,6.924154416781975,-9.999601800545067,-2.349846924328948
116.0,3.0569104428777734,-3.879466605936527,-6.936377048814304,0.44150887746981476,4.940802062730907,-5.444858328702104,0.16912182334833814,1.1418745658457328,0.5806274036676888,-3.73179104095827,-0.04485122651130968,3.125431039099131
117.0,-0.7211727553993339,-2.8315612029751485,-2.110388447575805,1.7300013471255888,0.7200851328363163,-2.5047026046065204,0.22724748629035563,-1.0538596639110742,-2.9764158970300807,-11.8677659684872,3.5604872642507788,6.374150100767234
118.0,2.94502566978423,0.7959988704596277,-2.149026799324651,-1.8341812123532453,2.5760139954698893,-0.6309864002850023,-0.08803987049253142,-1.5363991553014729,-3.989115362929625,-9.755454847388286,3.4371485601964364,7.826406586892478
119.0,-2.0182096352179872,-1.346278088607316,0.6719315466106013,1.6439467434723993,-1.31191117322691,-0.3735503931535593,2.8351719832510263,0.7313022361172252,1.3652749561243667,2.5979971927234775,4.913094563084379,0.7368362286473222
120.0,-2.887149134900107,-0.02684118153999282,2.8603079533600795,1.4213734767603396,-2.9152775758063267,1.4523717610528954,-1.4607057182625143,-0.6279744610988465,-1.4542754758496856,3.2132216746455473,2.4745627673301622,-8.631443109792508
121.0,-2.599620414143428,3.50557878935387,6.105199203497344,-0.40974451553371694,-4.390970570533481,4.753200672308721,-1.9970677568568662,0.030295253164397185,1.3768460802460065,3.67149867931347,5.227786313639915,-6.348618442074097
122.0,-0.47938390533486475,3.778825311432157,4.258209216767123,-1.6093866704847375,-2.3271863232343244,4.035806996741204,-1.568316936241243,0.2518953875558725,2.954784401283904,2.8950787421812256,4.314662878847756,-3.6017051483747915
123.0,-0.6113984781916896,0.5610189261252212,1.172417404317008,-0.01890445057571022,-0.9289684639462304,0.8770148159324429,-1.4242185088351917,-2.6312377212671874,0.2523442555334934,2.3913735885297576,-3.8412907074197538,0.389007392461016
124.0,5.852878456764228,-5.589994497740034,-11.442872954504194,-0.10436194470965465,8.689181119478887,-8.50881717256173,4.547074082175579,3.1288856977055213,1.4407517039910132,3.2742157972020522,-4.565536607872712,-0.9281909480277748
125.0,6.399234731243309,0.12119647697464586,-6.27803825426864,-3.3198109659605874,6.301446463376149,-3.0682537984673166,0.786775831026483,1.1357182909201518,-1.9994440784433538,-0.20844512619504374,-9.383577961137485,6.712851818233824
126.0,-5.035334044380347,1.170808373278219,6.206142417658581,1.9452168270750767,-5.57749804501128,3.7059234233824156,-0.5413555920632038,-0.7427745422378147,-1.0515454713058188,1.9526348175265085,-4.259242323462289,3.2442435403516976
127.0,-6.773583624127814,3.077763031846591,9.85134665597436,1.8584961807197606,-8.34480293176633,6.413545679113928,-1.960039428482947,-3.1633217621826337,-2.321172226069294,-4.815417614465135,-4.358136373778201,-1.7928182098902865
128.0,1.7084422474579672,-4.919271148770525,-6.627713396228546,1.6188162879316752,4.218398257927042,-5.73479320841915,-0.37590362946282896,1.0527557814584287,0.5278258986392979,-9.725238189402166,4.470559205475857,2.245151307874048
129.0,1.6008983179615888,0.29947583505057884,-1.3014224829110868,-0.9289255466299218,1.4260681852945867,-0.5316704910164242,0.0026963782722608798,1.3862315325207453,1.4309192918794078,-3.6765767680759533,11.264013826175066,1.344576121285565
130.0,0.47485483709896226,3.164618971935097,2.689764134836132,-1.7874339088620708,-1.1310830862040042,2.902584744962401,0.41791365656426666,0.4726837211145122,1.5899370718313164,2.7321581953676266,5.726788200590721,1.5468313468145514
131.0,0.14743995201740567,-5.074354646333335,-5.221794598350707,2.4281863869599807,2.6598737981149343,-5.091939459069113,3.618114377548972,2.2862133063098637,1.7281669073967099,7.688411951194147,1.6288980187161979,-2.2379891257995075
132.0,3.2794525803550867,1.0018155718837072,-2.277637008471334,-2.167664961549878,2.829075325679847,-0.6627094368011163,-1.5719675669370523,-3.4300633329488504,-1.5378988391294697,1.1031732463910728,-4.53887766699301,-3.1521628727382143
133.0,-3.322208008093356,6.244127016768035,9.566335024861365,-1.4845262756676418,-6.477286645595339,7.953349596664234,-3.684267447069951,-1.5838923438526877,-3.548435653133953,-0.8158219061525718,-6.8608541439195765,-5.172234806482918
134.0,-0.6503512350583082,-2.4682519623833743,-1.8179007273251129,1.5345044046288918,0.624831796856316,-2.182110167017121,0.4073191181388609,2.171874830247365,-1.4911828262738267,4.002643790305908,0.38300362336143756,-2.5599104144097176
135.0,0.623702171779736,-2.114065581952471,-2.7377677537322525,0.7949669875772886,1.6398073641525097,-2.4742483164330857,4.266881766272464,1.4800646272674494,4.509893576244324,0.7398315094786851,4.498211850713611,3.3114283733310423
136.0,-2.6843417951171977,-2.8620617291568977,-0.177719934039702,2.818301377006849,-1.2164536249648905,-1.4974803773584355,-0.043762868229076046,-1.5701603693915094,3.8231752031768877,0.6429542637093759,1.310699961482531,2.527723430962961
137.0,1.4027023251598054,6.097231703424171,4.694529378264349,-3.7869171260112413,-1.6863632448563979,5.413838129053328,-3.6781761215526614,-0.6999879321070398,-4.077112471953362,-6.294909257957544,-5.090343018578889,3.6047106295057105
138.0,0.4146476947030764,0.16164047955644478,-0.2530072151466509,-0.24756676125863875,0.37543055798102976,-0.027001350224872045,-0.5282933788089997,-0.42706087710576557,-3.3189194866356972,-4.130296490238601,-6.8321832189640315,-0.006858589005981575
139.0,3.0249455210067984,-3.506570096360374,-6.531515617367188,0.20302523943665218,4.745179730572009,-4.994135323516636,-0.9416249591483017,-3.040758546959796,0.09234164960992608,-4.3410650973505955,-2.4017246886954102,1.4341573824884857
140.0,-0.3802752799088638,-2.35696552432755,-1.9766902444186503,1.3318061166804005,0.8475351084892975,-2.2101258417723324,1.6218214590355893,4.87266111978615,3.4541607531807057,4.897730839137029,5.976113432013322,3.8951769896633115
141.0,3.562423228824159,1.0063334999462077,-2.556089728877857,-2.2417450698431587,3.031989336776473,-0.8056593277091919,3.904733982046749,1.3278154119277978,-0.5521378388041451,3.275717041402374,11.886537705479618,-2.866563814675138
142.0,-9.38758725911169,2.4437043051286724,11.831291564240505,3.4359582467117282,-10.63631510272499,7.197122596177516,1.4620321687238582,0.40624168313767206,-0.9148462188274231,4.424348603730784,3.858125951051936,-5.624934767854771
143.0,1.85389451467606,3.0504400658854616,1.1965455512095353,-2.409564870218154,0.3010955938020792,2.1125720114729676,-3.154782585224192,1.407757938226346,3.9657573738471634,3.13424838256889,-2.234952644666202,-7.51340420616408
144.0,-0.35532321440641756,-3.7263267723481004,-3.3710035579416298,2.004712642902425,1.5586418834810198,-3.5565511630679625,-1.7714375582838167,-3.503791885915307,-0.0008912840300229208,-0.7353987596737506,-7.242460330524779,-2.34216386163058
145.0,0.5616444074391672,-0.17901473558436543,-0.7406591430235683,-0.14810310010029837,0.6246889580578823,-0.47023086119807833,-2.5839314697439324,-4.464380412632025,-4.891949292945315,-4.64897078419154,-9.99485988583989,5.186900101743485
146.0,8.134116545121168,7.780248016521421,-0.3538685285998566,-7.991672699027044,4.30039335399669,3.695913542779903,-0.37067563587912433,0.490427004782231,-0.8575722238860308,-6.963857131437619,-1.8482219859052744,5.396646199859489
147.0,-1.1718359928363258,-1.4650110030410977,-0.29317501020487813,1.3637425525149984,-0.4554726323070637,-0.9051804655541007,2.517452629361689,1.4809972526871749,-0.8011811178509081,-2.6632530556412455,5.483750196485152,8.11904992811796
148.0,-4.978606423348075,-4.719726099478372,0.2588803238696198,4.8162021995196564,-2.62838440003261,-2.1855597307271166,1.7400602945340642,1.1107685362995663,2.140912161471015,3.608278478773429,3.041782640122166,0.7255837889617389
149.0,-2.6320019604523797,-12.76933667365301,-10.137334713200666,7.667206801503127,3.747404161796151,-11.41289026957582,3.489595511595358,5.216231876568269,4.155861890164961,4.835413560219969,1.7611818863535142,-2.358761636226219
150.0,-1.4294466656407245,2.489006269855228,3.9184529354959423,-0.48582001115838835,-2.679037596796455,3.1653116774023067,-0.8770964199000659,-2.41053740852936,0.4735703616188667,6.727404688809488,3.3232232337647423,-2.6182162008414585
151.0,0.2195000846997993,3.9766763799097995,3.757176295209998,-2.1343913236687655,-1.7788641858976542,3.9106876973749882,-0.42221663764058415,-0.008019283717900283,-2.03677257648301,-2.0260280232666883,2.1874743692101744,-4.007796135858301
152.0,4.491390242150968,8.048390466046591,3.5570002238956344,-6.228287086137836,0.4477820859112238,5.772756685276484,-5.2683719891007215,-1.1483282203292564,-3.5618495181070773,-6.448067609811741,0.1264150032478728,-4.082184633278461
153.0,0.12012555516007062,4.783766910674153,4.663641355514114,-2.4886399752563744,-2.2241909121425696,4.698356602125468,0.02402021657389586,-0.7331416341701749,0.692926497421646,3.6585651373282824,-0.14709219013531682,-0.8728792170188413
154.0,1.4611753504519336,-4.4004912765795225,-5.861666627031421,1.513507039504152,3.6188994420892637,-5.1535815162148975,0.8061333915834884,-1.4791468542373436,-0.8742370213878581,-3.602631065743457,-9.12025200958336,2.356009734606338
155.0,1.3227656300091044,-5.121630445371864,-6.444396075380951,1.867018443350723,3.9115849510366525,-5.804519839123407,2.7558063202481025,1.597041576567914,4.20960235780173,-0.6540966211985308,-7.474326859870732,5.185912930840993
156.0,-2.55126094172868,1.4374679640387775,3.9887289057674415,0.6053031425678359,-3.2453629982418106,2.770212994886987,-1.7352191700999573,-0.5511270961477599,-0.15879055336777248,0.694561678069217,1.012259598716041,0.47091642046137583
157.0,0.17922754480931014,5.757491340187132,5.5782637953778185,-2.9981148598700735,-2.7518644238104772,5.724467153640617,0.031966857713303654,-0.674356431186347,-2.0183599082697206,-0.41037673785008644,13.539656857562091,-2.8703716502905685
158.0,-3.803958945165947,-1.7503134184263818,2.05364552673956,2.746064010249622,-2.8967019185708747,0.12865069958124292,0.3025710077955691,-1.8235750729264737,-2.1928185527545705,-1.8888058982137739,6.555620537862512,-5.280023095374284
159.0,-2.2382164953089556,-0.5431676135527177,1.6950488817562266,1.3569882199551293,-1.927261124704042,0.5511397229825943,0.35767247982686023,-0.047420432167985305,1.875784264367184,2.4919897744191015,-2.656962360077424,-2.931456673692291
160.0,4.482581998848358,0.4685867222664528,-4.01399527658194,-2.433046093966748,4.215017938912678,-1.800847557050176,-1.8738226215666225,2.0273386021830637,-0.0012972012629701712,2.917708682498927,-7.224769585434615,4.799692844085788
161.0,2.9688613834429023,-4.140254826087085,-7.109116209530002,0.6274294483820759,5.008461182436614,-5.6576211913854255,0.7109109565840857,3.0695710684022046,-1.21426365947254,-0.30700918334505123,-10.5117513491671,5.560146080406855
162.0,-0.4476107712933963,-11.901508032949884,-11.453897261656513,6.139271561158935,5.471107900546803,-11.637013268950954,4.828673817028104,3.764698741707013,2.54489891529831,1.797515933490428,3.304353750786448,5.518417756218576
163.0,1.0567930844601614,3.6703193612521763,2.6135262767919745,-2.3162799215386194,-0.7367265799744303,3.1788717694960535,1.4082329267555993,0.11296716288764047,5.101511974562437,4.467512614700366,0.38721580503632047,6.65810282053449
164.0,-4.228408234128773,5.3040752895633005,9.532483523692054,-0.565018420318373,-6.845606380675075,7.37562146747559,-4.6244103539951125,-2.9741253285979017,-0.5120810836101959,-5.55323283625813,5.4423406798694565,-2.982814853501455
165.0,-2.236756155824629,5.941273662896972,8.178029818721615,-1.8767518892025346,-5.257673643994362,7.098319667415006,-3.9672290502279983,-6.822452527780646,-7.8899657044700024,-8.342134944867436,3.408790137541664,-7.133092578359206
166.0,1.5464475676512401,4.415788512513961,2.869340944862766,-3.006162586721771,-0.6372778277318676,3.607795283944405,0.8157101549401857,-3.143790129040703,-2.123932362646733,-2.742119714652238,4.299060680863409,-7.381487807947906
167.0,1.1213666089898515,-0.5709475149362957,-1.6923141239260846,-0.22588447902935926,1.429417975813314,-1.081318917028768,1.0428208749227272,4.20556339496472,1.725090812462243,3.449178371360671,3.7197542600226923,-4.082963911569566
168.0,2.508678247150372,-5.1833013284329965,-7.691979575583318,1.30028882098896,5.123664022973951,-6.460831201559364,2.3924423487753783,3.9232969212280384,0.8498916555468193,6.920183161413222,-2.921495051362945,-3.9695095034559946
169.0,0.2074289902329558,0.6549351998339721,0.4475062096010074,-0.39876378134892554,-0.17326988073493732,0.5305413032515816,2.649708536884165,1.5301031686285183,5.087903358976364,8.361505197370334,-1.2679855671093705,0.24067261766224934
170.0,-1.592526766475364,1.6007454292743328,3.193272195749622,0.019195704341110398,-2.443372191432776,2.3756144918276134,-2.8298735540679063,-2.8569280437684266,-0.8386583600667712,-2.604191499699473,-10.32644530942423,1.2730463981110685
171.0,-1.7842566018487953,-4.174432265925261,-2.390175664076596,2.9168336619041257,0.33421733089405203,-3.306738509514688,-1.4597395689996064,-0.4929121086826068,0.07448949566024099,-6.286000202166914,-11.469848717336388,5.011824741313908
172.0,-1.7130642613917524,-2.1814738520147765,-0.46840959062312115,1.9599463449062768,-0.5877926637236843,-1.274133056420605,-2.179827812183883,0.07484594701812275,-3.8750995040909544,-6.342402748947682,-0.3236504996757543,11.772394649698091
173.0,1.7485509276993385,-2.249162913369938,-3.997713841069296,0.2637115744884747,2.911290872406287,-3.07469121937491,2.635239301248529,2.0985977638546713,0.7690573032263699,0.5792615440441198,10.55842343176519,10.9518233946925
174.0,4.373691133963715,6.368161241154709,1.9944701071910678,-5.352614667894833,1.1526335325674282,4.151790801728383,0.43175517235884564,-1.2752535386251438,-1.7145770598257375,-2.408694162496965,10.944000306901613,-0.6573940918192829
175.0,-1.9575129228816113,-3.25464769774006,-1.2971347748583373,2.632403824269025,-0.3642833814908697,-2.30249423293036,1.4167622601004548,0.25774001647479783,1.0801048714407924,3.002516673838742,4.8970415415282655,-9.454670562830414
176.0,1.8047029845807447,4.411671247117725,2.6069682625371,-3.1512559756086986,-0.3549968014393665,3.4870073330060984,-3.5347096797530506,-1.5498063284879695,1.7631071514914076,7.382835171630906,-2.5353000259158076,-10.201214877507713
177.0,-2.457062876399019,-3.4248225281078475,-0.9677596517087554,2.90670313560586,-0.7773465580170736,-2.135729098276681,5.472882174546292,1.5285911628255853,3.356859666792033,5.323760389430713,-3.9493296215260325,-7.811233714976161
178.0,-2.516336524619076,-3.4570546054177496,-0.9407180807986798,3.0381317668710337,-0.8216005992207664,-2.214580874258098,2.1178240486119853,3.077685422072701,1.6745913685088227,2.00077745028927,-2.0812239498351452,0.13423685457387347
179.0,0.4892300450210867,5.0422973899727594,4.5530673449515975,-2.788587791764299,-1.9880081004519854,4.781876918331713,-6.045444779300214,-1.6663502341379186,-2.3105020434384875,-7.463608833365357,-5.629019298576663,2.9485620097098457
180.0,-0.996901215346631,8.582650834317922,9.579552049664455,-3.813367696496399,-5.24418350833969,9.062371343160278,-4.117156686424394,-5.361461702496606,-8.64231723553023,-9.829506306869023,-3.233315956829744,3.21845524427398
181.0,1.2008135067609147,2.9070597223735852,1.7062462156125962,-1.9947161199149663,-0.28535792296460005,2.2827538873480746,-1.3133242342662237,-2.238794273258282,-0.3307375278429676,-2.436367220094878,2.5123764688354804,4.799380622203589
182.0,2.219376178616703,-7.05342667244806,-9.272802851064839,2.398032535024261,5.7176153888721615,-8.11466665794608,2.0610880365021456,3.984704019130799,2.4732773381643947,5.036356195064091,2.419000125753172,5.177162347951829
183.0,1.0558804107045785,-9.21799306155527,-10.273873472259861,4.06299205586145,5.642310291800701,-9.70423258927055,6.300164908672893,3.7925980666936256,4.750148644617492,6.088655980291869,0.6622063229351807,-1.3116029921807906
184.0,-1.5544428763859437,-12.322107539477262,-10.76766466309127,6.922068792115705,4.6696571802281195,-11.588687427059776,6.189879530507406,4.605198097396253,3.3958262675051656,1.760926312655256,3.669947390432176,-0.792664888065348
185.0,-0.7904842241739727,2.2478112831822106,3.0382955073562683,-0.741967375717715,-1.9234337356154418,2.671061281300098,-2.881805666076035,-3.916482275916237,0.9884961820612745,-1.314575198054459,2.1440804270413807,-1.3346437759016236
186.0,4.42140358892566,13.340083432970872,8.91867984404523,-8.811856703732143,-2.25265900200609,11.071267077222478,-6.0856108675190015,-5.893164105147527,-4.121166706985522,-3.175040727756368,-1.4255786547941383,-1.9674340993023378
187.0,-4.423443902266387,10.553577561439319,14.977021463705665,-3.0722119666206944,-9.702260724708328,12.778390763159607,-2.9917474227159526,0.6922208622327237,-2.1114042377602864,0.6221114953577391,-1.1726506436385942,2.2880017185163424
188.0,-2.483080516562604,0.8751259060420589,3.3582064226046517,0.7970102619386052,-2.924548476132249,2.123058640863169,-2.21626891215253,-0.5084051357212598,-5.424687283231936,-1.9144268346849247,-4.044255811721855,-6.710036741482676
189.0,-1.6785104888617848,-6.764626016074203,-5.086115527212417,4.210510966571408,1.69434735538303,-5.923289669919448,3.5043378323317187,4.465603870786795,3.430637105586599,4.637220020607039,2.853004956712724,0.6412388024841607
190.0,6.178454933827917,2.161146151655731,-4.017308782172158,-4.189985340124147,5.08060357342638,-0.9264566374483092,-0.2698845075439853,0.9366638123933568,0.6546220226117798,-2.334484555675684,-1.3002921959474738,-0.5493344111516225
191.0,4.79348012781158,-3.435871644900235,-8.229351772711754,-0.7123329161797378,6.486310700557947,-5.826864180459233,3.5254455421876703,-1.8555896990823046,4.517397973606557,2.133821916835253,-3.572166936993167,1.9690940784889082
192.0,-4.105041826184853,-6.01375802678859,-1.9087162006035756,5.089459879394515,-1.050026602646497,-3.9472418540365277,3.740436022377148,0.8701152137470434,2.7860408258875435,0.5878168519899449,1.3987419049154233,-1.775759524100378
193.0,-6.749710533800113,-1.3248690541477313,5.424841479652593,4.053619185688298,-6.0409546406589545,2.074719524828257,-2.083466774357288,-3.1652592517614604,-4.18887269480439,-4.225883270395141,0.8571109976191871,1.36024553499082
194.0,1.7201015214169069,7.0265244492604015,5.306422927843674,-4.366318391237819,-1.8239730409495798,6.123339459562291,-3.3036451460000005,-1.8813348715592497,-3.624607316655424,-3.328086243872228,0.2690027442139724,4.20998742798978
195.0,-0.7405654840846013,-1.5439183726745291,-0.8033528885899424,1.1459593684548643,0.003754235903933978,-1.2080377208618032,-2.86828589666259,-0.13003705292312384,-1.7567010211084528,-2.17050341823289,2.028367084308208,3.9020022972721304
196.0,0.2794264519935724,-3.0671906415470414,-3.3466170935407957,1.4002610130447375,1.8661568198959895,-3.1575021013972355,1.5381289537539402,5.456347322800315,2.9802804863646113,6.803606024898713,8.501177645207886,7.468804646772565
197.0,1.165365283099609,-7.984326863085583,-9.149692146185425,3.4227701915151165,5.130460309435835,-8.595375592060615,3.8897249473577764,2.020187485118048,2.4887421323214003,3.3475811204267556,-3.7793213609396146,-6.734403567206934
198.0,11.98925239751784,1.2113939552458395,-10.77785844227226,-6.657137311269511,11.35074308232516,-4.735239517212274,2.180647716761821,3.8275383039053423,4.855561541175486,1.474137922362078,-6.938798797595105,-9.023739636782608
199.0,-1.5887576976131332,9.283732380145832,10.872490077758833,-3.8175737910580265,-6.27216505266742,10.0430739165618,-1.1861323072209422,-4.29654221985133,-1.8139126785756177,-1.4632576210321377,-0.44447183530804013,-8.968847450528687
