Time(ms),I,II,III,aVR,aVL,aVF,V1,V2,V3,V4,V5,V6
-200.0,22.070342527593606,11.639625892703368,-10.430716634890338,-16.863826229653,16.221248385775795,0.6400942768839393,-8.492549303023013,7.046195242611597,7.067718061925946,4.663592124940982,-5.0830835593762895,-13.896820766291912
-199.0,-6.5652131290188915,6.3674179705687655,12.93263109958767,0.09046435843509659,-9.702330926795192,9.614587073304426,1.6696910783669834,-2.0497200423200606,2.304484173940833,5.481032384246676,0.7631137372153951,1.1940958438264229
-198.0,-17.73064943084953,-10.181083838143842,7.549565592705806,13.940040873163227,-12.593086039004266,-1.3441208502541633,9.076085314364775,-7.11063542687852,-11.204810047012163,-15.368210684480232,-11.872159793626219,-5.775987118218189
-197.0,-1.5109823557077,-8.278758352428547,-6.767775996720706,4.865591453988121,2.6002750161604675,-7.468321251717969,1.0517106747669351,-4.652820908548667,-12.96057935707804,-13.03895651504227,-8.142648369531154,-0.12014460449513548
-196.0,-0.3815251894371796,-2.573541054154459,-2.1920158647172014,1.5110906943359241,0.8827795579876417,-2.4055761986383803,-2.3953692247877605,4.096976719331428,4.4081770732458905,6.034450867284238,18.07761438422013,14.829826869875113
-195.0,5.702806662431312,-7.6342192067009425,-13.337025869132333,0.9852182673306835,9.50346246971785,-10.510758462165336,-2.6696615261931784,6.9268610545009395,6.533145048589192,6.906726911228846,12.979127833008096,6.419937908235216
-194.0,-1.6141080719237704,-2.7742336333202706,-1.160125561396688,2.2052037309780697,-0.23878789593814798,-1.996595740628338,1.8041072130044395,1.886377978436013,5.884628332955494,10.061980756917075,3.4084479969587544,-4.938088039867289
-193.0,-1.2346078864949295,6.105037638960256,7.339645525455001,-2.4250799907394365,-4.218226391378087,6.7675580330923015,-2.394906958944523,-8.073322145258494,1.4977898087751482,2.0209915297351815,-3.9353883303003556,-1.710084066221215
-192.0,3.9441872691747113,14.122584536275447,10.178397267100637,-9.095406674134694,-3.128542921387301,12.193737533050918,-2.4976440752894034,2.417164027642582,3.7316109843206338,-1.0311460660344802,-7.095578606509152,-1.6070123434000672
-191.0,4.615899397938449,8.731585099735508,4.1156857017971245,-6.64491174525036,0.23340647421668836,6.3893701852147196,2.485415024027838,-4.328092359671055,-6.435622296978929,-6.813328076310765,-5.41284239150604,-3.805578999863614
-190.0,4.536257880605435,0.43051901697366546,-4.105738863631606,-2.4402125861070676,4.296120469052727,-1.8677003128065919,0.8737648134062728,2.6375035981483768,-3.119796371950183,1.2779529943635062,2.7456381642974907,4.672590884132532
-189.0,-1.4030707499654647,-3.243936544027616,-1.8408657940618838,2.300824686385598,0.18466167778880127,-2.488108234377708,-2.0822898823646585,1.7414376753034262,-1.2111766522865208,-0.9758931062172076,4.006418270373697,-0.3653122893061487
-188.0,-15.41186145923237,-11.860502528244021,3.551358930988604,13.621790198509252,-9.445260518957362,-4.174099057566057,1.436994466285451,0.8828187374402565,-3.2197651801185714,-7.359415647891775,-11.615431657291428,-10.240988512899946
-187.0,-2.0170870251407456,-11.3193795278885,-9.302292502747623,6.655810393110064,3.674216590629387,-10.32828122472471,4.178044945569272,1.3055522221048252,-0.46692163332972153,-7.26855461808182,-6.977039984309147,-4.132238170532937
-186.0,10.690974219950352,4.905820255609881,-5.785153964340495,-7.81490571492511,8.269601640515127,-0.45932534547194237,-4.155036461592327,-2.8955368730758733,3.654474173882577,1.4536896983479375,4.176884027968164,7.944787017426954
-185.0,-1.5250777223732532,-5.167877459163368,-3.6427997367902245,3.321900109073914,1.0160015261040556,-4.353034405674118,2.1498913691204677,2.0194849653330116,5.426982617165958,5.691077134009136,7.797204960905969,3.7532267677932367
-184.0,-2.804513855091269,3.3192310348989666,6.123744889990065,-0.2122535832062784,-4.4997052457904925,4.6847203204275605,3.1505228033426813,-4.234924647948515,0.2541712894625947,10.41396294737392,9.180220819566848,7.773722951466809
-183.0,-0.5465438373317811,13.323670751159165,13.870214588490793,-6.350888672101366,-7.157098219815426,13.627257190288788,-2.654090036526913,-2.393491298829992,-4.275676611879767,7.247887874078636,6.326790950069477,1.3169349203798721
-182.0,13.485649131262262,11.304416699111115,-2.181232432151223,-12.361869416744634,7.812919766435573,4.503047993926543,-4.282017870171587,7.605279640898308,0.21666734770754204,0.2124528723632042,1.7789083482141725,-0.4502413985977318
-181.0,-0.8632310545784758,-9.572716463962331,-8.709485409383813,5.170519488165935,3.9070571086989476,-9.126500709287264,-0.15269814488054267,1.7078137610467574,-0.050237517395745,-7.669289499259786,-11.91331039752504,-10.125615151901926
-180.0,-15.41707700772322,-9.580705802600665,5.836371205122676,12.451049845669033,-10.641326339646813,-1.8565730763872574,1.0652263458589424,-3.70041663025461,2.8685486462920498,-4.915688522834255,-9.438655254390891,-2.2888790158186216
-179.0,-3.995746131546966,-10.419725750236765,-6.423979618689655,7.238739059206512,1.2770382510615894,-8.39830157168392,0.46114079704761146,-6.596659376999014,-3.4342272140101477,-5.797859849802545,-3.975658207398828,-1.3067788245375387
-178.0,-1.423099105007204,4.123173202660188,5.5462723076674685,-1.397305417503488,-3.503620698938949,4.87133787289332,5.817726331286711,3.0734450044009427,8.592351299227833,4.961441281257794,6.727121460103109,4.746579053450826
-177.0,27.18976111454236,17.376851000915412,-9.812910113626979,-22.250162238080605,18.478490229643853,3.754228610918628,-7.402201529179192,13.974184765266534,-6.486641336698918,-4.4306311243836625,3.5721992896876165,2.248517077414688
-176.0,5.935560153033203,11.366462251338803,5.4309020983054825,-8.613987457821493,0.2259126203062598,8.382102753899396,-3.562953050409268,-7.376030783740127,-9.17820754421209,-3.5698275734117466,-0.4964013489465735,-2.0648553769901015
-175.0,-24.37763652514655,-10.934828381628414,13.442808143517945,17.62099575911484,-18.86010462318033,1.2415971247313098,7.036145966909336,-10.40919087046538,-0.5878534262817592,9.171718230861053,2.552127706292059,0.7956589095471966
-174.0,-11.879453459219754,-12.004062170388615,-0.12460871116903949,11.993553791260005,-5.906285084720719,-6.081063188534367,5.555089599717354,-0.6572343263688412,8.156663853157749,11.649603905536797,6.313177784139917,1.4259310544083807
-173.0,9.659641550676442,-4.2318126031890415,-13.891454153865544,-2.7327489888167387,11.827208516528959,-9.089992601813261,-4.715763096114247,9.187592302274616,6.2073892439481515,-6.775662054055238,-4.524587299643776,-3.2651897249332653
-172.0,-7.223244492411479,-6.650466058521072,0.5727784338904769,6.923581919661171,-3.9219202191078155,-3.0038741010135195,-0.525316603157951,-9.839163367245366,-10.50389515473606,-15.670108645223706,-17.073186330723527,-9.302128685963236
-171.0,12.465952495467212,7.791836670901055,-4.6741158245660115,-10.140972490409482,8.549800245248711,1.579067027641596,-2.0323818816952315,13.713345259526335,8.898638580126551,4.890699585834605,3.8804933112151536,6.280801743775966
-170.0,21.731227081009266,11.882379280339705,-9.848847800669423,-16.82239445789909,15.77318663136483,1.0266388579065109,-2.9163862154515727,4.46725469246412,-0.8523810962959957,8.393528716430229,13.262738611509263,12.018384468506786
-169.0,-9.696148333325077,4.152674253235531,13.848822586560717,2.749332345448943,-11.786611208216835,9.006599574816768,0.7186793716307873,-9.041536987245888,1.96172197750527,9.490672531048755,13.202794673500408,8.872328136705608
-168.0,-27.751421436201962,-13.264638251631464,14.48678318457056,20.556933813351705,-21.05240323364929,0.6188563267171592,7.995480997335585,-4.312647046174179,-4.771828437094398,-8.653920841446336,-11.692888078849382,-12.50345291174219
-167.0,4.438339889350473,3.1043802353725782,-1.333959653977864,-3.8064339474611764,2.8756201301800566,0.8988633499682794,-1.885450806158964,-0.4140648024369762,-2.292048043032942,1.4728548164087547,-5.18846813439149,-8.307580896137548
-166.0,31.354073389631736,14.577238339226666,-16.776835050405076,-22.923219126975752,24.055852285157982,-1.157595626179501,-11.878847911579546,8.367781963406802,1.0931486596832205,-3.7260492321266163,-3.269952483605536,-0.9185893595580454
-165.0,-18.21921851582966,-11.679578672176024,6.539639843653646,14.994474580912836,-12.38882933195599,-2.6208502653266326,12.564411007070994,-7.362854988903414,-0.8613932289045594,-10.498589898608222,-8.728041498718543,-1.28854501084054
-164.0,-20.88161112732476,-16.321489896361893,4.560121230962847,18.572410993034232,-12.730773134390308,-5.846820710590141,2.3670918451702643,-0.7352089921645436,-3.3507141561244227,-5.646979243549968,-1.2324994936283717,1.5156644242737756
-163.0,8.705930692093078,6.000343510124635,-2.7055871819684936,-7.378810345121563,5.694977433036131,1.6867668021688926,-8.538927473733754,-1.28221594799172,-1.0404143999068278,1.848475169266652,9.377069467286999,6.78861727839927
-162.0,29.059658965814872,8.573727132123516,-20.485931833691392,-18.84253823704135,24.761328652545608,-5.911069103869689,-1.9651728577288288,12.2150272612747,6.992422638142496,14.607942541022814,10.346492640003147,-3.0757509634116813
-161.0,-6.381290562554771,7.407945138231005,13.789235700785829,-0.5439970651897816,-10.018073763350863,10.570608563392856,2.6360293508645034,-2.89666608363677,4.587604532632827,19.683863141457838,13.226502814842085,4.650513901493812
-160.0,-30.428746535016487,-4.291524910284884,26.137221624731755,17.399654043884432,-28.294181500671325,10.899905308508941,7.991712016763561,-11.338526568244376,3.0787197578210646,3.2303517936152755,-2.0701183627390263,8.580056984852114
-159.0,6.832212002656627,11.117895551254426,4.2856835485979925,-8.945504910201292,1.2621437076285567,7.682103666713589,-5.770681138139656,-2.670052059782996,-8.811752323165106,-13.321298494605845,-4.419351314356977,4.241655354041445
-158.0,41.10053026903108,-0.05040273950073182,-41.15093300853165,-20.504155605580113,41.113407266582136,-20.619657292660612,-12.339637482186392,17.293386329889415,-0.7743681331239562,-18.841958808005145,-23.45466797530469,-17.683885050341438
-157.0,-22.57754589698081,-25.41696204644124,-2.83941614946038,23.934308040279326,-9.884533107965384,-14.070455243326403,13.979943268802298,-9.04163673236733,-7.102535790025453,-17.472340315888545,-20.265342195479985,-21.015448319823058
-156.0,-29.527777626869394,-20.188092776614845,9.33968485025448,24.87332575283862,-19.45417591849561,-5.449601875859429,8.343214021055696,2.3141976742451913,2.3506295658052467,-0.9062756117954409,3.4143737447586107,2.7288353795263642
-155.0,8.007055888929413,12.524476267346664,4.517420378417117,-10.246118403340635,1.797189015432762,8.568209179595728,-3.2823611492266194,3.2329211597063665,6.348658234011587,15.296626122651093,20.297037667958595,19.059478436397228
-154.0,14.249508402773696,21.301945604957602,7.052437202183798,-17.748193553753044,3.5664908310527155,14.138681401822977,-6.652518576348363,-1.654555162235267,1.7606356105061418,24.148083202578828,21.695307367963444,12.785108928728445
-153.0,10.135064034339358,16.075356664276523,5.940292629937097,-13.146620544521717,2.1396959045019712,10.962303498672984,-7.23607514458456,-2.96764210236521,2.998130502349997,11.653480761293165,6.1507643662614875,-1.2157585333865555
-152.0,-6.6412886459350196,-5.672834728905358,0.9684539170296587,6.1255064102808845,-3.8440727315345056,-2.324857411200907,1.895013743054582,-6.083552968984061,1.7271575580419791,-6.975895920013948,-9.2168058614146,-7.10871393015168
-151.0,3.6611112990965045,1.186069059760647,-2.4750422393358456,-2.3680440759571524,3.106132474568318,-0.6208786943329534,-1.0708372526163277,4.251759327602473,-3.506757653762378,-10.181957288040831,-6.443017123804017,-5.027861724659552
-150.0,7.870881182614395,-0.5314077322583008,-8.402288914872676,-3.6870487278723343,8.094808308375054,-4.444198668286466,-2.639582739218645,4.2317705315666,-6.242942694023491,-13.879959798594975,-3.921226247134701,3.3122879303215518
-149.0,-29.346654499002067,-26.26575901151571,3.080895487486349,27.791984653794216,-16.17841305285819,-11.646929318260833,14.800568891048014,-7.68160463328087,-8.911264784142555,-9.362493477199772,-5.049307504849539,-1.5955332115637018
-148.0,6.687484179415323,-9.209647263549254,-15.89713144296464,1.2472602306902054,11.246172364563682,-12.526020259243744,3.7164135098635374,5.007091828301182,2.2575512809918856,0.6912479566837328,-4.181249345330277,-1.0004570093018585
-147.0,6.6266176220880295,8.751395720396651,2.1247780983085125,-7.626021294187423,2.2796386063240237,5.468494562061889,-4.087547121664365,5.186884772719812,10.780019783566718,13.6118491780353,8.18368299876139,10.636379616494912
-146.0,-3.3895588979111047,5.482828827245728,8.872387725156733,-1.0662897010856218,-6.106673330757269,7.130608256801481,-1.13301576280496,-0.906947228365077,5.87912355902908,7.49462191071412,-6.33903003929066,-16.839504514173086
-145.0,5.714651187373235,10.780585165930056,5.065933978556778,-8.272700911669732,0.2660695584743178,7.953597558074488,-6.647760836127285,-0.21773909544092332,2.249099802437878,-1.3545283492567144,-3.5738461734271576,-8.762810516987193
-144.0,-0.19724720296041065,13.156622292066107,13.353869495026558,-6.511234289197816,-6.757080271719553,13.202632781446667,-4.821453564651442,-6.015334179782483,-9.019004364029865,-3.4430686490190467,4.399853134646652,12.553176383757275
-143.0,-3.9113260432191805,-5.667319891197348,-1.755993847978072,4.829665768816386,-1.0582594183548562,-3.6913914503477,2.6214305076707607,-2.5195738385913735,-6.039110735837571,-6.762602328934224,1.3690503956252549,2.712946160970562
-142.0,8.990819030791968,-1.3334277927173073,-10.324246823509172,-3.794945901164909,9.681223448030629,-5.8141511315109575,-0.6054764312124772,0.16196878571995588,-0.5873645135859569,0.9008740628180045,6.561851068359748,4.074745085982196
-141.0,6.223796820495573,-3.0621820852813046,-9.285978905776819,-1.6316353343396306,7.707072054256036,-6.162514721732552,-0.6718481069233841,3.9194627361069214,2.911874784420461,7.71291756492465,10.341228560212006,1.7300894283193378
-140.0,-10.858505270463207,-16.94989218701119,-6.09138691654802,13.927311597572107,-2.3435988061910993,-11.508053901243272,8.585141546956713,1.8609912286496397,3.2626386078470127,4.823814104093736,2.7088457615590507,-0.4240633572801924
-139.0,-13.945947701530535,-6.123149516761016,7.822798184769413,10.053982557634182,-10.914005881736662,0.7895385044632741,7.1330216685627645,-1.5177386808366198,2.586028700453573,2.025197006431476,-7.733104595969358,-1.3201646687234754
-138.0,5.335912341150582,13.297103548093077,7.961191206942319,-9.378219956421997,-1.3347140967051532,10.657920128953675,-7.891446239810311,4.715245678881437,3.941308021074256,-5.451344267028465,-9.531639975828956,-0.5329760993934851
-137.0,6.811450151678051,4.663312088132963,-2.148138063545235,-5.721172633651323,4.540964062981676,1.2995794018376392,-4.7690301516499805,1.7596388402856664,0.7174976549657642,-7.088145810388913,-8.542083591017509,-1.997446328007165
-136.0,1.3449664712918525,-4.085674368954077,-5.430640840245978,1.3875996351671,3.370694272672955,-4.781124828337276,3.8150146181249216,-3.4544130092834884,-6.457498414006384,-8.610922580379484,-4.735989548358316,-6.278961723487062
-135.0,3.8934087049051254,-5.635458468638255,-9.528867173543293,0.8912241097280353,6.690200008131855,-7.593419276866347,3.2655380368917575,-1.3224042224264703,-3.6452409332276505,-5.198144707155798,-2.5305914458797805,-5.679242318805292
-134.0,-3.3017533392151996,0.9939037172033423,4.2956570564187295,1.178594293320514,-3.827241874437193,2.640889085108748,-2.3627786689599173,-8.306691528795072,-12.43137079396076,0.5559286396383273,6.3363226622836075,2.9629245707827527
-133.0,6.7871442384975325,28.76991812211358,21.982773883616215,-17.82738617551996,-7.557672441819431,25.37424477923257,-11.018053385421954,4.694488895684515,9.562223855313832,19.807556672209707,23.03080520388535,16.313759314830413
-132.0,-10.93485000599771,1.154884366942567,12.08973437294033,4.846333746523637,-11.4828834341777,6.616575157791881,-0.6153566084999342,-2.361062282095698,5.7167672438261565,15.942764134310247,10.793555253244866,-0.3182369644110201
-131.0,4.1093722650397,-5.947097663175138,-10.056469928214929,0.9586894836081075,7.024108104378265,-8.01513559208482,1.6322235993758736,2.402988221851307,8.73290079079146,6.046192716534948,0.7693646824890363,-0.9061420635190061
-130.0,-22.27987629685724,-29.727356330369933,-7.447480033512814,26.047591766083908,-7.402813134450578,-18.531377316267402,15.7557050877303,-0.6939061417253223,-3.0031424273874627,-21.291389307857393,-24.04695167570207,-13.138149847454585
-129.0,13.45948993780806,-9.103803181454792,-22.563293119262894,-2.2089794267180736,18.022239111394114,-15.864976818854004,-0.9186274875027589,5.009432117873835,-7.109509278684753,-20.064741006923605,-19.801481669198115,-8.791044966474065
-128.0,21.976399147202635,13.796367757441704,-8.180031389760863,-17.914360764341097,15.090869210207938,2.7705182739603957,-7.328511468546812,10.428382446682047,0.957213978235611,3.3316100469968966,8.556558760965785,14.985399039041049
-127.0,-9.128235805097658,-2.369308966767381,6.758926838330417,5.802185859389336,-7.925262177208639,2.2330417234097717,4.953179131397028,-9.827884154729606,-3.422654202095644,-0.7644803746226583,2.6063221987016845,1.7250905207432479
-126.0,-2.6440510044391488,14.363460536501954,17.00751154094128,-5.882916529188615,-9.877797757462055,15.72380355985973,-1.9386620095550835,-6.565608788650273,0.8107976608835381,7.700424959779309,7.1001220913304515,7.079365702891146
-125.0,-4.2534812021980395,2.061753714407436,6.315234916605611,1.0744344076308217,-5.247806438345458,4.149526109768516,-1.470557994735283,1.8897533961165136,7.7889892177566225,11.145445830126455,3.6332065778601486,-8.265657290446338
-124.0,3.4482683438728463,3.5804802532115287,0.13221190933870197,-3.5339756433842764,1.6258648563180955,1.8967593502237579,-7.826841478970323,2.7281044879536713,2.490503783268984,4.31934615194924,5.942905365451549,0.38244353051230773
-123.0,1.4234177008922482,6.331624073464964,4.90820637257259,-3.8160177288437263,-1.7651500320062263,5.579422258811061,-2.7014154022315804,2.067634451728836,-6.9896096647094375,-0.7375527631303229,3.936105488598699,6.154000308762573
-122.0,-9.800791243072478,-14.41211743409692,-4.611326191024624,12.092414198303649,-2.5305612183612123,-9.557937127391073,6.230670695833448,-5.6810910150554355,-4.583945097676367,-4.0813801352825765,-5.014691081040267,-2.0351462197853234
-121.0,3.211656471809252,-10.73005639831965,-13.94171287012907,3.749181526228509,8.568434216929827,-12.311760899032148,5.925740067532331,1.2271754360801097,-0.8347045405050704,-12.218572132915071,-8.289090237236948,-12.366828474212546
-120.0,0.7527545172557284,-4.538346043298012,-5.291100560553812,1.8871971267943564,3.0173755610018125,-4.8994176971423435,4.373724728457914,-1.3087930471893574,-2.877589633138939,-5.483385667216345,-5.099041472094577,-6.802908009103238
-119.0,-0.9379970175191397,13.71410332531618,14.652100342835288,-6.389475648089109,-7.799323210394135,14.191977123716619,-4.34515834645756,-0.5646568793668937,5.0288187945338,7.8260318173698185,3.982383786091793,10.477759058396117
-118.0,-1.817792230120895,9.260289214913909,11.07808144503481,-3.719420739211709,-6.455749343761502,10.17623744259584,-2.8877875547688503,5.23177801564884,6.549116690068995,7.9844855700760835,0.3376023919727946,2.4946736958116196
-117.0,1.9289970176686788,-0.8929669364465527,-2.821963954115242,-0.514479281684264,2.3607205523742683,-1.84676295680838,-3.457598930429117,-2.7449309317734887,1.5168376761514768,1.817752716336666,-1.4261723230972292,0.8670202471192638
-116.0,3.7573233342544303,-10.76706920641942,-14.524392540673867,3.508053002173505,9.117064070095047,-12.626549461136712,6.351492604869603,4.638932954248743,4.247800620282583,1.2954323598117354,4.8441188476275325,4.055295582745529
-115.0,24.303715567441103,-7.972826614751314,-32.276542182192465,-8.165093838684296,28.33591118547052,-20.172651007777965,-11.17758169603271,10.30779180502267,-6.143252139686368,-11.50270433672195,-2.708482007420277,-4.220819942305462
-114.0,-20.772277284605437,10.521663575984544,31.293940860589966,5.120114480481037,-25.994647499033235,20.87256208956894,6.5224538375370535,-15.639835743325694,-12.115263620228996,-1.7058538356924213,1.1541985196654871,7.137383197822264
-113.0,-2.1207869747002714,10.466218557638456,12.58700553233879,-4.1861269179950185,-7.3981717886563505,11.582342577901835,0.47065784549222633,-7.657548582769189,6.801979409864911,5.559597724408579,5.178279176455735,3.6585781152810197
-112.0,-21.21531487692379,-13.588634184511971,7.626680692411897,17.45686279448275,-14.465257579404007,-2.9932850516801084,10.23599109847878,4.245225905575036,-0.8033572203870608,0.37328025357315453,-5.471381951294088,-11.232205510963281
-111.0,-2.6357233275169536,-0.5288589851017949,2.1068643424152693,1.5467117407289885,-2.33297207409176,0.7853801006348408,-4.231352637709134,6.567046046685905,3.5425409427395906,-0.7684802878077799,-1.8509884124267697,-5.773662165599494
-110.0,31.847664711932534,4.406389304852812,-27.441275407079655,-18.174066968542476,29.689462745481038,-11.514743863297639,-6.311518914110889,3.8400534600203184,-1.5181875070570636,-1.6849133060614598,-0.008596481006978074,-3.3749017647873583
-109.0,-2.190635298935625,1.5202102670411353,3.710845565976797,0.35763588443538996,-2.976600094821311,2.621769597085348,-3.7318071065987164,-7.468385395612362,1.2928606149643112,11.103497984126498,10.67111760446548,4.2637338880318065
-108.0,0.34799778896409617,5.896313296111776,5.548315507147678,-3.10501699372288,-2.6188073154242977,5.728752779359192,0.6443001732388196,0.4820228260852868,-0.25188779671866734,2.1655405858221632,4.861455653176243,9.170828193505885
-107.0,-6.858822591836856,5.189363404519744,12.0481859963566,0.8516291035812029,-9.467345530265433,8.62149222230974,0.916409464364566,4.798225913877088,6.24561591378298,-2.68015942574789,-5.942312723807387,8.01020706772291
-106.0,2.828038118902982,-25.073310436312426,-27.901348555215343,11.144037978252173,15.352163531432208,-26.49249469195042,4.092545102618509,0.9846416863649876,-8.491173124946824,-17.034810059584583,-21.765384167058464,-15.249964207675806
-105.0,-8.12342251452703,-5.770035129942627,2.3533873845845132,6.896893182956147,-5.1746872089855644,-1.7250669900363285,6.3216108138726455,-6.970911640786786,-4.96504029797439,-7.395770344999022,-4.028115176060335,-3.710036490576823
-104.0,-3.9238879418966093,15.020486890975045,18.944374832871762,-5.5115173771393575,-11.45514247445895,16.95180657319413,-3.874605452536123,-0.2881318203743741,7.794900380658077,10.293559753881635,16.503727165580244,15.002690869645093
-103.0,-4.785756674446716,3.827533661441964,8.613290335888772,0.44266596224154364,-6.729184138762612,6.25452363829859,-1.3015921130795929,1.9847476148323262,3.7423094206139207,7.085356059277,5.856629493273003,-3.7758235728564715
-102.0,-3.3343079905369595,5.552034734537369,8.88634272507444,-1.0652097017780295,-6.07139787155344,7.241585388129131,2.182162857362288,-5.109437412147558,-4.283542808624496,8.04659471113064,5.485589818986682,-4.641679122490742
-101.0,47.07401702235012,9.678772786613568,-37.39524423573644,-28.414609331375814,42.184562901589814,-13.84322141206647,-13.5028264134619,14.422590782148795,0.003456044380957035,-1.7759366324710637,-2.694698234981489,-10.035062639969501
-100.0,-13.06546465889057,-9.39071082174885,3.674753837141818,11.183711705445015,-8.3502261463921,-2.9236304035412477,4.877237784173158,-0.4822290893730292,-4.442415482190309,-6.582771870919814,-4.380984002604959,8.13548407355141
-99.0,-25.494921550373252,-20.60366153758326,4.8912600127900685,23.07717214462539,-15.179232343701946,-7.8395260919240535,8.885991457917015,-7.870398117897116,0.7116766771053589,-2.682132915528152,-4.67288204507703,4.960060353370748
-98.0,-4.3437746543833935,4.025242793106399,8.369017447489803,0.18332111498673243,-6.344992378897798,6.221814592768806,-0.6317876286450028,-5.652645295829458,2.4450575856810923,5.891967271707342,4.983828725796858,9.709571427623539
-97.0,10.378156765602448,7.214282510403371,-3.163874255199115,-8.771250113366065,6.783615059070994,2.060363308090702,-3.278124987871593,9.177815651555765,10.071875626941724,1.558965930531429,-3.3233744638269753,-9.804574918161157
-96.0,-3.5731475492575893,8.946655035853409,12.51980258511092,-2.6558384999585396,-8.108331243674675,10.700090592861898,-2.190921768722661,-9.453057892431202,-3.486531341584998,-5.271025134083789,1.651138872826793,-4.801714514881889
-95.0,1.7150698026743962,4.141365839632754,2.4262960369582807,-2.9665932007072464,-0.33223859177480164,3.2587505466694395,-6.620975398887819,2.996693393647947,-11.370268277045321,-8.00513390351235,-6.820316459137576,-8.309968372867825
-94.0,8.977662144226608,-13.497645636249185,-22.47530778047588,2.2320600469625873,15.757528769293694,-18.00746759710835,11.964110662240461,7.404319162389,3.0747014264702814,1.4924418038437262,2.396841585137389,4.071543496340687
-93.0,1.8713194131301902,-1.2588547097973457,-3.1301741229276274,-0.32513283757756284,2.460970594428998,-2.1370038910604077,3.459961643599055,2.634618322690178,5.10403329929277,7.20309363825556,9.901810713309196,14.209057310916034
-92.0,-10.893906918819173,-0.6675545584736913,10.226352360345425,5.768031271576481,-10.513746029674394,4.75434218675585,1.2257152053922178,-8.541578838893836,-6.562213144109821,-4.134811463137224,-8.0358866844051,-4.087886840200529
-91.0,-6.602420503931236,-3.980743856205377,2.621676647725878,5.360737779743192,-4.638073029490409,-0.7105160520047129,-7.573440824523242,-3.549321211757934,-5.074481837356912,-1.3654056843568874,-8.227837306125101,-2.9776939643977167
-90.0,24.254714349238398,15.134499651269422,-9.12021469796882,-19.70369988686419,16.666497187542365,3.048426655895408,-10.128540384575455,5.035057089256258,12.208200343473614,7.283247101485122,7.561533285895496,1.2803670635686584
-89.0,-17.892431203721063,-0.10722700249376071,17.785204201227554,8.989347438555061,-17.855890528491482,8.874352464632846,5.998449932686166,-0.44033874691968355,1.4609697482242456,5.072678286864376,10.780166707993546,0.0996241308982666
-88.0,-2.7165529964634434,-1.5700216929190025,1.1465313035446307,2.1301391690235674,-1.866838640580462,-0.2600463345545556,2.4745078252737773,6.2487452228024,-2.365030473061882,4.017309106467804,5.054071838487804,-0.6484727163737678
-87.0,6.195073384249984,-0.7956362531979313,-6.990709637447855,-2.716345654902384,6.581191222442749,-3.8667501528554906,1.7281963702547798,-4.520493650124248,3.5913379490543926,-0.27485398044467246,-0.45651460273294764,-5.667087092408707
-86.0,1.762136474722471,-1.3214923831115784,-3.0836288578341913,-0.16209217474733859,2.4127479868275064,-2.258324637112131,-2.2319581778901965,-7.335622772210852,-7.2177079636403745,-10.573461561530628,-10.404569458520482,-0.5063888995263555
-85.0,-0.4714697567527464,-0.5978309812428078,-0.12636122449035403,0.5102361203662571,-0.182224799125434,-0.342094640156803,2.9612395185444194,5.5073954667553044,4.94568283636842,-2.4288343679415316,-3.1701954696022385,14.621291940778397
-84.0,5.682312924212519,-16.118048458774357,-21.80036138298717,5.190037130469327,13.730736745937214,-18.941625619829914,5.773718071304462,8.11451436887894,-4.373554391779172,-15.504735554696524,-20.269907219832497,-11.709985167638038
-83.0,-17.72718174555987,-1.5151273037067647,16.212054441852885,9.59090171501058,-16.982595502655087,7.364375408472906,3.9269931188222635,-12.061666023409902,-4.8975294739022885,-4.656169545388401,-1.8065960616114038,-1.2140595286026223
-82.0,1.761065281366763,15.345967142086346,13.584901860719503,-8.506090859093804,-5.849754763229058,14.48051775538401,-11.161880889867628,2.493684706607178,0.6835467999366716,12.610349104747735,15.526364674458328,4.884105784185937
-81.0,29.079096684677104,14.63911180892211,-14.43998487575498,-21.81153825695836,21.73849068011036,0.035871345875675864,-15.106246637346675,6.767889877568421,-0.5692339942067062,12.83755128748842,15.461028939473508,-2.2470043732974765
-80.0,-17.3712505480228,-9.168586553336583,8.202663994686306,13.23925048147363,-12.812881328162563,-0.4671296940185936,8.299765674539728,-4.041098887296664,7.94299816188881,14.079982553425488,8.181468948138177,-6.561762913092428
-79.0,-7.651080443551905,-3.9777763978531313,3.6733040456989796,5.783326698320791,-5.69292873421328,-0.13468506547295922,8.893556157960337,0.3322181826942936,6.14315893980895,9.10901224767399,4.461884302765506,8.005976562918047
-78.0,-1.177744931142862,1.1681240366699086,2.345868967813027,0.04989295893175427,-1.7181216146382274,1.7774548364901204,-1.4042070952561474,0.8609794281420116,-1.098330107959014,-12.75444705076696,-8.372339737887495,8.925627791640672
-77.0,3.1139098063137953,3.341076612690264,0.2271668063766774,-3.266174575211207,1.4834242554606614,1.7300770000928436,4.539683729227981,-3.6353320738603094,-8.019060766932236,-20.168642227156575,-17.2692966825596,-5.11664877934719
-76.0,5.268112903094112,-2.1194971806220653,-7.387610083716055,-1.6194990516038275,6.286128618020799,-4.723376244785338,-3.04560172112897,-4.056446608265855,-4.495274054511728,-9.764534794919607,-9.121632227107625,-9.834444846102706
-75.0,-6.902023583024426,-19.000332576378387,-12.098308993353953,12.97875144408882,2.6324814768248004,-15.512905527179566,4.646259200306776,4.254350681105529,5.076353644457299,2.8118310143804646,1.9052278909231184,2.406031327038521
-74.0,14.576296904828812,4.0147046706951235,-10.561592234133869,-9.271107097864395,12.522247486292247,-3.3095224536575296,-8.142900141570689,5.149329628934507,-0.6516340320422671,4.4018573110807,6.279652480100227,5.835663935561061
-73.0,-16.53858608615423,12.513864124989665,29.052450211143572,2.037850125949452,-22.843449881901197,20.752506192825876,0.5777191515402382,-4.299908987377184,-6.460538341543822,0.44108435894343234,0.9579486437994955,-8.127239262088498
-72.0,0.49226289789781585,2.253767271948597,1.761504374050519,-1.3422618717359285,-0.602803401975736,2.0596275124993717,2.7193711476666147,-0.20824369883156213,5.601328182020927,11.101398499312522,4.857815182435975,1.5283309127533045
-71.0,6.383762483895191,1.0158228260000342,-5.3679396578952785,-3.740034204811679,5.91194688415698,-2.200872245237722,-4.953437871521974,8.724548740010741,11.800815172784953,15.655149279433532,10.881871592303744,5.63151291064448
-70.0,10.406869525419864,-1.348612918249036,-11.755482443668816,-4.5615926950187555,11.124852860188524,-6.576984876651872,-3.2114856342909075,-5.324386298771368,-8.355746420638713,-7.575976668202182,-4.022277195515042,-0.725728953760624
-69.0,-6.944174508818776,2.1096561104399743,9.05383061925898,2.3904155971750836,-8.024694598699261,5.6334274278596785,1.4309065688851585,-4.262896621906968,-5.8467374235323835,-14.253887268006677,-3.2661529328289167,6.083841209500681
-68.0,4.939573553551547,-0.9835440808702267,-5.923117634421491,-1.9237539539638542,5.4141080302333044,-3.484408174683709,3.0572470578003683,-0.15377825835761927,4.515121985189911,0.6421506975337152,0.683036287104815,3.855009568326254
-67.0,-0.40881325260478474,3.432523212954792,3.8413364655598463,-1.537147176550721,-2.137728507733029,3.6788713296190263,0.6181464921189748,-0.2851261520861156,0.08316038746388342,4.543348106621891,-2.6816146797984586,-11.444145664501164
-66.0,-12.304782671356543,-6.750071993243794,5.554710678112928,9.577900039584392,-8.943671115693999,-0.6415876152989429,10.955057455873744,2.781655757483203,-1.66721369082319,-3.169059181229728,-6.488709827264339,-14.120353149524474
-65.0,-29.87927384378649,-18.20212943600908,11.67714440777736,24.00859462877738,-20.799522183416403,-3.23531225791818,4.844494604214828,-2.869421949409718,0.3693601695440193,-1.958209405507953,-1.6142741911578837,-0.03031901861017694
-64.0,12.651767893450165,2.8786948732372784,-9.773073020213122,-7.800714705322093,11.257857064668666,-3.505563043320732,-7.573313528277659,0.1994185068078206,1.356840949267206,2.8283826435349857,4.184737805206297,14.204185359351506
-63.0,30.874938191982096,5.567548093206732,-25.30739009877562,-18.17992317854168,28.12269527568622,-9.853604688614464,-14.37395187377497,4.790520418610224,1.2574919283811585,-5.49302005317381,-3.6402970828649224,5.028624947177204
-62.0,18.310252333296333,19.23661470005606,0.9263623667596228,-18.81098284710575,8.63198846417723,10.098265152328255,-8.422383582300627,4.184067911987601,-0.17302465072959772,3.282854272942881,6.02890525525641,4.605967671474976
-61.0,-19.101806987007677,8.021863206417056,27.12367019342475,5.582476584985908,-23.102844193217237,17.59538616543219,7.57249788249778,-7.722604211525528,-1.6124386008682632,7.246184934003695,9.309108329064914,2.9979506873948996
-60.0,-11.459367157144982,-9.832867017937426,1.6265001392077156,10.690129840251664,-6.536408830155983,-4.069998197939311,9.883970559710468,-4.864354371456945,-4.235553210105384,-1.2225835311767699,-6.797759726619416,-15.05252750201806
-59.0,9.914773307048105,-0.23287975167395114,-10.147653058721836,-4.875605927479771,10.040222540648404,-5.222733723358497,-0.2742939077047204,9.96713790461217,4.5056279842616895,3.176131252115639,-1.8455859147123872,-3.7142922261532263
-58.0,-3.9741646285663057,-17.547962392950865,-13.573797764384375,10.72379990408094,4.815991747792176,-15.580760836667066,5.741979039336127,-0.15281064303153835,-2.2470975808473788,-9.683449063525227,-8.257997488831082,-4.329384059307687
-57.0,-5.140969606101799,-3.0722869886101734,2.0686826174915804,4.064023934873881,-3.5792025818808924,-0.5124529221227521,0.9957596077747886,-6.216757983614363,1.6043548052671197,0.27551767341992317,4.651638478269111,8.43468840680018
-56.0,-17.75490754275909,2.0447483164770524,19.799655859235845,7.884582750468399,-18.821573425745832,10.915663092436283,-4.189553289280402,-4.456220605812478,2.722957092061642,3.4286045807468697,8.990814472042288,9.695844567038696
-55.0,1.512050076020044,5.945564098881481,4.433514022861149,-3.7048585640457024,-1.499211503355859,5.181649588953184,-3.395381667176331,2.5395812045026327,-1.3306688386989662,-4.193374333887046,-2.2712121041028115,3.4974788578179803
-54.0,18.32181003612888,5.66635756501984,-12.655452471109237,-11.972366125746017,15.530589642061287,-3.4296816476983976,-6.40288989568461,11.594217462940453,-0.6979468519073853,0.2138669829412847,-9.214438355481487,-13.445754443364258
-53.0,6.828449775999529,6.7405020717384545,-0.08794770426118959,-6.760632416752334,3.419441897708955,3.3031709801917764,-0.5562923321676396,0.6174976796908478,1.4504964624967718,10.627797686954779,12.678662701133408,1.5405018361333473
-52.0,14.650310491252949,1.2730717771405446,-13.377238714112506,-8.010700865613511,14.049811378765837,-6.0861255027797,0.9016472923682355,-9.183648874915606,-8.66694409727095,-3.8326919983643624,-6.488141007909972,-12.154122888881677
-51.0,-4.148804717164771,6.8184276305384675,10.967232347703227,-1.297230160137961,-7.525859710825772,8.926257416978945,0.24070495412608395,3.2879823283668483,12.651668555686014,7.34934625337103,3.0754822679289853,10.721424320014727
-50.0,-29.679654878840758,-7.8543316543520385,21.825323224488812,18.73343377044811,-25.80119312701685,7.008514400911252,13.250670266223025,-12.890662366676308,-0.7918324153773986,-9.286609722265244,-2.0968471576632703,13.252587171857195
-49.0,-11.794470880416556,-29.619700593223076,-17.82522971280633,20.67928488412501,3.0458793729651514,-23.78658421270414,4.454399819172995,5.486839699917055,-11.347047069477993,-19.99675920339533,-14.727208961994032,-10.234630635527218
-48.0,11.580540779870713,6.325176947506156,-5.25536383236433,-8.977346170655665,8.372498263313343,0.5442842102932435,-8.05085106614432,1.1049856882741516,-0.9987077616145208,6.538252500670387,3.7012845525788833,1.7909199676817207
-47.0,24.26087649060694,10.658376012896214,-13.602500477710587,-17.40423939316831,18.969000121297185,-1.4638835231507383,-9.491757890822251,7.607261722024501,6.5388128372097,12.048378159319562,6.384753015332784,-5.270079578357566
-46.0,7.140071673653784,9.106995851713817,1.966924178060034,-8.068730665407744,2.627425580732618,5.548346945334782,-3.509159703587202,7.861386544151736,6.2230493181328175,10.52785716655639,7.0741550978687995,-0.9714251324381089
-45.0,-4.94670503907267,-1.3676549203111534,3.5790501187614225,3.1310804787339537,-4.299455192257771,1.1240769290159909,1.9772485524185175,2.8206633663412872,2.961668727317013,0.01743861915339462,3.127434679839742,-2.080998409513278
-44.0,-12.602940124788343,1.9711765043013623,14.574116629089634,5.2857984461613405,-13.627114904523129,8.300079322595254,8.919950402156262,-11.228521793312726,-5.689995595362937,-7.906712473799605,-2.959551140561268,10.433019345427022
-43.0,-11.347608139962759,1.91014920633782,13.257757346300663,4.682627368891442,-12.267723241664168,7.5413008023147015,2.4062781889453078,-13.020260438754278,-6.5828193439285485,-8.166086560129157,-0.1765474806098788,7.000545827947077
-42.0,-19.437504087972414,-9.702266772209123,9.735237315763538,14.604898173996123,-14.636998701780342,-0.020285990478520644,4.266901538059557,-6.759208732677381,-7.865435091010284,-2.2248454899519903,-4.292248158691792,-7.309131522195561
-41.0,3.713384199860573,-5.633382885602569,-9.346767085462872,0.9870280654764052,6.552257368716783,-7.44652022522812,-3.4572362233390925,6.391697999843294,8.147681553609914,11.948073534093393,2.8867844132962213,-7.75347731569031
-40.0,48.483879556011345,14.260783231408075,-34.22309632460319,-31.430506775501602,41.37313911012764,-10.019273379220591,-16.499181010985016,15.2736170354896,8.990015797547912,5.593329053080797,-2.4654529091830764,-10.557599545843035
-39.0,-2.6007011429930103,-7.190714326331833,-4.590013183339121,4.913287216077811,1.0165738243212985,-5.856077657029064,6.414176920818783,7.458417546828948,4.538541484523785,-1.7768410008783282,1.5072960333919285,12.022432019361016
-38.0,-7.30203188178573,6.059196689329282,13.361228571114422,0.6407630401937985,-10.303087229627435,9.736613265260097,2.3281403020642526,-3.173770517473626,-7.5329529435452915,-14.394573198882973,-8.747614748780729,5.897420591082387
-37.0,-14.611405712750743,-2.8266299552828653,11.784775757467372,8.744980145969768,-13.239504793739622,4.419425650486679,4.323636109787191,-10.6470767298257,-5.942217692039644,-9.805187299861435,-8.292334735474432,-1.9050773542165214
-36.0,3.532108050178607,-7.141901477671576,-10.674009527850341,1.762194282048858,7.069495281573114,-8.893719647430505,1.6790002665595543,2.8564670819859224,1.0846005336252493,6.170220599821695,8.221353792822285,-0.9371582772124609
-35.0,-5.109020600323916,-10.5758438305984,-5.466823230274166,7.889416855137948,0.22815635355083153,-8.008393071650294,0.5645897076218815,-1.3474568585423277,-3.006072769446254,6.155523619299964,6.048855914305056,-0.10778703938806089
-34.0,-12.635813830058291,5.993521140023568,18.629334970082475,3.2980333530155037,-15.66333192569561,12.326785859249068,-4.160837210597827,-2.5648314414796767,4.122968590213035,14.463585563842255,14.618595077564953,3.363775685142456
-33.0,6.669199637666343,16.983945137095137,10.31474549942945,-11.846014648263658,-1.8598992049441794,13.669912118911418,-1.4816329973267919,0.6530968695666778,5.923493477231515,5.163683706727736,0.8283634749651094,-5.560148642804373
-32.0,0.763012651280552,7.82447611482181,7.061463463541726,-4.315891580831975,-3.1172434152240402,7.391095842785807,0.10057725175262044,-5.6054232789594245,-4.059307969940738,-8.336572229523624,-4.811521667817825,0.24784149141437162
-31.0,10.555128844013176,1.3076843945848315,-9.247444449428215,-5.883528806627864,9.92309425893494,-3.937452635403122,-2.515099784017296,2.0975321423979283,-5.776733570591021,-11.100463345936296,-10.70287746228161,-2.2556377093020306
-30.0,26.293687856411903,-6.133209732364536,-32.42689758877665,-10.123876645945694,29.374121030680403,-19.32294300774519,-0.6094793704381577,7.546877282854658,4.737102334826736,1.2422649130822458,-5.585415866117743,5.131874179758485
-29.0,-16.556710052904872,-12.01314923104808,4.5435608218564525,14.306220069667813,-10.540107298498755,-3.6980560166608267,3.90239444749079,3.572267488167617,3.877937515281407,-1.275544201628609,-5.931982337553653,-1.9200833644100932
-28.0,-21.394629927488694,-16.715225187995834,4.679404739492525,19.064454618498413,-13.104413772573283,-6.061100252892089,9.413498219193205,0.39925240327039146,4.5053431192945395,8.688664895315094,9.582635111757217,2.782510444886633
-27.0,-5.773472489939513,-3.0201465690525744,2.7533259208867973,4.399036371661951,-4.245619131533116,-0.1000103114390862,-3.651501878110908,-2.3370359033943515,0.20853130265765896,-5.277464555946567,2.413280366779742,-5.196451323563155
-26.0,-3.0138585930165513,-1.701687543216925,1.3121710497996801,2.3582909798888343,-2.134550875482228,-0.16340044085698402,0.6667937314753447,-3.8560151961896656,-11.297734670420406,-13.420842332308448,-2.6241746366669467,-2.53353269326304
-25.0,26.658459442794612,22.133817529853065,-4.524641912941429,-24.392028806585145,15.55460106118053,8.755930616390904,-10.217648537607946,2.8320003277663286,-9.996733501987304,-1.930661046665201,5.167080549204543,9.343847902145889
-24.0,10.748843783240213,18.786443210941677,8.0375994277016,-14.756069494264015,1.411081381365542,13.44167790529127,-7.809947920459903,0.6911539478985701,8.082902708997363,15.542159857630702,1.3625476392085174,-4.157680759385881
-23.0,-12.127891375966666,8.960446256326179,21.088337632292866,1.5258781113306643,-16.62025562400733,15.054067984980822,6.9246904813092325,-13.971102662967063,1.7689223848217752,9.996111139153825,-2.5820421964275053,-0.284894904210807
-22.0,-11.724470894041598,-2.4925843993470593,9.231886494694486,7.1386607115228085,-10.484460345544527,3.3206681037666836,4.34764773440739,0.7932281540097583,6.856994317597525,10.8280072333183,3.678751615829759,0.3990320805117702
-21.0,-2.651456601047652,-14.970671224831419,-12.319214623783726,8.848843949883436,4.82624577469381,-13.693762635754414,4.31621542879434,5.58999553310107,7.477526580596297,-3.3613294944415877,4.393101163675424,1.9240112686809179
-20.0,2.1061504946766303,-26.775756653506487,-28.881907148182943,12.299156497800562,15.477552629870079,-27.79819874540604,3.661646869576272,9.124672135261108,-7.499131941647038,-20.00536824237519,-8.553816782391477,-7.197632967387513
-19.0,-1.2414756886350102,-6.611833552983171,-5.370357864347785,3.894049376701717,2.0333625488074585,-5.958667964221043,-0.884831009551099,0.6073389184809557,-5.044773030842127,-10.641673924299885,-1.08151503145137,6.259357123336972
-18.0,16.642465642238573,7.696749713920146,-8.945715928318185,-12.1219958611649,12.824845712969223,-0.5891714846584364,-9.573246443202926,2.7936066327171467,-3.2575837725655323,-1.8961283647554952,-4.344345614134696,0.9230462314731647
-17.0,-8.177734063414082,5.213860392566411,13.391594455980618,1.4517644398129974,-10.76892178955315,9.26229860963082,4.565165347025385,-2.0079882425986586,4.400774119217912,8.90390924137037,1.930444371139492,5.185388387765983
-16.0,-2.85158366793743,9.49135405770841,12.342937725645768,-3.269818159045883,-7.590870684934934,10.95689035133254,1.0296934016857593,-7.457288999053131,-2.004010823596957,2.402275264054726,-6.760222513387184,-8.370878372845365
-15.0,-13.174239586631263,11.096584085868042,24.270823672499056,1.0127838572548176,-18.717581705829637,17.64287441629778,-3.0414281932406797,-9.526310923656096,1.0302693552281077,7.712550708918337,3.914991441405205,0.6174508542207566
-14.0,12.44672691908396,9.612565057311137,-2.8341618617732234,-11.051827740295337,7.652134100311626,3.3426491820431092,-1.7761638574346705,2.5013487288438956,4.606278420345955,8.360627109502575,9.021129676938166,-2.6672401745775405
-13.0,20.451420818323403,3.623665390760239,-16.82775542756351,-12.05509870576842,18.585882404741735,-6.578546031283973,-4.11114433684806,12.017037907466232,1.2088566906331824,-3.796367131876032,5.222590085630563,-3.8765594119636377
-12.0,-2.0705913070080904,-16.485657967090507,-14.415066660082404,9.34380133295246,6.214447097798261,-15.436217495361282,-2.685452368625021,0.309019567879119,-7.309351332995266,-8.675993750207425,-1.5535613246518567,-3.6745989018476495
-11.0,-24.123177477583727,-13.930414308720287,10.192763168863841,19.016832758163627,-17.176839367205254,-1.861842511710332,5.329471901620318,-2.888410122718522,-1.7074735413621824,-3.0499962900777087,-2.8211111679694993,3.8056618738108803
-10.0,-13.297645983901354,-3.2353094285349453,10.062336555367013,8.256986869462242,-11.683828853610313,3.417764816005527,11.557385863526154,-2.806296045031525,3.296279474287293,3.742262046166202,0.4987157265789701,20.376634910396284
-9.0,24.94688630568487,3.353340813281176,-21.593545492403308,-14.162585546605793,23.276265064815988,-9.113413752928397,1.6863828093916648,4.940938360103127,4.060353292673403,-1.5919935423902036,-0.5337433224687231,7.38862699514806
-8.0,0.05166595279601971,-11.900682421703944,-11.952348374499886,5.905743587655747,6.011251817619511,-11.913257606740448,2.5754901878105114,0.262439686713167,2.5088403001576265,-2.6430820161118946,-12.388142863403974,-16.34842806053424
-7.0,-14.052849760207284,1.0794498888641195,15.132299649071186,6.459620184254124,-14.587219460883944,8.127452843938732,-5.329778291611969,-4.910440076580789,-2.955969923512945,-2.1766097811572993,-3.8684771061264827,-8.342144646400774
-6.0,4.80808737758133,29.248880612451856,24.440793234870238,-16.985063556341178,-9.821102072772945,26.794996984721973,-13.021626023766316,-5.113222319599906,-4.436291331391651,5.413251840620776,8.33903181648017,-3.816873915969201
-5.0,9.114496685919326,8.271391796747862,-0.8431048891716326,-8.655605741680198,4.959858029898653,3.6686860607331333,-2.00925157245915,5.939906261386117,-0.6434723037730725,4.898013842799701,6.186217292374243,-4.636001987323468
-4.0,7.925698632997287,2.9645023828007098,-4.961196250196583,-5.489134816269415,6.409349861675475,-0.9640366968343907,-1.7407275709294687,3.8255955109958935,2.543658959041717,1.1286559552708786,3.922105252122006,5.78330427536395
-3.0,-5.601507155087893,-9.055829223107098,-3.454322068019254,7.364252232129105,-1.0415496799928485,-6.22194732679022,1.0220874535266726,-2.5706024557467857,-0.8483081139860009,-4.209815138594386,-3.392388604878025,8.204324675265948
-2.0,-10.90833961710706,-23.93783037744024,-13.029490760333376,17.38315488522558,1.0855024179973989,-18.53057766737188,13.503251102554714,-1.7065462953300874,-2.0230765436607046,-8.008743629469668,-3.309933960191341,4.052098930994624
-1.0,-3.407397138627706,-7.345464612714778,-3.938067474087159,5.419107531029821,0.2901045812425048,-5.609312291820608,7.0427873047188685,-5.927755262957347,1.3320317321802457,4.28251791012723,2.7258284564921578,1.0832192384548303
0.0,9.995895055550315,5.422732337946094,-4.5731627176039975,-7.742584545583263,7.236852376057899,0.4608980740032411,-5.383205613378447,10.991235089943913,2.5303383187701476,6.171722384300962,-1.8388783396836117,-9.570002377154065
1.0,-1.752113896435577,16.29148525702772,18.0435991534637,-7.302230425705952,-9.856263733782685,17.131396433144936,-1.1743035858772837,-4.168901755836072,-0.9933900177823833,2.8671023298275617,5.146342030063529,4.023837980786987
2.0,-9.305082971797852,2.2069979436069644,11.51208091540527,3.5937794332905453,-10.434196011102518,6.831286457167085,-6.204470217343012,4.92589516997017,8.521047155422355,6.412550575214853,7.007102689036692,9.305894851482332
3.0,9.565827960250836,-0.2593517760752002,-9.8251797363257,-4.690298903371219,9.679365401852678,-4.98459299793905,-7.470969945500379,-2.562640329046728,-2.403716327986753,-11.815771367163531,-13.883621317691663,-7.016513887687684
4.0,9.845060307783804,0.9182230743608453,-8.926837233422994,-5.343711415872733,9.375108171840479,-4.0209976451098,1.095372097083068,-4.168947997248399,-6.9284621739620365,-14.77450719806226,-15.84836050159333,-13.38078237285336
5.0,-9.44790529998858,-25.44387153454188,-15.995966234553697,17.479971199501097,3.2635942242013134,-20.736313139579256,12.203577008087173,6.348066791255314,-1.7697379465767895,-5.122943025716441,-0.2815439955283132,-2.744144783198287
6.0,-5.569666844448825,11.007424660549695,16.57709150499786,-2.7673190676204955,-11.009009707334016,13.772055637425995,1.9675588445791536,-7.955471804537972,-5.466162662938114,6.774213089001109,5.840696522676007,2.7030175902077382
7.0,7.99308413934722,13.813255049783246,5.820170910435318,-10.876665222473916,1.0650960004725554,9.789962710067915,-8.298520951553133,-4.9511217541777555,1.1584007778351062,16.018806606271497,15.444004733100257,8.819767996796504
8.0,-13.226183437851212,8.353465690422254,21.579649128273086,2.380329438312507,-17.43274039721069,15.011542227976623,6.615626798108444,3.707158024168142,10.258797354592726,19.484651865102393,23.58775364699173,10.48929031470292
9.0,6.203526607504045,4.173322412538887,-2.0302041949652674,-5.168911580319385,4.1572882186343705,1.1113437933448669,-5.579101853306067,3.588252534779137,1.0584204951129035,-6.34714897698902,-4.248206832917191,6.5952146454923755
10.0,14.432066300406765,-12.49643705088948,-26.928503351295962,-0.9498939461480326,20.63458673628483,-19.753429858355645,-5.934172498223266,10.354219647290432,-0.6607321704059297,-19.080483853538475,-25.383577100886114,-13.68809232915886
11.0,-3.4620679196940776,-17.078635173086397,-13.616567253392013,10.289443272007876,5.104883172453804,-15.308551843218712,4.089764002876741,5.06741140042454,3.972946325322304,-2.8382116385943963,-6.0182923856452835,-4.297513477230433
12.0,-20.129455489399163,-11.711676164636241,8.417779324763154,15.86557898366273,-14.24903291324213,-1.6832731926045046,11.103387889702983,-15.843861739276221,-6.720451174203019,-4.093106720419621,-1.2768806398689438,0.9766153411115726
13.0,-2.137064125549867,8.893182572151991,11.030246697702035,-3.346212797690894,-6.6384973114729675,9.929142984888301,-0.18330805193098243,-12.076935871625299,-14.060920258968173,-5.955780799190206,-2.4295598232239772,-4.178480387674491
14.0,49.7604052103804,27.569814210685067,-22.19059099969528,-38.62283963434658,36.00074501454977,2.7382235290414103,-24.32140998987846,12.023900511685675,3.261640987833869,8.537283207684112,7.266842278530063,-3.12924409266851
15.0,-44.550470707026946,-8.866380346269128,35.684090360757764,26.68283506816674,-40.08929953640299,13.378617317539245,14.147703594951595,-4.319363134178886,11.98204700671759,21.733595022674752,15.164123582179997,7.285851964875414
16.0,-3.1472278446521393,1.9492351692845813,5.09646301393664,0.582609382035558,-4.1692541536010115,3.568186664495731,7.235151788244157,9.62631304898757,10.953513420930998,3.985662998196762,3.783715020271762,2.5319867819519
17.0,5.893172942240977,8.123994853637157,2.230821911396035,-7.019169769386731,1.8657036864638918,5.1379286455656255,-1.5426276944314012,2.5392118587600674,-1.471778290046526,-14.743342336205274,-11.608343021962671,3.504628236318776
18.0,25.666740380028592,-9.27777336432893,-34.94451374435765,-8.203384558915376,30.263698638553546,-22.079908403670572,-1.446551623937475,0.056628986005972326,-6.342677729205669,-16.10753200746787,-12.05758853773172,-6.381782666510811
19.0,-18.495027606697615,-24.210993925581654,-5.715966318884195,21.34208820847097,-6.35187199625722,-15.019380414727127,-2.151580945998094,-5.560748244772751,-14.066880129802213,-10.100540723734238,-4.711448155961266,0.2670033907524061
20.0,-8.52458435097379,1.8480296604818598,10.37261401145547,3.401541119004274,-9.411898267963654,6.1265004417394735,-3.3580659297835895,-4.3836246572128825,-4.62459953586531,12.600186422887605,14.880304192490732,8.799307006843943
21.0,-0.19862379432782795,6.652493125525757,6.851116919853412,-3.2482244316290623,-3.569664463368587,6.765016764588936,6.944701547106826,-2.501171393269023,3.9619415814503975,12.587054220511947,0.18682656150887933,-14.779257142048758
22.0,0.8851453112769532,7.747552830041326,6.862407518764431,-4.343751588262794,-3.0374433668923357,7.320152402453649,2.3592358247188168,5.943319465728408,11.166847465175262,11.557517093228515,5.787695874431921,-3.282479178940102
23.0,7.525221531008855,16.368200843948873,8.842979312940344,-11.901408415455844,-0.6331939571535259,12.62753939159072,-8.467984478267807,-0.17968080568711509,8.713251310366662,1.03336686622412,9.181596091172876,12.916757063649865
24.0,25.026273591941848,10.534393103361994,-14.491880488579538,-17.819792881651598,19.781519604256715,-2.025530032494035,-6.923245759506716,7.453971024373013,-4.142385421121393,-20.69368169565263,-18.162711465467943,-1.9426115434513318
25.0,-8.03899590761865,1.1005539795522892,9.139549887171135,3.5024014473379115,-8.56819048074202,5.162624520770331,-2.2267304017996974,-10.358118004340502,-6.3820931737628595,1.59433799672677,3.744503158808895,20.87730881092796
26.0,-18.320031801632172,-15.915408556465534,2.4046232451668264,17.066044333373462,-10.340697366378533,-6.783277015990878,9.388143872554714,-0.2552097088384371,4.411225658604283,5.228365845229362,0.31822545110964295,-7.214328154947816
27.0,-20.22514996785216,-37.86073291914121,-17.635582951289013,29.064425414127513,-1.3502779873367978,-27.772350473569844,14.412328585111089,1.551799780173442,-3.3024302403638734,-1.6044419253418218,-7.378675888513869,-27.323590985115988
28.0,9.127517588077884,1.4696507323683878,-7.657866855709569,-5.281308433249642,8.417439828606454,-3.041418548473226,-5.260567982257844,5.303907102590619,-8.169469096882377,-7.9130353918418646,-3.0995731575804255,-4.121417021745675
29.0,6.346389247948904,9.926790675691791,3.580401427742665,-8.121184454630864,1.3293911451451206,6.720790263491493,-3.3500949441801353,-1.3294349878233653,-0.8753849915371958,-4.578854777413361,-4.656860131075865,-2.0465856627364767
30.0,2.2620996784287453,16.16849541878767,13.906395740358796,-9.27746654449371,-5.7980217124009314,14.995178903640758,-0.6011609822900419,-2.5257935730355983,6.370771078283163,5.545736134498849,6.462659064068857,15.454175022747057
31.0,2.6917730389451506,7.404996454216688,4.713223415271381,-5.027431823151693,-0.9888001507624455,6.0864185852510975,0.9938535330038936,3.7118542336524234,9.299859877760468,8.425866573871165,13.341335297899592,13.296915580212783
32.0,27.77549876408415,6.612343415665719,-21.163155348418595,-17.16604209182607,24.488321376961046,-7.25414685078057,-13.213495368317222,0.6380465815165175,-0.5484228110066214,3.1148993811913073,6.523816020959125,1.9600235480712929
33.0,-21.91050433565068,-6.981729026569709,14.928775309080802,14.481965628658116,-18.403950744660538,3.9934822587452836,5.645342100630799,-7.570920146315297,-9.761222880254017,-0.24293182146114844,-0.607944818942967,-1.2363599167500643
34.0,-5.088172641603048,1.9547967866140121,7.042969428216965,1.5306811726926899,-6.132059856629461,4.522069454513225,1.3058605935341805,-1.3955193839060356,0.433341011474099,5.931236275818082,4.930746185243,0.29407310685463406
35.0,0.1717792861292784,0.7923988106216164,0.6206195244923349,-0.5143424782369257,-0.21533044076344332,0.6567735895789308,-0.07828443092566273,4.581284844324372,1.9507180035422058,2.2851414237746743,-9.676010339007536,-11.133424670191616
36.0,-7.735644778932615,-8.497641240691308,-0.7619964617586106,8.162592629787675,-3.4799775470456225,-4.595109317304926,-0.20557495821902094,0.33520765854449186,-2.13021412997078,-13.117049472204432,-15.741847635836331,-13.355596347674059
37.0,5.888012269344068,1.1249625833418158,-4.763049686002042,-3.543761516854583,5.331888826106706,-1.8598213328463515,0.1355406856036574,3.40946357712969,5.436448661713026,-6.437732485659178,-8.807879352543607,9.10665880828118
38.0,-10.452987456956407,-7.4856910035139705,2.967296453442642,8.925620080253163,-6.701939639104711,-2.2999973684569515,4.6902338029768975,-7.8542429298271985,-3.0107912870394635,-11.380506294225913,-6.867575329340049,0.23632182065932072
39.0,11.039296094633029,-10.444280486775483,-21.483576581408318,-0.26801166894869366,16.273757100967263,-15.928368865953383,4.871902297215808,7.324776895343367,1.8544864258545264,-5.646335801767299,1.3338275703815907,-5.9753866534916735
40.0,8.11629321518241,8.067030888050176,-0.04926232713226053,-8.064179992969821,4.100686347770726,4.0418720326566255,0.8940162858938878,-2.2273600844703045,-2.7886670751568596,17.674058411770893,20.444110974966975,8.662040735801087
41.0,-8.014362917151375,0.9633179854068805,8.977680902557953,3.55559134429721,-8.551086026214705,4.924375665329486,-0.8389134868437085,0.40546688995373625,-1.6358084945801337,16.287022472790774,24.568986223197818,9.55814906473759
42.0,7.642030530807363,14.89467920342655,7.2526486726189106,-11.232205521735596,0.22309213992219856,11.109614451548975,-12.265101720403182,-0.9601842695122258,1.751849714616991,8.966808549799904,7.642054847140869,2.1732390122443324
43.0,3.076366926917456,2.3169858548672524,-0.7593810720503154,-2.7325834597269463,1.8703993603857345,0.8216221917140096,-5.2110615556585635,5.809197849178917,2.1340910618143334,0.5875625662419726,-7.168482814308238,-1.621851582569983
44.0,-1.1189466925073863,0.7980685280069761,1.9170152205144557,0.12858532199137418,-1.4858384810725498,1.3302744368777826,1.3743595527132593,-4.4854911192139895,4.9067940777562615,-8.329746449811143,-15.400591743729766,0.781190232564346
45.0,2.1709511277142313,-0.1265072455304761,-2.297458373244509,-1.0545859231861692,2.2654841788054565,-1.2314389983705825,1.0697270674669908,1.4158336219495484,-0.7686738341243924,-15.29873519648675,-17.56918791085175,-6.124608356419996
46.0,-37.98920091410525,-24.257650496449035,13.7315504176564,31.086471230373803,-25.83121668562825,-5.277968272544675,20.418622953976932,-7.320250413271101,-5.179549384337511,-11.422349886707929,-10.313769531034213,-12.849182892820272
47.0,11.067619319305338,-3.5734089859380607,-14.64102830524336,-3.711278505912297,12.801968514158812,-9.122091999937872,2.9872956891369427,-1.9563918541528735,-9.657162207692975,-10.873081210675732,-4.9448760812669015,-2.8263797952003316
48.0,3.9533576221836455,7.865946226545106,3.9125886043613374,-5.877659825775035,-0.03447552450666258,5.8702919006599625,-6.213429346073357,1.2624782492579407,-3.469972352380864,6.126690253602884,7.70094633304314,1.8697008772646637
49.0,10.962602950348888,14.852034895569656,3.8894319452206023,-12.874602385761538,3.5594678997997864,9.423790098457829,-12.693392118319705,2.4152016960625393,8.572785507829602,17.651560036850825,15.546558559252283,4.505262011306488
50.0,20.02623234309576,10.721595667252146,-9.304636675843822,-15.335947087343143,14.689999596998085,0.7540893383760641,-12.095032600895493,6.223307704588815,14.958647318729138,23.29644031407137,20.225206839312037,5.762488873494544
51.0,-1.7497775292315225,8.517333339702251,10.26711086893359,-3.4173721320265678,-5.979086717693424,9.352392418804635,1.1902301750636273,-1.2249337546029144,2.8965856515662134,10.152635388968315,18.784225341079946,21.818652603688975
52.0,17.486265168570906,-17.78611649985608,-35.272381668427116,0.12155202550086158,26.415648657737602,-26.574221027730445,-0.731303367580163,8.685893650487692,-10.85294533804754,-23.96219457100718,-27.684925044179757,-16.86744753424953
53.0,-38.526337903783464,-18.2926878041437,20.233650099639753,28.381084619266222,-29.41546837570172,1.0009077140536462,24.98459502284749,-2.4044222591727276,0.06573919140093043,-11.291232015716131,-15.794858643506148,-5.420153252860051
54.0,-17.11419868650965,-6.511676877369651,10.60252180914011,11.778092899599296,-13.88948031669487,2.074284438403264,8.104744038470573,-7.7030100662602425,-6.179768572313296,-9.533248028172261,-2.8012324112134586,3.9995497801366016
55.0,-5.662942242676094,-2.874152021268604,2.788790221407682,4.301349940820765,-4.2569810607238825,-0.09239666156346837,-5.079380466833234,-12.553948051088474,-7.495717706591829,-5.410649271277235,-6.489037297608653,-7.499871869309494
56.0,11.659252856413868,7.484408295731445,-4.1748445606823195,-9.551092261815866,7.960285139094404,1.6856779058891176,-1.1324985513655355,3.1496170495610647,1.9091293863575425,6.15564720260093,-1.9181524939568977,-4.4444331055326565
57.0,18.237402343286806,15.892694198708709,-2.3447081445780897,-17.053098226667867,10.248449882616411,6.729569746612553,-17.322774536741427,8.93919817158572,10.616171453467427,11.262828596836979,10.802593090494156,5.201105347115297
58.0,18.203197419756915,16.167911757214025,-2.0352856625429725,-17.175953196454884,10.148339737599182,7.105277203942645,-9.317709884029195,2.8395582204644825,4.08849846273163,9.373289887151348,12.8499425754646,3.9220152166106708
59.0,-11.348914359373678,6.2717954402790985,17.620709799652666,2.553341797426075,-14.460109096472774,11.990300663906824,0.8353210662172073,1.2103376801934997,5.88965239868414,13.213466360608022,19.605502907421343,16.76594052174691
60.0,-17.61624901839913,-19.68845050897735,-2.0722014905783968,18.599971472814413,-7.7476414167628525,-10.910612192296089,14.300458276311806,-4.435772005080608,-6.936749576099203,-4.793885474192239,-2.0773765199217955,-9.576586844196825
61.0,28.724869027261008,-14.520460255478564,-43.24532928273971,-7.060570644913087,35.93422484463838,-28.910547360680617,-3.5211064831228516,6.364330046523049,-9.554636107542898,-20.454664856842076,-21.882400242749934,-18.889102650202776
62.0,-21.1491428271437,0.6137449377329567,21.762887764876492,10.246145159461708,-21.422573546304395,11.160916036386023,5.625045905455732,-6.87702508507181,0.2963329942001849,-5.202848162488479,-10.565082708718164,1.183146371443585
63.0,-20.415234273888494,10.102210753579001,30.517445027467343,5.147799683602433,-25.506495996362325,20.359290628815067,7.335692703693128,-9.924369986114542,-3.727193895562688,1.5282082242292523,0.9974537807341548,12.597917794916459
64.0,14.789390288472864,2.192930576203542,-12.596459712269432,-8.491698366255214,13.733942081587308,-5.234099449592984,-6.275106980306038,8.72543953265126,5.758558335032148,-2.2704934855796504,-4.384930716355778,-2.2879704505094844
65.0,13.972772585621417,-4.512076437322683,-18.48484902294412,-4.7279455270841595,16.189418078270727,-11.455010122948194,-3.598279026536819,7.429087404313916,6.3775043316567315,5.084156764005945,-1.6854615684809326,-1.368852796206609
66.0,-5.946439964145021,-12.30569440221818,-6.359254438073072,9.126851433038375,0.24008966804537035,-9.369685852424976,3.42293802648189,-0.5920482194522156,3.6180894246232813,5.1820918042470066,9.110378527247182,5.998904198115281
67.0,-6.717392105468427,8.131484904473844,14.848877009942473,-0.7110118449689152,-10.83636254324237,11.531175790236718,-3.9639943686447796,-3.3057595887663718,-2.0051009331443486,4.809241447473981,13.982269053489526,6.322744817546671
68.0,4.5524190061992895,-0.31984040677450043,-4.8722594129735475,-2.1266047644771486,4.729779233208074,-2.63334113252158,-0.11188906173548885,-1.2680705444639768,-2.5961287761938525,4.180600448111625,4.427793552597731,-8.079640221102292
69.0,-2.716865894123793,-3.0556502557905776,-0.3387843616665678,2.9477966942569536,-1.1768355349627513,-1.655081286841114,-0.8936489575831501,-1.6503265185355303,-11.215885840831891,-12.224808585068999,-13.385605326628788,-15.852970036813923
70.0,4.577792294109474,17.883709087913118,13.305916793803755,-11.255114191869387,-4.35227161434973,15.558286371914594,0.8020792693092267,-1.739047270377175,3.0108928052223733,0.30663204591911164,-2.456552254909182,-0.28574826294917166
71.0,12.477779205929806,12.766512544318973,0.2887333383891857,-12.654256587987314,6.111109549453992,6.490181039844569,-6.262716718918899,3.3846789056859263,6.282470195220331,5.8269390426134775,4.047186614836642,9.944171252681125
72.0,-14.763605146142444,-7.2107952456372,7.552809900505141,11.025018195731388,-11.133005249597321,0.2105509302723011,4.033512821656042,-1.2635803890912918,4.9660673758801135,7.885802326546244,10.662790904605533,18.038060664862197
73.0,-5.856879759851204,-10.048703868842814,-4.191824108991792,7.901913538469106,-0.8762786037228343,-7.082736794652407,3.8499745206301794,0.16629768690800395,-0.17882864219690564,-7.956974686720113,-4.725937424238731,-1.4395031384415793
74.0,-1.8925604991989267,-17.994310422233298,-16.10174992303455,9.960951987491413,7.068992260900265,-17.090769567409442,4.648190516190294,0.9495602782090549,-11.731006656221533,-16.53376417389262,-14.461078975907768,-17.216104641968204
75.0,0.41139139160003024,-4.594898234310794,-5.006289625910952,2.09993046003709,2.7565610919241488,-4.7649192364814645,-4.5972902530796915,-10.753006940592007,-10.170358709538075,-5.381642844904386,-9.556416225527062,-2.722075530739403
76.0,26.266468144727707,10.32328449386749,-15.943183650860263,-18.293309590537724,21.074415656369695,-2.85163771264326,-3.4439881732269852,19.458952873693207,17.05021590612221,19.99401061400536,13.505717279118407,6.669318826718938
77.0,-20.31784412387138,8.817802933187282,29.135647057058723,5.749119333931461,-24.759364529162813,18.93851451622853,9.53369653306924,-7.408325032997875,13.51395618062505,20.298146487653867,13.549522673621174,5.489233710418209
78.0,-10.731204539775838,0.589899361401331,11.321103901177265,5.072015146470811,-10.983090493604578,6.001613256892119,-2.139303850495053,-0.34912950614494775,-1.2644044069597387,-11.957225184303805,-10.466619857679575,-7.6013586986292925
79.0,26.953287964540586,-1.1302930465021808,-28.083581011042682,-12.903655320902125,27.55941125457488,-14.55384908492285,-11.81784116833521,12.976421803549934,-7.420395502496051,-22.006476862865494,-17.69876844067951,-14.27960950167827
80.0,-10.980114927010932,0.3359339872026159,11.316048914213614,5.339047587673994,-11.18609524102742,5.807137701499992,2.7466081733249643,-13.749170715888198,-17.326740557109197,-4.328946471683448,7.220430492209706,11.010142890755752
81.0,-9.256101065428965,-9.421075599753058,-0.1649745343240414,9.286257432803088,-4.503633072973984,-4.8074011299735,8.988075226882033,-6.721153986814415,4.8961283453867335,16.72736310407544,25.184279699753738,22.447343017223137
82.0,1.8739432758799177,9.765267584967898,7.891324309088018,-5.7857975235533585,-3.0442195103464957,8.814113382725415,-2.3063368705378924,-0.7849775121357969,3.803353130904681,9.387977797722865,5.153389471151682,-6.073572679912555
83.0,2.592003557047051,7.124838501469237,4.532834944422227,-4.8211996078950285,-1.0060259982175137,5.809739737314375,-4.4235443528836464,0.2805095095340558,-1.9892811926520082,0.03588662850712243,-7.479678275853484,-10.147230590683634
84.0,-0.9467191871560985,-2.9086536414471755,-1.9619344542910153,1.884797811848533,0.5484776577624375,-2.4636023372767255,-1.2670472983708803,3.0547427433790038,2.66749313454024,-4.568255927300358,-11.35319442124518,-5.95259609960254
85.0,6.419655103512571,7.428558771490593,1.0089036679781254,-6.972446792430707,2.663274841033433,4.257881197230728,-1.3381453154620206,2.656475899646839,7.628231120457558,-3.5550189141648043,-7.536249753460645,3.942295242893132
86.0,0.2403008634681103,-15.030090606381203,-15.270391469849185,7.417886422395831,7.7869920328236715,-15.121704139814616,0.6724293673474878,8.79337379222646,-5.066986975354209,-14.453154201906976,-15.566007683295815,-3.690750354104406
87.0,-7.997818794618757,-12.317253231891875,-4.319434437273016,10.174092842501407,-1.8117394771970883,-8.297478334160491,9.041858058784316,-3.9609092701031665,4.041978921214535,0.838031997088537,4.934379753055109,-1.8370958806743647
88.0,-5.969411240748383,3.891923945833722,9.861335186582146,1.0525634967498227,-7.9686559079907955,6.815085536940442,4.821382235121119,-0.5981923851925239,5.299605883713618,15.539028159439782,19.89239712552199,11.168879613343012
89.0,32.16651830611781,16.57122412318008,-15.595294182937767,-24.352675456220528,23.907316445212068,0.5052902545962854,-12.293808108337174,8.841591329400657,-1.6595553938633687,10.433371226045555,14.23940109531097,1.7920990436608246
90.0,-11.620230386072292,-5.589164096952636,6.03106628911958,8.627955965137865,-8.79554414786443,0.24100676803309717,-2.59558237206347,-10.377173976430182,-13.519470122660094,-5.040532877257436,-3.2431637536610722,-8.545304651240311
91.0,-35.59904389457466,-17.435069395742254,18.163974498832367,26.47127358369531,-26.92471210131173,0.38834624276121943,11.7615877353807,-14.318074400988483,-5.464637062250602,-16.640514284579066,-14.154825775213595,-6.8190429336888325
92.0,8.986954086019523,15.235090818440984,6.248136732421532,-12.147274931057675,1.4106663782841249,10.690493138619447,-5.645202266811281,2.358211290688404,3.2944646030466718,-1.0511227785464943,-5.659450211158634,12.237089130789737
93.0,14.024412644138488,11.00904062618223,-3.0153720179561025,-12.467476759190866,8.486940374535683,3.948894940838807,-2.6796599307736924,4.809375027545393,4.394327764753861,-1.9626432158487188,-7.583033131568738,-1.8589117047166912
94.0,16.837262883207806,5.117241328934664,-11.720021554273009,-11.004409290883913,14.248169598592817,-3.2675917603670643,-5.693018931567371,10.081974207181188,6.027823643684364,13.152601599785825,11.080744103645138,2.4247281832833663
95.0,4.346031185686334,1.1209298544869901,-3.225101331199302,-2.6842838286784083,3.83418522083699,-1.01478370004642,-0.6484700063855944,4.128266503851823,8.394451934903323,14.930047481901477,17.8021294799172,4.482157853027236
96.0,-10.871141606239757,-18.076778931868162,-7.205637325628455,14.438244479860103,-1.8640231830791478,-12.599548585810554,9.73413908905483,-1.0528224771715515,-1.4939848398724669,-3.0342491404679395,-3.1442366610738564,-8.744171166167472
97.0,-26.73958934856146,-23.706268389879384,3.0333209586819594,25.17932922755027,-14.840563432512743,-10.368835160367958,6.132966783440447,-5.989720206122912,-14.011589363443923,-21.672465792253696,-19.263319126434446,-8.069275626410871
98.0,1.3429421219591706,9.136131285400491,7.793189163441172,-5.211350773802959,-3.259038824940192,8.43627075028045,-0.3711439147936537,-6.390959741810826,1.065990700793642,-3.7315723247169412,-4.994044082594086,1.872006574757294
99.0,9.079229714131536,15.513618202755325,6.434388488623666,-12.27178422205422,1.2885408137727152,10.947710170542914,-3.2013892556137598,3.4528460490050357,0.25267154506134615,6.909374455675091,5.6026035419751015,8.841443530568593
100.0,24.55455215038062,10.99242796171125,-13.562124188669394,-17.747439614851615,19.104253577284126,-1.232622948706453,-10.02346318019034,1.9828341179390798,0.46127932435147306,0.7188128237965161,4.769272718010319,1.8078404148629215
101.0,-5.910150236161694,4.8134918773971895,10.723642113558913,0.5020335924569501,-8.269718370168398,7.7399461340281785,0.13727790823118102,-4.825438716064411,2.7075323264152655,3.9347785227063117,6.623842589827259,2.124090923293497
102.0,-27.347855432970007,-8.990868213641017,18.35698721932904,18.211753443031665,-22.8838049552906,4.651612649409804,8.631955169492063,-5.337358033472488,-3.1662929967176305,4.014994004046361,6.542878645629456,-1.7632055225218455
103.0,17.89297607912333,3.8512472927774946,-14.041728786345814,-10.897418580525377,15.933838897075924,-5.05026119220709,-10.133949782933051,8.858476927209319,1.8143959314166356,4.642078350360833,-1.3232108876929294,-4.38448825401262
104.0,22.92278989298971,-6.777229179724368,-29.70001907271409,-8.088493258392301,26.272912636166545,-18.1947563600702,-5.934283303292115,10.131318505476674,6.740936902720543,-2.889002449822268,-9.488363951666804,-5.279532001218393
105.0,-18.49727204632713,-10.197104385467863,8.300167660859254,14.33762198836732,-13.365736901250703,-0.9834211527233583,14.665259695833292,1.004794303942873,5.949919107990353,-1.1895319564866234,-5.47615670136881,2.5897972489044316
106.0,-21.443563883011716,-5.923357320607334,15.520206562404397,13.67558531635599,-18.457047251309053,4.763505004256795,9.610968807503891,-6.878050900128282,-5.400928619460268,-9.046101047328792,-3.887333972243575,3.9509690185101958
107.0,-9.071001195202513,-5.74449004345058,3.326511151751925,7.475827952209015,-6.181249271942918,-1.1662129971860367,6.941803931302678,-7.324880641037952,-11.408125733595405,-12.755787795609539,-7.532345366410406,-8.608988915108462
108.0,16.901933123995654,10.569148382879034,-6.332784741116671,-13.752759874778032,11.629705846184375,2.0792315890145407,-14.597417522162875,2.419257640940941,-5.606307772649959,1.9764149687868704,8.148215986724914,0.45708954154294246
109.0,22.578856892507407,21.199318873039616,-1.3795380194678701,-21.915344648646528,11.910623428399406,9.944713857266011,-15.256375916051827,-7.762415456828758,1.9976649814651792,18.362168087992345,18.34864342813236,9.123325529433732
110.0,-1.085517096018668,9.709117496007817,10.794634592026402,-4.347856161990329,-5.928683120085529,10.201716795186396,0.8973874251333971,1.0230138710975758,6.807845169739652,15.016716984016401,12.071714175436817,13.417861079997207
111.0,-13.041436429466664,-16.329042770378322,-3.2876063409117053,14.719396814270514,-4.860781958566105,-9.785936573129757,10.12152156972585,6.221556468414616,3.8135364807517504,-13.109578715925728,-20.03237786329173,-16.790316156583714
112.0,-0.6875895328467028,-2.5007785240968134,-1.8131889912500956,1.623005508312632,0.5870422230693788,-2.1394526316813978,-3.6574620201764865,6.398957566035083,9.66636727368986,-2.807417753830438,-3.9375346565299,4.066017014372215
113.0,11.446528569080648,-3.362572132422639,-14.809100701503235,-4.092750819090315,13.084174089847348,-9.071006475409174,0.05018427982391138,12.695487850917413,2.734503381523684,-3.042846596748075,-2.2325973024373766,0.015279788143872874
114.0,-16.050604919565775,-20.114346588493827,-4.063741668927999,18.11425335764373,-5.945870127596721,-12.07474389038557,12.661798928383995,-8.813428659025245,-10.272276837090422,-5.786767927225053,-4.782529258263654,-8.139390372925059
115.0,-16.58535678598132,2.8711210999396464,19.456477885921032,6.896183086480996,-18.03969995619521,11.100331682860908,1.893330237177726,-12.474644033364587,-10.506145424317296,-0.08561142753865925,-1.809079439093268,-0.052262535640395846
116.0,11.258635403205275,13.765329038591645,2.5066936353864184,-12.543093353581899,4.367772056589893,8.152878337093995,0.015175936142897362,-8.995883091909977,-6.510522916007839,3.481722599221831,8.507702958936783,2.5545979826790637
117.0,15.800488186571707,15.611576227255824,-0.18891195931591298,-15.729872063588225,7.993768602435652,7.7296853509004375,-13.413712933837129,2.465614106995612,2.2781799751803713,7.591071235618991,15.649601833739805,3.771869159944675
118.0,-3.7694764957760967,-2.4917979760940483,1.2776785196819995,3.110607868593002,-2.521384022117017,-0.5875480597813576,-4.019815311703387,8.112393032215774,8.371641226116221,-2.28406620699137,-6.275541254659608,-2.0018383510686286
119.0,24.176451824914253,11.952456969091116,-12.223994855823152,-18.00647556974846,18.20145360119858,-0.19389366396419183,-9.279107198786154,13.764747122228865,14.509262884783576,5.917091736988267,3.534779304530689,12.578183178055635
120.0,-11.010858335664151,-14.07370037235113,-3.062842036687022,12.516424241923609,-3.9769187508832298,-8.545913538962322,2.928504338319262,-5.008115650564844,3.9537334827964186,-5.913786890825465,-11.33018580498462,-6.657805942801248
121.0,-25.447436983291873,-13.869209489293755,11.57822749399806,19.624393912074286,-18.521541601077043,-1.1200177656950991,17.694089861971232,-4.096273666130529,-10.239581837996155,-1.7641691576135503,-1.678409253633376,-1.5427482878798764
122.0,-13.555744415451267,-13.555644350243206,0.0001000652079654607,13.591518375884469,-6.792376632193386,-6.8260780853748795,9.174060955380654,-2.77106548065955,-7.85184191943504,-5.544319385846491,-7.901157510743337,-12.64965116353097
123.0,3.760192355171177,1.5021842227899125,-2.2580081323813466,-2.603059401975356,3.069118905467037,-0.3408368598477278,2.2378469266219154,-4.7695238219434515,-11.138196461447404,-1.22959498540947,0.9404316234646798,-3.8278243135273806
124.0,29.108306582024845,14.695014495921141,-14.413292086103732,-21.956847620912512,21.73997834391935,0.18521062324868587,-13.576398421845509,3.115774034453788,2.2727457171542973,-2.8430065797671737,1.6345332971626059,7.178671272233126
125.0,1.2751593970253783,2.947139126626313,1.6719797296010048,-2.0879959516588986,-0.21924810491354663,2.281474621634286,0.3197063555083819,5.8972345353827,8.413738026344383,1.3630555073029353,-0.2646349213318233,5.965966838555975
126.0,-8.300270962722085,4.555144862579816,12.85541582530205,1.8995061889189842,-10.59741260601536,8.681005588678865,-8.053657139102295,-3.563801017068067,12.609247298218758,9.973333171468731,4.963722619062892,5.728480110165227
127.0,1.4574975445176657,7.080498279551066,5.623000735033539,-4.3137243463593755,-2.022132723187458,6.328065857995641,-5.515652799011374,-1.7892948924979666,-2.175900193118702,6.2492444928034505,8.632073122786103,3.299829746783105
128.0,-14.484606238045284,-1.774625125950188,12.709981112095194,8.172374699012853,-13.614878494285383,5.441946311662958,10.023714576048928,-2.9636184230932137,-7.138936653051071,-0.4690227819115427,6.9423953291400755,-2.9425382686552317
129.0,24.012206140805546,-1.711096600019923,-25.723302740825424,-11.17814014205729,24.849181348859048,-13.667194599136076,-1.7953387254040685,5.404983929844554,-3.3482888382826763,-1.2059210987858262,3.67876288261495,-4.4792087134833025
130.0,-6.861183548380126,1.0084542215604975,7.869637769940609,2.90496661997457,-7.386461696273232,4.487065935472894,-2.596069855863173,3.046298096012511,0.18164827183492172,1.1822922257227635,-0.293109778768458,1.1083469412729317
131.0,1.0652710039203255,-1.8176788315978536,-2.882949835518251,0.4361475022755479,1.94983319825795,-2.3805720490149485,-1.120650536619229,-0.23970855553210502,6.880017782051397,-4.7827245918272805,-13.23920871809524,-6.220830446919254
132.0,-10.723895679260664,-16.449531006472164,-5.725635327211564,13.566359353025106,-2.4475697361782687,-11.114556717407256,11.239980231270073,-0.7396083080925469,1.0111152163512616,-5.142070391154311,-11.793373028203217,0.24556159371413244
133.0,-15.893032551798038,-13.752415014832392,2.1406175369655855,14.797175982084777,-8.967096525732003,-5.827499845013477,15.963521282846685,-5.097566625419276,-4.11947789171324,-9.201348853170217,-13.282433390412624,-6.0147790907240655
134.0,14.449587129459719,5.937168386425034,-8.512418743034752,-10.226228752412316,11.45124837608316,-1.2245072648666515,-12.068843033869525,3.076174726543824,-3.0615936298183835,-6.9557180708375,0.9833013180037371,7.18356604039002
135.0,9.475586688175039,12.178372042523204,2.702785354348123,-10.788230056810676,3.3563306178308987,7.42966410121063,-13.355259564514183,1.4211901384357348,-4.346064867029136,4.853366387863357,14.674685276120037,9.094983012472708
136.0,-13.095146454281291,10.458026240237631,23.553172694518903,1.35263478913504,-18.35501564075234,16.996423819797908,2.0397769070621354,-10.831361886750392,-4.31916326908757,13.5256536469077,12.87043139685914,-2.558039283739075
137.0,28.94551150923393,16.341241921230417,-12.604269588003543,-22.688666930633566,20.820966428665095,1.8570081500993876,-12.517694933688839,7.050557153624437,3.8944649059340017,13.570057103742172,9.151903534809191,-10.315015093626108
138.0,-15.20518413203753,2.494283968429908,17.69946810046742,6.3926293266486045,-16.487879426844472,10.079105259704368,10.480961048421593,-1.9644883056916242,11.890531453926576,4.91886450169678,-0.5257711665830049,1.9312659192043187
139.0,-18.069049947816282,-31.040103520445093,-12.971053572628882,24.51990563039074,-2.5093966677312465,-22.032385036282257,9.064352673733975,3.0190505351857957,6.368625874646489,-7.299889235412938,-8.805179686818473,11.685567400435325
140.0,-2.4371906510108943,-1.7466294476546658,0.690561203356105,2.1438433222168367,-1.5281399893309002,-0.48585820698229476,2.0851169172847124,8.474930366055544,0.3687242307472913,-13.489955591057676,-9.686742280267708,-3.75726881993317
141.0,33.158336321070045,13.19445350017802,-19.96388282089206,-23.196972900375425,26.514386028081155,-3.3510486540331845,-8.049853688429675,-0.23549877621738036,-9.385327974289165,-8.757634658579722,-5.453423556946526,-2.579068066293893
142.0,-19.12423300495491,-8.864389924653082,10.25984308030187,13.976351308104558,-14.741820120097069,0.7254065115584565,6.399482840466007,-7.286275702827104,-7.282495096492929,-1.6981493659582023,-0.789087738261137,-8.03603598570945
143.0,-2.6678402680548996,-6.255691642366157,-3.5878513743110885,4.442163136445252,0.48721285938193803,-4.975968342521689,-0.5349817945446105,-8.239103386428727,-5.494840485517282,7.385574779339138,3.628416920000121,-6.870447569721243
144.0,9.013602039207894,10.938312188430663,1.9247101492229644,-10.000409681900376,3.5718226474836694,6.376774696424327,-9.03492418696228,4.359259410450922,8.420459380408808,10.613914609909392,13.352898955566085,12.982020148737448
145.0,-5.109030485901624,-3.0932262239575428,2.0158042619442407,4.149723929613653,-3.532718724668894,-0.5130674337202255,1.7221617038260528,7.2814424198955505,1.6225595231654864,-0.522014833538492,3.864083588011434,21.341672980710122
146.0,12.52729285116824,0.8452677942430724,-11.68202505692518,-6.720361953207736,12.059586137835247,-5.389341942504343,-1.989856349822469,-0.8470182983694086,-0.21608776063953083,-5.052741942499612,-14.253562562556901,-14.40198069882346
147.0,-21.66383227836004,2.0922354874443134,23.756067765804218,9.829974119771387,-22.67178386991839,12.957735268322695,6.175125176318423,-3.2828999192559998,3.2353381897661366,-2.1557527864580077,-5.9242993854353045,-11.997898155220195
148.0,8.799595432581645,4.179126002142889,-4.620469430438954,-6.4424117509425205,6.67309337998187,-0.26118658381171267,2.2980684709895507,5.581734714360268,-0.15233000576780364,2.8187570965363227,5.44219040112808,-2.961972476769576
149.0,1.6137916738696572,2.9385803333409584,1.3247886594711131,-2.303967889259468,0.10934518597887277,2.1733030976668526,0.6440978509044155,-5.263000467204582,-2.16356567603695,-2.0854166062368527,4.468589085268731,-0.7199529778498435
150.0,-8.616151562629579,-2.62074309257727,5.995408470052221,5.59296280620892,-7.262606456246189,1.6511491882700138,0.12329455870453848,-4.716348779303987,-1.8408915973308966,1.827115567472596,6.574065524402029,8.104453111123789
151.0,-7.8587750822733335,-3.483766547058969,4.375008535214384,5.643873150915724,-6.075998393236814,0.40764050455665446,-4.439303938902176,-10.740570954803564,-3.597111427257914,2.7675216746734708,4.607083317512194,10.235088949973793
152.0,5.405996145429832,-2.821214597087463,-8.227210742517224,-1.326704228628063,6.775415012392648,-5.4870760664222695,-2.6660626189035233,9.379633855387137,3.4199235405662627,3.5339193606732633,-4.365772109060475,0.5068351353334473
153.0,34.209230132719895,9.689431359384312,-24.51979877333545,-21.915540136859164,29.319957810538263,-7.460366380579082,-6.851246826539299,16.62038596696044,12.098514623499181,5.674493161979992,-6.666631344866039,-1.1906320868313436
154.0,-22.116455740013443,-15.802355698586847,6.314100041426732,18.98152093563683,-14.183516978203258,-4.71198101604897,11.603646453259543,-2.5845244981795323,-9.220564254119164,-21.632893364921603,-13.071166513819072,-7.956262211688715
155.0,19.82442095369653,2.3618524903966676,-17.462568463299778,-11.080835747548889,18.674398962252567,-7.516248088230807,-7.128284909791426,5.78838116930655,-1.2161719536832982,-8.696340633293616,-6.582370642862841,-9.71689544398785
156.0,-37.93874409020825,0.23548130188196348,38.174225392090264,18.857896838312744,-38.024800081263635,19.243968660758092,12.155712980820917,-14.420462346526548,-5.632203199980581,9.826015690258526,13.805342456812872,3.388942539809272
157.0,10.72649864938136,2.178724117278024,-8.547774532103315,-6.44820325666849,9.59198672394161,-3.217983846436953,0.320237175747367,-5.827744448270548,-0.31153822157196576,3.0733137519965066,-4.5462487323884915,-14.325149729383025
158.0,1.7338376515706067,3.404001286914746,1.670163635344136,-2.5630835140864527,-0.010974168706071374,2.508458263112619,-4.399603204931566,-4.0726255666749465,0.9223812492755141,11.83562759968424,11.172918669371075,7.708713228950395
159.0,8.61328473022296,6.538580879552342,-2.0747038506706588,-7.645567877364295,5.382216135847436,2.2049419957622347,-5.386019675529727,11.716756705437131,11.00993512045964,10.974302887724107,18.264555875587757,25.099151264624766
160.0,-5.27578793568414,-3.138061630173641,2.137726305510448,4.219998621001123,-3.745141991849811,-0.5290086780337935,0.3156913695133241,-0.13475397972556014,2.9464640548767758,-4.669367281258033,1.3287745601008245,15.187614741593649
161.0,-16.505408460060654,-9.688467069617257,6.816941390443308,13.114159429861138,-11.618748580705944,-1.3897613688669594,2.9824457984826585,-2.3824150248694176,-4.364856380816093,-12.598799837530269,-16.418983684518587,-9.806964998643448
162.0,20.37230124971971,9.818555535389063,-10.55374571433071,-15.073787255320196,15.507187920884753,-0.3252813978943516,-4.877873037245843,7.905315407101565,-4.089330975215444,-6.590696188743653,-10.765961832467333,-21.447607760105544
163.0,8.605631571772971,2.2045584255701387,-6.401073146202827,-5.378507813694657,7.469408600783638,-2.136169726844834,0.6105304417729948,-0.7470263966241522,-3.4708180735668965,-3.184506550552392,-3.987244298483404,-7.782912857876962
164.0,-20.21797702320111,-16.97669266749542,3.24128435570574,18.55073339096885,-11.765118944829794,-6.825313148867158,11.306135521107091,-14.714048642141426,-8.275475848527446,-9.541020859264197,-10.540488723744636,-8.803014883743238
165.0,4.60414675263146,6.429480716790007,1.8253339641586042,-5.557429448623777,1.4280906319705555,4.095042663097146,-3.5892037838725663,1.570097176788308,1.5677375007728709,11.035936206832794,6.8801814487176784,7.757001413795813
166.0,11.514136812022366,9.83295622297425,-1.6811805890480866,-10.629472473473891,6.549928921618429,4.048348731603105,-5.305932412750279,11.231214415933731,11.09634124817962,18.851579559233908,17.755572049878516,12.062647701027181
167.0,7.061624097182586,9.640722980508606,2.5790988833260187,-8.301983187988883,2.2624874843639016,6.164860752676573,-8.727321694393028,0.16679623787540088,4.969905553138076,8.026775631628542,15.73293103093732,19.076141390110248
168.0,-17.073608562604644,-15.73244235303927,1.3411662095653556,16.376686753251015,-9.196340327569347,-7.218285700922204,4.4696037333939165,-1.1246431620822945,2.2130246257576123,-7.288310660050103,-1.152210525392583,3.100068164588947
169.0,-15.299343315728589,-12.67715674003513,2.6221865756933997,13.962104780924506,-8.958250897609258,-5.052125085457463,11.973444040534323,-0.22510260932655074,-0.49170904013273586,-11.22686198442302,-14.583838820177743,-16.16236201156262
170.0,8.410001921636136,13.519891812214302,5.109889890578096,-10.994670096586152,1.647411754746317,9.28567184784661,-1.1060033830278133,-3.187229729690054,-5.1164300723899165,-3.672581232429165,-6.453311041363162,-12.645117388557205
171.0,9.908371377948963,8.447681928214429,-1.460689449734659,-9.136301500817117,5.681108135138552,3.5372779833230394,-3.714793584201275,-3.2589429638045764,-7.387015820541405,-4.400125947437787,-5.612609851210683,-7.436277247053472
172.0,11.580683116266055,-0.6584708480689665,-12.23915396433516,-5.429447280317934,11.91019465593967,-6.4102944596272575,-2.111351489118549,-3.52477437140654,-8.954755836375469,-9.32894842302247,-10.63926184976531,-5.566401889768612
173.0,-13.390978916176756,-22.770169100345342,-9.379190184168667,18.022355922728952,-1.9982082085076351,-16.11846888405559,2.6614439349280317,8.242663339389846,1.565824499636805,-1.8350302088545594,-5.6693815525231575,-0.016606427641972066
174.0,-11.609346336303643,2.9668558295163825,14.576202165820003,4.331719700357102,-13.075352767968168,8.80505544362624,0.15564069983866435,0.715965103344923,15.184975852194448,21.60476725272562,23.984640161824824,33.86845117143544
175.0,8.694738444036169,16.90880149511221,8.214063051076053,-12.798140430814255,0.18943492522032646,12.516581120285265,-8.40009677889415,2.5305718428034782,8.68046303664649,18.29765805415882,19.986314568225705,10.714646464417198
176.0,20.332884450222856,6.670280274908182,-13.662604175314629,-13.499945600546688,17.035232958652344,-3.460760485951446,-2.5054486986897824,-1.3935481510590277,-7.160260852727764,-6.284601276522752,-1.9058558088202986,-12.470484386892952
177.0,-4.505424582789872,-4.958233058707258,-0.45280847591732787,4.7369177228911905,-2.0597129015713573,-2.746859358100367,1.9354520706338683,-0.6514233656514317,-6.999559409039463,-13.62582583411092,-13.244604437373896,-11.611814931611615
178.0,-17.235698548670086,-16.390504688166395,0.8451938605037527,16.826268522336665,-8.98941808954663,-7.733033738236233,14.202036365155376,-3.640886408411074,0.16322959603604126,-7.990911292873195,-8.746568307410863,-12.029844406058078
179.0,-15.847940040050938,-4.764351412598723,11.083588627452272,10.329820073095007,-13.489771132463922,3.1229548925525554,8.940448479104464,-2.6265859424740103,-2.056486640309461,1.6440928252303415,0.9982188034967248,7.031448254865111
180.0,6.8550329736233735,15.61024757823936,8.755214604616015,-11.27781862134481,-0.971661427622986,12.227820830917913,-11.140227172433818,-4.5434843866749635,3.834377500349659,5.731109070377839,4.551691313783822,9.902830134758435
181.0,20.65458356983758,14.184738764312732,-6.469844805524895,-17.379756363559995,13.542771784716873,3.8276312984579395,-13.998472173075625,13.558993988230927,5.674772267021143,3.6056665405503536,0.8506840309954783,-5.010851900546073
182.0,14.912535952716459,-2.8459663026222994,-17.75850225533885,-6.071214527240981,16.397571336582196,-10.327254243122162,-1.8341071800275799,3.182140606218228,-1.9057776691814259,-0.32329384076580503,-5.095865791625634,-5.349009181657493
183.0,-3.078668758530039,-13.42571706346366,-10.347048304933743,8.209702313369768,3.6213353237856953,-11.827145729445181,6.6505790575770956,-3.0418930972403815,-5.151416640779387,-8.092704809491586,-7.072278333520809,-3.651797467521572
184.0,-36.29529574896014,-6.689926154461552,29.605369594498512,21.520605758481313,-32.95846904573115,11.443780456149273,6.078318892715103,-12.753863263505968,-6.119858650345449,-8.973468677121824,2.2874643600417346,8.108262822843692
185.0,2.6337555568614146,-0.9104642738898212,-3.5442198307512776,-0.8427200404975821,3.085557985624101,-2.2365839013687925,-1.6684864612897092,3.370745004675345,1.841719531030415,2.0996639616549815,4.951251699219474,4.082517784130138
186.0,15.374614576456391,3.7339877033223794,-11.640626873134,-9.54239256279708,13.507675490396405,-3.9596582275474903,-0.2917031387060569,5.333581818819031,2.7701876198794264,10.059786464096437,3.143386194574645,-2.924311177608417
187.0,1.1981361402233928,10.730711278884723,9.532575138661375,-5.95575682240874,-4.165980347425623,10.125869479557526,1.716447236398354,-0.7929873830072949,7.9769509828686,13.737050325267141,10.88143561064533,5.983822327679676
188.0,-5.773916712615057,-1.9892075861204939,3.784709126494624,3.890846431340524,-4.779742079736067,0.890264335815858,6.34926088698127,-5.4949988680370865,3.2967785353294436,2.103999491538656,-4.210348729223936,-0.5460124258951866
189.0,13.08415107027025,-3.249720780882203,-16.333871851152416,-4.904724545025307,14.704244490605111,-9.80267462665851,-8.441548802768597,11.494216000825645,-0.513236222933956,-11.83057283171534,-7.15084504940657,-1.4064887305274842
190.0,-1.4759478180022594,-3.97277619792354,-2.496828379921287,2.6621732607557953,0.4995526117434066,-3.171173765676682,-7.436453852283719,0.6860644654494261,-6.826146159004514,-5.802534531518256,-2.9355577775778423,-9.912442140300973
191.0,-16.03258197450453,-5.37087040396576,10.661711570538728,10.7220843139667,-13.364641382986553,2.625914958518846,6.287598453392892,-7.6325105919389475,-9.584613975687704,-3.2505135288112275,-1.5795798764058762,-7.367673566643463
192.0,2.3343121714754123,3.89050166118286,1.556189489707383,-3.1672063693025994,0.4444387336136115,2.6997414695218795,5.506446480143986,-0.28587792846859816,0.9114310711443521,0.9671651729142874,-1.334335134633499,-1.8838180166018215
193.0,19.04211794147948,9.287670264728094,-9.754447676751436,-14.1364438718796,14.370393610240557,-0.2606019598883873,-3.9250953193451417,0.34671408680677107,4.807864896921646,3.6230148130481945,3.726747845920113,9.451434906702616
194.0,-15.946672384922188,6.787259672477207,22.733932057399368,4.6148282327636485,-19.29279055095168,14.80912051660903,2.4386024892396176,-1.6959584881524519,8.789916428575289,8.734805705762462,20.296595669471408,26.026959051748086
195.0,0.4488412425710391,-0.6150765693102425,-1.0639178118812822,0.1273925362286401,0.7221339656897339,-0.8721051524196142,-7.051114250983932,-2.137115936874924,-3.1146229940181893,-4.193726806620966,-10.108383128103677,-0.4810214988185937
196.0,3.627067006145457,-11.484385942970484,-15.111452949115906,3.9045275464413933,9.33145634307108,-13.25365307356077,-2.401332671489579,4.49819039630445,-2.3088868257570083,-8.822920937482838,-18.606406086257316,-23.8419070557144
197.0,-10.17506888640276,-6.833454095475793,3.3416147909269798,8.489021946748325,-6.7218478611006995,-1.7820802567118,8.658380312105402,-2.4149861526719443,-2.8216071768531963,-3.834132679609561,-7.523095050886459,-11.002143043738858
198.0,9.444302495973105,9.112561990069066,-0.33174050590403703,-9.28917469188843,4.84092167279467,4.431159904660235,-1.7206775649340487,3.1108675921550635,0.09234719951503201,2.40555720285506,8.539750266135158,8.524411425760476
199.0,6.012833930232072,9.552161768267455,3.539327838035365,-7.795087305334886,1.2643145226835992,6.505582441875015,-2.0105215774851737,1.078938709407649,2.868317387627049,13.268234883134673,19.84547517826157,15.178471813246741
