Time(ms),I,II,III,aVR,aVL,aVF,V1,V2,V3,V4,V5,V6
-200.0,-12.35825656348974,-20.769656167052368,-8.411399603562813,16.57138803410371,-1.9863961397328538,-14.61823042568334,-1.8198212117859405,-1.7840635834725407,2.730923385086893,2.6613833841437384,-4.253552272905927,-16.305793078499654
-199.0,3.973646872608815,-12.847994828421472,-16.821641701030437,4.444650841977046,10.372449142093384,-14.87021213971346,6.440226520982153,6.921641291406745,0.7045785361840358,3.2368657763489113,-9.31009983092917,-10.333258949206908
-198.0,2.5621868504753524,-3.1901546677152552,-5.752341518190622,0.3256985269951662,4.197999948752996,-4.437036201757814,5.80260328152215,3.992924322681847,1.7400781021159446,-1.4647260011736238,-7.074739092695031,4.427679325695976
-197.0,-8.96959598538859,4.728634110307608,13.698230095696386,2.139021771538668,-11.304764504245588,9.239103573651994,-4.435486351230381,-2.141796500886118,-0.9852551680557808,-3.3318724895427323,5.3088639911777395,11.159318831423828
-196.0,4.41171919095791,15.975614450443706,11.563895259486024,-10.24669516667173,-3.634666397010648,13.788950664130326,-5.153162420257271,-1.0276941736467482,0.2833969301185583,-1.7962435536531896,10.848391869530317,0.39651419421172385
-195.0,7.3318397239613535,13.263623880112737,5.931784156151486,-10.266608642130057,0.7145091229604466,9.612790660981926,-5.071289147050809,-5.459184168953245,0.22111821922561173,2.274074417259065,6.897842587572187,-6.86753554819329
-194.0,1.8534968563059877,-1.5642598684049105,-3.4177567247109177,-0.18998212748320142,2.6476404139720424,-2.557187858606352,-0.9250492989255945,-1.6466570002291618,1.166301642532241,0.36106296581878883,1.8378224444038338,-0.22149304124109903
-193.0,3.872938988236286,-0.7442364913688226,-4.617175479605173,-1.5320785489988182,4.257142531160659,-2.6702880204305304,-0.9614985688708995,2.415007137431809,-1.531527704640342,-1.775162003379822,-2.3131875719408606,1.6368401273794713
-192.0,-7.618039716338155,-13.668412661261439,-6.050372944923333,10.671820020455366,-0.7701836217860945,-9.85171700118359,3.5258978417893845,-2.3746690528163064,-3.105993214708911,0.46264496774732666,-7.506467417372761,-1.8044454755456674
-191.0,-10.467037372472374,-16.585531504724393,-6.118494132252077,13.47137711585753,-2.237347221823847,-11.347894374618386,10.515021849886809,6.535574873436583,3.26547635544154,1.5015098539189515,-9.456303945257517,1.185373190395856
-190.0,-1.539174080509481,-3.47169406087304,-1.932519980363574,2.525147092192925,0.21419289366398997,-2.7018066244856866,2.47302957997337,5.579823950431945,0.20912493514378244,-1.207547922624306,-0.4599966889301692,9.299239730388537
-189.0,4.945335510968382,8.357976868565688,3.412641357597304,-6.634013557837342,0.7854696417883558,5.882624097892104,-2.4928166515535057,4.301074707178741,3.0764280343783375,4.283606085999166,7.515758294428039,-0.3104662690685367
-188.0,16.93908584253398,17.594551815895347,0.6554659733613821,-17.2483502671525,8.162693708452778,9.12142253141635,-7.6445745751716725,-10.08419525711739,-1.8622401757082325,-4.247842957964128,-3.0554467155204006,-5.935002512178289
-187.0,0.48518124247288075,5.34644456734377,4.861263324870958,-2.972281880814574,-2.2434221071987612,5.102442761252942,-5.840250385507193,-8.948533603611912,-0.441702246345993,-2.217748093395482,-0.07911488751970186,-7.449704509813196
-186.0,-8.752544094500639,3.1145549125264553,11.867099007027113,2.8475070567045466,-10.282835015095564,7.495022697546592,1.8040910503376635,0.9673521343108398,-1.355377006303169,4.150376798224956,5.404780170038099,1.069269582569445
-185.0,-2.298405817369957,-8.385748014614794,-6.087342197244856,5.378278514112964,1.9262213673834463,-7.223834979516117,5.376502149786482,3.9422151768343756,-0.6448946088227314,3.840543609236361,7.5297137214804595,0.9594461268684676
-184.0,-6.754274077519028,-14.744199441072254,-7.989925363553258,10.714819953307561,0.5762752639096433,-11.344319629011476,-3.033403618736793,3.8311820888644643,-5.187560608182077,-6.34061909885293,-1.1662626852438551,4.432422312616897
-183.0,1.0056127496879284,-4.732375620366634,-5.7379883700546,1.8367875724747762,3.414271886412144,-5.281544773481111,-0.2075972435802722,-2.7902602134511243,-1.3333280862619932,-5.704047684772645,-7.283064261564111,0.16481675752772462
-182.0,0.7920178356717711,2.749932643584172,1.9579148079124185,-1.7903856491483823,-0.615079416361894,2.393762621441084,7.386912140288508,2.093289653968162,4.066166054312119,1.454456781225427,-0.5184196811454811,-2.667631134497455
-181.0,0.2897557142868217,8.028168828429235,7.738413114142487,-4.093129363159169,-3.7541208608667596,7.848601847786198,1.9152596561556359,0.7287470742361862,7.490240051774276,10.968240811847703,5.613911823736013,5.78886302587388
-180.0,6.4321611436798465,13.067711056911893,6.635549913232095,-9.757201098887505,-0.05238338473369614,9.818075676800776,-4.725124549177341,3.144221168432359,8.096384079226993,1.693778943358066,-5.386536056916546,5.197491259432917
-179.0,3.0812980619859975,4.869736591925134,1.7884385299391412,-3.978551381925194,0.6157077760034443,3.3735741217176893,-6.258501282944115,-3.207964130281731,-4.558035438852338,-7.361756914818033,-5.844110153820173,-3.7997452551520627
-178.0,0.6421810354446382,-16.20772508038968,-16.849906115834365,7.781560081571217,8.791861679508859,-16.563878040645562,1.0753410042785045,-1.958377228844681,-8.72155898475227,-2.835487745475076,-3.557738073829461,-12.106517516966422
-177.0,-5.825625769050713,-7.134663592214007,-1.3090378231633606,6.477365793296312,-2.2935067293660754,-4.17766692447859,1.582585716908651,5.296398719031094,-2.0964672854385222,2.446481174713261,4.663916228115314,1.5270687037396842
-176.0,-3.708949118362061,3.855600979046325,7.564550097408318,-0.08144711771770297,-5.673486905753222,5.756353787440331,2.9529226103154658,-0.004788494714135005,-2.1935114314681967,2.9336729596505746,8.913672908673002,5.274498737445315
-175.0,3.641165752132282,5.0009432745477564,1.3597775224154764,-4.337652013762684,1.1825732152307054,3.1506659025586554,-1.118649081631172,-10.702773417450008,-4.039356570520803,-4.668613326754423,-0.29334677061894165,1.4685973364315141
-174.0,-0.2620444797591186,-4.187368957826505,-3.9253244780673033,2.1981859619512916,1.8750428238675405,-4.084144391019935,2.5697979865055838,-5.051511339156705,0.45505398586530543,-3.0107021176158675,0.19304529066197884,-5.0411609077695
-173.0,-4.490018443138573,-4.87254712424779,-0.3825286811091049,4.724391731516803,-2.086103322769957,-2.6555710185146815,1.3647099703486216,6.560368510250361,10.83529875559092,3.293355615148375,0.6005926621911881,-1.0998202816270686
-172.0,2.2123819090784522,4.054663469812996,1.842281560734606,-3.096729228200217,0.15660867446322269,2.917867808623506,-3.981367954380063,10.354630809179758,9.423123939229718,4.57686612066058,-0.34570865780914817,5.117394191608944
-171.0,13.432953752840863,14.152934864768879,0.7199811119279842,-13.837408054337205,6.332261220555051,7.480570256759418,-5.865753668242544,-0.713496398679081,-3.2657857249502307,1.1743599231290258,-4.2881939391289565,4.30991028330935
-170.0,-9.122929759345038,6.904687905838654,16.02761766518358,1.144401344864674,-12.516800008108092,11.50606574611555,1.0553468591425141,-2.407638370981098,-5.765883589861208,3.442788341976011,-0.3603876770304355,8.589387258254733
-169.0,-6.504192855175627,-14.346176232101119,-7.841983376925617,10.3848416905399,0.6517131795502764,-11.057642465986977,3.764329641836667,0.6135694051142178,-1.5043302401312673,-4.806327383750211,-6.276653946368774,-8.66666740208213
-168.0,-5.400675299711933,-16.260566079949914,-10.859890780238091,10.87249897823092,2.7138735950437605,-13.605174712281134,8.44255455779833,-2.6988779202160265,0.9633355940560633,-7.52006750638137,-3.439066730569771,-10.45582587605787
-167.0,5.406559224844608,0.320265493740691,-5.086293731103932,-2.897939103484619,5.308225575359621,-2.4300818136058364,-0.3872993822743167,-1.2266262400099417,-8.114584046712281,-0.9609528633037536,5.7140687359100255,-0.11542188507484497
-166.0,4.485563443510765,3.27061563217165,-1.2149478113390395,-3.912010421852416,2.828485957425492,1.0578032618421367,-8.8280333126342,-1.3478603885071256,-8.08190722573084,0.5277575511646357,9.555919711404435,-1.0065512481364967
-165.0,9.893570901339475,19.90367481654376,10.010103915204404,-14.854555077764308,-0.08872925958606448,14.90735058968932,-5.993781916154415,0.7195396285385554,11.1897235371084,9.178813636945415,11.598314132795448,8.940742274049908
-164.0,0.08562127512219675,6.3267815104743645,6.241160235352291,-3.242004943815778,-3.1198388142931224,6.314375713798308,5.639388341816312,-4.56947646436432,6.283208447840003,0.17609195284548473,-8.637642109188729,-0.5163716612282467
-163.0,-4.638964984076106,-13.769396410535876,-9.130431426459706,9.246630825289438,2.270221060555785,-11.4156335712642,0.27779055344156833,2.0044707272316704,-0.4494138197433246,-5.6368417781593525,-16.415310806650687,-3.904252854715293
-162.0,-4.95210639191594,-4.642655187191293,0.30945120472463983,4.8403215288185555,-2.6159408109211983,-2.1260483409382287,-1.5227906352324982,6.679156426209183,3.24495002854474,5.585892413259147,-0.5972763165709294,-1.7665206130846711
-161.0,-7.645273629507732,-4.9543164281410155,2.6909572013666505,6.265021633919948,-5.157567792689457,-1.1627342168023649,7.817012512132258,5.4228717526516,1.2081289617587616,-0.689364740396256,3.5515719250310633,5.1050647088474825
-160.0,-2.903814718758193,-2.928277125971454,-0.02446240721333376,2.881958055916493,-1.4267129429953405,-1.5016739834683428,5.873087169851585,0.29885463856218264,-0.22817830915019877,0.2944163882595835,9.05536472945175,7.230445328306799
-159.0,2.2333414134589793,-0.5390615211664211,-2.7724029346254504,-0.881627392198052,2.524185076592534,-1.6786849603673222,-1.6952930929542118,-5.917853093645203,-6.098102901130422,-4.179450331838723,4.6877247454322415,-0.892872523819104
-158.0,3.701988880667863,14.113511517597138,10.411522636929277,-8.86512594557317,-3.400651866783862,12.237612904750945,-6.40814505733236,-9.6868649778539,-12.019045098429531,-6.625030750133045,-2.6051972180539433,-1.9716205605292338
-157.0,10.03310184373865,10.614345623301682,0.5812437795630816,-10.283586608235534,4.769761364721228,5.64582540039313,-15.437851693173382,-5.592781777374817,-6.72933124056698,-5.281163864876806,-10.741067021314736,-9.120636864390486
-156.0,4.16094958773666,-7.506913046931442,-11.66786263466803,1.6316151949186635,7.88633182122817,-9.547654519736005,-2.972328725264263,7.359573489308467,10.004565544412745,5.568006455560331,-6.125138507126571,-6.46106714233576
-155.0,-4.604469495268308,-5.80633928878593,-1.2018697935175702,5.240233040504183,-1.7287214280474381,-3.552236571709929,11.222536577565013,10.930787910096129,20.473670365832326,15.746262206900244,10.792255419438376,9.50496369017517
-154.0,-2.6577918736298702,-3.499477157868422,-0.8416852842385092,3.0326461490585865,-0.9409229947549665,-2.1484218417572274,11.539149230568022,2.0669611495889706,8.106733937219733,8.717996655718931,4.293057212320088,3.7629331042436496
-153.0,0.6816275696133349,-2.8550041992426496,-3.536631768855962,1.1181027029113682,2.1455586952032033,-3.1802838402885407,4.093724981835196,1.2645857584691171,-10.944833351833653,-6.109021244554687,-0.20364075075569854,-2.3807663836832225
-152.0,-6.421327025705025,0.8136050949027918,7.234932120607836,2.756163415604416,-6.801981816462631,3.957254863488889,-0.9715534078903589,-5.356361223712302,-13.11260440299791,-11.65954184695266,-0.9524540586431365,-2.219395346145842
-151.0,-2.723196745079591,4.085126290941605,6.808323036021223,-0.6490746228803506,-4.747743759830469,5.45836146247739,-5.646838687547958,-11.238673749633527,-11.330548844977923,-9.335966275387438,-4.876022883636289,-0.37848284966389334
-150.0,-1.9826113590763739,-1.2116936324264964,0.7709177266498966,1.6310043140782742,-1.362930396005845,-0.20460935495421184,-8.498343732993739,-3.4100033878583575,-1.4352626737260845,-3.1842099574440033,-0.64596346255269,0.4063906622223929
-149.0,6.467176131104286,1.1064295849128292,-5.360746546191472,-3.829198318737543,5.849129175517734,-2.103222059497444,-5.45696265156041,4.931853296983878,9.862729457525205,8.276753697583327,6.544073106319401,3.2634877026488778
-148.0,1.8455958820148548,4.298221888238491,2.4526260062235954,-3.0335963768373895,-0.28608631014320274,3.410173831612995,3.109166345498642,11.130670407955275,14.548923515524221,10.172476591904463,5.416555261324903,1.6967246724482306
-147.0,-0.9925996960321015,3.144952900363857,4.137552596395932,-1.11649803327468,-2.542106973256366,3.6083104029407727,3.6899243933629227,0.973280153485506,0.7092094209807955,-1.9375304241418396,-7.023392251202287,3.7274023323209824
-146.0,6.290596077511603,-4.359076757578952,-10.649672835090538,-0.9300996625975505,8.420464443965436,-7.528818107579025,4.874504163488261,-1.6602320257629803,-0.08628752235400539,-7.843172218110283,-12.264241891515063,-4.4976739076312455
-145.0,0.8397111732050049,-9.756626187498203,-10.596337360703123,4.409363238631407,5.752520732788851,-10.1972155396877,6.908437044125916,-0.2552305725580024,-0.3603775328069594,9.310498650608253,3.138287480519929,-3.842422581915611
-144.0,-6.288727964595957,-5.018562204265946,1.270165760330141,5.674628229271885,-3.741225567959959,-1.8181208928872419,2.5724697644603616,3.5461772047881217,-0.7089004527225895,6.837067964867151,9.789848463141842,-3.5745441978084767
-143.0,-9.012840221052166,1.744887157992911,10.757727379045239,3.6450334265676942,-9.924478593507219,6.221860228291536,-5.2060321418133615,-12.912680476152904,-17.177311348333145,-10.060310899293778,-10.504131826598439,-4.592536967073601
-142.0,11.932124889279793,24.041661322364735,12.109536433085106,-17.985078327945377,-0.1292849471287827,18.03677129091511,-13.488526703376358,-2.8292310993220475,-7.048818776977095,-5.700095905539121,7.643602220390798,6.160648850081208
-141.0,-0.46521098991407683,0.7603388189284743,1.225549808842663,-0.15227776252804404,-0.8112021312271571,1.0238321429495922,-5.864341011641682,1.4235292799607773,2.33034128569054,-6.2043275267600535,5.2731476522485075,9.187858656679149
-140.0,-5.048532715249561,-12.918184918563593,-7.869652203314017,8.97654995574901,1.4386425991107015,-10.368981436508498,3.017072400921153,-1.3138691399979132,7.85259424339694,0.8270190223599774,-5.348362985112176,-0.37159830340542044
-139.0,-1.5284645983232454,-4.184468407756462,-2.656003809433342,2.853084480076263,0.5844392362398929,-3.3965272501475843,11.971349532905545,11.277829790135696,16.85336145111459,7.040318595609776,6.523207535861228,-2.1438475113655873
-138.0,6.528768119900976,1.7206854874731308,-4.808082632428059,-4.118963098565619,5.602641477601175,-1.59519166923742,5.524888529448719,6.222851809076584,7.553636342739421,8.656940548406865,5.608038998557248,2.9039321411454884
-137.0,-3.136552382238938,-4.602597644833333,-1.4660452625945637,3.8893244624808467,-0.8289425144301799,-3.000166893533065,2.595053120929911,2.1673026225743284,-4.657009882449168,3.4833437495365986,-9.138777223429742,-11.946092160042967
-136.0,4.228427462935561,2.9924909963687174,-1.2359364665668653,-3.652626456879615,2.7345110803079633,0.8416154442701058,-6.296486267572734,-8.21111102685758,-11.750051510306392,-1.8226655679798092,-4.540554052459467,-1.1865239415204822
-135.0,-4.564014017934172,5.546774556107184,10.110788574041512,-0.4380242332001367,-7.3348060835105,7.877446875441103,-8.974393073519403,-9.126904683461415,-19.875668164666873,-12.622239389434768,-7.5024572859965035,7.151453755424185
-134.0,-5.649946830046371,-3.6696164166702374,1.980330413376354,4.647760619110065,-3.8071199559489175,-0.8712155045600465,4.538983627750163,-2.9741763004529034,5.354325161050024,-4.197667957120474,-3.9599507767642335,1.3879118220602713
-133.0,5.094585006448476,-3.158323759975758,-8.252908766424046,-0.9732091108158556,6.69198738899286,-5.732242817778056,0.36536798489474764,4.021093188745575,9.681628453207498,2.2036835219930335,4.971324307535111,-4.958535524032223
-132.0,1.0620538498638243,2.6982065028730244,1.6361526530092891,-1.8865480414057734,-0.2556396659291438,2.1377455212349084,-1.2766017774923164,4.462816871488,9.919901162840729,7.175032853952447,4.383512426966439,1.9559335515398302
-131.0,-0.8784553988415853,-2.579418079264931,-1.7009626804233833,1.7129501112667427,0.3770641350855995,-2.094732104151338,1.8395511993059457,3.6528518252359747,2.04935012115231,6.21876347027854,9.418584676194039,2.9685856030278064
-130.0,1.103525951698141,2.012226870982572,0.9087009192843012,-1.589454816198307,0.07318119751493221,1.5027694484406313,2.275537353859037,1.1602355825233528,-1.1171761528957584,3.317994414702885,11.318401936190979,6.692369090522229
-129.0,6.896645473403325,6.194296158302555,-0.702349315100991,-6.516001672566561,3.7797146663089443,2.7080384183965966,0.04566557695761486,-1.530331217887667,-9.247649272821237,-8.139808942347196,-4.503637559953107,-3.7817831064082137
-128.0,5.318141794270929,3.9046758511267265,-1.4134659431443806,-4.59722744900505,3.4230071378680753,1.286353223411106,-5.162466243417047,-0.021964944685472276,-2.479337591560701,-3.227293416308038,-9.125992022781261,-6.27771274716529
-127.0,-9.535086954440313,5.839961518849673,15.375048473289896,1.8526332056465684,-12.48350726448691,10.569668243020256,-3.0403622434338144,-4.04718179753879,-1.3235469973466145,-3.204435532641422,-5.269705671525873,0.9937885539342295
-126.0,-12.129751832952989,-13.984279705642042,-1.8545278726890189,13.061008548030156,-5.175598132631892,-7.958308546367322,6.760241175292726,-6.6403041977454365,0.16704236615296497,-3.288003275574138,-8.110589846382924,-6.081448992247082
-125.0,-0.3942801215929137,-8.298384078625894,-7.904103957032829,4.356742525537466,3.7865546739970264,-8.064724033940703,2.212441226711116,4.391967740607012,7.045419445019374,2.497471742148351,1.065462325515,1.2392887234236285
-124.0,7.270929659264345,-3.1921814360893324,-10.463111095353485,-2.017659151990314,8.892699286590679,-6.796876320943554,-4.976088819301143,2.596159075038476,-0.5156609559346235,1.9375279234740819,1.4548900336433321,3.4555009630334967
-123.0,-5.273580176225375,4.454216428667377,9.727796604892873,0.3651594861537091,-7.476249739707869,7.035581895752962,0.9671037114338223,0.038031329870199304,-2.3804358757491135,4.368506124786355,6.897939754415874,6.460884483007114
-122.0,4.843479157735683,1.474158255530826,-3.3693209022048376,-3.1930710910853204,4.0556123649551905,-0.931995643480783,3.9936533376807453,4.305430384868749,0.155181425669766,2.9762357310936673,5.062575900150471,5.581606206718135
-121.0,11.363439916216393,8.620613828970093,-2.7428260872463217,-9.941629455789,7.088133306266378,2.94813156772555,0.6033580627735364,4.271188804697288,6.240645131758923,4.839517057884602,1.0950361181486121,-8.692411567710717
-120.0,9.082004800224071,3.652844481464621,-5.429160318759456,-6.394560659469935,7.22050344225,-0.8823525924128006,2.0796719292876187,-4.00319395427417,-0.6543831383322634,-4.303974199380026,-3.2680189289505672,-7.20109240215345
-119.0,-10.179450855569524,-7.835711073870711,2.3437397816988215,8.978255195003207,-6.288169708046176,-2.739733810468337,-2.603313261527413,-9.366101508942148,-4.985567149669643,-8.605413392646566,-2.6238596943043944,-1.2279885409229996
-118.0,-8.889399782307729,13.145630543803975,22.035030326111734,-2.0821842835041826,-15.402954930466805,17.601106359423255,-7.819976943430398,8.335121735183003,6.764987420356999,11.031165225188772,12.757507213872756,16.189208581340388
-117.0,-11.893606717270092,-8.932106216176262,2.9615005010938713,10.455964954919624,-7.441980681067732,-3.045206818317287,-6.624489624932227,-10.910584066539872,-15.608498108611968,-9.461703886342589,-9.235345916109832,-2.4483371752119414
-116.0,3.66796756351535,-8.849213049672336,-12.517180613187653,2.5539281953957866,8.081103659100005,-10.653822156518254,3.3345001869576096,0.30815573818716313,-1.8382932371538874,-3.6521608187394703,-13.108421458494433,-11.170998066242761
-115.0,7.9150004968361225,-3.3764352698475486,-11.291435766683666,-2.3052932105615067,9.59280927144459,-7.29303748161816,7.71980783892075,12.099597051529054,6.7260262149096715,-1.3461349906926463,-2.2294749947321604,-1.5520032946449587
-114.0,11.734365283986735,9.844476483914017,-1.889888800072736,-10.745201456844983,6.801158133636459,3.950279036349512,0.9607544113183035,1.0260102443253416,10.282779223452472,4.205539240390455,6.484443541917244,4.212932512247312
-113.0,-12.740995943506519,-6.612014837950719,6.1289811055557735,9.64286519847698,-9.369269228292328,-0.2600661703670425,7.372779229118449,-3.5914962951782474,-1.51384372116038,1.0548006079375125,1.0514160106593509,-1.8843714213788765
-112.0,-1.7990312304516587,4.574887268425263,6.373918498876907,-1.3438675249065193,-4.103200598822248,5.460543972184502,5.796118134305107,-3.2026979166355196,0.3587063990227507,8.95199964382519,14.565352916274138,8.58248598421239
-111.0,16.586020176822085,7.579389494141769,-9.006630682680319,-12.121276720543857,12.774041971159114,-0.6486597437976047,-8.148222937589043,2.1494858459341013,-0.5989926668543177,3.2080740402198047,5.278714511974684,4.477894230106674
-110.0,-2.8584958805990075,-0.9567242575694825,1.9017716230295483,1.9409812292821047,-2.4097860544994347,0.4540983071099751,-7.795454980250044,2.5880073882131964,-3.1061845895094686,-6.12553587708523,-8.999284451569627,-3.4340007796778136
-109.0,-16.401610582063643,-7.920795422591881,8.48081515947182,12.106998458012672,-12.40061093231823,0.25305986311298245,-4.468524497182342,-4.178394295637845,-7.608886602473109,-8.465764238980713,-4.758001778819543,-8.961536252064628
-108.0,-7.687192314871957,1.3499100399128716,9.037102354784919,3.184158809188121,-8.408568315479375,5.155904104170347,-2.8177638798289677,-4.4543047473096005,-5.471623207202302,-3.3723192762554106,-6.198344831412582,-2.897334909217006
-107.0,12.055471886888292,8.845245398324707,-3.2102264885634724,-10.441797693348684,7.658768097343771,2.848350554757999,-2.6164007923371226,-1.3285155866428513,3.015440838574819,4.155205888175223,-4.546188807663636,0.62905231554898
-106.0,14.878795480980758,3.522715737390399,-11.356079743590236,-9.195092164000075,13.14012377401191,-3.893228060608635,5.447520430127247,7.930098824691536,14.44817967751163,9.206412769667498,7.555731434448683,5.6851812210944335
-105.0,-1.3958459894481186,-18.973711516548725,-17.577865527100517,10.192548784630269,8.114088253420737,-18.254940397353373,12.961183909985813,3.5802498992975296,10.332330581209995,-2.557013273845843,-4.952525493353028,-1.5580985035976997
-104.0,-6.057119057997221,-15.646124807808526,-9.589005749811255,10.865969485241285,1.7136902877452478,-12.672780900630093,8.317812260843839,5.887418805962035,1.9779166418458827,-1.5774525536846493,-2.337588388532616,0.8034328722216686
-103.0,-10.030319953848625,6.623847655684219,16.65416760953287,1.7267443569185366,-13.31068011342834,11.669510822917655,-4.8544465338687735,-7.660758751953203,-18.239457838435424,-3.4075851643550346,8.123900073717069,3.913865248461405
-102.0,-9.373305825943994,20.69934117959324,30.07264700553725,-5.7090766890021545,-19.765061134346595,25.425564716592984,-5.138336995735761,-12.114879654309663,-17.13230323440095,0.4532910231081275,12.81214751690776,0.5348036638090731
-101.0,12.012695244760074,22.600883638921058,10.588188394161005,-17.345914747381876,0.7527365331999043,16.56390287461894,-9.431147921029325,0.8164906357787931,3.3225372776542716,2.7330354118465663,6.2203695160615755,4.809351246354776
-100.0,1.9766592789336324,-10.394522575882908,-12.371181854816511,4.252048994984737,7.137477944810277,-11.407595935226867,-3.3338903334611807,6.568649281404665,4.9785223430505265,-4.181086429361471,-12.992516635926261,-10.383641045710508
-99.0,-0.3780756251887696,-18.882031354161803,-18.503955728973033,9.594600351608749,9.105038527914823,-18.71538771416617,-1.9749078969711786,0.8378673630070486,8.429079563212149,3.0801473250712075,-13.215730298397464,-7.502758192345443
-98.0,10.88510219220749,-5.836777000806002,-16.721879193013507,-2.482903717760064,13.765109474149972,-11.302323419225273,4.177785170508155,6.643427694800277,12.348063414509246,3.5712669730633575,-0.8582182730396841,4.813350241717017
-97.0,-2.292226715446776,0.680669678769787,2.972896394216548,0.8441973217922694,-2.594582402273929,1.880524917497496,10.1955519760029,-0.6133712028219898,5.130384568889782,2.3006228604046584,3.369029346578885,9.941938471072874
-96.0,-4.0233892498743575,-9.413550324485758,-5.390161074611399,6.675687546160807,0.6405450141814768,-7.350064073900121,6.166751545664125,-3.3703918121307295,-8.317395557668753,-4.50781130572572,10.924541317732814,-0.8370660714696028
-95.0,-0.8552544456579789,18.31521847618454,19.170472921842528,-8.774085329751504,-9.977846315648398,18.71450692210597,-7.715703629669266,-1.6240225769679393,-13.473212567476763,-9.478131356299778,0.3521856292133201,-5.560600304968865
-94.0,-5.143556668114291,6.945829384136705,12.089386052250996,-0.866379910268972,-8.659423785062831,9.487759820681173,0.41127478751875746,-1.7201732021239358,-1.7717501484357037,1.8801696115857887,-7.2449396979897855,-3.1316440555906957
-93.0,-3.231792702929978,6.912027625519023,10.143820328448996,-1.8039194931692322,-6.649637173282855,8.573819254313847,-6.436773952466876,-1.40478868168706,-0.29832519712394845,7.3653958516382225,-3.4660436764991935,3.959792910555306
-92.0,0.7395832250201051,-8.588107156366224,-9.327690381386331,3.8839944638962076,5.075049257586107,-8.99633480978148,-4.484351183730894,-1.7540569936038786,2.042185743798536,5.326168103109497,1.88965327889547,-2.4122312893106477
-91.0,3.4904251478545962,-3.794087074744717,-7.284512222599287,0.19266124789327121,5.3530938669769785,-5.585816839512809,4.0711270906663755,2.3543137990915883,3.9701683879251455,-2.1148152663105284,0.33806038679447004,2.6183137817926783
-90.0,2.8205680200335945,-9.639690839683686,-12.46025885971725,3.373249555755651,7.607625889991713,-11.026787771632234,4.524223041385971,4.4406189488276775,5.372921725102169,-3.0836013668780913,7.9877362547529405,2.2001801959714005
-89.0,-2.5507758608847055,-5.209958819727437,-2.6591829588427,3.8444270729678327,0.021114219120262234,-3.918832851775555,3.9918833077303586,3.575263598435117,-0.7451323732240587,-1.0886780048288276,1.759881989243496,0.6611695770763034
-88.0,-0.8197437287622846,2.7085887826006796,3.52833251136296,-0.9024809313968296,-2.130307166003514,3.1309280217303037,-2.2888912776795967,-5.661397115409452,-5.189471185787884,-6.441622597160064,-7.8988280412683896,-4.4207496130069375
-87.0,9.116875602614975,10.342328604744207,1.2254530021292256,-9.689342863383734,3.986624782139278,5.798779169488336,-9.62251751683481,-7.382090849713962,-3.7864308439940304,-0.6590369278776023,-1.53323501253068,-5.210847093573439
-86.0,2.6954833168662375,-1.3586054645171401,-4.0540887813833635,-0.7087909588783967,3.3339119291534285,-2.683542193232771,8.588620312798842,12.646663943044555,11.757299659198537,8.309948923538457,2.33576478454528,7.427660774613212
-85.0,-8.891623078892984,1.0085563877763826,9.900179466669405,3.899778763671047,-9.361083535945573,5.410008057172791,5.771656674889691,-1.439208292779234,-1.0244318778467894,-1.6450638099280837,-0.7165460175325816,5.700849361646399
-84.0,-0.7973185138515371,10.111728694698645,10.9090472085502,-4.620669056135172,-5.9004676769303845,10.47851126045441,-4.478823903824102,-2.737621427597977,-4.632588718297939,5.975939838306874,-0.02152851162089464,0.4026067633034156
-83.0,-2.1343398559031663,4.542947628692218,6.677287484595347,-1.1671170642000999,-4.378425410967471,5.6675745719527875,-11.444240771314293,-5.444219698339833,-0.7838920828328333,3.233882054347233,4.365505267964922,-6.676044035218329
-82.0,-5.575325125728284,-6.274948292089625,-0.6996231663614174,5.885047104208999,-2.4154293062557013,-3.5019504020982,3.373382935888327,-0.9894395341239499,-1.3928106769621174,-4.657497876908386,0.7147931515837094,-4.317584111501313
-81.0,1.2689103971752826,-19.07257470398387,-20.34148510115925,8.942091294367177,10.743436354678288,-19.719895702440066,4.563270579012966,6.384267805685327,-4.517599781499881,-12.844482921210618,-10.92421759265794,-6.895101333782974
-80.0,5.710198402587098,-2.264211903275543,-7.9744103058627225,-1.7605755833401258,6.85448787672581,-5.134810492851258,6.443101631873102,-1.3614306600349035,-0.8325834262647558,0.19384115991116424,-1.1175087665694128,6.7118520401909745
-79.0,1.9674543926513945,-5.5443450371391805,-7.511799429790643,1.750539714258583,4.749147712270149,-6.549238262905037,6.447203979415413,7.6745729546427945,8.75516219025008,5.759193548543647,5.406629414030103,4.600821717441228
-78.0,6.0274505937581555,8.778522223210295,2.7510716294521247,-7.363730455302757,1.6485713678298284,5.815488285905483,-13.693454985376054,-7.52983703980439,3.9424340796218202,3.7432350106090193,5.742243416095604,2.290870702119959
-77.0,-4.932723870187598,20.632111978246982,25.564835848434612,-7.812877946611751,-15.233387756750046,23.142548915659944,-4.188888467083705,-0.8567585895156964,1.1152598592372196,4.972765262598036,9.960122963576698,11.122546252202518
-76.0,4.116705473251692,6.783618671419214,2.6669131981675935,-5.494780429349872,0.7489581263847436,4.684980552381363,-1.9251264749364294,-4.199438748193394,-12.045954434939373,-9.395434147710738,-7.904904321984767,-4.478682098223263
-75.0,-0.9079949425810193,5.208155650739593,6.116150593320672,-2.1182970749282743,-3.5559174042638584,5.61724418282549,2.881223765742162,5.820337875311349,2.411793287305212,5.678743057821641,-2.9245307040255253,-6.059606280643418
-74.0,-8.484370004203239,-14.01861609349923,-5.53424608929598,11.203004145561678,-1.5078490109063833,-9.74658404136279,0.7815202760154674,-0.997665338963631,2.1000214413057927,8.370883156875365,2.194331850279766,-7.878857994527021
-73.0,-2.7346582668124038,-23.232259120699744,-20.49760085388739,13.013447997468774,8.936898815069412,-21.83869095907134,4.681161032309218,1.2901158414210954,3.29874521495101,-4.714204306987754,-12.343458848163376,-9.901333004639788
-72.0,-2.0000414094169425,-13.421788119286987,-11.421746709870135,7.742241436718885,4.694171937770901,-12.477403430488282,12.887408402036025,0.8479634986348027,0.8590870299836726,-10.716145429347092,-8.404498918242309,-3.396895716897784
-71.0,10.260878813520621,7.17258510415563,-3.088293709365078,-8.760973954815304,6.66119866199109,2.063014261705389,-7.192236646777801,-1.875089843994957,-3.5404684444483614,-7.892511333433092,0.15672383799629697,11.453217862572801
-70.0,-1.215621224810163,8.999168479694163,10.214789704504303,-3.93098612125677,-5.72856451663842,9.626957561047965,-8.82323717863342,0.35781262291501914,-0.8627084795622169,5.485082003979475,10.052021836328452,10.259325616294877
-69.0,-1.2682402717418455,17.734344993467005,19.002585265208886,-8.187032428062846,-10.07275929021873,18.3891982370821,3.134086070746024,0.6603351282482226,-0.3613589282950648,5.532133307665767,13.668268217426935,9.835011432198144
-68.0,-3.0447794856303156,12.62252413988326,15.667303625513672,-4.735903553191044,-9.376912330592102,14.089243103548965,-0.5704376291335058,1.6825033137544072,-3.6481072629159605,3.6117912622798762,9.089105680589206,3.08146642188151
-67.0,4.21794752113041,7.724346874773373,3.5063993536430855,-5.991097146409348,0.3289700215752305,5.642031417123832,-12.806219241338612,-4.0667748132802135,0.510964532320185,1.3537763749235263,1.4370226421591425,-4.827680751486239
-66.0,2.4417497339823084,1.904176499897101,-0.5375732340851012,-2.189959272463595,1.456784484085841,0.7142882005164197,1.832865931177516,-3.3869833509252163,3.8373064353076587,3.790963517475156,0.8277133248049475,-0.7861790344033608
-65.0,-5.1060937049617765,-36.88961960206283,-31.783525897100983,20.979803999525295,13.379450018531891,-34.37966727474217,9.597236862739877,-2.6524064601414916,-0.4420070183952718,-2.70544236961573,-16.13285048091125,-20.3857053349313
-64.0,2.921348576784114,-15.667238976476227,-18.58858755326029,6.350072864613608,10.792363537607837,-17.166221519231065,11.842762552602727,5.096356057853082,3.4915417633626977,-4.392870229636895,-23.84778534213799,-11.489593356029653
-63.0,2.1367522182263317,1.3454656402425123,-0.7912865779838114,-1.7707695146449582,1.4214905251044012,0.3223330081713076,1.191267996841205,8.790162041307722,5.822156590862066,-1.4152505656114318,-4.355428024239554,3.7173651609549854
-62.0,-0.2091965713208599,1.767828289166972,1.9770248604878073,-0.7363029716054359,-1.0561256080069001,1.9222830771967734,-7.410261460805168,4.2804335333701875,-0.7104407640505297,2.6010078371099583,10.5169985462129,5.971149802569772
-61.0,-2.1689464989387375,23.7986158246682,25.967562323606888,-10.774855240420358,-14.107924500158765,24.858126097119207,-9.639380462337837,-6.688792119471849,-7.2648161122083215,-5.997462790043115,5.982570610230111,15.115306773650943
-60.0,-1.8461655061928475,8.765897336270461,10.612062842463256,-3.419036565281811,-6.2660176862054024,9.666571614693371,0.5767809909459558,-2.5310832004884865,-0.8008920790573049,3.3715106272795152,16.304499843760436,7.616123099240864
-59.0,-5.924314105018699,-0.0037796764812174644,5.920534428537458,2.9298493561686807,-5.877652222145632,2.936616202083192,9.839143198199935,-5.912378088297643,-3.9361678260290676,-0.37908910916527616,7.942145235849422,-1.359129992269196
-58.0,2.4668975854030197,2.1191570879318298,-0.3477404974711851,-2.322826867781284,1.4547811727710926,0.8626474207578598,-3.031698499691779,-3.3339808371877675,-9.324588460714391,-1.1938981027727373,7.971737412206348,0.21852463647202836
-57.0,1.558693412730014,-7.400141303248268,-8.958834715978268,2.893883866193828,5.229558593809941,-8.126598839341348,-12.178955352636358,0.5920137316435476,5.84968838946277,0.25893719074996535,-11.09907193951964,-3.2426468265285955
-56.0,7.257644982477719,-9.326401070230652,-16.584046052708374,1.0081233565972871,11.89281975554174,-12.906013119093728,1.5718294667214519,6.308804986823438,9.567949363804802,3.844504608393056,-14.284084721860808,-6.195489671599395
-55.0,-2.529229975623638,-6.0833378240657305,-3.554107848442115,4.357511342559009,0.4846744255391737,-4.852307037937196,3.774369730299206,2.825374252829603,4.15587285438394,2.7271453993427435,-5.630266042667019,-5.278253518307077
-54.0,-1.7327244134344202,3.4647018217846917,5.197426235219082,-0.8952857034596371,-3.4143776459771735,4.293501426596164,8.649338295291194,3.847460895084317,-0.9622898339377102,1.7887091705257805,-3.2878341220190643,-2.681199825355798
-53.0,-1.0399380872838477,-0.08974401079714833,0.9501940764866634,0.6130939910903264,-1.0233796569834244,0.3893422626601617,1.707206946128676,-0.5304042923253183,2.6541438255191547,0.9286494037180335,1.1752846637654222,-2.1650961896560634
-52.0,2.115577840508532,-2.861556404881149,-4.97713424538972,0.42056577288107533,3.596967557726102,-3.8833245772266434,4.145946168531646,-1.067308677197912,-1.3982103756331965,-6.070919203024946,0.0818520386225865,-4.546331886189686
-51.0,-0.38889670774865903,2.072573063382672,2.461469771131291,-0.8744434261951608,-1.4527555838194068,2.3033601183298957,-2.2012506271452104,-1.4409591479060546,-1.9593855847160024,-2.716509267352808,5.617311531807499,7.519106146573747
-50.0,4.0163602251267365,12.492584171293293,8.476223946166513,-8.290998418268773,-2.257053288710961,10.52325386030312,-10.640298034188431,-3.6518656682285835,-7.403669857183465,-3.272447542306657,7.8385906675501635,17.68404233706541
-49.0,-1.4358361647765647,15.153169023467548,16.58900518824408,-6.902589823993315,-8.961159724759979,15.835021040245408,-4.710402748995497,-10.524247612100062,-8.458800884679825,-1.3607667840235917,8.071832048855033,1.5047622974008608
-48.0,-4.225510228403546,-8.892746694107473,-4.667236465703931,6.583731503442214,0.19165830275411944,-6.812334945129989,-2.84050108333871,0.4304251481359569,0.10618459199644681,0.7413523859476894,-2.197999129480451,-3.551676120754961
-47.0,-4.017596478114251,-17.423583177713596,-13.405986699599332,10.73445411709194,4.66186756892408,-15.444831183621774,4.35513319922294,11.594112702121127,7.397755975594242,7.216118145845817,-2.5323279106845504,-7.91519787897318
-46.0,-10.34556760177158,-16.463727859720088,-6.118160257948473,13.410377188503233,-2.071310577172843,-11.242032253481105,12.645089802846746,3.809225118691142,1.8089126123718868,4.090204700230844,-12.503420703983958,-12.844696630414631
-45.0,4.719950057655813,11.449199271085124,6.729249213429332,-8.081722743078263,-1.0450680578783436,9.057534776597397,3.018285684589663,3.489618167235857,11.284755339589125,2.5992519723733585,0.8719372750489001,4.768523272418408
-44.0,23.518350984462202,13.958953941163122,-9.559397043299068,-18.73234392270105,16.573963358782443,2.2432941678659746,-9.918750571807749,-0.6503545046629702,2.1769887524948093,-5.620285741987444,-0.34256356083207873,7.279718889219519
-43.0,0.09534271745116385,-2.26672178503512,-2.362064502486326,1.1007678462685995,1.2617946702326588,-2.275792486394703,2.1235332337220996,-2.8231910675208987,-2.66497508829786,-2.280225792273034,-0.7985576967429959,2.033540510582336
-42.0,-9.220867526186677,-1.1764662416500045,8.044401284536555,5.224960193707086,-8.679215262656028,3.387756061012917,6.043329661776153,-10.448725454826779,-12.141295953160544,-5.87108569657525,1.8591142235187397,0.054565819529210025
-41.0,-4.937598775431562,10.028610743806755,14.96620951923817,-2.588060281741144,-9.92014398018522,12.444409961018962,-13.813258542808905,-4.497983236935222,-0.7940618141402576,2.234100674327765,5.243208248474263,-1.1694816177018577
-40.0,-1.271908711165282,-7.079205687585512,-5.807296976420359,4.138280993262664,2.220298146867542,-6.424064244585745,-2.087858036797094,9.63266407693599,4.026051857101876,6.3806053774116,3.5509591910019362,-3.6805546170563153
-39.0,-0.9878330004674813,0.17039286788095387,1.158225868348405,0.4491748318443718,-1.0421137196333052,0.6786109752256708,3.96808004657863,4.944975567157297,-2.0033730959056637,3.911662210931408,6.180504529606628,0.5657420082112199
-38.0,-4.248899845483675,-4.593195082192099,-0.34429523670833295,4.375961364402199,-2.000046004918169,-2.456215353812583,3.3397866297259253,-0.9728104769851349,-2.824374623417861,-9.635900824033598,-12.146879497243805,-1.185152785339186
-37.0,-3.965877327596477,-11.655564050825271,-7.689686723228672,7.834269284670101,1.8944022258518844,-9.658026795192493,4.223889867816001,-4.821325969510915,2.42410211004592,-4.931104336181105,-7.718645927144367,1.235985877753672
-36.0,17.608159262551666,7.038781541160027,-10.569377721391566,-12.309941667767568,14.124774071162129,-1.7451904045085902,-1.7299079175541578,1.705130304195891,3.4233684105408404,6.8183304876351505,4.823977716963583,3.497881841199966
-35.0,5.3198097866536,10.863976390650224,5.544166603996642,-8.085113097027588,-0.14957907479565247,8.152984418030304,3.596204476814544,-0.0831779887095428,4.574786347395561,12.927134838760532,13.29766420451034,3.0544017806481416
-34.0,-8.83230025171154,-7.354114951519797,1.4781853001917096,8.098425288607883,-5.107884737066492,-2.902472170165904,-1.2077621033947268,0.34627449762732715,-1.9509116195013005,-2.3240116241232807,-4.373139284100892,-5.795662962812844
-33.0,-4.068838826710538,-3.983137038314588,0.0857017883958946,4.03502322103994,-2.1038461518424167,-1.985257466694804,-4.689418330113378,-0.8874404568830064,-3.201139357025172,-13.528021830049308,-10.189915840315408,-8.141823716904142
-32.0,-0.5330787109141912,8.407796097564063,8.940874808478203,-3.9204436211816054,-4.761802545939018,8.642905855785084,-7.460568591799288,0.7504295945852211,-6.196077238692474,-9.685207937515143,-4.058390355934954,5.868497395802101
-31.0,0.8258862554778452,7.097952952638115,6.272066697160227,-4.013914447384693,-2.750413358081935,6.736223947720554,-0.09397561967253809,-0.6939323743005288,8.77763842719805,6.235888898833012,6.668054694946594,11.582888438457516
-30.0,2.086705019317457,-4.816264488044585,-6.902969507362055,1.3225647056640495,4.539434189855939,-5.883698661860636,5.166154722024157,-0.8678715916414024,-1.2038879135114695,3.714187988331078,1.9454185622590408,-0.9834527033853071
-29.0,5.012251754124918,-0.25848358627619916,-5.270735340401101,-2.3319981332293294,5.175908869787905,-2.7064529729604976,10.985034656263455,7.6638524484454775,0.1302719277533334,10.052741379828399,2.491374752507039,-7.673109998818482
-28.0,-9.23798385833281,-9.305456876587478,-0.06747301825462682,9.32287569064356,-4.641394254966389,-4.70381939239158,2.739334475682871,-2.8105728088020703,2.0165470639436407,7.283876272632112,4.061555158905018,-2.7818903277803155
-27.0,-8.824486756382596,-3.799884486715009,5.024602269667625,6.288573127315929,-6.9132573863041635,0.5970221186934461,-5.2487022800399865,-7.838015981628294,-6.322169490462816,-6.2835591841212635,-1.0391557735878478,-0.005422374108501327
-26.0,5.59776755764006,4.623741094801648,-0.9740264628383666,-5.132660370989251,3.288469612901046,1.809193094691168,-5.997666733035197,-2.58170570118607,-3.490402590755952,-9.23234750998554,-6.3849487952569115,-5.3004296871247085
-25.0,12.740800075645412,3.4955970560810163,-9.245203019564366,-8.14044916533785,10.991253207497069,-2.8937444845083036,-5.063862364269795,1.7795600655730683,0.4406903089919285,-4.078223552471976,-1.0029338055012413,1.5987014767296346
-24.0,2.2189775428592844,-0.10461121016344421,-2.3235887530227446,-1.0025356815064423,2.270634122711774,-1.1601828856959733,-2.5255664156282793,8.517614905425868,11.89278167646114,2.7587118155485086,0.11898636644025196,7.749611540379048
-23.0,-6.254712914648477,3.007181577814673,9.26189449246309,1.5971850403159435,-7.752510878789076,6.102461130116175,3.5580691741732626,2.4973465287548717,-0.8133451406325154,0.1907466112275138,2.641012597280765,8.845105477514464
-22.0,-5.084300214883927,3.1279011404225265,8.212201355306393,0.9496005397624397,-6.6319713092334815,5.631156829961357,4.333739285815119,1.6657004396767856,-3.5548994223214487,2.854679583540042,0.6501804219275011,1.7284013102699225
-21.0,0.554610082477053,-2.259426471556928,-2.8140365540340087,0.9020490262803762,1.7128728281646897,-2.501621922381612,-0.6550137217741758,-2.9875108624953173,-2.048471456402692,4.518811639509438,0.4486807012584426,-7.9345496689196855
-20.0,1.8747684946946235,-1.980491417695826,-3.8552599123904128,0.025462689869495625,2.8262949687911454,-2.8846201198497963,5.3392244992575595,-5.145655442794802,3.9221563493496334,2.9575290352824455,2.413824913053984,-5.871861392108846
-19.0,10.108116339913881,-1.9362643084495827,-12.044380648363424,-4.109309800801851,11.046198981377614,-6.956459844533188,-1.7370712882413826,-10.97518783334636,-12.01885115149613,-12.170012424867835,-9.13696787282999,-9.286374786876845
-18.0,-16.292821719757978,-10.858423199766795,5.434398519991198,13.636574675681246,-10.888605981447231,-2.7553669758099724,3.6440104908547686,8.689161753795352,5.8251095236009665,-0.870659192665654,-1.78765040290456,-3.3391095924860266
-17.0,4.037672137288716,2.6523132800881815,-1.3853588572005653,-3.357153153015699,2.767210816685959,0.5906946684739407,-5.3248432970059785,3.4219193669588135,0.9004429872036781,-0.4104236619388266,0.8585733595646693,6.482035994408323
-16.0,-0.07119085494307931,2.8807325912336825,2.951923446176708,-1.4132026026282394,-1.5345286261322306,2.950645770344986,-1.2334097448765284,-1.4507748062628867,-0.19357404203809003,-0.4949311594894697,4.329412062257082,8.725062973313534
-15.0,3.2346861329848977,10.787441362631876,7.552755229646915,-7.019441290253852,-2.103887499174444,9.12178810851368,-4.432846986617953,1.7391579114865519,2.1335834911236775,7.501677169728423,10.502605372970125,9.16210711505612
-14.0,-1.2283122127144848,14.380990778204765,15.60930299091917,-6.589205745368516,-8.44337785096008,15.02066261207548,-0.5171487663998375,4.136116576639354,5.665343961392969,11.02856471101066,6.4028281537870395,9.185657711870734
-13.0,1.0432931729682904,7.918980198571257,6.875687025602884,-4.502566790880849,-2.9425618612347737,7.418557936040484,-1.266554952953594,-8.637686422118836,-1.2033002158651604,5.44909110226398,-4.392958422258573,-4.36488229288586
-12.0,-2.4013642249254685,-20.06120000485579,-17.65983577993037,11.277703938233023,7.678072344810273,-18.84168775779377,12.57865219833419,-2.3705409124198384,-5.944898097596169,-7.7439620250209575,-11.724180458914951,-12.780589627707085
-11.0,9.32057008359621,-24.23300420808687,-33.55357429168306,7.413096881718706,21.401200215146293,-28.87473309323945,-0.16669772173748498,8.122130327760445,-4.097127388591916,-18.389747895490437,-16.971343974644384,-15.46870024376539
-10.0,-5.926996190573605,-18.01415760225344,-12.087161411679759,11.997812398960644,3.0360708532415464,-15.109847570248688,-0.24450383239293205,9.375917687394448,9.694785675442883,-1.3315908465110056,1.2298827740709992,-0.10819075572443815
-9.0,-7.516344968226783,16.9807375185895,24.497082486816343,-4.709599824714939,-15.980967937014995,20.759396443595616,-8.104432316741239,-8.887729084075492,-0.7207638092324946,5.091973249659594,14.629596460003626,-0.48378548482975914
-8.0,2.6909960017241303,28.083656903019985,25.392660901295933,-15.365590586574143,-11.332831541348463,26.758371590894896,-3.8150297500829793,-4.073039672217258,-3.291907319835767,6.654780231856679,18.102755775596485,19.88594509450734
-7.0,8.950580943237043,11.391945912104879,2.4413649688677737,-10.226507852989954,3.2682481962814283,6.856358929576356,-0.73759995632353,4.784791958207779,2.2661522044879674,-1.8852166277272495,-1.303410698613792,0.8041381100950744
-6.0,5.328494869822016,-5.501878739024525,-10.830373608846665,0.11292620449942437,8.093498810360611,-8.150227595394169,3.23280396069498,1.7250246326981893,-0.44674414401557905,-1.2588802186648929,-10.593954032645001,-1.2126627629453477
-5.0,-14.487259236566741,-20.399732750866136,-5.912473514299531,17.393270573601292,-4.346659793497141,-13.142240364835963,11.504795444593961,-4.087839420182073,-6.26000481988002,-4.231835900740904,-13.261746548741593,-10.290814276268875
-4.0,-8.346443563278282,-13.638636367614646,-5.292192804336376,11.022337934799321,-1.498241046672728,-9.451824378879644,-3.7835684576846784,-9.287931604594224,-8.961707741479751,-5.533799079126105,-11.51766791506148,0.6835077379833816
-3.0,1.0444645507956007,-4.475856090562289,-5.5203206413578165,1.7460699348025681,3.322728755084302,-4.9825237716405155,-3.0276587158661172,-11.123957637985145,-4.725912737493015,2.4330169130581245,2.189812741185566,-0.26886217004383006
-2.0,17.420215783339025,27.774705283212647,10.354489499873548,-22.645062512022285,3.505602471333782,19.08380887098602,2.5343896771207888,16.646181740319967,17.98813132086179,18.458209317058206,20.3945469450484,9.704407487201609
-1.0,-1.9413201721433158,16.912356431230386,18.85367660337353,-7.45243913702227,-10.416049546641215,17.827440421567925,-1.0701405351429172,7.785823656047061,11.820840408871364,12.104561437165229,20.564425867569213,8.954044167859745
0.0,-3.291184576788343,-5.846026239142699,-2.554841662354585,4.526541639993762,-0.3818150231188826,-4.174426938844483,-3.539788052946982,7.466036208527963,6.66858591503113,2.9902913613683144,5.530735571515741,-2.1131883494185093
1.0,1.1335117879872256,-6.7029559682335,-7.836467756220893,2.826401219346766,4.472176228127125,-7.321570755746244,-6.376600064629737,-1.0327417315964311,-1.803483240743376,-14.104704507351396,-14.145768831463315,-12.410809218783857
2.0,1.4187631448663645,-8.456023977579031,-9.874787122445337,3.565498102563418,5.710126720615433,-9.139436792598186,3.096264413015818,-7.409224312408528,-11.395307889054354,-18.335127246710584,-18.926895851899747,-6.611400879726117
3.0,-8.053661416527829,-9.549788962631887,-1.496127546103752,8.773491380816228,-3.2990336223896843,-5.498795798075845,5.883580023412976,-23.498413525661107,-21.70359809233317,-13.611016155468395,-11.711212856374697,-3.0828668958857106
4.0,0.18879996833086565,1.3442448226369463,1.155444854306516,-0.7941228808228704,-0.509629379676964,1.2724942710384917,-1.2638967740488365,-6.390967100432048,-11.729218371721412,-4.362578729819742,-2.343626027182988,3.604779197856211
5.0,8.232502792808436,0.496400878715642,-7.736101914092429,-4.394718462890396,8.03036543234261,-3.6762681666678287,-3.3636996088777855,24.317986105328117,9.020513797012613,8.118085303373846,7.410206621824907,5.458362022847662
6.0,-0.05260032306469009,1.0795634871085955,1.1321638101734468,-0.5483329981465044,-0.6312169295183323,1.1294118638261263,-0.2747271857341278,20.143236325886875,21.13505857869492,17.09306501091,7.894739441918834,-0.8303420247050362
7.0,-0.06518988453130725,1.1991701622273414,1.264360046758494,-0.5269716593586082,-0.630266648825407,1.257805617122476,0.325749500983469,7.332271062103918,15.438331966741044,19.107966907747837,11.269230241305074,1.2971609603944003
8.0,-3.321058006669415,-3.616642606284664,-0.29558459961576755,3.508323250399819,-1.5609695710611313,-2.005760172014191,8.055117590598337,1.1923675896610506,14.812378775180182,11.23116307544304,5.352487661236687,1.6251052457717532
9.0,-3.8116218301918945,-0.5975738501239611,3.2140479800671042,2.2480906552762776,-3.483957479855011,1.340064651745859,8.97441088782702,-23.00631033725027,-13.66496679822944,-15.155448175628596,-7.141477813985814,1.1291533890823149
10.0,-10.668782109377375,11.070774307841464,21.73955641721834,-0.2285913493197116,-16.252305844815552,16.438579509546265,-5.897839990232953,-20.33501471430479,-20.82344784244465,-11.884662097607292,1.6182726318131495,5.612256871911884
11.0,6.844286913135537,33.884155876484606,27.039868963349107,-20.38324016213797,-10.061414747203512,30.416774188554477,-10.46427930007672,-11.887306465109841,-12.483860149928669,-4.9419293548011645,7.577729813798041,12.974086533243646
12.0,9.091334671080876,-14.534899998712733,-23.626234669792936,2.708980077542324,16.404655815392502,-19.12685157160101,-5.820953363850985,13.495368675419524,-8.576978473445475,-17.342557314934496,-21.897452506304017,-17.914253915854992
13.0,-5.484800479822494,-42.46828054126557,-36.98348006144238,23.965255621197883,15.728102058115605,-39.69458276515233,5.861339058333927,17.755741305821545,9.33483085191457,-5.7756309595337605,-15.217831098616806,-21.262732143201614
14.0,11.169662850637257,-7.0328021229532744,-18.202464973590263,-2.0833114979639227,14.675925514405613,-12.586328570608845,2.4659639977539394,4.975663641765173,12.458575989444178,13.237761219105035,4.534318601412764,-3.826944446569872
15.0,5.801993502975867,18.04718399020946,12.245190487233586,-11.94660208388768,-3.224215308183606,15.179635870043393,-3.987558725128393,-6.9952730841954,2.9557071428048154,14.802481187455866,20.829848718814546,17.19812059027291
16.0,-8.293606720646292,23.344591760460727,31.638198481106905,-7.476677048494353,-19.96692853350148,27.450554341364352,-2.4692650830024885,-10.830400428172302,-2.320015568368248,11.137189617778143,8.58975607142155,12.790182760480448
17.0,-7.770902567242412,6.432576520447759,14.203479087690122,0.7118864580075179,-10.993343454205275,10.28336067316995,3.2290122668632613,3.5973027069969543,-2.345700349566746,-2.0418371715297567,-2.9208994658413303,3.6000220083245837
18.0,-2.0937194492507416,-23.776630818783442,-21.68291136953266,12.896246122463499,9.777765071964856,-22.67884137846713,3.1529277653474908,7.72555145963082,-2.0232525732717797,-14.793416698350402,-16.854861878174408,-10.041576026142703
19.0,0.9886380820388703,-11.606608107350944,-12.595246189389693,5.348773062056586,6.761708670636915,-12.122294675593357,3.7760485194754665,11.911984530331392,10.049036153638127,-1.8740014750448246,0.5851424216160375,-5.005613230184585
20.0,-4.290367263626106,16.072497315324476,20.362864578950706,-5.928774071626803,-12.290685432394753,18.20152789404552,3.9838941680730597,4.231056244015878,23.878798099921482,22.25092976841824,19.397815495220804,8.381380729091399
21.0,4.281422103544009,25.47546826829143,21.19404616474759,-14.915516187711749,-8.429212163089156,23.322005644424415,-5.556983013632728,-9.159635719641143,3.8649839274029234,10.887429877318363,18.3464256740341,15.504307110457107
22.0,5.9994887440405575,-14.648500194616414,-20.64798893865722,4.364937572677515,13.346957221455867,-17.581054337571903,-4.692606555738603,-5.665290037207001,-19.038917167016123,-17.353883289332508,-15.54779018432685,-10.449968239938947
23.0,-5.825271242674784,-25.979234116360214,-20.153962873686005,15.860668478598095,7.1876822101294735,-23.079477759820247,3.9796307851427555,-12.524906967434786,-35.20606602532402,-34.68449377143059,-33.441373911049595,-22.886123078128975
24.0,0.9982337996225805,-8.922781555223304,-9.92101535484636,3.9950732513578853,5.405832064840221,-9.438721765590412,2.7653932606973655,5.171312769168527,-9.93644113208925,-4.9326761069260705,-6.619736056433652,-7.469181860656613
25.0,11.997268657778886,9.071637861652192,-2.9256307961268186,-10.505667665690535,7.408033507704559,3.0499722152151088,-0.7504611161706195,8.456792091795274,10.245574217502512,12.712171541212722,8.648300382020452,8.645098827467448
26.0,6.22504886137128,17.980708114958016,11.755659253587261,-12.155154330238656,-2.7425492933363587,14.837758804534806,-9.021517587677693,-12.00056001252787,10.281638800428096,12.26218356704784,14.738741250637101,11.82718589009339
27.0,-16.7351910924222,-4.471735355332942,12.263455737090068,10.630092087646984,-14.482145399591609,3.9373010094186327,0.24354748382426816,-6.2308224304785504,5.711113261102566,4.069793671724831,0.1892773298442485,-2.5549851690091128
28.0,-20.67250774959007,-9.523205291731315,11.1493024578594,15.12708862555728,-15.90091936402603,0.849912095586352,2.5207338962996397,-1.327533747469316,3.7421687019603134,-1.6047397016207263,-3.4169681595328223,-2.5553913250470046
29.0,16.06834572414379,17.424983178186544,1.3566374540429758,-16.791828028974415,7.359071677277095,9.347895009757451,-0.8568611707935689,13.994733530246181,15.644456202350383,9.679341897342244,12.563959956574672,12.290126288052644
30.0,12.092535355411792,13.096596147701511,1.0040607922895712,-12.555912940720464,5.542964881347318,7.088938753045564,1.1606945670428916,11.937350737454244,4.622815504926873,7.125498979629661,10.147846677302951,11.890902884692501
31.0,0.05101760414651402,5.712251057921111,5.661233453774267,-2.916894602189807,-2.8074801675716534,5.65243735007436,4.495626904631011,6.278397225022304,0.5488137272716527,1.7679961554914554,2.8164582407466203,2.131128032350577
32.0,-1.1733640497261764,-19.048490574773346,-17.875126525047477,10.07976242741895,8.350986086398095,-18.48865987608007,1.8574313956243458,3.4659820096737723,-9.59684087849837,-6.632305113349713,-8.625166455619134,-15.35806808288826
33.0,-2.3353141530332846,-18.01829573810371,-15.68298158507066,10.227702201168546,6.679386509231181,-16.791392810237262,-2.2109912404053444,-12.653771143343732,-15.024057726794204,-10.948866535895021,-15.687530844423284,-13.533073883798854
34.0,-3.2105340830946294,4.059066954689859,7.269601037784151,-0.4494334424212747,-5.227165620594225,5.650431387823909,-3.8389814400995794,-18.571677976154373,-9.174209680388456,-9.655441702357118,-4.317593081658027,-0.904538056311349
35.0,-0.6624419334807724,10.12874224826131,10.791184181741627,-4.677538051983856,-5.7845543803606265,10.448682495571148,1.3607032967487225,1.3904727925564853,13.744673210859894,6.845015869112659,5.474996975214003,3.4011140511861973
36.0,-4.575894731178255,-6.348554909998379,-1.77266017882042,5.440045539617986,-1.3726630960329027,-4.072793526966709,3.050013183607675,3.1874338048295527,6.889554449489442,3.2118333808651074,-2.6298053119199567,-1.2750665824690017
37.0,-6.93731759407752,-22.400717028078233,-15.463399434000495,14.646094541030877,4.299180012139454,-18.948372966445994,2.7335851293110434,-3.1327487057530665,-15.460374334015913,-15.521674311708859,-14.862324000529869,-8.758905269101913
38.0,-4.246005849140071,-5.860620305198042,-1.6146144560574596,5.027516934783659,-1.352263823216067,-3.6814486375709103,5.886297993369857,7.693586513582398,-8.223775800953863,-2.948876969369512,3.529565018622889,5.085745362747312
39.0,21.638505600045164,28.345399693374826,6.706894093330182,-24.94385218280369,7.43379071337619,17.49671818998145,-5.748075463078404,12.503854920366177,9.268930529040588,14.21192615197346,17.72756199549361,14.583620854478268
40.0,9.411499722199377,29.427362462014514,20.015862739815383,-19.456111062940657,-5.2528476481658135,24.686351654946144,-14.990683885242465,-4.049106474588173,10.49699102441182,12.37381156465451,13.722012172338834,7.948184420052138
41.0,0.8768088550110784,5.514311706485524,4.637502851474524,-3.159492108426319,-1.8309704524372998,5.115796939031975,-10.915276551939915,-8.515804695934982,6.388642489901001,7.956780746106192,4.252304701338014,2.684995203505822
42.0,-4.048511435357635,-14.373028138280437,-10.324516702922942,9.163290697000786,3.105610849086343,-12.309715606189078,1.8949116832345236,-3.4650269604646797,-0.19132243185511477,-7.862244237205762,-9.924113396611983,-4.015382678387881
43.0,-17.66346707963837,-19.14745432026075,-1.4839872406225867,18.433844970886028,-8.128095901757016,-10.353717549279175,17.717721218102863,8.327317375973575,1.256210029526699,-3.3284270879799953,-7.188895841812372,-6.936781580840297
44.0,-11.424452832186002,-15.780715977700314,-4.356263145514541,13.629936017288841,-3.5800881334733385,-10.10306902130644,15.140851325137408,4.4668592122460185,-3.212673870400047,-7.315444772153875,-8.44261171750135,-10.72937294994139
45.0,4.92785772894804,-2.7365821808749367,-7.6644399098232014,-1.0682695927536,6.322076948309578,-5.1521905739331455,4.802195037564026,-4.6264076082880194,-8.817166173982404,-4.203535473813675,-6.593705520683973,-7.391571737242226
46.0,11.151764290184138,15.514250102608955,4.36248581242462,-13.384463205808899,3.417503727129677,9.91200726881375,-0.6389798574207017,-5.490100557262233,-5.844235125941812,3.2827218278364674,9.865042008050718,4.99894498292634
47.0,3.0661796252411335,14.272355591986383,11.206175966745239,-8.721700845662363,-4.044276739387917,12.716403584106832,-8.739692727470418,-4.0179199953846965,0.738621384520517,4.602361532379265,6.856128821838784,9.801821155984722
48.0,5.518862761382554,-6.356200990166152,-11.875063751548613,0.44312202454994143,8.731682503005123,-9.057038808211852,-18.323463539863447,1.0355721587030897,1.4908146547273313,-4.641818174347134,-1.5114574977205244,3.013206695767942
49.0,7.264297833147034,3.0979214541711553,-4.166376378975741,-5.158606173044864,5.684390527003551,-0.5525787024252659,-11.076598275221356,6.63656365709881,4.904288118745152,4.836566780969248,2.9876520135810334,4.5618139498901416
50.0,-10.773095792064172,-6.438379299053576,4.334716493010648,8.627213755489365,-7.57134427989128,-1.0693835749562064,5.247464074185253,3.5965390448568155,5.981482861965517,0.809103731948114,-3.658758571910132,-8.715840357187446
51.0,-1.7753031596988071,-2.1063014068082726,-0.3309982471095738,1.9627029276852674,-0.7295804094512874,-1.236520901828644,9.129892495920018,3.868215471472702,3.203970683713024,-2.3274800257371715,-3.077740154974622,-1.8719034269761172
52.0,-8.85077108476123,0.5074242646959273,9.358195349457112,4.116440509366809,-9.108178522076278,4.9921893673054765,6.598056441303292,-4.181097546155417,-1.516450969140596,2.2310536821414026,2.2623177558823753,4.345542900368873
53.0,-5.963116203874916,-8.29783881086082,-2.334722606985901,7.155988886114694,-1.821172351540334,-5.338284294663028,6.7168065349944905,-9.348244709893489,-10.91348339287355,-7.114507271465802,-5.841202430986737,-1.3379652934894168
54.0,10.158899627349937,13.577286611446368,3.4183869840965775,-11.840985305948124,3.3544254857524747,8.472271505026601,2.287282111761071,1.4507659624358809,0.42930284516912653,4.498539949879453,6.092785607618824,1.6079775494134108
55.0,9.767761960672322,1.950102283286307,-7.817659677385886,-5.90950973462679,8.844215472143716,-2.9634677389751465,-3.7455590203278577,2.4704182636829857,0.8609969825596342,2.344956131436069,0.6459512034815189,-2.5785506563312857
56.0,-6.891222852413743,-7.228260089576281,-0.3370372371624324,7.010481571441876,-3.3147632257854234,-3.7378797606804106,-3.9768146994820075,-0.9737002894441189,-1.3004107339914803,-4.713221046880735,-1.1048809104832258,-6.199902916312624
57.0,-5.299596605683101,4.829879354732084,10.12947596041522,0.26733369463673595,-7.679933423575057,7.520137733877996,-1.6131764270399067,2.1550001311982045,5.416127173665048,5.471505597445757,3.0258973732422865,6.781282463499416
58.0,10.548924071650438,3.5242240948340027,-7.0246999768163985,-6.998261574159189,8.741630316780046,-1.7931426606753218,-7.71773132736389,1.1932065850640081,0.322635562807295,-0.6868175982647409,-2.268354745836956,0.2005233802819637
59.0,1.4104108463308402,-2.82427825380226,-4.234689100133094,0.7538659320592895,2.8601243529232128,-3.4991680611500504,4.24989438119921,3.6456595922212482,0.008131399706254872,-1.3104206330346875,-1.9008342533837483,1.9891789396824198
60.0,-5.706429804385183,-9.198644343186565,-3.4922145388014156,7.430264699208779,-1.0626652195631152,-6.400782505621725,-1.5423053519957624,-4.247056753209477,-2.0941248335724345,-2.189654404053818,-3.1564245210053916,-1.2753174488231662
61.0,-7.316450545611893,-4.5996069696446416,2.71684357596718,5.9430132756046845,-5.0444694885745704,-0.9261158564729015,-0.6259794825009024,-1.2523622499805391,1.9119554329536967,-1.3163168547806172,1.1189907664631518,-1.7235056020518786
62.0,7.1188392630746895,4.4759051933841985,-2.6429340696905417,-5.810711373237071,4.856053099959824,0.923475100002542,3.4122719736535236,1.3732323016555439,-0.3736922770940947,1.6708237875169056,2.49806844811299,-1.3765639798776836
63.0,-3.10221442217769,4.718015395052895,7.820229817230569,-0.8270016782564764,-5.488253893776184,6.26945278027304,3.954207826578078,-1.8988687204627746,-0.7593165240294955,1.6795693004278316,0.47926562263346884,0.7909083888169643
64.0,0.08967284661913205,5.024921649653223,4.935248803034092,-2.589014963972449,-2.4566902266749278,4.977282897340475,1.662174838442234,-0.8600848352074958,-1.213700413448726,0.8854158046015148,3.0340467272067397,2.5777518374440023
65.0,12.448560217545015,8.558846940298876,-3.8897132772461376,-10.47308357037413,8.204973348003058,2.3335395665410177,2.0554188312269877,7.031851753035496,3.5768219618935735,0.056670199141082456,2.517110980149552,3.002295044550101
66.0,-5.9436809078022,-6.533983588899005,-0.5903026810968095,6.253824010954034,-2.648589782417872,-3.5562129522702746,-2.6150843732833065,-2.1960888243096046,-2.3567368076555772,-1.411046190964125,-2.9496663297671244,-3.62346735976024
67.0,-10.62697848045457,-13.313490417903695,-2.6865119374491275,11.974955885084427,-3.945815992060986,-7.983046717489127,-1.8746613848872302,-4.9600557368653515,-2.8068005797046527,0.09771100142565214,-1.2352270748593386,-1.1525462245760532
68.0,0.6089083122408225,0.4848216397078966,-0.12408667253292371,-0.5439718511535974,0.39231701469175306,0.21006215632246494,-3.668121042797637,1.716805147940336,-0.08417758297947031,2.285358457821686,-3.7720872391280134,-1.771130971814718
69.0,-3.0814936648560174,-2.4361180529578186,0.6453756118982086,2.768993455703003,-1.9107979412724159,-0.9329214130017929,-0.18348841116213244,-3.741280758021918,2.2729170112800996,-2.6417472672362257,-4.292372131504269,-0.6145730263141815
70.0,6.156043519539693,5.01756023553464,-1.1384832840050474,-5.562003962184788,3.607463373398427,1.9096472351803189,-3.124522984327639,1.1361952097993853,0.20902149684348004,-1.912692781282217,0.7170447597826772,-1.0210305481769426
71.0,10.008685022614785,8.14916779095548,-1.8595172316592978,-9.11453712765361,5.980282113191944,3.1173198418490022,0.5241459548257278,5.570069048729137,2.765818357450767,-0.44348325020018753,5.433688094375951,0.9398575357504273
72.0,2.2108408350204134,9.700649503561728,7.489808668541292,-5.97343321785063,-2.6667634253248362,8.643682400768066,4.998221684834295,3.997644212560349,1.4663843329760584,2.1130458908786567,5.836317625499634,8.60944211311413
73.0,-5.662452699164882,-3.9831837203993397,1.679268978765505,4.819169913727448,-3.6953561014653333,-1.1101236016830356,0.9135444769652339,-5.566016526612584,-5.1294840653524245,0.8683065600978641,0.15613489424348037,0.552464227186821
74.0,-4.341637752651403,-8.060833028090112,-3.7191952754387523,6.2057967762626465,-0.25642340231739746,-5.935373458505192,2.5603981618392733,-1.6626303605865032,-1.328486347676805,-1.9932904843743604,-3.0030042270115995,-4.067447829895817
75.0,-6.260802953612265,-11.918910818678254,-5.658107865066033,9.096552745176812,-0.3264242394293977,-8.763258746963968,-1.5778831060780902,-1.5230725669328848,-2.1739392232398873,0.926987875729752,-3.9843054850885116,-4.277786906758296
76.0,3.8549678872193764,-2.192043562349699,-6.0470114495691245,-0.8276324387504932,5.002274261094826,-4.178942464178054,-1.8037820747158888,1.3897850700013592,2.7534883889614212,1.8369392241937124,-2.0393536970515442,-1.8660169358274699
77.0,5.049281200676314,6.098717750744154,1.049436550067796,-5.576318026157441,1.9688832151256617,3.591177797222098,-0.5780823962876933,3.7332249990669224,6.435778705088789,0.7201814177759314,0.6729497385126828,-0.48488534588269805
78.0,-3.910775072271466,10.454096100217102,14.364871172488536,-3.2817197878427735,-9.173629420127657,12.428665977959996,-4.117413177078774,-2.806730205970616,-2.5565128306254348,-0.9203010501815476,2.104428828784557,4.4401336244675225
79.0,2.210969376573693,7.662128822258658,5.4511594456849535,-4.875974622216984,-1.5827897748595077,6.581658095481083,1.907815248728832,-0.4741500821011189,1.0603189253048573,2.414028186324477,4.847425640113234,6.902393552611366
80.0,4.678066314778709,-9.300697313091298,-13.978763627870014,2.2853067080310887,9.281379650838508,-11.60699373562165,0.10991436005010774,0.5477235673258201,-3.781651463458043,-1.8286654042866304,-2.3478961622152585,-6.623836017582462
81.0,1.8675395478014387,-5.38924759238502,-7.256787140186464,1.7276527868392872,4.589742755392656,-6.362092551791189,8.198474224106656,2.152691710625561,2.1053653348543557,-0.6138584815485416,0.4404602565201499,-3.855996744842495
82.0,-14.375628513515803,-4.589895796064103,9.785732717451705,9.443442729281085,-12.054350702934077,2.5624822422325435,7.728676538171131,-1.689062602754469,-3.137390560815248,-4.974805045761344,-5.310646117281976,-1.0883329940862985
83.0,-7.458972516547853,0.8405428098483201,8.299515326396188,3.3442581451194826,-7.929182300484483,4.533590511743951,-12.39530316687076,-3.8403527784464746,-3.450093208508744,-3.8548071867926876,-1.60397074944131,2.9111776987567444
84.0,10.396337856115528,10.690395881404594,0.29405802528909897,-10.51035776592105,5.085948582840086,5.52918889418954,-5.585482530005942,1.0020800657830418,4.552003813733383,4.111366802368828,1.775352501772205,5.267094880436322
85.0,7.669508604871232,4.035677276061701,-3.633831328809496,-5.819133031291525,5.694591405774636,0.22979394428450517,-6.763815222494431,1.5951074930659472,-1.7720226117431155,3.5923764672858587,4.189184153300376,0.07197672622878737
86.0,9.535984596597356,-2.563852538536184,-12.09983713513352,-3.529007572204558,10.790078261898877,-7.311712299051864,1.8366876070782951,4.724935200530857,2.9327135471717245,2.624700378621177,1.9400951348742106,-0.13968616950940752
87.0,3.621409440078641,-0.37520462763617757,-3.9966140677148214,-1.6628767052384927,3.7867725431490062,-2.173327184751353,8.236826633918389,1.6129713128033016,3.363743104210841,3.9397958605535406,2.1236099790723735,1.897121828569066
88.0,-16.341614443196736,-4.738881074466229,11.602733368730476,10.582144541595392,-13.992642552486167,3.360693206226444,6.101919531631547,-7.345244827110169,0.5166498813760971,1.0358404533798344,0.8416015018981843,-4.214109928189481
89.0,-12.83687745854964,-8.831125939069574,4.005751519480032,10.799180176171372,-8.443799596490294,-2.406868544225895,1.6550778502130203,0.5550385648314728,-2.921385668692145,-1.6258329583157227,-4.467179479688254,-8.010692572360933
90.0,-0.9621520345444505,-5.965656471426116,-5.003504436881716,3.50884109767075,2.0725353972249874,-5.476477934081396,2.1887182544077275,-0.163234336190498,-1.982581968321442,-6.430757345251596,-7.4032315733743355,-2.8619012431539095
91.0,8.3566943571452,8.791029499782965,0.43433514263773465,-8.607487882581118,3.9295006614151964,4.62728611097372,-6.688364060230611,-1.7042232574284943,-3.150419981428117,-9.739029875454243,-2.713600755629877,1.1143191657470994
92.0,12.460398177202897,11.271119614744675,-1.1892785624582145,-11.820967437747123,6.868353149328969,5.065769630124789,-8.671768238419055,0.27343406985796326,-2.397454594197503,-3.992680519717411,1.6937277138873648,8.852135023678215
93.0,2.2098972859805572,-3.762623619951501,-5.9725209059320115,0.7418017268460204,4.132920341103619,-4.908906071649726,1.4539842296348366,7.383510032713231,4.867289773504261,11.739090382676798,9.098702121263187,7.990369865165514
94.0,-2.739692587444928,2.862608543615338,5.602301131060331,-0.09674345491614345,-4.208675944109399,4.2825063240728545,0.4962576766755241,-1.688128732947468,2.909818092041462,5.902231599214349,0.2732845734564675,-2.0817277674404204
95.0,-2.897561225217938,0.12623101084410016,3.023792236062099,1.428307170045451,-2.998871971344204,1.556466600004526,7.27349981138921,2.7098731806971776,3.7618434609614715,7.0169100998025264,3.4730838296571735,2.2204170775337193
96.0,-13.110674097153785,-3.565095582648115,9.54557851450571,8.379451071195096,-11.367299155162035,2.9773237063621254,2.8408794422825876,-4.8597958298871315,-0.5392226239437883,-4.56975222667757,-3.9390881649104843,-5.399517053149237
97.0,0.10748246978607146,1.6904835536381597,1.5830010838520991,-0.9378259264695386,-0.6992193285477337,1.6241636792770988,-2.659763512501674,-3.3611022575728873,-4.817884867855815,-5.436942232757516,-1.2268308933820404,-6.044576906029778
98.0,-1.2721719045510644,-11.201179547603822,-9.929007643052763,6.1952427005863635,4.3670751011063755,-10.581702367607077,-2.173242678412822,-4.264268606198241,-8.286123228303502,-3.477294234495311,-2.669391747738477,-4.837534511846677
99.0,18.756647481830928,11.386388662284766,-7.370258819546184,-15.03783738829658,13.025947018095156,1.9854059703304534,-8.127362724423673,1.8196785963203919,5.2387467895068625,4.352606860303948,2.0539962416746502,4.915105727619422
100.0,1.3867563968631815,2.6397576693462956,1.2530012724831083,-1.9839897274578728,0.1138397539171514,1.9972770371554096,2.169465490229725,5.301235644251432,3.0926618342141525,0.0636763763104921,-0.4440813472188471,1.7352393217504685
101.0,-0.0834122571216791,-6.235801137997269,-6.152388880875574,3.105537779892983,3.0111775551455615,-6.145331653775687,1.8244649798527581,2.923018592361203,3.098623483210553,0.29184123669877593,0.7513311023284895,0.8492835975528532
102.0,-2.2983889998542573,-3.471497569106521,-1.1731085692522287,2.9056147307809477,-0.5760245277742451,-2.3507587536454917,3.8001575915778596,2.9580383530251235,1.0624463563193163,-0.9362075018037785,-1.9293253965007222,-0.25645209154677584
103.0,-11.50438277921661,-2.9832123278627227,8.521170451353907,7.261705599496812,-10.016604871798458,2.7445426124696555,6.122364686001467,-3.3219853921571945,-1.037152505932034,-4.205423568402589,1.5075369684132485,1.6861581128542975
104.0,-2.6118603267746225,-3.542492451570898,-0.9306321247962899,3.093976032068759,-0.8370917088377912,-2.2568699567388943,6.216210802045345,2.8939273541581927,-5.074967478156097,-5.058611596765609,-2.103844112371381,-1.9468859993876537
105.0,-5.261877841470478,3.07219118965683,8.334069031127232,1.033509343450905,-6.790784027234337,5.7632233595881175,-7.5583702863965385,-6.796520127599363,-4.279122147353433,-1.9021514009618115,-2.143189030186523,3.360000582954424
106.0,-0.10943344929915808,13.001835505023907,13.11126895432296,-6.426687234708809,-6.60408930926526,13.035262238181774,-8.943154170721874,-5.112694333751175,0.22467142355360292,6.842925331003957,4.421948276313999,3.6206297273169366
107.0,10.110825809908604,8.04163768406071,-2.0691881258479903,-9.053635117862568,6.090523597857722,2.9577130891537045,-6.201158487767666,-2.395213381163908,2.6176401283916935,8.429093969629385,-2.123274456311104,-3.8455427001627904
108.0,7.86531729765492,-0.6727423569563644,-8.538059654611303,-3.5703065867722055,8.192196880549826,-4.644258776320841,2.9523582191769915,5.456208716842818,8.291533835924305,11.737617616379165,5.2174831143776474,-2.9896215636398358
109.0,8.580377308820331,-5.8186989363566415,-14.399076245176918,-1.4306449609784773,11.467326469601128,-10.079598902401571,3.559069834282846,7.4877482487763825,6.474004985199672,-0.6924123327295315,0.07292766121394445,-2.9603584962454463
110.0,4.0201161233203475,-10.509015317339674,-14.529131440659949,3.2754605411600854,9.317208129199113,-12.497383519810434,3.1421784791571707,4.08762372869658,-7.4126751306546055,-12.378757148568923,-1.4829332004990714,-1.3163527038451523
111.0,-11.875280593797743,-10.35257673436469,1.522703859433105,11.067436006082316,-6.747400819025085,-4.395488389003199,5.527945356267699,-2.4309406415041814,-8.474071046496043,-8.931483229929393,3.1620239906593413,2.2328162654277763
112.0,-19.414115405557542,-2.8607764659827266,16.553338939574832,11.170855060145907,-17.96191930173064,6.869280558192699,-0.4401460162341335,-10.485987724805627,-8.007762958103502,-4.993353771228175,-3.55027618920942,4.8846113766966095
113.0,-9.131386095664817,0.40648289671691157,9.537868992381755,4.3192844492221,-9.316218207972371,4.924071156700819,2.805014488793476,-0.6816704641605371,8.490366085836836,-1.0735671504648265,-10.165626513305119,-2.6109344419410134
114.0,18.031019461003453,17.942722184429215,-0.08829727657419362,-17.94714057881033,9.080053130108572,8.966425742481032,-7.011501723947751,2.5666469010095354,8.370131882807666,4.871618655126891,-1.6383745662224518,-1.158810133406145
115.0,11.777611826376205,18.41368899872797,6.6360771723518255,-15.049600524517434,2.5187713391922912,12.491413220509651,-5.964664985754597,5.418968814718103,3.7003041786228277,9.301286582837497,9.740925537049256,6.043627848674091
116.0,2.638261084119204,4.549680616283522,1.9114195321643594,-3.6189992963079005,0.3989383554081165,3.198240905254437,-1.0786211413844695,0.18453260839629237,-2.3495799469448118,1.9040807080349733,3.857121908877128,1.7362775874033973
117.0,-3.112911165809294,-14.465014978746268,-11.352103812936946,8.771402064727473,4.08515917829402,-12.866414421331651,1.8704910050224421,-0.6709065436630797,-10.121630958914665,-0.6949809439363479,1.8844188986748898,-3.669493578580844
118.0,-8.033407088728312,-17.12168913882848,-9.08828205010015,12.565681686117403,0.578416448490862,-13.149915746513743,7.582534118410249,-2.299815696284275,-3.845721657118538,-0.6944911023702204,3.059184216440966,-3.991662056698961
119.0,-4.491996251997781,-7.887489730904964,-3.395493478907188,6.180968130850861,-0.572903523295395,-5.617210167775347,3.2278724209244762,-2.848288775463775,5.107539303173163,1.0569394510596943,-2.940257422491838,-1.3012380693335057
120.0,2.441525595025755,-5.242048238742708,-7.683573833768481,1.3922187958879815,5.037149829036698,-6.44611779420321,-7.782528117448754,1.3908194988446712,2.6053385054775453,-6.228819680737775,-15.942619866024891,-3.2591953720302484
121.0,-3.3069252757289425,10.724024850906183,14.030950126635098,-3.7171694076377446,-8.698113075868479,12.390971851471898,3.657103510944901,0.0727160209045814,5.673866796956245,4.116384573568737,3.8903804304713736,4.610742280206665
122.0,-1.3012780537259006,14.647043680774754,15.948321734500631,-6.60349170357837,-8.580383344240992,15.31331701389946,2.0364827614501606,3.5694144180600156,-1.3668737039489987,-1.1287401916737805,6.351560453308927,4.46942819514174
123.0,8.704465414101078,2.4558219113435484,-6.248643502757542,-5.589888559901795,7.5161820152920145,-1.9526093303556085,-7.900955430768235,-1.0227353648568969,-2.0005766523306905,-3.6434317770696834,1.9832795475463456,-1.720018192880921
124.0,8.200048233443445,0.10950543725580264,-8.090542796187638,-4.164978462343471,8.102887278583019,-3.95803849905595,0.8403972555189974,1.5923894211652063,-2.0622957182372907,-0.3737445911857127,-0.9485211979707557,-2.2698329841320697
125.0,1.819202209517103,-1.3611648465340829,-3.180367056051185,-0.24081661472713356,2.5344960778629666,-2.3063642212726743,4.158804902821719,0.10974883829055293,0.16673798471953494,4.663061302816582,1.7914742781202406,2.4021631001900454
126.0,-11.73193679806237,-6.369579616452855,5.362357181609498,9.035199564443813,-8.591844242383988,-0.45121615167461204,-3.4083508199063304,-5.707036151290084,-3.747205504463719,-3.037263431743727,-3.565407766709964,-2.7800643330537307
127.0,-5.72200371570947,-2.6526246641757174,3.0693790515337245,4.165496295730954,-4.362348972682073,0.1882120241798093,0.0340431865469997,-3.4455484417480813,-2.0058452177871775,-1.4081630933416436,1.0947548331678698,4.43778946002829
128.0,3.2456544263394633,2.1996687808149176,-1.0459856455245686,-2.6738863662331838,2.0988339834996874,0.5590220737091107,2.341274056703866,1.9757979452017245,2.797949071465526,-0.4046521533166132,1.5157604202341184,-0.420734061952888
129.0,4.75685869544292,-5.196322140008929,-9.953180835451867,0.18100052548741796,7.3840743670067575,-7.593903350195336,-0.26395728704186716,6.935124097241727,0.39904441490603526,-0.19281980004944077,-4.32764475394181,-5.973517491408338
130.0,0.351984544501152,-1.3282156095855275,-1.6802001540866898,0.5202437801207467,1.041646009020471,-1.4486044503217639,3.670777855150035,2.369509955276433,8.086778799999427,6.6061841453633425,-0.053806426255393225,2.312764166258754
131.0,-4.677541351414095,-0.3038204005031444,4.373720950910959,2.5168968340903417,-4.582383524064933,2.006663517916095,0.8327758782378776,-0.9167427074881129,2.2364006267495364,5.534541382374838,5.848866624437629,-1.1696663981342286
132.0,-5.463954938074899,0.9873109867725077,6.4512659248474415,2.18233649596305,-5.9384367630649235,3.686247293467906,-2.192046789300591,-0.5264044371024629,-3.83532992051898,-1.1923026547039302,-0.08388594036809716,0.17982805582906822
133.0,4.997122956903311,10.16106762406415,5.163944667160891,-7.55743863371177,-0.06587139276372578,7.704922611219798,-4.45294335042166,-1.8135205089942663,-4.390353388384073,-6.718863368307102,-2.820603919388466,2.7527694905355324
134.0,8.793346997258222,12.151846814395222,3.358499817137042,-10.450189999101628,2.7343613018723194,7.796073786136946,-2.7955567655216855,-6.960586092636204,-2.873180176006486,-4.083285142718228,1.1229276794039256,4.5936623452509515
135.0,5.560446447815933,6.7466185699200345,1.1861721221041233,-6.207856302635141,2.2037146619659294,3.928351912518562,-0.6435533695689653,-0.34149876688423664,0.46136786060591417,-1.9681085181986773,-1.6933100106741477,-2.2894869039936707
136.0,-6.03450799708914,-17.34936033325554,-11.31485233616642,11.719131851313112,2.576803467549853,-14.369896329048618,5.3199983524272785,3.4592190267946044,0.6302472516395137,3.966744581986447,2.419872748183976,-0.010768112615937353
137.0,-5.72745870672307,-21.194862409990456,-15.467403703267419,13.491487687788911,4.882537370731545,-18.29022290408853,5.485348674631211,2.3782158212943525,-0.4603751465151511,-5.025990052319232,-6.30898338110131,-5.148642182091441
138.0,-1.347376098446595,-0.767466673410004,0.5799094250365684,1.012180891851239,-0.9555166392396952,-0.1321700269699413,-0.4435640553543556,5.443808271364102,3.4709267448386285,4.9267373402980965,1.0624675855644254,-2.962846839824187
139.0,-10.423832188825404,-0.7469470497440303,9.676885139081374,5.6218819214971525,-10.04738604026582,4.504715884008697,-2.390290570598311,-3.121159690903467,1.7771059952402894,4.431984322962879,0.6268128536216264,-0.3120773606401266
140.0,1.5995793649736627,11.49244963420801,9.892870269234376,-6.585684187418711,-4.147989318953059,10.653816749462846,-6.636068779609782,-4.746349169900554,-3.060881564225805,1.5374254247165524,2.5218696528678897,2.8822731348204234
141.0,3.199415611871129,5.659562368674544,2.4601467568034874,-4.388329261784672,0.3665065139301604,4.101487769990972,0.3272984776696535,-2.264033591769186,-3.440347361590982,-2.9802443574179507,1.574176620847272,3.334849819910624
142.0,10.633469394984042,5.802563929421725,-4.8309054655622035,-8.254060564573164,7.731100541866972,0.4523510037010663,4.910182646428978,7.531861396943692,4.787995191852408,-1.1235227125006153,1.7063051292105051,2.835387177652091
143.0,13.511329603432923,6.578492826639023,-6.93283677679379,-10.001135707249507,10.227304272690322,-0.126681201192276,-2.0857280807723733,0.8478336429554119,2.464426365840627,1.4917329205701098,0.6004267822339928,2.76513030565253
144.0,-0.7558650463345042,1.5280311858521471,2.283896232186713,-0.42033996164735576,-1.5047218144942285,1.8835558207515049,2.0511296783177664,-3.455560083746188,2.2996458098905004,-0.6567486223583221,-5.522739574171833,-4.702512169043237
145.0,-10.008876082216407,0.8294523618872605,10.83832844410367,4.555983943713507,-10.396492133449613,5.816742813258829,2.6128071542285527,-0.9894961982917228,-1.7175880613705945,-3.87323248889597,0.12235215095467389,-2.1115093580690907
146.0,-14.628776269860158,-15.030839113513045,-0.40206284365294565,14.875280832225009,-7.1531691023933615,-7.729968836730425,-0.5349682542458915,-2.2715146194275833,-8.643036247921506,-0.514765519449335,3.2283367404033934,-0.3703062436617177
147.0,-6.612034003942653,-15.076542011239253,-8.464508007296658,10.89006912204583,0.8961324943204172,-11.782571168719162,-4.856497357308143,0.9744300937988524,-3.9865953399505094,-1.2030187012184075,-0.19851155782510166,-1.7063981598972382
148.0,8.66673707759372,-0.7960269805571594,-9.462764058150904,-3.968411911842022,9.040916678614536,-5.063351443189118,-3.644617418968834,-1.261820759612737,4.722118804579434,5.4082393107447695,-0.11246541634495802,-0.9848846089953076
149.0,7.200460381464858,6.958937591945102,-0.2415227895197316,-7.113464675898512,3.778220838133083,3.3436209038308773,4.43210511863157,1.512993637296354,6.110366159001096,3.3644815232015812,-1.1939263554653308,5.147069968102165
150.0,-1.0416507388033027,1.6903641969929577,2.732014935796343,-0.35933614090769606,-1.8312309913367424,2.192628998258014,3.8494998163207024,2.8588707341295425,0.8728933000871897,-3.6059573026592684,-2.2218487837501244,-1.5205234844017959
151.0,4.20819486382584,7.0539114451452445,2.8457165813195036,-5.588456257112279,0.6528183797481457,4.927468082656164,1.9146971185574588,5.3479444917618215,1.0314728237770017,-2.847418369744172,-8.133542745876404,-4.98026223288557
152.0,0.8234588228207391,7.486558757673732,6.663099934853071,-4.1128726336714,-2.9564936257949888,7.049242131664313,-2.087104193058771,0.7954818414141374,-0.4525728712613617,-3.1536325752975354,0.6633369213224212,3.7569867853256653
153.0,1.4214305419797397,11.921797248999532,10.50036670701983,-6.707647984056722,-4.585983123286085,11.26220390572766,-0.14785774806029467,-3.551737140038836,-0.8787235236818688,8.452742540514455,13.72182226536583,6.098262466224616
154.0,-1.9148947364976474,-8.974791410480986,-7.059896673983339,5.4889227588923655,2.5955528919282975,-7.967000687018874,-8.882275848989629,-9.319833592996615,-5.564372730734941,3.5059563480917193,10.387053038903577,-0.047656398615270046
155.0,-3.494080382040899,-7.1575758960885185,-3.663495514047613,5.292678331825419,0.10185376336213292,-5.439177357627105,-1.9902306549078537,-2.221880827079164,-1.5286519524542799,1.0759000837580384,0.9306465149959706,-2.710227803174941
156.0,-9.252669087540527,-7.016645665379548,2.2360234221610256,8.10269980446406,-5.727860729837873,-2.419836886094525,5.485848056884187,2.0077382715441274,2.88577349724458,-8.268006429695609,-10.958331488299843,-1.524505896248556
157.0,6.715476573125322,-3.8714661941850714,-10.586942767310312,-1.4530252591215937,8.672592875429121,-7.261233152678052,2.1081449057905957,4.721698588494365,-0.4740308613487474,-9.830214330808232,-14.163276541739128,-4.398605194613904
158.0,-3.239284704004811,-0.5716107708070826,2.6676739331977943,1.9544645850507876,-2.923349799553492,1.090517893440818,6.712247025870013,2.8221002578209187,2.15082980300984,2.668500000810765,-2.796981908179214,-0.9352860024259704
159.0,3.585053381605544,5.898243171618096,2.3131897900125864,-4.690344937484016,0.5967370048248084,4.064373736695261,1.6361726636849547,3.124582653732928,0.3830535085480107,6.953792613377836,3.9383119390444183,3.7017696234665083
160.0,2.9134966630809798,-1.135688651662857,-4.049185314743834,-0.9129390915535209,3.4489122100375966,-2.5594863615171803,-2.026179248720404,-0.027487551065491056,0.4607351521137737,1.5012025529811837,7.214082775292983,1.4171689000531686
161.0,-2.920248837328573,-4.7440582106196345,-1.8238093732910885,3.812044806750242,-0.5786554680020322,-3.253504217894617,-2.7762314865609543,-5.102859948589511,-3.725462428647186,-2.2384670086973655,1.178306810604976,-4.058518535601458
162.0,6.978502057349584,8.920406048982306,1.9419039916326848,-7.96619680787882,2.563748835257015,5.382754913596898,-7.440340608252114,-1.242801298009378,3.637148173382274,4.1074525981993615,5.361177446859774,4.1924156032959194
163.0,0.5545165404792649,10.432308615607509,9.87779207512823,-5.508402118849939,-4.7008741632211715,10.187187449662462,-3.963397442743795,-2.3040631697517524,0.44598990850096926,1.9043745497051805,1.6225227983858082,3.8206237204629505
164.0,3.3768553121445977,4.801242623960021,1.424387311815412,-4.025816471119176,1.0094220286300852,3.14717264539892,2.319461981731368,3.4889966127440837,4.738349171234418,1.1455066393677407,-0.7686430690726695,-1.5039570242166924
165.0,-12.425769424454593,-17.619918135360294,-5.19414871090571,15.004350209934556,-3.587023384683811,-11.450428373508466,7.191872882102347,1.459867807828506,-3.7322360299543513,-5.971224765194755,-8.815171600830553,-5.3780812119336945
166.0,-8.005874247144618,-9.180730639904443,-1.1748563927598146,8.569694270740307,-3.388195511573165,-5.22248631232774,6.424982027118918,-1.1598227313787843,-5.157680039862374,-2.2303043013053387,-2.399200967727756,0.020939064741671398
167.0,7.730965277226016,7.552660304849068,-0.1783049723769432,-7.6719688109316495,3.904154736571752,3.717766551181943,-2.1871650767607056,1.6197461866753295,0.21139287421115194,-0.08041426142231867,2.653187928061805,3.1290269140614426
168.0,4.899664032726581,11.608041448906784,6.7083774161802125,-8.21231736438141,-0.8740950471366138,9.184566300298094,-5.1844356397179405,-0.868689680649204,1.8050331850457413,3.9294491357412973,7.202534573085225,4.799248406149796
169.0,-0.4365674413436871,-4.712649939772684,-4.276082498428969,2.6094118619605133,1.8730228167527527,-4.549583457863177,-1.8923154333258516,-2.208712345289282,-1.7214578738531152,-3.2068269013204014,-4.1715593419137456,-5.336566659714406
170.0,-4.619707483426323,-9.908655157956321,-5.2889476745299895,7.214295626474248,0.28906834485970156,-7.5746511074285365,1.3496508166255745,-0.9152214581620338,-1.007687817373119,-2.6163676563778857,-3.5682890980456987,-2.8955459140811706
171.0,4.657465793825336,2.8145288366827956,-1.842936957142506,-3.712240961775622,3.2847589868581295,0.5149688977295832,0.3895975456507357,4.4652883663310154,4.478140262191886,3.6018737064339543,2.9564398476625344,2.699697243772026
172.0,2.2353887439994136,2.135677437522325,-0.09971130647705151,-2.1662242691308227,1.2048361942351118,1.055889279817789,0.9706441552619988,0.5446420682102315,2.1753753954021176,3.754357747521288,2.5240839562054314,0.08772325640920364
173.0,-0.5107970715903839,-0.35834276863592374,0.15245430295445428,0.37131168529584224,-0.2895991988421782,-0.1336280616733483,-9.39103431754541,-5.804838307733771,-2.6628679830373008,-2.4482324055370723,-5.322828603254026,-3.9034578126026753
174.0,3.614934682946342,12.068775722577797,8.453841039631378,-7.829207644203616,-2.4500269752347474,10.239130036758414,4.2888753695138835,2.5960464698189587,3.225216660142464,4.878355800197264,8.56283928298461,4.766133036353545
175.0,-6.789121115748218,-6.030579657138658,0.7585414586094528,6.4212656415347045,-3.7986401984351357,-2.654033974764869,9.338385454049318,-1.4667182354758819,-4.211400129648213,-3.1746163433300523,-3.0596490432044736,-2.113601705985898
176.0,-7.855039826272108,-9.528508073862666,-1.673468247590661,8.704114709521642,-3.1124754992897112,-5.620464764997491,4.723436249225336,0.5798279659480297,-3.095436302491681,-6.127217883555692,-9.016201704290884,-1.9500997317221467
177.0,-2.184774095822576,-3.3535556418020036,-1.1687815459794857,2.784567414729254,-0.45224855431311495,-2.208495025886923,-0.3230397861812777,3.7236844841724075,3.7376404431394237,-0.5354334651179773,0.8236341011445787,4.1368288877434045
178.0,11.818668239870231,5.368054509796396,-6.450613730073799,-8.573573312840793,9.105296038099278,-0.5771924778005255,-9.87679351037983,2.1597306679808757,1.2212430463088166,-0.026733180618513153,0.7387092539620499,-0.6223153659611715
179.0,3.436509532363206,4.390874082140006,0.9543645497769231,-3.9683275099801496,1.2012161949028406,2.704904923240111,-6.702724124013384,-4.718510867904145,-1.2474093781718119,4.4206049881177485,2.9494223901947345,1.5496412611845818
180.0,1.8177244661225829,4.759939396607405,2.942214930485018,-3.261841215909789,-0.5359202836540884,3.8744093085326097,1.181189468343573,-1.5502448228538477,-4.172086514945535,0.046434435940139185,7.620292376362153,1.45317013722378
181.0,1.810098350397268,8.514385205741979,6.704286855344873,-5.213401319427237,-2.4326745435544477,7.5480975070442815,-0.10445112928454153,2.279510490659291,5.625018826524897,6.9806305001449065,6.054894560154517,1.3510284673579038
182.0,-9.729151651779558,-13.694466745423675,-3.9653150936440382,11.737703692178545,-2.876286817439461,-8.814542892446102,3.0524805580943744,-2.257794907670986,-1.2690141979384326,-2.5845897556231034,-5.20510785117584,-3.530100521148568
183.0,-2.8284382102327505,2.6994300320788485,5.527868242311553,0.08700929703464322,-4.176785092063392,4.130032038498076,4.661353956896969,-0.6641661406033665,2.333638314457613,-3.1809890772547993,-4.74522634236701,2.192065545091495
184.0,1.2609340913087048,-14.032320985246152,-15.293255076555038,6.403920314453356,8.278719674428455,-14.643406155840967,3.0918009329416734,2.3826141536218195,-2.948846718231488,-3.4515946519893306,-12.26291989506344,-8.913816676738339
185.0,-11.205364942109743,-9.82088734715414,1.3844775949552846,10.526883815883679,-6.2897737958909525,-4.195457136336945,5.033279026921263,4.888878482886202,-0.046919804560909606,0.3323578050030025,0.9459316729832796,-3.5846762122694447
186.0,6.2330883736180045,4.974786490061798,-1.25830188355651,-5.6729856602172415,3.7557161703796265,1.8046390827016654,-2.299514314560451,-4.91253053808563,-4.71179370385807,-7.297302992517873,-0.6499188270953591,-4.434910012145499
187.0,14.366421396077342,20.744935691717252,6.378514295639787,-17.54889371701791,3.9296405914556383,13.509116582744808,-9.320888402980357,0.7548127519788963,3.6453795444930543,6.211783259979514,10.031612127536802,12.841075799808879
188.0,5.977620782343337,21.061140796178826,15.083520013835564,-13.513444785695238,-4.535642748037641,18.09875211462936,-5.010682250792891,-1.6229453247411578,6.836895264334884,7.751770700820772,11.149011679971016,10.99668293940261
189.0,2.2858224847836173,-7.403646484743314,-9.6894689695267,2.566917104051205,6.006114344318252,-8.519205213920241,-1.5665979790869056,-3.0241277314596573,-2.2989910467648436,-0.29335678779202023,-2.7747498503721184,-2.5982085346113446
190.0,-12.851360321166714,-9.345731231617915,3.505629089549067,11.111767564955363,-8.160031242244973,-2.8900228716137915,5.638963406884487,4.718738128920155,1.7649574459383486,1.6620432294190635,-2.2494417973925476,1.6578422266846082
191.0,-8.758456584855956,-16.532121156467007,-7.773664571610922,12.666060450757715,-0.4742715706816232,-12.118461219576,6.09620687536372,1.003737722221944,-4.679484371427883,0.12775719206572989,-3.9763105590408325,-3.965983221115823
192.0,-3.9648156363170806,-14.461473760296254,-10.496658123979227,9.242007550617913,3.2054449454314176,-12.518538487030176,0.7041955870605436,-2.168772349748556,-6.096131538691651,-8.87518290852811,-8.876253229131834,-10.97304563860708
193.0,2.6012933686652238,2.110384894965285,-0.4909084737000944,-2.399185253359259,1.565723644145197,0.7736296232656636,-1.0900787939088952,0.22966901254933997,-2.328637143030101,-5.594084471968058,-1.2871838814915781,-4.256077233532205
194.0,3.4045171780551415,20.86419980091309,17.459682622857787,-12.17408582324125,-7.004837652841747,19.126124449469096,1.4739456567457268,2.773468178264149,6.871749252293097,3.1183438322012944,7.39124300436208,6.994176256397044
195.0,4.429532454716359,10.626339997671215,6.196807542954799,-7.566836815057719,-0.9344192407750027,8.451151080039443,-4.688774220212302,-3.326913936848135,0.17584240050509337,-0.11585100748743815,4.925706575597284,6.15362519214327
196.0,5.379865330691631,-4.884977621566476,-10.264842952258128,-0.2079391427295132,7.8575310615154415,-7.5418431710548735,-9.894389365095567,-3.126202707241465,0.37996634434359966,-1.6195743212159361,-7.638911139458527,-6.001189959929816
197.0,2.558002080881902,-6.8508734836614575,-9.408875564543356,2.1866295702653304,6.027101560584068,-8.105304157568824,8.57929022042119,3.46971954962313,6.157456142880218,10.055056029200797,0.4454747303552607,-2.639280718858292
198.0,-0.2617698364302574,-4.960205217192096,-4.698435380761778,2.6544073029222637,2.1917884711928846,-4.892553484784973,4.554473879757052,1.6953372948309735,3.205506360346077,9.530809010598265,1.4940814259994295,2.002621744755987
199.0,-1.3134724983333417,3.441363545506661,4.754836043840079,-1.0935885587616516,-3.053431078461454,4.105512578116834,-0.09809428219861793,2.5577883553182854,0.16529575543390085,1.047478121807456,3.5371254502525487,8.08305322744501
