Time(ms),I,II,III,aVR,aVL,aVF,V1,V2,V3,V4,V5,V6
-200.0,5.110607432364562,-7.909227739623586,-13.01983517198807,1.354366378015086,9.097591825070362,-10.487078982343858,-4.100364283143879,4.2224264373736435,-1.4145151655790484,-8.169809882058868,-16.48342152143611,-10.423351907097576
-199.0,3.594849970853879,0.7049351569501008,-2.889914813903728,-2.119148372933859,3.197146369185668,-1.1198007207052858,5.367090102695064,3.53795596700515,-2.2816163184722447,-5.446820815710503,-5.883526210815286,3.3376910304643763
-198.0,-4.082129860819595,-2.4379320780423965,1.6441977827772027,3.2890175039434393,-2.9054833218166385,-0.4330876194213623,0.4837416744718952,-5.400516688834538,-7.129310868510151,-8.799500751750491,-3.1290240361447874,4.353758039887763
-197.0,-2.6808705680209095,9.23342468069448,11.914295248715355,-3.2465893960034045,-7.258138975433696,10.605688324237304,-0.6238262703588695,-4.281171255905081,-1.20493945149176,6.045122772911977,6.0633589028946275,8.39385062828862
-196.0,4.757062531609298,9.322509017011125,4.565446485401773,-7.007147578392986,0.13699585789051616,6.96645387325357,-1.1722664926342805,-0.4615564200533939,2.9611363203538623,7.101586975116785,7.674059205011494,2.0834851729946307
-195.0,-3.3012317267224205,-11.869978592515118,-8.568746865792757,7.543009579477198,2.595891497175693,-10.2023082315058,0.8566457889815493,1.6260071768761097,3.9525157019220947,2.0515637930259896,-0.19406572213957585,-8.626144309123273
-194.0,4.433873910062223,2.3449753921793812,-2.0888985178829027,-3.4303144734997564,3.221094124914755,0.14452924998455252,-2.286036110030034,4.894697267167118,6.872368675712249,5.750892361052447,4.244384742292745,0.04763295485020613
-193.0,4.700504947148477,4.1321495839376325,-0.5683553632109053,-4.38043196097593,2.668941082480057,1.8016699495193067,-4.105976447834704,5.577729498877185,10.561339806463101,7.375037688894831,5.029561135584992,5.643009708540992
-192.0,-0.14354273197196954,1.139675151935365,1.2832178839072839,-0.546938820095933,-0.683294234434086,1.15728167144299,5.41349183017891,-2.786731581641901,-4.922498392070412,-4.9353239224182985,-2.917807703651314,-0.15182037649811142
-191.0,-5.614137221443317,-1.3675061648002453,4.246631056643039,3.5119784097818627,-4.982874685660635,1.3892913467195065,-3.2854557158501323,-8.429932376556701,-15.767989782095563,-11.777531396666959,-8.134985019299563,-5.919056537505275
-190.0,-0.9513285051544407,-2.430243796238738,-1.478915291084304,1.7030933514760966,0.28751973560504585,-1.924663000880794,-2.005491338254635,-5.733165756452291,-7.86355870059379,-10.302966274521353,-7.646908569743509,-5.373077570927
-189.0,-6.402090944576838,1.121964472962511,7.5240554175393655,2.646197145541917,-6.940507171892303,4.351689219173152,6.98657707140205,8.096994529104613,5.220351920156114,6.7782434436789165,2.0087785742235282,3.21393305780577
-188.0,5.478530925688604,-5.29500099386657,-10.77353191955515,-0.08712810387836323,8.148328550416526,-8.00867134573342,2.6424834834160014,5.437247250188074,4.460049206461818,1.9399452647673825,1.0005421108609573,4.111451080154738
-187.0,1.2869480960260735,-22.612023036168537,-23.898971132194603,10.670872769463282,12.53645851149309,-23.312301008527548,2.2771416849838233,4.287298328242167,6.415664692512298,1.8647741360153933,-1.9978787405059926,2.692293483436802
-186.0,1.6269036553894993,13.43809051622799,11.811186860838486,-7.516324352635698,-5.070024872582688,12.643573411634982,-10.627668499391213,-5.716080753914895,-1.363059281754257,-0.6793053507288751,-3.1463175020349494,0.41457548625244245
-185.0,0.6394703480229549,10.95410349545577,10.314633147432827,-5.849553056039335,-4.893946470125181,10.651725868953786,0.38798728677147576,-3.623262373500474,-2.028366046879828,-1.5075194902442184,4.715429862691227,2.852735381057108
-184.0,1.8027711571860872,10.096515306716007,8.293744149529928,-5.914345683926175,-3.221203569368794,9.212602955860259,0.6957829138330982,-1.7129036683489467,-0.7613043176494649,4.6707781913543425,11.027796017505015,-2.354813267142769
-183.0,-6.377907949937217,5.654725547842532,12.032633497779731,0.32499070094684335,-9.176073983976343,8.783973811258134,5.848287986814876,0.6462818077950236,7.214586333249933,13.053521983179126,14.962041813766561,-2.5536089345358217
-182.0,-2.193727483674463,-3.4419282228817476,-1.2482007392072938,2.863459000870173,-0.434934316530744,-2.323549327409208,1.3415609850910717,2.0683203511818853,-1.5041455540363056,-0.913420047454041,-2.286422984508228,-4.35159364535632
-181.0,2.1568108238620347,-4.900727063987764,-7.057537887849795,1.3392614962058529,4.5780290786413,-5.9548952550721905,-7.0999446802684885,-5.821673822250251,-8.836371646329033,-11.224005805608826,-14.667760185818455,-2.689651411069556
-180.0,3.382812823363928,-7.442871601867061,-10.825684425230966,1.9960110187432694,7.088170742386209,-9.107598598652597,-0.134938029753211,3.4885938008573074,-2.0967043721704828,-6.123897001190375,-12.457127976625577,4.580211356341968
-179.0,5.207581740820987,-2.514034796179577,-7.721616537000514,-1.3033108347759592,6.460312995117247,-5.167941755673907,-1.5656621282390364,6.935206665947693,4.255572440666771,-0.5034399153760587,-2.868160964319772,3.0636015497472995
-178.0,0.01453522298026888,-10.316494778831583,-10.331030001811804,5.194825443035875,5.1765121370373395,-10.372143386730915,-2.731510246531311,-0.2352769742943357,2.669592041163937,-2.208606671700126,2.026253523732735,0.0645850401490966
-177.0,-4.669125848495938,1.8198680042307651,6.488993852726707,1.392591649404557,-5.572862849097302,4.186972507607969,7.494176103098181,-0.8889074156103683,1.1063514231404161,1.0137636847465596,0.48208882682576926,-2.406419056424771
-176.0,0.22508712963344246,10.877049985374548,10.651962855741084,-5.577909486797853,-5.2109796224629825,10.800249930703039,5.291477548142597,-2.8606914306405393,-1.9410330149324118,1.6860094177433322,1.5066815556042368,-2.469746543073903
-175.0,-3.9000713816571535,5.718040974658185,9.618112356315338,-0.9293023196375625,-6.766006271464285,7.707967788887701,-0.8622413154311199,-2.8837320450761075,-3.514949184909351,5.701820891713065,8.063383541005008,1.160075810789095
-174.0,-6.948544703501407,-2.730213108186266,4.218331595315166,4.90410875924912,-5.60366807930996,0.7092398976966319,-4.554269415116743,-0.2819576691465726,1.0648781975776156,4.0235843831840885,8.526479536476856,2.1475605917560574
-173.0,3.5194303340250377,0.9664372674451787,-2.5529930665798353,-2.2526796818610184,3.0799608196909687,-0.8258456683286173,-1.487880888970699,2.0377200808646223,4.45082222745495,4.555087675919389,5.435200459955308,6.20249436672871
-172.0,11.355675100643655,6.194367347378758,-5.161307753264895,-8.784195025775551,8.210042970821304,0.5617226720732007,-7.26700857968752,1.398875724665676,2.520471123176502,-1.7334619189247777,-3.544155956630756,2.0329364611221905
-171.0,-2.814963785966074,-5.538026895991919,-2.7230631100258815,4.163112526704845,-0.025311020351534985,-4.168665105044466,7.9649123249330485,1.3179830253649498,-2.1397462523567325,-7.997353775884278,-8.384074652394482,-3.0019007008276546
-170.0,-8.495083624687947,-16.320397848241345,-7.825314223553451,12.385370473364581,-0.3185579205847735,-12.117872476790835,8.282872368579111,-1.9276474494985385,-5.052563983279728,-10.118175556615052,-13.864857948280527,-8.430231924541108
-169.0,8.499154602508696,4.558972022045536,-3.940182580463236,-6.4851426439915345,6.237304123574572,0.33644923137096683,-3.6650675449532004,-3.124611682444574,-1.9785668294197478,-0.6471737622923621,-3.047767904880745,-4.50650217947121
-168.0,3.2871054585452457,8.413019388643828,5.125913930098518,-5.8984264643474,-0.9746779862764468,6.79297079764447,-6.556648973127231,2.5316472689860143,3.0865758140220976,8.879036399078956,6.668202819049257,-1.7334163786274004
-167.0,-1.8691036762424584,10.176382639485265,12.045486315727697,-4.135009243129259,-6.925593950139825,11.136032979311542,-1.870063025203479,2.360512724692703,3.7044405493880346,10.816643830816357,13.0119010881302,5.535764322394592
-166.0,-2.7856925706729245,0.8512998441395707,3.636992414812511,0.9783031710283361,-3.1716473301320156,2.276159960684968,-0.9239660622014774,-2.381088410619416,-4.5282362129986575,-4.416531541125103,-0.6211954412106273,5.3820173336390384
-165.0,-7.50268672430415,-9.705481004128343,-2.2027942798241416,8.613138179197785,-2.6835764910357494,-5.990424589591434,2.7716845040053677,-0.6680148088583517,-0.14064360049144986,-4.944184653807763,-2.9367867708744355,2.917378441437264
-164.0,-2.74845998371558,-16.394625616351597,-13.646165632635958,9.583577533048484,5.416735667330691,-15.04569330853665,4.9830606065235425,-1.5342174592524709,1.7686489206562506,0.25887499223131627,1.656091052658205,0.5020053776249362
-163.0,11.456292835408089,8.484790902862533,-2.971501932545501,-9.952491960287958,7.1794692956897865,2.7398753405167557,-4.754927427780913,5.105305365152452,9.20507028935198,8.137815407922812,6.021335404129153,3.6895056230125327
-162.0,3.483144036845632,6.020378589175616,2.537234552329994,-4.806262209827091,0.5125170174020264,4.266106701395986,-1.2916956597921279,-0.6949464006478465,-0.6913084406486378,-5.852980255472423,-6.465818387969112,-3.6429617899131244
-161.0,-3.974824596924111,-4.348974543160405,-0.3741499462363076,4.189865502919696,-1.7660619755102078,-2.2964963599718575,6.872527971748891,-2.0948791592737472,-13.644856367055944,-13.65532006831289,-16.245219710160576,-13.326632040988228
-160.0,-2.1158990922098617,6.171447156810073,8.287346249019906,-2.078877120982382,-5.171648378182128,7.210295180465871,1.512877642694467,0.28344767800074466,-9.932234833606403,-10.760735893506924,-10.240065967794274,-2.3925699466184325
-159.0,3.7008298825886006,5.712972326470589,2.0121424438819715,-4.6836230853694,0.7927574077189949,3.8349717774967176,-1.4282893373409107,3.7668874111304587,13.304605193960192,19.128584968391444,15.263581448669083,5.796558022613905
-158.0,-4.255730589112722,2.4848322487647674,6.740562837877494,0.9016190910717921,-5.4727458270090645,4.653972611058347,-4.865026679975755,-0.9394771609698658,13.495001355970842,25.791252036753903,25.75844948962147,14.127740406298306
-157.0,-7.580669068387237,-1.5309371739398956,6.0497318944473415,4.564083089268367,-6.87008881649259,2.212250768985175,-1.3282005794795841,-5.194421549133103,-1.3827647165399375,1.081859292800182,10.136601000770035,-0.02475071327881917
-156.0,-4.1323981281677575,-15.786023894504394,-11.653625766336656,9.960653523014667,3.7825905704550675,-13.696336784118644,2.8490278290155215,-1.8516297274353466,-13.155892458486127,-24.95618870554161,-21.795683138836495,-8.470448634891596
-155.0,6.242426512463467,-7.151246595909732,-13.393673108373244,0.45125448847707084,9.837831250164632,-10.25465198902013,2.7799777342633933,3.4138703132697397,-5.369148203248711,-19.99388227484165,-20.180338320217164,-6.668281471290363
-154.0,19.108310906222297,5.264481308040003,-13.843829598182365,-12.191517854271261,16.493969057707538,-4.274751772931172,-7.020430952761778,-0.26517417166968693,3.7183509202708214,4.490960366448386,-1.9709277956947684,-0.11732552490101789
-153.0,5.804639013489456,12.11296862075213,6.308329607262628,-8.963510553176349,-0.3133041400161911,9.146670121471217,-5.041006192510789,3.6442720943283193,8.083547197900147,20.019569783290592,15.162966689598857,4.154139624931041
-152.0,-8.89830886088971,20.249399903563805,29.147708764453508,-5.678078032634696,-19.004085672388488,24.715624350287985,2.0156026329730947,-3.9649524943817087,5.06978468788442,19.522200393141244,16.913466271103797,9.791313570079431
-151.0,-14.083468207661468,-13.850629114223112,0.23283909343843412,13.967695043777312,-7.134759001553432,-6.787442121679744,8.365139033291204,-1.7950196432498944,-3.715784560601196,-8.865482060005947,-11.517735130094614,-3.65833803459169
-150.0,-7.110366845617698,-24.98688762571717,-17.876520780099384,16.05271384659679,5.4136950178284975,-21.404236585911914,5.213774027796445,0.20439116198150753,-11.611356672314963,-21.735384984971382,-16.269097840611444,-9.176364337793872
-149.0,-1.4338357383834461,3.0502705566599797,4.484106295043469,-0.8010790799676268,-2.9980192713354388,3.722940441071806,1.696720725684104,4.528880847290512,0.8450319461859115,-6.891259266168181,4.353675769887488,3.2587832729413293
-148.0,6.346559562889017,5.511068628132602,-0.8354909347563595,-5.91946600517653,3.5614289008532243,2.3007750894067125,-3.4135379736178035,6.583718926590033,5.577824399175366,1.558582536078366,5.12973850730646,-2.508295033445268
-147.0,7.377620508185605,14.333729664728875,6.956109156543333,-10.845040632957822,0.26807746116695075,10.693034916487743,-3.012377702405815,0.7876855404475434,3.745448299339407,9.115101439775724,2.870225435727264,3.579537994179498
-146.0,9.107451331952696,3.0760324189378236,-6.0314189130148375,-6.159013790106457,7.553557847812981,-1.4253608285509358,-8.235058954680387,-7.524120133863235,-2.0996730229743408,5.773986103272993,1.543023912433242,2.431933494574078
-145.0,2.18243681895418,-3.7630657768824394,-5.945502595836581,0.8032561965521223,4.0503864693339935,-4.880074307322171,-3.742817572748335,-10.924770590301698,-3.0498376466487316,6.503774921740831,1.6095861783766285,1.7103301140240375
-144.0,-12.906977097464333,-3.7554930390913803,9.151484058372992,8.347570025758262,-11.043523435925927,2.6681441187146597,8.618244446039741,5.080161785364058,7.030729035767061,8.163098311554181,3.1019054624149742,5.368081928055309
-143.0,-1.664854413263952,-9.226536993972164,-7.561682580708204,5.468252107783281,2.931488854838432,-8.432833126573255,4.8756868499766615,3.3898899515435055,-2.1034022330058657,-10.544531738658309,-8.728743160901434,-5.030017414565086
-142.0,-9.658566042810978,-0.07159166096781089,9.586974381843147,4.896522087630395,-9.56397951607487,4.785327371585388,0.5076538907837556,-0.36871049254149924,-2.421237015149581,-9.898878378365858,0.35841449888700616,-8.11675799067223
-141.0,5.244214330587179,6.607039666788673,1.3628253362014093,-5.962829008717309,1.9186592525968797,3.9992221079722214,-5.314094929325602,2.0968168103001354,-1.7808657729667157,-0.4414146186875678,6.392336299889613,3.2026395973168382
-140.0,8.011067456981625,-0.36137848074891243,-8.372445937730667,-3.8530678464237806,8.169254139163325,-4.3638075753033085,1.0502907252895146,0.341384698608838,-2.050102851293165,-0.47364916738499163,0.7928035587715749,-4.74957287867096
-139.0,4.3808419006129276,-0.9743152847231429,-5.355157185336187,-1.6472987315448764,4.92508701777791,-3.1679369683566,0.7355521383545458,4.092097613167393,3.314523836379239,3.52338694529897,-6.492869499887434,-0.6782302617290453
-138.0,6.255713283778306,6.363587955266356,0.10787467148800878,-6.3321210780617125,3.0533159621032664,3.2326168316589565,-2.8368047118369963,-1.2136966289945001,0.40291144587860916,-0.6576207091647817,-3.9716977164401572,2.4010295936682664
-137.0,-7.293964265330862,-3.8880166781495586,3.4059475871813607,5.563616998831103,-5.370643925267063,-0.23780042364424614,0.5816888764325663,-3.6701784109337336,-1.8037778342367545,-1.7480514099068452,-4.270053947158059,3.4548453581770815
-136.0,-10.725712656976357,0.9776772547409431,11.703389911717423,4.838088141100712,-11.237445141298917,6.3546187286228735,3.304652100379403,-5.772944881193112,-1.058183026261928,1.4195262335731764,-0.5624844040360734,4.221955860223438
-135.0,-1.0277093643602546,0.803284398962991,1.8309937633233844,0.14559304032297193,-1.3778924686790752,1.3436441408856439,0.9446785090799449,0.6687473665096029,0.6449197302307157,3.0357706082378177,4.986930452260747,3.460360485063502
-134.0,9.579518245864879,-5.826714432136487,-15.406232678001263,-1.8503848523918403,12.459981310359769,-10.658004336976886,-2.7070853442821923,2.8366048196997835,3.673919723449209,5.024513492977161,12.405125006912455,1.9856896806187798
-133.0,-2.847126169129794,-5.30657687162501,-2.459450702495131,4.09956893222353,-0.2317960123546472,-3.918159801954776,-1.162193878878539,4.121531820528634,0.41124869446752255,-0.6950700282978723,4.178945619884126,-7.637836263405018
-132.0,-4.307567149755613,7.498312659003184,11.80587980875886,-1.571601563145711,-8.018605959785171,9.696577109799943,0.48658515092319743,1.6467497336102392,-0.6685136157923353,-1.726403459899974,-1.7531770299285823,-3.523267369686531
-131.0,3.2344297401638507,6.30644052628745,3.0720107861235832,-4.821320520325656,0.12018132223993105,4.650866220811892,-0.6749502690084354,-1.6381208365964253,-0.10824673004453356,-2.4463913671015884,-9.420119555954345,-1.920296932813418
-130.0,2.4216792777170255,0.6909503875330909,-1.7307288901840439,-1.6021763932865127,2.0405799415008676,-0.4866159263272922,3.648042058241347,3.917865082840515,4.2149868621763735,-0.08421834141834905,-1.5501497497502834,5.304540292860837
-129.0,1.8909510916755896,-10.178003049686875,-12.068954141362578,4.180475736051684,7.028802274183355,-11.097720464199703,-0.21430580670744848,-6.25045614160247,-5.036939698812671,-4.000102819491824,-5.4505442821684404,-2.763264964655715
-128.0,-1.6469851594479228,1.1462027725264936,2.7931879319743533,0.28945741269894554,-2.245370976117284,1.9113148370134354,0.21962115202723803,-1.7109618681741967,-2.694701604846534,-1.8603486007281953,-4.251573939640547,-2.7624763010351225
-127.0,0.511573814569293,-0.07713338430646433,-0.5887071988757518,-0.2566242011855917,0.5258044327682959,-0.31404029255068094,-1.837281226489166,-3.3271839449774774,-2.9903760966751527,1.2514860840138256,3.683447576501277,-0.8308198485948424
-126.0,-2.524752355305089,-6.76065777269424,-4.235905417389054,4.602707376377894,0.8272072190834667,-5.476379540184127,-2.7406113010149262,0.12262655756719232,-3.947997165649203,-3.3527248130007576,2.6034922622774626,-1.1072771393270477
-125.0,-1.4282762821281785,10.368202112957043,11.796478395085359,-4.431363432144389,-6.570403273287613,11.111105338014557,3.4386661347306564,7.941036043415558,9.33223684912662,8.447392597932627,11.151925827845318,7.7918775537744
-124.0,2.9320397085582064,9.785068521302259,6.853028812744151,-6.318645449880673,-2.0076146493197213,8.278038030974432,-2.370580497332052,1.8605441506326668,5.232763558448937,6.391395998326036,6.520083572021806,10.469862480031829
-123.0,1.0400713528051342,1.018739463158437,-0.021331889646685198,-1.0653020798466015,0.5534707362206852,0.4665373835007154,-2.7867496977342574,-1.960937899075824,-1.0273488472066679,0.3999615629164195,-4.674082040026596,-0.9755995935739143
-122.0,0.212921367070178,-2.9037090911405,-3.1166304582107647,1.3919968910666982,1.6833131476698682,-2.9569567945138933,-0.5715051047095248,-4.3684296840616295,-1.8164125837707263,-1.981038392134618,-7.3712415738129895,-10.239914938982393
-121.0,-0.32417454406093354,-7.164736600691369,-6.840562056630562,3.715419895419912,3.2788135790089883,-7.025181103137086,4.105334732040715,-1.1947170697588765,-0.3462983833773845,-0.6143712215894244,-3.9430558723552496,-3.245706548997318
-120.0,-3.194147927851586,-12.444545330970447,-9.25039740311894,7.791492241393078,3.056749045075544,-10.871122564537295,1.7596210224604498,0.9597222799741509,-3.924030150884365,-10.570911423229129,-3.103914881098844,-6.385969137616366
-119.0,-1.3153709693041769,-4.5503712432808125,-3.235000273976642,2.903846797260792,0.9213741622869274,-3.8424457725922516,3.8247073380239747,0.5759050299766251,-3.19704208538689,-5.2995223740862265,-2.914899564968861,1.7020048864689459
-118.0,-0.2900136433644803,9.91853354747764,10.208547190842216,-4.767360035131725,-5.275481761540705,10.027519587808186,0.5865547890975311,3.8150179151902393,1.7346324062834373,3.090525020056335,5.73762126761816,10.708801570906473
-117.0,1.958228948392983,6.93274628445013,4.974517336057354,-4.480398549254237,-1.524365713949194,5.987735271800401,-4.633278678497227,-0.7406542861027097,-1.1293336193709957,2.9588373370678864,1.8411075163002923,-0.6300436115239547
-116.0,0.044852389455422914,4.914450413993475,4.8695980245382415,-2.4377743534500187,-2.4225334606472426,4.839356249395568,1.6697881548641371,2.0133019389589473,7.608270471072315,7.408278917562575,-1.9238485493108692,-2.935488879544026
-115.0,0.7835248061943354,0.8679626649807597,0.08443785878646315,-0.7842464263241831,0.4199370692449831,0.49647859685103146,-4.668632624660783,-1.9787493687882398,-0.35084037529282286,-0.7050501910923934,-2.4695961347918933,-3.2386263948682115
-114.0,3.9961822535015594,-9.973443617679113,-13.969625871180817,2.9519430460497675,8.972715506267013,-11.953665440885485,-0.45788174680290084,-3.2094665617793163,-3.3147060907088317,-0.1562501239186318,1.408736814888771,-2.347850195881887
-113.0,0.435301406309631,-6.556053242330401,-6.991354648640241,3.023821641776546,3.6987561661134345,-6.754421404736894,1.2187735418886856,-2.045970657363277,-0.9649451959615407,-1.7399087821747186,8.153606858201005,1.3872759327422979
-112.0,-1.351501794453081,9.840854495243702,11.192356289696635,-4.204082710824954,-6.292213981488278,10.461900132143018,-0.009810585314149689,1.399546618548113,4.785180999402911,5.3806561799325525,12.89190488159119,10.28958048557943
-111.0,1.2239932492389705,14.347546062340836,13.123552813101846,-7.827702113770078,-5.975930956029994,13.766444429176856,-2.810223380020086,-0.3241462967333507,-1.0791936630060646,1.059648064135171,2.0789622486303885,9.80939020980786
-110.0,-7.277921350204792,-4.9910389176156995,2.286882432589147,6.166162590189877,-4.734894120927368,-1.3139335786254525,-0.9196838610354128,-0.5251587086242143,-4.429158805958467,-5.695304752508938,-12.427623136387748,-6.129181569585974
-109.0,-2.6766674207314995,-11.527807580155416,-8.851140159423856,7.050574026725689,3.1308559534196787,-10.224033280554258,6.809815870405247,7.987821004448569,3.713093752438626,-0.49038721967095444,-11.865196108195418,-11.168317553305805
-108.0,4.362285777596083,-4.126144492902193,-8.488430270498258,-0.09273168782734809,6.387364428685595,-6.3379927254725,2.937812535621716,3.262146809859789,-0.5386470275056227,-2.0299576073943024,-6.189851752126144,-7.402781879252897
-107.0,-2.0282237535150696,-0.724221898885927,1.3040018546291332,1.4044377937583366,-1.7065079750600094,0.26079641857273206,1.0724824502790804,-3.1939959795938395,-2.019372199665597,-4.390970372562928,0.43170266131597423,-1.5396771851209285
-106.0,0.7871373351705402,0.8622161759728266,0.07507884080225835,-0.7885557069801413,0.3919370493926817,0.5184452411742795,-3.4053829688776625,-6.556829741469284,-1.9542213802753863,-0.1878575377648588,-1.1949490752787533,5.85848329166215
-105.0,7.370311459780939,4.69767715483795,-2.6726343049429957,-6.064958189568064,4.976026136420331,1.0620380753220515,-5.466270713949218,-8.497775085833167,-8.779777284092454,-4.93800218349106,-2.009873789701458,-0.8660789245648264
-104.0,1.4877973259865782,2.551938536269586,1.064141210283055,-2.0379470027272237,0.24265006243280463,1.778793341351407,-0.1405351158060668,3.383274495273003,7.312295225661425,6.9014638474162,11.24199439794908,7.196146264437989
-103.0,-2.699735332385592,-0.6351688192324296,2.0645665131532507,1.6605970657280817,-2.353299511659856,0.685718203430441,4.75155731009861,6.1916596594284155,11.89016400597259,13.231824583785219,14.37744696872156,3.461892663272562
-102.0,-4.5183767904124625,0.19137656013144122,4.709753350544006,2.163964376158049,-4.586465325000955,2.4215496209850285,-0.42430777563225375,5.176176970704178,3.094414062736152,1.5846285300532186,8.55626907460261,-1.747445018203679
-101.0,-3.8796686882769484,1.5306472636098158,5.410315951886847,1.1773934341677719,-4.696663567223997,3.518991061335774,-1.411079404454587,2.0277630206242927,-3.5179077941808825,0.04692519890661251,-3.670799803998941,1.4920738290485864
-100.0,1.5409172585834976,-0.9825636309459044,-2.523480889529444,-0.278436978956933,1.980800047102492,-1.7078552199889299,-0.40220350487899875,-5.855005398492655,-7.0967353558274535,-8.69732516983078,-14.061558840308884,-3.495317845566829
-99.0,9.622846300998315,0.2682727277704431,-9.354573573228004,-4.95020334684653,9.517445690245605,-4.582858535272078,-3.1920047417636734,-2.350098819198974,-7.211732162836213,-9.508408822153813,-9.420152035621236,-0.8253134048231456
-98.0,-3.1656996823490067,-0.1600555504417962,3.005644131907024,1.6513133094261598,-3.054005492577903,1.3741785804618973,0.40548409668863955,-3.076529177985556,-3.1680387660401887,-5.1682083558149,-10.632796222447745,-5.06760011340724
-97.0,-2.9850713754127804,1.6115020995827132,4.596573474995347,0.746990303244319,-3.75457776927108,3.123515690531761,3.0344515273914303,2.49439898169821,3.8174487594622444,4.387095889920989,6.893223826100647,2.9497925635058055
-96.0,-5.371364407018607,-9.590961914889057,-4.219597507870505,7.456434850776357,-0.6127587567222241,-6.896125595794043,6.929205628635309,5.243278534765931,8.25080150152499,10.936502517973818,11.098600634712986,4.623552675582786
-95.0,2.746296159410301,-1.0207277110905677,-3.76702387050082,-0.8926936900078499,3.225220241397208,-2.3920826142395675,-1.4850317613431803,-0.2873194814278448,8.945028190127093,7.032129260382032,5.37090594348938,-0.9511326426500486
-94.0,4.746563551067938,3.792065221723796,-0.9544983293440028,-4.224782414478167,2.901630731659432,1.4185136413700128,-2.3844135102676622,-1.4007469509978694,-2.4767832484103796,-0.17002905714575345,3.2673521173347924,-8.536656900245482
-93.0,0.7194003619629155,2.180164795467431,1.4607644335046626,-1.4874731671584323,-0.39727551416559526,1.824634582422724,-3.1866195454078134,-2.0314130317986874,-6.9180023638520955,-8.61945666441742,-2.422197568058553,-0.9040166835412045
-92.0,-1.720421375128898,7.247938750195708,8.96836012532471,-2.8037630738982724,-5.372955228544068,8.122834385864907,-4.368372547792896,-4.296162476314048,-11.365580541403256,-10.694066497377639,-9.427101423213495,3.398582982692292
-91.0,-1.3029371089335602,2.8744384231979923,4.177375532131592,-0.7475697697667955,-2.694325761930984,3.5551530120567776,-1.1210158643782553,0.9357511854506777,3.561557984921727,2.22262016916211,-1.736198447300593,7.616092052661094
-90.0,-0.7097837935719118,-0.14867102140567634,0.5611127721661937,0.4690154690492348,-0.673690266578477,0.17229650786394612,0.682436424899449,3.8807545711456717,6.022762011949989,8.766589540584697,0.18897552979704013,6.6885323187613555
-89.0,-0.8605377423248755,-13.339849258481067,-12.479311516156272,7.064751463440878,5.8453730503268595,-12.92993772296661,7.940190547219299,3.2915164973041535,3.297321978429984,1.6302824206776565,3.472210063583727,-3.31622216953905
-88.0,1.6401050606062224,-2.9866515052629854,-4.626756565869316,0.7208556318667072,3.0885240787969854,-3.8175573956987643,2.957147829770978,-1.0302605857196203,1.8317757454420258,-0.8838574299091277,2.3769955009391266,-9.124508996167101
-87.0,4.756955263913417,6.104008330906243,1.3470530669927276,-5.458380564333416,1.7399161236035376,3.719566005954136,1.2964154201225662,-0.6786578218558428,-0.684527951569158,1.7798806787840178,2.259020352235149,-1.3908710804308582
-86.0,-6.672789105063858,-3.3847673883502307,3.2880217167135464,5.001479739993769,-4.941164189568852,-0.053300174736815364,-1.7307690281034274,0.022434084553323963,-4.563983233010123,-4.838775875910199,-2.1031207116167248,-4.672801776414126
-85.0,2.5649705870412123,0.14253711034772376,-2.422433476693523,-1.3839568588816145,2.4605547394293463,-1.06758575113055,-6.9619736258842355,-0.0878555398812585,-3.1350138212053142,0.30845632421222335,4.829877688265477,5.862217358891948
-84.0,2.9661594366793134,9.22620789493464,6.260048458255327,-6.053692290857886,-1.6732669294309666,7.733921313710788,-7.734431504399078,-2.6444024889519957,1.5934025778261258,3.9866679384750947,1.3008720692621485,8.026109234684629
-83.0,-1.3890437665193516,5.970084189715513,7.3591279562349134,-2.255853036221683,-4.39470399726233,6.65174844524511,1.224403108175347,-1.479069874373133,0.3578065854447731,-1.5330285354519733,-7.903623554086113,0.5383322145947984
-82.0,-7.819826732542351,-3.8571694779268397,3.9626572546155794,5.786721664020927,-5.82960626357819,0.035511988517010096,6.08945922519326,-2.9472480466543325,1.1325835470708272,-2.5426825040500503,-8.687194789610363,-7.021292003393859
-81.0,-3.004571938975463,-11.543719218846741,-8.53914727987122,7.295420592364006,2.7510633792992003,-10.063550818673981,7.155922120968865,-0.05549293226144,0.022405833160271227,-7.450433914435338,-7.0873415523344665,-8.34293950933379
-80.0,3.931948876346481,-4.350807787004152,-8.282756663350593,0.22842537294564647,6.089577257398682,-6.3436030607388485,7.669272998129376,7.663670929723592,1.4563019172707516,-3.8392845022107718,-0.7533450812298381,0.4188912811288503
-79.0,10.968498988346173,-0.7003440911514152,-11.668843079497595,-5.191968374760908,11.297483282685189,-6.136109982179773,-2.23127057407929,5.6227227769311,0.9466705588598109,5.132083736414078,10.267064204563805,2.9598072766790877
-78.0,5.69264700666476,14.068993783073985,8.376346776409187,-9.854119293029658,-1.2887901517653049,11.269906524672493,-13.037232710520458,-1.570129395425957,0.6836138294610928,13.59533576087445,19.958191216417653,11.580265305854297
-77.0,-8.410915200285514,7.305047078835652,15.7159622791211,0.5882860588957532,-12.093992809255512,11.480208510443266,-8.051524785677767,-6.585717185910963,-2.6718208240058066,9.279750396737708,9.591130473326992,5.475115882441015
-76.0,-3.593682286731764,3.7779438560341494,7.371626142765854,-0.12620848607658977,-5.439156300706251,5.547589066639451,-1.6573384441833836,-2.5029226160304185,0.09946772987301045,1.1528526420121983,-0.9840818269632037,4.550338121420043
-75.0,-2.678727281916001,-12.924396518867658,-10.245669236951704,7.853466290245183,3.7440157838754153,-11.608435201641141,8.974322872435053,-1.0356357151040738,-1.9943581056473392,-13.689049742873944,-15.957303310545896,-9.261338736728536
-74.0,0.11700465093503709,-15.580826675867083,-15.697831326802156,7.707569327788839,7.864507945322872,-15.58088681182804,8.979170927627527,3.1945924817427658,3.4434017254974947,-11.87022210288703,-17.306016314351226,-16.178016368004876
-73.0,-1.3151033220632193,-5.637250512032773,-4.322147189969571,3.4480502260657193,1.536890434540771,-4.998886493620084,5.825041213282187,1.3486482653491367,2.0468032953481075,-0.9139245077627827,-3.9686458654192798,-6.149443997479088
-72.0,-1.693932320589111,9.846347105609171,11.540279426198286,-4.114092150944765,-6.585138788212316,10.672324638850819,-4.709825748112622,2.304618222791391,-2.061866689561157,3.7613935864816024,7.288891422183312,4.276745882751143
-71.0,6.206901006729734,17.376440983770916,11.169539977041202,-11.764156025828722,-2.449943506000962,14.325607179905091,-8.248429184067701,-1.5771923146021263,-5.489641565473352,0.8034258063667057,2.3010648600596495,8.082837418143342
-70.0,9.636553016749534,13.16020961359179,3.5236565968423,-11.383999752769189,3.0086935242433865,8.307619297414256,-6.749607631918071,-2.37155963581389,-1.7120755776171812,-0.5037642991458613,-0.33688976062240883,7.40117283111759
-69.0,-7.094645628842661,-16.16269026461061,-9.068044635767913,11.634108059903198,0.938144817310512,-12.659742157226564,5.302196398238014,-0.8856577868080533,0.64065742135563,3.237722175585436,1.4086321277135756,1.2825898021448214
-68.0,-6.721714703398693,-15.455500350838264,-8.733785647439564,11.092066509857597,1.0347313180493514,-12.070343171028725,6.165107212489296,0.8392153979591809,2.88485217312729,2.166242919458961,2.757970317117263,-4.765545629079775
-67.0,1.976881402034468,12.931450951048653,10.954569549014167,-7.44511850951851,-4.46215790971149,11.959306106069882,-2.6465727732154294,-2.301415886062567,6.880878271515464,9.59323660342991,15.328441588516403,7.131070898813621
-66.0,2.5385899359852218,2.124640015957837,-0.4139499200274406,-2.3111736311212425,1.5008919738584388,0.8672967197835348,-3.395531926080574,3.612415572445259,6.042342512230469,5.014060781656551,7.257203647157821,1.4472951331077577
-65.0,1.1022336201513356,-6.87553769184209,-7.977771311993499,2.841967992611637,4.484189416118421,-7.414891687419036,1.3968944336868443,3.223823395130924,-5.2027870118419255,-9.948991374316453,-9.60319401217631,-5.8879232792390095
-64.0,-6.833761553018512,-8.131226092213671,-1.297464539195217,7.528185591463576,-2.74624406312342,-4.699335820031366,5.111336218423723,-1.3704343070231126,-8.21925821464321,-12.541137787477428,-18.309868039683625,-8.740837259792382
-63.0,1.497792518628692,-2.5253554580063104,-4.023147976635041,0.4868466334719379,2.782138580660691,-3.332806384714746,2.37682794769693,1.5476840695474303,-1.9227550120452603,-1.7111100563913801,-10.018534305547094,-5.034760970773624
-62.0,6.610801716147758,14.736650849125873,8.1258491329781,-10.701645643659893,-0.8139646205080914,11.457053757860763,-5.362995213093506,-3.56827194439687,0.15360467567728042,6.009955350940423,5.127038153970177,3.071459840818036
-61.0,2.944342854887239,11.919157894486155,8.974815039598944,-7.466926664009573,-2.991396806695242,10.399183818336855,-4.3940701431801426,-1.559482996584557,4.001901420776159,5.292679592423565,11.130939015311606,5.5647957409564555
-60.0,-2.2359499627482666,-2.1250189924654546,0.1109309702828396,2.213448253000175,-1.1473189661800136,-0.9714713790590608,-1.2354223178832546,-1.067673220693913,2.046648524807956,4.633785787974765,9.032163186490951,4.689297078717233
-59.0,-4.991604898524808,-9.774106429109382,-4.782501530584505,7.405662973215381,-0.07574388962338285,-7.238124263961014,2.762593948494721,-1.3820735565123317,-1.9095509137764708,-4.151000591794548,-1.588322319002125,-1.220118050403327
-58.0,-4.933354963935346,-12.182078442495023,-7.248723478559601,8.573956948444804,1.1103710499426143,-9.748844731930918,7.459999882866757,4.251174212399145,0.7537916528204958,-5.535216176235204,-8.56537214389801,-1.5204727649671372
-57.0,-0.6094726069877692,-0.2581595145158406,0.3513130924719743,0.44833177313871087,-0.5254526987802712,0.018925071444291675,-0.44786596610842944,3.5349146958633835,2.305703424539043,0.43865806570376975,0.4432291056228106,4.542983970448224
-56.0,7.293545342692189,6.806892036160022,-0.4866533065321501,-7.033530741986596,3.925693155877722,3.2172574210383322,-4.283597179158659,0.667327734954283,-0.405338141777676,1.0656462965251623,1.7344992623511168,-1.424506006545137
-55.0,5.592343343796727,6.472798530369763,0.8804551865730318,-6.091024744088736,2.3933777799431724,3.660399561036744,-3.3363657498818693,-2.5651107838440144,-2.1548940234637772,-2.0732215159576075,-1.7055696012358172,-2.3073320632548615
-54.0,-2.3677147000722596,3.844004937653047,6.21171963772531,-0.7154725777031969,-4.329051370658735,5.015244772349311,-1.1539547655883695,-6.917045211435401,-6.491179189950049,2.9303853823958574,0.16267322029249298,-5.8864530267406705
-53.0,-4.93397925505414,-2.1417240626233847,2.7922551924307677,3.481324132313773,-3.821767647381351,0.3135184997104248,4.077540173393628,0.07937126630813562,2.6007286585163056,1.6149837424043285,2.9110475652401653,1.3724506018724942
-52.0,-0.5161707476682684,0.5578908100375322,1.074061557705818,-0.0017809386408769168,-0.8312572475798887,0.8018796935933413,3.424128941779423,4.371627940011855,5.984368232126796,6.162391585292028,2.5293676711542514,4.866472396196349
-51.0,-0.32300556216126597,-6.651760620604593,-6.328755058443301,3.50225596040382,3.045287831524083,-6.431029288321851,-1.1370522383590371,-0.562057106219723,2.21025761550974,1.3000305159668586,-0.8291640768509934,4.629584513217678
-50.0,3.6939749313424635,-4.401623438869992,-8.095598370212429,0.3656286114266347,5.856315955694605,-6.275923763696447,-4.350076880624943,4.56354409214488,-0.40275598159407244,-4.119091879239405,-0.6413455185630277,-0.048890516386376426
-49.0,0.14291654986170355,1.3441919806163707,1.2012754307546918,-0.7320257972612909,-0.5715299592336511,1.236378870871489,-2.150668194935557,0.6330832410362564,-3.578877625937022,-7.820883737717502,-7.169971133779257,-11.376785367717108
-48.0,-2.255829554751287,9.25334847698695,11.509178031738253,-3.484353865567574,-6.850810737385016,10.414708325139815,1.1807621621701927,-5.778795062175406,-4.972856239070002,-3.585903506578941,-3.5970231098920156,-5.194420411047586
-47.0,-0.9696305639543028,-1.8750886944198308,-0.9054581304655143,1.4418148910833901,-0.0046455259107620606,-1.3643261850384256,2.70615999870809,0.34893709073312573,0.5099853936280359,-1.758381925259623,4.003373723589797,4.017213533918076
-46.0,1.586351603137572,-12.00483292030281,-13.591184523440383,5.155476493636144,7.613454791987578,-12.855716197891194,3.9197386742534244,4.980600557303237,6.113714246885905,8.615341969052235,8.386667584098696,9.360614348258975
-45.0,-3.7380172198040835,2.9391270856544325,6.677144305458511,0.3502145941969754,-5.262546906970432,4.827569127369416,4.777925928242107,1.562627915538223,2.988114141220617,5.972918599871255,3.117895185120654,4.466426619841107
-44.0,-0.6303914831246126,6.317840117943819,6.948231601068427,-2.811259570692163,-3.7649681391076504,6.6542648669532145,-0.7375670982282321,-6.15736923118533,-4.407888579870555,-1.5425527819929377,-6.27181658132981,-2.8435575341109502
-43.0,6.90459766428781,8.705028158986321,1.8004304946985106,-7.770639352455823,2.577651571876614,5.278626116537242,-9.74721352278763,-5.455732398481241,-4.475219805187505,-5.449502822193367,-5.21299293564305,-3.016915554805458
-42.0,2.6586405732178395,5.384276861456509,2.72563628823867,-3.9859763786807894,-0.08549484957280651,4.008586608576664,-9.461984328017818,1.4249225613932706,-1.1847596027319705,-1.7595874662474236,-0.36623760233646196,0.10785077159999235
-41.0,-3.1943453276331164,-5.153313213243512,-1.958967885610411,4.132256849883575,-0.5899706906796235,-3.5955251218911704,1.9662418137619921,1.2446601873625789,3.9747738043714334,4.131821716962789,1.1442866610232023,-2.1072215692162795
-40.0,-3.456314276368849,-11.059313113783096,-7.602998837414274,7.218803595100455,2.023556603675084,-9.285603932542404,6.838043205960686,5.296742559469808,3.7167129559920964,2.221010994816807,3.6590452982008665,-2.3977661428484796
-39.0,0.2731004878560257,-14.94867909983832,-15.221779587694398,7.381138971077258,7.778877318437348,-15.035435298701834,10.809350044735446,2.714999843390458,1.260770565312892,-1.063386391495611,7.527989261818524,-1.0878832565824998
-38.0,2.8095491125350103,3.2593030034679105,0.44975389093285045,-3.0652563615060338,1.215855868525144,1.8269746872194847,0.8987248532764198,0.5008106355260749,-1.0126913227282113,0.5811525617152418,0.6759560481947979,2.9016212308238964
-37.0,-1.335499709461436,10.544954220864227,11.880453930325638,-4.551692413168014,-6.644116328582411,11.183288041133933,-6.116148882606943,-0.8700660619993115,-2.2661524322556015,-4.45924298295888,-6.394953000013242,2.0453636395332664
-36.0,-3.245043774327624,10.40686815720315,13.651911931530773,-3.601761450322628,-8.398035665204803,11.995202578222049,-5.5224553800748435,-2.2460379960759136,-0.7026489064640318,-0.5185846279115787,-5.847269975483332,2.76227106562526
-35.0,0.0715512009920734,-1.1384810635336375,-1.2100322645256938,0.5161714287410892,0.6197446850093256,-1.13612201164627,-0.8685699431167895,-6.0443351543745685,-4.934347374502318,0.47140282979665127,-2.1958426553903236,-1.9509400274473379
-34.0,1.650574535610707,-4.104319723672511,-5.754894259283189,1.2107904749393896,3.6865337220761027,-4.897701398470808,2.8226196807292103,-0.14819210518698833,1.8275757886014974,1.9823624984982635,-1.6801615661336402,-5.192361863287747
-33.0,0.33105285915964666,1.4407452194397892,1.1096923602801665,-0.8250213361717187,-0.4041735208200139,1.2241883865188452,-0.07533208453574691,2.65021094520547,1.7295022767117387,-0.8076709569259648,1.7755157171728844,-0.06054173630742543
-32.0,3.8888696833259857,1.0547098978830625,-2.8341597854429086,-2.494449833046719,3.34473814404046,-0.8629402049297661,-0.6836883858720251,3.0503527427914356,3.9130860290408083,-0.33605621656606577,5.0073700969723625,1.8793483190802367
-31.0,-5.922091244858263,-6.827131554885838,-0.9050403100275783,6.344988227317376,-2.52902780022247,-3.836787430092163,4.154803302970888,0.9658629433621599,0.307684562381322,1.8123113071327461,6.635803268303486,4.580624619771722
-30.0,3.235276214338553,1.9026507713924037,-1.3326254429461635,-2.6061426538213444,2.3386411346753095,0.2406960291349578,-0.6438293478483221,-0.6457315205465544,0.22585814709327234,1.1224404214571404,3.7282130242062808,2.0015992745711175
-29.0,3.368849208323216,-0.17159360285123237,-3.540442811174472,-1.5632733512117953,3.5074117110681597,-1.815348968108137,-5.625832982694163,-0.7331358793761864,-4.424789294131374,-0.5936329606769651,0.5049864204957476,-0.7093798154641066
-28.0,-2.1492667954062226,-0.9294803887368575,1.2197864066693433,1.5713785117892283,-1.7105362590772142,0.11275400213645137,2.9989330032260852,-0.49026673360094003,1.2462383998597544,-1.4819394522135774,-7.455412020163203,-3.742140904047319
-27.0,-3.707274673210974,5.34710029758716,9.054374970798118,-0.788039033403194,-6.4058328025000595,7.172239443197834,0.1711264437395288,-1.9457229278904813,-0.4186313869534915,1.0346750113865417,-9.37226923159865,0.024529555917122803
-26.0,0.7815120949849588,-7.4521086626927895,-8.233620757677734,3.2903949091588305,4.483308712965296,-7.7909548067429855,0.39456215409617595,-3.574536264542491,-3.53198761284522,-2.911818337880929,-7.78673624022329,-5.841233640744299
-25.0,1.233138446769749,-5.773200411268989,-7.0063388580386965,2.3058357194241133,4.095169580045731,-6.416904732084621,1.8254631492476123,2.9585200312870183,1.7737613672783692,2.527193558894182,8.910899109264903,-1.7461814392984238
-24.0,-1.0998295073225925,8.529670310604445,9.629499817927107,-3.758018779609522,-5.311745956689763,9.050923947727423,2.070544805655541,6.119826256076785,5.645460789857947,1.6053654159570163,10.69163554209239,6.396023524690592
-23.0,-1.9754213559388683,3.721431115887589,5.696852471826529,-0.9193830244452099,-3.8633142028734513,4.757176823308885,-0.2926206178794016,2.834319635009078,-0.7781240413431791,-2.4725344606930566,-1.3734691601779137,2.535795363956449
-22.0,1.251642617597625,-2.540386982275188,-3.792029599872768,0.6709322702088447,2.5730483788557947,-3.1204217761926767,-3.6880454064259744,-0.6582585753355381,-1.7776521362727777,-5.387093625156388,-1.2603026426447803,0.8737285072922116
-21.0,7.418489269909087,3.8979046291408057,-3.5205846407682744,-5.638052654732619,5.443347776624024,0.15319055176092755,-3.8923927184722995,-6.275448859113197,-0.8159513103902285,4.057530250319689,-1.4851402490937238,-1.4155489467465059
-20.0,3.089724861826877,3.028805514234254,-0.06091934759264728,-3.043783303023228,1.5522842766731406,1.4456120383147943,-2.8140241188260084,-4.6721490619844035,-1.2608724828353008,5.735883806692184,0.8974806545534195,1.1062396974009299
-19.0,-8.198716125047278,-4.73873774682266,3.459978378224581,6.483081443329537,-5.847986777219016,-0.6805771782506018,2.6086607519103326,-1.0908671929180764,-2.0678633941230062,-2.8839573833642973,-4.286492224345822,-4.276983943397996
-18.0,-10.0489804486293,-4.202552504589741,5.84642794403952,7.143155044600619,-7.883051039383386,0.8575689316917576,9.038972660178617,2.5810557215283403,4.467101188820527,0.18002494979351646,2.7873562694569918,0.1855467161729294
-17.0,7.212770118147679,-0.5794232386517031,-7.792193356799401,-3.3713233320826195,7.491586451086452,-4.1500213644169,-1.0319659148202396,2.604208767688135,1.5437659911914379,-0.4032826624105451,-3.389715612173649,1.4242603440249362
-16.0,1.4770429467980941,-0.6179820316231326,-2.095024978421223,-0.474933857337132,1.7754349685105049,-1.3178894011973012,-1.6319517880964167,4.635259600421703,1.115121989366953,-2.0177862717606816,0.7681655279633182,5.1470223575966045
-15.0,2.6649761978898865,3.94096501190097,1.2759888140110935,-3.2592167901302096,0.6801337948628841,2.5734314438473542,-2.2502069008152215,1.9231466553949979,-1.7475652722082788,3.9358602374592584,5.641215225635186,0.3920353032521533
-14.0,-2.606757552559258,-1.2647158430369223,1.3420417095223245,1.989582280800072,-1.9967969729858581,0.009700048041378029,0.2613241750906439,-5.601767051050306,-6.447126988313011,0.6963062838299631,5.50694229831077,-4.253548795070452
-13.0,0.6022415222502875,5.273097457254677,4.670855935004349,-2.9544165047009425,-1.9892860805851704,4.948561714433678,-5.145272920230455,-6.299629729051857,-3.238485576001176,-3.0245251656772036,-3.0581773254609077,-6.678053131629132
-12.0,0.45200015309022873,-8.544172768452313,-8.996172921542612,4.03394057842347,4.677756936815264,-8.710972538373401,3.9373187941444465,4.025452554968994,3.21814246868196,-5.910818633670803,-8.733225573497538,-1.928740260319853
-11.0,1.7230400770276146,1.591485852240874,-0.13155422478678389,-1.6695124624459647,0.9483668019328597,0.7121595513908039,2.3182754807664034,2.843608120301283,5.664349453196294,-2.766081002917931,-9.916094361998674,1.9103579679535003
-10.0,-1.2772679673610756,1.4151034477494493,2.6923714151105234,-0.08607531110724942,-1.9715748479614392,2.0358130565278536,2.630093704416666,3.5450378098962125,4.158900296755121,5.996892956661419,5.383563776588614,10.695775499633507
-9.0,-2.296166192882443,-8.750807563044553,-6.4546413701620535,5.497829093170546,2.08954969319363,-7.621896300043536,0.4536685269008398,2.8623629107291944,0.6632969688234085,2.7156527514881867,5.575736419036046,-2.2484293041146186
-8.0,2.4694570005632643,0.6654426271377236,-1.8040143734254372,-1.5242341702197333,2.149106581830719,-0.5112293150668747,-2.856513882593744,0.5241417439487984,3.725558744987118,3.8277361288488043,6.123667765503241,-1.108259118910877
-7.0,-2.5195245310067214,5.1961524697602375,7.715677000767032,-1.3039118434654626,-5.1780311411183515,6.4340249390301025,0.46770192776872643,-5.5957200555595215,-8.572397324082448,-0.6596353457309607,-2.0311784127937678,-2.3695522507262163
-6.0,3.4231244871216644,17.848841219431993,14.425716732310319,-10.686286165854511,-5.47504026519834,16.114600997711776,-8.032423825151582,-11.765307185457361,-9.539003595192009,-1.2130947910242764,2.597829078774868,0.31929654357141457
-5.0,3.4771255143466306,6.239821391293597,2.762695876946942,-4.832519648933962,0.3912172125268818,4.556507836346971,-3.4336865187560814,-1.1714272233998573,0.7519442720479299,3.3313084839333382,4.6584785582301675,4.757202554896465
-4.0,-5.827765552179203,-14.275500969832734,-8.447735417653554,10.0779388729467,1.2708450468138368,-11.386688841815843,6.009447174270919,6.331716081738058,1.7682091819160224,-7.843844814098884,-7.006685210365688,-3.421634211659759
-3.0,-2.354940155401846,-16.13349025645811,-13.778550101056277,9.193550071334725,5.753613977811932,-14.983987054018893,6.751244351798025,6.746833557670851,7.260739161778316,-3.7234037576714902,-9.867620502054445,-4.563157603571308
-2.0,0.9229168387166293,2.1871565458888824,1.264239707172237,-1.5252936596869837,-0.20903265865597564,1.6933960435513118,2.7707908111913544,4.00332045588082,1.8998833900569219,1.233508827022297,-2.3397838879428,1.1753660151811909
-1.0,0.9592239815726353,2.0260412183637144,1.0668172367910351,-1.541144140058104,-0.09624761222437384,1.5875032745091646,-1.3670645766276373,-3.4504840975136766,-3.014634145793874,3.3851850221159903,7.445932965222964,1.3904403475323206
0.0,-0.6709692411004735,9.49861193122593,10.169581172326296,-4.384432141542703,-5.388784458502673,9.869400176014475,-5.005889918724949,-0.6308604486001619,3.4227662588187484,6.8786959242022645,8.471693488448235,6.214267946161112
1.0,2.0522545207881175,5.83093729375208,3.7786827729637773,-3.9137685954263173,-0.83510122686307,4.834506104561479,-3.7841783226293524,-4.094872773211241,3.2702101925351252,1.2188752495622461,4.457422717638518,1.0341760549551156
2.0,-0.6093505730944597,-9.215315189439922,-8.605964616345648,4.860221067041951,4.025980523801908,-8.964696418128717,0.5541743935122856,-3.1413996550747414,-9.774242496225346,-6.793177240854886,-7.544328357515859,-2.4906483442553355
3.0,0.15893449133622295,-12.601158598961344,-12.760093090297643,6.247989703342371,6.411166239562345,-12.73846192082024,6.246524214507952,-4.6244272560850455,-10.00235941523927,-11.331790529462717,-12.347589903305877,-12.43719518106017
4.0,-1.0101660830125039,3.3093231718845684,4.319489254897231,-1.1204362919332527,-2.6296249808985666,3.833803965331698,0.0904924196985013,3.6681248045422565,1.2651999864183203,0.7750008632127692,-1.6144272233693613,0.9323538565702099
5.0,-1.0520356409037532,9.4046034358051,10.456639076709175,-4.221720814681834,-5.792928045055099,9.951997595589692,-0.42366200141987836,11.90177117056154,13.453670748532286,11.365215624888192,9.246527355927729,8.0679230019228
6.0,2.8803874312990434,1.8438092922991887,-1.0365781389994684,-2.323551105435653,2.0018168270323287,0.4311620837669796,-2.7593841417695146,15.639818203943253,13.996644688657742,8.154813558580479,6.58415801269933,2.428721997833075
7.0,8.169721213414473,-9.783903063977007,-17.953624277391185,0.7718623794376467,13.026450075092441,-13.831435383695766,0.7976688401441323,1.2477589627630263,0.3635530461608685,-0.6278434730914224,-5.3130510457607585,-7.699097522150992
8.0,0.9651071379619691,6.798620175890916,5.833513037928849,-3.8350110171987,-2.4722029952245586,6.286010082380092,-3.926544605352633,-20.64726949591256,-10.445422919197956,-0.5300976092022278,8.128691871855565,4.456587153046167
9.0,-8.233588696204501,24.55926680085486,32.792855497058994,-8.1940090526288,-20.47699404426834,28.656104869956046,-1.449534967895741,-17.941630098959575,-1.6193499227791932,4.1839477597421695,9.472581240889374,12.318057194802567
10.0,-9.153128586779857,-4.688372388009059,4.464756198770287,6.887569123682852,-6.777025744446453,-0.12546633763577386,3.254469285100839,2.1545369266968564,-3.9764283370586258,-8.028479332159685,-7.811550066946622,2.0736237917166638
11.0,-7.640064991563493,-24.782502514768485,-17.142437523205302,16.25295350146597,4.702155782850825,-20.974829684002778,5.950107044246025,1.280993147694781,-20.223824399506842,-23.357125012142745,-26.50916882614824,-17.626900156732518
12.0,0.8760599616343503,-20.382399648781053,-21.258459610415564,9.711932951478845,11.098013564769968,-20.835943454464356,4.673176100370032,10.902997662493158,-4.240696546899192,-10.323926044802896,-13.02084534204856,-17.601687799284836
13.0,20.81577538729543,7.1320904406296695,-13.683684946665815,-13.93896776313312,17.284674989495542,-3.2182519721990968,-1.8078126190567945,17.09016626554915,20.609397799668468,16.969568728680876,16.46569706748554,7.610274823810299
14.0,9.88102567188244,22.744033282761535,12.863007610879052,-16.2770564525946,-1.528667528357083,17.776474148418107,-12.305092010114157,-12.785078648714254,6.69223031945875,18.17121412675423,23.45805183144677,18.61174002926077
15.0,-4.839120694607313,19.633164262973946,24.472284957581497,-7.436187269667112,-14.687229438413462,22.10034830302696,-8.617838322212243,-16.657014338055358,3.9134498942995855,14.107856786157985,12.800780122651798,16.05686611970079
16.0,-14.609437025216861,-10.551505899122702,4.057931126094253,12.548540767761349,-9.282262256384202,-3.279359733700865,5.865447234781766,-6.4845065377237825,-6.608778098690157,-7.85607528470473,-12.467020216369766,-8.842123089837612
17.0,0.2999473059070281,-28.034129133603948,-28.33407643951091,13.9229469399212,14.2904674315207,-28.215695202514816,10.557831980602943,21.449123740680243,0.3698687358027115,-12.748184418886334,-17.818408455362952,-17.244315262230476
18.0,-2.535439832015711,-18.891847267805726,-16.356407435789787,10.699777237017365,6.88067276699207,-17.574509490660482,7.580198392777163,21.742895825025247,5.419421608200409,-8.036211455550747,-9.207496814467925,-15.031792762637503
19.0,2.8109790654411713,26.10417239122742,23.293193325786625,-14.46430913917382,-10.199248666092496,24.672273223359298,-0.7810963247180727,5.206862995684099,9.971012961412775,11.733135126050382,17.38916855004207,10.776810769187755
20.0,-2.1268038547263446,43.77853367457672,45.90533752930329,-20.82887931007255,-23.98414444409923,44.81741387684358,-11.901182726774074,-21.81347082545293,-0.32374187976804736,18.21900227212484,25.527007702263255,25.867210798812465
21.0,-1.934786202291481,-13.883975598355828,-11.949189396064341,7.90590597155669,4.949080388390387,-12.862028006017027,2.1045689454074274,-11.724804020444966,-12.64927971989165,-10.936144878326843,-9.726948528592136,-4.368248719327639
22.0,4.708667977107534,-13.212837003176878,-17.921504980284695,4.244148533942027,11.32489765424458,-15.592854710911729,-1.9143547781353345,-13.398170676873514,-14.361262496005008,-12.377907993565678,-16.028558539577688,-8.543895704492138
23.0,2.930529064363979,-7.458316972986076,-10.388846037350428,2.248514338261293,6.661184420856115,-8.952353005093302,-4.2435488522039835,-6.856395537544317,-9.940963283329424,-11.877329036827145,-14.432510729286015,-3.6872422136967673
24.0,5.086242350862843,-16.453641053975367,-21.539883404838676,5.738126536543655,13.310629392457091,-18.95088196011459,4.037024174706843,17.714892496517763,6.375149576697262,-1.126269986387396,1.1739518816965164,-0.2844182543282443
25.0,2.314703203476687,-11.250674603229896,-13.565377806706795,4.434695377110454,7.939309425294779,-12.445215784630674,3.5095797941357763,21.50754820635649,9.328766682499367,0.6202610024548489,2.6587690963039092,-2.13729353905391
26.0,7.752553874341098,7.345536253660942,-0.40701762068004776,-7.511454396656324,4.0864912721096145,3.5070383868591177,3.8083227963838246,16.231117864855683,15.010932724656445,9.742793422036822,0.62172566093904,-10.46412257458865
27.0,-9.779380028229061,8.8315214480035,18.610901476232826,0.42669107506636816,-14.176616742797682,13.677518960875794,1.5180157445523452,-10.336664893218705,-1.4811157474774177,4.148390198142954,-2.426920679842329,-10.244815700731687
28.0,-21.121727171029406,3.9353289759113235,25.05705614694113,8.620817040187639,-23.05734508633085,14.529756977758565,1.0104622788386142,-25.864199547024043,-4.802426277265942,3.2616048917207774,2.118626493494871,1.0933421850102953
29.0,-4.4270143818184415,22.317129681363603,26.744144063182375,-8.99765085589876,-15.620393924468988,24.563788319556373,-6.8610629985711755,-15.363745839455133,-4.054122003037389,7.751553432108121,18.97388255313052,26.025235814026296
30.0,12.5069903135401,19.23944367315145,6.73245335961158,-15.846008891041683,2.85976575838965,12.94075142738786,-10.344995375536117,1.1294514215914404,1.3174237337098447,5.360903743458383,20.798976075522162,36.099631488167006
31.0,10.789144144926269,0.48777931253553475,-10.301364832390687,-5.6079809288062545,10.518962469330042,-4.950871720922022,-6.32281260593701,14.204536977203107,4.1850485217044255,2.713857390544219,8.866506842076262,9.999769928840148
32.0,2.0682311889686,-25.904945484332103,-27.973176673300863,11.953493264854961,15.068663384987726,-26.90231555193159,10.873002535923007,13.915706566546035,-3.699873567868145,-16.719579350067786,-28.47398602983399,-33.659996949009084
33.0,0.11127656984472356,-27.74373800612637,-27.855014575971335,13.77739679099094,13.944184477601393,-27.759146467223406,7.848701209735351,1.022398939893412,-4.63624494286929,-10.95127832751653,-25.48010392561212,-35.35254713819137
34.0,-0.4850864500013832,-10.62548626793393,-10.14039981793262,5.520177156474685,4.858401262072954,-10.416269111461743,4.563529801219428,2.389508627861863,4.0402206306427635,-0.6123528911987179,-9.425911835211528,-17.157331065872047
35.0,-6.9338091656271965,5.435479254659442,12.369288420286704,0.7161897830388573,-9.628227410682678,8.875742673322733,3.3145677136917873,-5.3349128872259115,4.503949097059246,8.451921709207456,9.194642877273989,12.917409509311204
36.0,-2.592186622327605,11.00270524160748,13.594891863935265,-4.158640929340642,-8.074609919762121,12.358188605680157,-4.43540831454871,-3.911905549802686,-0.9544044557486591,3.193526076084563,10.767886335992182,12.687938566437596
37.0,1.0304876921101662,7.582311784647784,6.551824092537796,-4.2594466077611575,-2.8217383130691864,7.054131460437528,-2.851360356348847,-0.3996835571708477,-2.9788376666267617,-2.031401532158288,8.109483692325885,11.325325297008352
38.0,-0.2897191571981701,8.89596560123997,9.18568475843826,-4.334457172684723,-4.718979751703303,9.03181653188886,-0.7342926644210257,-2.050116718088707,-4.958233608806314,-4.852015435294824,-1.3571929533363836,9.15313270679074
39.0,-2.6961400107543083,5.164969535267579,7.8611095460217975,-1.2651152124033853,-5.257779938236723,6.504198893049521,-5.548686238081557,-6.009168804627279,-8.07838021534837,-4.994973963642946,-4.375282905110439,2.7079974232469137
40.0,3.4451662166953456,8.750157209573882,5.304990992878244,-6.049398291892158,-0.985658480650036,7.014784340215272,-4.071931593666216,-0.7632997465826226,-4.0312333377622505,2.190902636572311,1.143429632455762,-0.6708271162878954
41.0,2.8708474079831463,-8.025143358523842,-10.895990766507472,2.545544541790104,6.907999523169073,-9.48064189347943,5.180295264829574,7.900345868551187,12.836559934555005,6.836462629977172,0.8216849466664912,-11.103174530201796
42.0,4.203990356648116,-8.276632486395247,-12.480622843043681,2.0802800900987974,8.367666917663133,-10.328889286489698,-1.395655113102177,-1.696821280017331,10.462204060635525,9.410532654444454,6.228274571388898,-3.324401824928751
43.0,7.002005824513738,-1.2219655313067648,-8.223971355820586,-2.930120524144126,7.638371995280766,-4.760605870234315,-4.339268049182739,-0.9008671698724147,5.756462300008393,6.350567218462482,6.875560937714286,5.964976615598655
44.0,-4.222404502388029,-3.8150612157187345,0.40734328666944997,3.97219044867793,-2.368760386342818,-1.6695469127858331,2.469505916657524,4.663874858336699,-0.47364679760635964,-1.5132209382351784,-1.890034607104564,-0.9741849314384345
45.0,-12.443021582114861,-5.141846294986205,7.301175287129061,8.819038224020016,-9.84784101478839,1.1095769539050258,8.012779160738152,2.926806064705044,-6.0915985677645,-9.883672125235565,-12.358468794893833,-6.547165284288104
46.0,-8.441850287219602,-1.931745369461828,6.510104917758099,5.210994503431369,-7.530393674012212,2.2379465101934297,7.7293784967508845,1.1940732517961083,-9.231298456988728,-10.105136132787386,-7.638693435023143,-1.198892199362187
47.0,1.1571366691067446,-2.0458467445114947,-3.202983413618031,0.47113180129464216,2.2060653296360586,-2.5982484020237324,3.9100281797743652,-0.9092305639259233,-1.295105905446091,0.9965224209917016,0.1974274870226358,-0.5594406542447854
48.0,13.338437602549735,2.581378565486225,-10.757059037063458,-8.003941090011772,12.077609193688769,-4.141637994158518,-7.137728774375715,-5.126111890347434,-2.630820119056753,-0.7918391810790155,1.7563909218248908,-0.2775191779980186
49.0,6.872606303650074,16.57058269371587,9.697976390065726,-11.674964223094527,-1.3770409204674792,13.15775150284135,-12.570399059886926,-5.708302749609363,0.3920382356566586,2.4926184905123447,2.4393196338367207,3.0123824042838923
50.0,-0.1151405471655389,12.562854640741639,12.677995187906987,-6.242920030227843,-6.4332561426619055,12.642350969410462,-4.714578854502102,1.071534104541647,3.788392183679378,3.8505600357910232,10.755641740683403,11.97273120469795
51.0,-4.549659755082111,-8.608029151567713,-4.058369396485795,6.570547617515827,-0.2772540425552221,-6.312311737956033,1.4502799323015951,-1.4449517957646205,-0.6723560208752701,-0.5422355529620733,3.502713648327071,1.5721867859158918
52.0,-2.2102255641769157,-7.089236923163181,-4.879011358986427,4.646936814057837,1.3833816631652807,-6.0419007153033055,4.369895852300683,5.947359564049583,4.185856643969879,2.294356525238868,-3.1926101989720936,-3.096230428388922
53.0,-6.082808809034461,-9.43532838246372,-3.3525195734292943,7.754944704219797,-1.397330032737279,-6.371330003649352,7.630643701140979,-0.38228177277127884,1.1843624738796334,0.11691854208714592,-6.709947359118217,-9.582906281104753
54.0,0.135942289612494,-2.0065047415379675,-2.1424470311503208,0.9233451336199447,1.1005679961497923,-2.048674586335604,-1.9750347268475688,1.4877896128965358,2.978564600612058,4.154275243500118,-0.048325688439535774,-3.723782794422995
55.0,1.7609920263486738,-0.35596660251700385,-2.1169586288654463,-0.7265760048020204,1.9701266751556643,-1.2850156057749391,1.8044853263962701,1.3346752319332862,1.4802189912962205,-1.2476743524710925,-0.8503517957502806,0.3835929462511998
56.0,1.5056389876840695,5.78461063877288,4.278971651089011,-3.603586069553002,-1.3648313616631036,5.066710691865962,2.821945004007878,0.9727333581824379,-2.670716189946525,-1.582482721315383,-3.040460852438058,3.770754902952631
57.0,0.18559644593371338,-0.826213440518206,-1.0118098864518603,0.3510500292660734,0.6130177111008064,-0.8802216843732493,-1.3251631316074297,-0.018571408288658775,-5.79196569381662,-5.00803439277955,-1.8686690861364652,0.269291313113452
58.0,-1.4982707189893552,2.9955962473014814,4.493866966290694,-0.8026869790709985,-2.9859737684593424,3.706654979999023,-2.8690338357500487,-4.607799966240251,-3.3756929555374118,-3.854496584054015,3.5650413959236293,2.2560902050340355
59.0,3.607827150449688,2.62098452845941,-0.986842621990522,-3.0900579127331262,2.228431484441419,0.7783176089014225,-8.362985150976778,-1.58094611238409,0.178506934134115,1.2188825101673062,6.902633890442927,2.2834314439761125
60.0,8.557069149953788,-1.0176418930631201,-9.574711043017139,-3.7409205490912076,9.079403173499003,-5.258987024020625,-3.4042314700041088,-0.82286114848293,0.3941873620042054,2.89911403875105,-1.7907975210000346,-2.219812126963105
61.0,-1.784666048140021,-3.8864340333088263,-2.101767985168922,2.792774073060783,0.17901066444203328,-3.0391081613481274,8.620656778633103,3.138865187264482,3.119785467685293,3.7419162055168824,-2.169111243099157,-1.1484067222726657
62.0,-5.768129189654752,4.918857373681154,10.686986563335926,0.4679260426944434,-8.198050500253364,7.834669071758334,4.027512023447358,1.0430422571247402,5.404804796479291,0.8559346094553564,0.93316263599618,0.5884132214105882
63.0,-8.274523815717586,4.8705096774378465,13.145033493155589,1.671795224817985,-10.749561356915734,9.040840944573413,1.6372046639039652,2.5481967641289076,3.6638648986041056,4.204206274827653,3.75401189187777,4.909314487496739
64.0,-5.491463688507044,-9.143660268617412,-3.6521965801101732,7.28949209036135,-0.8727467941692826,-6.438134930232453,1.6907216109042569,-1.145041744043524,-4.493388155655184,-5.459278249357666,-2.502602885034581,-4.168355254442378
65.0,5.40989697724263,-5.596680799953404,-11.006577777195863,0.0647872023980618,8.181050917692271,-8.25408680201458,-1.0836789155627442,-2.988701639724762,-2.3905145635837015,-5.474526276970798,-4.512673123186231,-3.3405672817537457
66.0,14.521414820908435,9.913092789820881,-4.608322031087485,-12.16877639077709,9.538269609915597,2.631755283958963,-9.658580994932459,-2.951896996268707,-4.383930466875811,-1.1000905648545083,-0.3515727361939964,2.4088303589030833
67.0,0.27229896886346516,2.5707358300044074,2.298436861140906,-1.3740601173702602,-1.0427781217402465,2.423495620894001,-4.6037770163155916,-0.6778823730603591,-5.038416354272604,3.366338173334219,-3.185437486179823,-0.7338337396954623
68.0,-6.2886931736781335,-5.556815479015826,0.7318776946621759,5.892165199546338,-3.4665301842501153,-2.4174468704261853,4.738006053231775,4.090114763948636,5.597400643030534,2.5267656604453093,0.7425317814979382,-2.8138161238388273
69.0,-4.827365309345574,-6.221906334744843,-1.3945410253994095,5.496341694807077,-1.678064343463659,-3.8118762356121785,5.342137722368715,3.337711654681799,6.6066573905024475,4.014205257280423,7.555151346949819,1.9244187700674624
70.0,0.3227127037042048,0.4330360743800188,0.11032337067571474,-0.32473730194808814,0.06205839800897195,0.2646386237873708,2.69941097677559,-0.586208594143466,3.7141469621539085,0.7655790338044621,6.43860861704327,1.1873405881338657
71.0,2.716775051257997,3.943468790036542,1.2266937387785106,-3.354328058334273,0.7785606014441315,2.5713280822036793,2.121325517330154,-0.3453093099673484,-2.2825099869210677,-3.7116929735814614,-5.507822113861693,2.115099698111945
72.0,-7.360163171447097,2.1306388182910245,9.49080198973817,2.5893531571875816,-8.469174931343945,5.867825985733567,1.8513854156733756,1.0338807920251842,-5.862240051614684,-4.98904177555215,-6.593551522660897,0.6045562682006413
73.0,0.8943924892845285,-0.6210058139444674,-1.5153983032289138,-0.16630621280397123,1.2433424254866,-1.0967875019321922,-4.525633212732785,-4.006696196890862,-6.272766673125917,-2.9811701057994533,-4.046234959263366,-1.2548782375787289
74.0,6.617716360074319,1.0633667785388414,-5.554349581535394,-3.797857691017929,6.049788629761019,-2.2786408414468298,-5.269375156170894,-0.6009195245938153,1.0721320132661378,-0.06511338873687467,0.18190838678116172,-0.4990596458419678
75.0,7.206901945405516,3.7290522760313536,-3.4778496693741072,-5.432382206835842,5.388411134158677,0.1693377371141409,-1.7316197750077262,1.7479211392250111,7.914868229741581,4.933576526066868,7.1549008170449255,-0.2768310576875288
76.0,4.59486215685944,3.73627064827482,-0.8585915085846052,-4.214526774105086,2.6961321585524143,1.482613003479406,-4.64210981738928,-1.9468353165378027,4.918409810855067,6.1550780573991,7.007509663950709,-0.43125510968993974
77.0,-7.484974953655374,-0.6888008726972471,6.796174080958092,4.113847402215656,-7.1707959562682415,3.0191376367680873,1.5167645461674975,-1.7838545513040005,-2.3079519259816834,3.316574882833567,1.4496005381958272,0.414772779795902
78.0,-7.87614818151045,-4.300759433562401,3.575388747947961,6.037901445996802,-5.678359469748637,-0.3978723884129286,6.382499863917859,2.99201931243664,-3.2576074849440793,-1.4494369824504438,-3.5094864386909235,0.8542860372412767
79.0,-6.066884743323882,-9.859678369633297,-3.792793626309488,7.997032236613856,-1.170324277254816,-6.86372778950745,6.101074431615953,-0.392063624731378,-6.059636945887982,-10.233108482882812,-8.012843249492068,-1.5205831560027585
80.0,1.026159879532977,-2.3834164478148905,-3.4095763273479047,0.7214909557108928,2.2613636236406327,-2.8585934837304072,3.2087421020533466,4.329015123400333,1.9785164573355667,-1.4264801574347716,-1.5392138293759912,-0.5076911488296935
81.0,4.94049244400942,-1.9817959414526944,-6.922288385462104,-1.5042782231143086,5.894714516753323,-4.417050090734296,-2.405923118151074,0.8202887398862238,1.9251146976022413,0.6496049700624487,1.0302105442960046,1.6447616238299219
82.0,7.968379447036236,-0.6251277201321019,-8.593507167168307,-3.6860455507147716,8.322425572606123,-4.654012236360547,-3.8759407522544675,-2.491040712760861,-1.590823877413814,0.25073165843138506,-5.993599377027346,-6.341883939544725
83.0,0.34296410747902684,10.154647259679725,9.811683152200722,-5.255375458225538,-4.771377775532194,10.01896103883315,-4.354466521705803,-1.76096112087568,1.5091953808279348,3.938826473826764,4.092252612164349,1.8425744687560341
84.0,-3.2870576075377533,12.990681146030756,16.277738753568517,-4.854665580494996,-9.818446956471046,14.67386943501503,-1.8778312343977581,-1.220492258334155,3.7688544719281016,1.1894156348334364,5.88666011610966,3.4476692882815745
85.0,-2.2194858859056388,7.1814819559707,9.400967841876287,-2.4846425565624495,-5.766030344341036,8.256502384556164,-0.18309805261882883,-2.691515716555383,1.3865441406107752,5.687450398292973,4.201065896506236,4.47293928289411
86.0,-4.796047385758145,-5.239076934381582,-0.4430295486235414,5.0092907527447705,-2.1306117988329896,-2.872862816715504,2.181498671973075,3.2355860722248404,2.287730682497511,2.7215076041408253,6.92389091447678,5.439817371511047
87.0,3.0052505755774326,-13.017786493318642,-16.023037068896183,5.06963175892653,9.482716538674534,-14.552181148391304,0.05814516384204005,-3.3647492425688736,-5.225928765449175,-8.156641187909495,-2.6438264715896067,-3.8631663232471096
88.0,9.284725433581878,-10.419126322154558,-19.703851755736437,0.5438094330839727,14.463517770161694,-15.01764571303838,-0.7561998273466854,3.2293731001208403,-5.968384872430184,-8.836510356268764,-11.78460739904552,-9.654572378084863
89.0,2.910231326389174,-1.2032816464423837,-4.1135129728314865,-0.884202871014995,3.4807485083617093,-2.6200461288625547,5.866633750316488,5.260840352439031,1.3487722082361233,0.009609135058354923,-4.418150060868436,-4.443786008730327
90.0,-11.428801365112239,3.6627894432493413,15.091590808361717,3.8469674469167154,-13.213784582662797,9.3304935917368,3.723457098018846,2.693052623003277,2.123788719497157,0.3238040640487591,0.6474488873310884,5.280809041018257
91.0,-12.035962046341039,1.4350240133165792,13.470986059657744,5.34084349675592,-12.708750855374053,7.4797350508687215,-0.9893124683940986,-3.9148954403900014,-1.2978771629186476,4.027651256722723,4.031762207496666,4.75514078909817
92.0,0.09705435614987845,4.870676078840377,4.773621722690548,-2.44268086244691,-2.374110511253587,4.767375068433433,-2.372094011943735,-4.764780012400299,1.0669498361700906,8.796628531489448,1.2914766602184602,1.0848858748652406
93.0,12.324952644200044,10.866887468461591,-1.4580651757384873,-11.630443210777488,6.853976828720772,4.729247130186019,-7.524206465799375,-3.6542868534869264,6.169462767953681,7.773043790710776,6.655856632360317,-0.04489301961415926
94.0,15.079234917730378,4.853824840672793,-10.225410077057642,-9.918948958804375,12.692045953577784,-2.656343096513639,-6.292262834358329,-1.9828706065967394,-2.8445073192181636,-7.608072535050009,-2.4701151668603725,-3.7734369735425046
95.0,1.244050465232247,-11.070132232752794,-12.314182697985133,4.883244901412098,6.738919446771541,-11.655297255133078,3.865879922203812,5.775546975053637,-1.0850466552427191,-8.19033403461868,-6.431799031136641,-2.352238825897456
96.0,-10.459976178108672,-8.499176524436237,1.9607996536723968,9.447485327382832,-6.172599792371559,-3.3027085853377756,6.54578619626728,6.25899357294376,0.01293250278293967,-3.155975357480087,-1.3588652261902476,2.749487101671849
97.0,-12.826140617389125,-6.460228962981666,6.365911654407508,9.604877001699847,-9.558629303239318,-0.07338262999283662,5.050528703338504,-1.750655805391522,-2.303746940126299,-1.629157051394786,1.1189163915603293,-1.7379270238141078
98.0,-3.2064267955003576,9.116871582019368,12.32329837751982,-2.9235491561549223,-7.806351895639661,10.698711462401,1.8684209041404864,-2.046094497177835,3.2353499166551973,6.501393877166475,9.146466907825122,4.730072030015769
99.0,9.108947391662994,9.052072067086984,-0.05687532457591615,-9.057779677784257,4.541531145342153,4.478420787706724,-3.107148050583522,1.4068019982693951,1.9001450010150713,5.487746345959456,2.9679520053327124,2.466111518676252
100.0,-1.2816194594907708,-1.0468764061753255,0.23474305331547907,1.1801446352671077,-0.7201692878252226,-0.3461809905649367,-3.4695884693076744,-0.592733587857111,-2.0371934627045603,-0.2711653916743275,-0.19886458744981184,0.5892989867548312
101.0,-0.09882960721311251,-11.288496882701061,-11.189667275487993,5.706052841039755,5.5063719307019685,-11.258508069752507,-1.8132380617905701,-2.4763086217686663,-3.0256598613579544,-5.5922073476232255,-10.349676554859641,-8.047089360479038
102.0,5.955095691874291,-1.5884626006556704,-7.5435582925300215,-2.1712882508894586,6.792124340819473,-4.507680558688213,-0.6869248132998251,-1.7425411084762947,-2.5815665058979014,-4.3176663321509405,-8.39532858177877,-0.3883679660598349
103.0,7.227058201191487,10.712478797764348,3.4854205965728076,-9.034858662809075,1.9178443467925717,7.076659900943245,-4.045549784232526,-3.3384004470217965,-4.6695770018429466,-1.7298288162203643,-0.09431890063768789,1.3444858503226569
104.0,-4.374142771673685,1.6758794518821478,6.0500222235558265,1.3651474778807455,-5.2394838005589275,3.8369591307847664,3.3672851132124153,2.7815404002929336,5.18380577435215,5.917462617328352,8.381295985130313,3.8677489369111684
105.0,-5.147538160373135,-1.4388862956581072,3.708651864715048,3.3116941119044903,-4.45250642762816,1.1027081845829199,4.233284575914918,2.8988241486777313,6.063460604906878,4.922984790158113,2.558414287221318,-3.222944226867715
106.0,-1.059460652638709,-2.485858994347498,-1.4263983417087402,1.7152823590932162,0.15962492252283456,-1.9178162329504254,1.7308028934904836,3.599700648002787,5.543272912684642,4.357898005067038,4.175689716016047,-3.6469954314530133
107.0,-0.049394426130647595,-2.612179044878679,-2.562784618747968,1.3563896484204603,1.230842016922545,-2.6366196315769543,1.304289936225622,0.6225832684727397,1.9888278338934924,-1.3623778229726518,2.7318480257188984,-0.12686506601055603
108.0,-4.131476292287607,-5.823153855819166,-1.6916775635314871,5.0092632895844815,-1.1707559856839682,-3.734556849950798,-3.2177737747066217,-0.5122469149446434,-3.9324679667714943,-5.313856337112421,-1.7077913646861738,7.336255694512703
109.0,-2.1373610027047327,3.096213448156832,5.233574450861611,-0.4391306745467549,-3.640504551627747,4.185097117118751,-1.049572639974347,-3.2820028073995746,-10.328868180056839,-5.057068700103412,-4.473292700218337,5.913216631261998
110.0,6.6671611578241095,6.384558973055195,-0.2826021847689184,-6.5552648648796055,3.437618088171412,3.0735457833450774,-3.4109226227379086,-2.175258783356726,-3.6422981066359057,-2.3370526775009814,-4.96990990393031,-2.9625327599931057
111.0,3.3601921293552106,5.485911704967816,2.1257195756125635,-4.44480963008618,0.5777181528679853,3.834945431785353,-0.15465564906684182,0.1584694317377604,4.087555713757946,3.682901471416392,-0.5701217742923701,-4.0832328291402895
112.0,-2.050995400824057,-6.743762906716302,-4.692767505892271,4.379817885176031,1.3589545200311919,-5.759424506627784,2.573193149350671,0.4067917198030918,0.4148467240697875,0.0014450649188928466,-0.6330078063712815,-5.401193154126516
113.0,2.76799374737126,-0.982710002982343,-3.7507037503536056,-0.9106133483347307,3.2967845089726175,-2.400345854473033,-0.2740177204052603,-1.7935837720316066,2.673499324583557,3.2172859688259083,5.622220447696501,-1.2641557674143056
114.0,0.03467208874684048,-2.4070324821360103,-2.4417045708828358,1.242048673703999,1.196115172050173,-2.4536990068426068,2.5161601324149903,2.026762795356018,2.387815881203159,-1.20216998259904,1.4316627054637387,3.1312104599275505
115.0,-2.107609002241528,-0.5306347882398867,1.5769742140016845,1.2880202846162239,-1.8856517398802197,0.5726839555118681,2.258407049422,2.7171110962522707,-0.5145066529697915,-0.40172917151626353,-2.855493514980078,1.9549262359564368
116.0,-3.87942100434059,1.3562254573616679,5.235646461702305,1.2994915267085179,-4.523881591451738,3.341654521616755,-2.089253895570992,-1.4416644626448134,2.605446235462283,2.871074480525576,0.659075130452909,-0.1894559076582829
117.0,0.3538381214798907,5.988613215611101,5.634775094131244,-3.2215250716197508,-2.60851325894583,5.7722402375438975,-3.086213894483213,-1.3743829448784162,-0.5274614022718305,0.6122903575872058,2.425094200018899,2.629089733613831
118.0,4.264422947055252,-0.30930556910438556,-4.573728516159601,-1.9566991233418016,4.371191017711618,-2.4882962924499785,-1.2503075924333038,3.226650521139663,-2.347754754221146,-1.169337892589299,0.5295442075173863,5.627002238722903
119.0,-0.6306970768448998,-8.787075973764555,-8.156378896919636,4.725015942722557,3.793468856589244,-8.446238691450098,1.8150397346956118,0.32201741749269713,-1.8628195941930843,-2.7898745738960673,-0.92894796425087,-6.6811260875094725
120.0,-6.439579392578785,-2.9704476783604696,3.4691317142182765,4.719655717658003,-4.923395123847323,0.2705085354976342,4.761281927537343,1.228075401088419,2.813178260891446,4.412124256609744,-1.1487281773290692,-3.393426195269012
121.0,-4.630375682866706,5.838650958008833,10.469026640875445,-0.6666947315019611,-7.597299800238499,8.17330760310727,1.8350475117369887,-3.018457628710572,-1.271669988327651,-1.2778152492563717,-1.3927937720938808,-2.754650790047834
122.0,7.138795044795013,5.586461481531909,-1.552333563263233,-6.342504139619523,4.376001148360899,2.036928259094344,-7.767524454326418,-5.601798060389545,-3.7014835400506234,-5.827287591687223,-4.137832591577174,0.28208995246064106
123.0,8.714618660420987,4.558557025603484,-4.156061634817599,-6.611124281138666,6.3850652477116325,0.14366632722311368,-2.6892002150289294,2.4635031390674422,-2.5238394656453407,-2.0962578283689117,-0.5192519073444454,1.6433971782021735
124.0,1.2167052350165521,-1.112218837804408,-2.3289240728209375,-0.02120039776339766,1.7984770306207745,-1.6983024756936123,0.5633900166378325,0.9881416523942564,3.0296402691036386,3.0083825449145505,4.309353046308752,5.575778865256782
125.0,-0.6953652809529969,-3.724202458813566,-3.0288371778604786,2.166725950041465,1.1898391130515265,-3.4324519526988673,-0.8338742626394311,1.4669947203331926,2.89482677745558,3.1728486208934927,3.387235361375268,3.8264797245516613
126.0,-7.5585875171547245,-8.568086362324522,-1.0094988451696574,8.023146693974137,-3.3310677380259537,-4.765334539464392,6.621300614080445,1.7372510262148932,4.94963081633096,3.026201515926144,0.16374206625074317,-5.541033884451021
127.0,-4.909963439168338,-4.0622150448013645,0.8477483943670785,4.52550261436517,-2.8546642911934583,-1.5818089603055325,5.473057211316397,2.7043237521280927,-0.7114787750374449,0.5015507693069132,-1.4098722028792223,-0.2919375881958661
128.0,-2.0294949499761845,6.018700213964115,8.04819516394034,-1.9558846454635148,-5.009549137119838,7.063209998367854,-1.44822648308535,-7.012327708814091,-2.564848660137202,-2.502895958592431,-0.37133193645234663,3.62698890117051
129.0,5.968779105524298,3.6249394104974604,-2.343839695026797,-4.838155151180833,4.1929594044535285,0.5984374965378914,-5.475479233993926,-0.5480542108779978,-3.6163635939758,-0.847532524227085,-1.8196780161407229,-5.0050861176813415
130.0,5.345622335151011,-5.807302141055161,-11.152924476206179,0.1888782640648703,8.214886856440232,-8.434984859012395,-2.188709329434438,3.5740390851704458,0.4906799702303042,1.6954043402880568,2.755813314742443,-2.396178841425338
131.0,3.4862537213754776,3.5583418601466876,0.07208813877118248,-3.4846239475367478,1.6786124515559608,1.7900500719617938,-2.4176936169721945,0.5117322446038479,-0.2877953713178376,-3.6432919676350006,-1.6859972370411178,-0.8023168581814906
132.0,-7.084813865541357,7.372355564344787,14.457169429886136,-0.10335507752602346,-10.796802348455072,10.896354019112433,1.424408378250041,-1.1923533727928073,-0.8887270528239843,-3.4583827997426178,0.4496832733446925,4.42060041329047
133.0,-4.149242870682824,2.5794296114516087,6.728672482134451,0.7505176389367343,-5.386701146006818,4.639711436087588,4.023400942090363,3.433598247745455,1.6713332737425843,-1.077214888836644,-1.3154330745284737,1.367303683804145
134.0,-0.2092299481201354,-6.731534087382673,-6.522304139262511,3.518360880083304,3.1273439308029007,-6.639852283766885,3.6625547231291398,0.7742294121278044,1.9344214500506167,4.7741516070587515,0.5280057302901695,-1.34755449929876
135.0,1.5787565559521826,-1.863193024231185,-3.4419495801833575,0.11292781183811362,2.478586232075871,-2.5871427134859917,-1.60132944761813,-1.5412005321114175,3.581256478447105,8.98727033177544,2.5744547504492417,0.11841225221026419
136.0,4.953361615187177,0.8971959847860655,-4.056165630401098,-2.9563978768239387,4.551306616536703,-1.593797991397485,-2.9239971974804786,-5.998494137502204,-2.32702100275327,1.1116362722642879,-0.4879100886712797,1.311280984363991
137.0,2.8062317145279363,-3.5469403890699813,-6.353172103597895,0.3343347663989266,4.628885794080154,-4.964984577600324,-4.761701728340678,-2.124919981501642,-6.775866223987442,-7.972009386032855,-3.2980782549444156,-3.461713305382368
138.0,-0.5084524097130496,2.8228540919909233,3.3313065017040073,-1.1206375047168633,-1.9443184004470409,3.0623735211458842,-1.1067311293439832,-0.7037360876242875,-1.9834732668899435,-5.1053323144246665,-2.824008982837878,1.370976000576603
139.0,-6.638779349653862,4.918184350123636,11.556963699777562,0.8921709708186878,-9.116602536189882,8.22378324512416,1.7499385620790986,8.27525897887649,8.047322001353772,0.9107787502677493,-0.7382256219047377,-0.30088790023454204
140.0,-3.3317940487528874,-2.0842722745153575,1.2475217742376223,2.660471691524096,-2.304466421966622,-0.35251383054882,8.39814865079257,-0.2078035287662301,2.455020974456797,-0.9123415477006799,0.4241234198894587,-0.3968897600086557
141.0,2.366401739048316,-3.96123506912313,-6.327636808171358,0.8330837112542993,4.3325270884063105,-5.157559782733987,1.4432702369029133,-0.08562104186572905,-2.646315976010968,1.0788383272431026,4.535046269735325,3.381004178375378
142.0,0.13713636123250683,-8.703130465584568,-8.840266826817029,4.3274381100827854,4.470286278655511,-8.787374521893467,-0.8444856238946408,5.553794727601031,0.9624241174326249,5.11040368923162,7.461440566020392,-1.6285911940149336
143.0,3.3855198883657756,-1.923754362916078,-5.309274251281885,-0.754890307843947,4.400165727662734,-3.6377437492744606,2.382480650514453,-2.0751313013150794,-0.18484884367727789,6.510900567564051,4.226923372430035,-1.8069099349305402
144.0,3.0127799615088224,3.250045500859627,0.23726553935066363,-3.1473342769230856,1.4307470705231797,1.714164005182909,-9.620947305843702,-5.9339651175865376,-4.304582072462573,-5.401480788662265,-6.609869116709082,-2.9398882437448712
145.0,0.18830269853934067,11.222584010764274,11.034281312224735,-5.718801886639238,-5.4689313420853525,11.168078093795025,-7.473541507892385,-4.784340922311596,-5.519115129867888,-8.448638084757143,-8.958668171356702,4.4299893913785935
146.0,0.5139126572057349,17.150409684174832,16.63649702696891,-8.850040009450296,-8.115890913265025,16.924138398689053,1.1379799997656685,-0.16742054948223783,3.2345125035831717,1.5517593927117068,-3.9921383134605994,3.117437949835386
147.0,0.28127774391722826,3.834038214943236,3.552760471025934,-2.0863240749160115,-1.6168423243342325,3.6389635267449973,2.644335111414217,-1.3363278006329418,2.938330612398178,0.860786562148727,-0.807170908840261,-0.7384496590578775
148.0,-3.271810464685224,-12.748708224492463,-9.476897759807187,8.04614465990318,3.1210787229506294,-11.091064500422059,7.506273803381019,5.107237335711454,3.714590120005961,1.3919183702094087,3.888132605098713,-1.3660256342984594
149.0,-4.8985261163496405,-18.711328138783728,-13.81280202243395,11.826956227799998,4.480718235744341,-16.23900287740151,5.763430266378251,10.0900761471195,1.667936496655731,2.912915561368273,9.697039972695576,-1.417515545852433
150.0,-5.377893210373504,-12.193042624066988,-6.815149413693357,8.797226689426125,0.7517611731229623,-9.476778163013911,3.0536577010133144,0.03688259324977228,1.0823947942030367,5.627569318692902,5.250783694232092,-2.069803389743652
151.0,0.6880781181160712,4.905324254710697,4.217246136594699,-2.7899322406196134,-1.7984011471366643,4.515437706939783,-6.280597434066562,-1.1843625233686557,0.5771124123850759,-0.7432157310203265,-4.147358270616266,0.6795529026657587
152.0,8.98067435690812,10.990097459294713,2.0094231023866067,-9.978449920578376,3.4629322466298933,6.459279748014692,-7.747340210951662,-4.77989652094668,-1.063976512353789,-1.1224030445346056,-4.922601772517789,1.5160336428905903
153.0,5.5091051708640455,1.9154683194346767,-3.593636851429414,-3.7802448051896693,4.536551140316366,-0.7965533029610254,-1.1582392737942326,-6.9203686575853105,-8.311442514412784,-7.3593066540190195,-6.503305874625408,-6.098909171624182
154.0,-1.5135338057493968,5.258199776200224,6.7717335819495545,-1.8559726658898947,-4.154246232766179,5.981842345509834,3.291600926166915,-2.8008509993802244,-4.6752163768088675,-5.34104913354415,0.1578508129772298,2.6699828374372743
155.0,-6.520108997416029,4.323906655186104,10.844015652602081,1.1199933192368046,-8.61637668358496,7.631940090757384,-0.020893819729862706,-1.3699814974785802,0.4393793447463423,-1.1759176876288289,3.4545728603975356,4.629998539566917
156.0,-0.8801256175324412,5.361318980082033,6.241444597614425,-2.2143399182666235,-3.57878149652133,5.772541211236915,2.9757733576201706,8.064703164845978,7.800839830860183,8.158175842292907,3.189571635955282,7.653015028196232
157.0,3.4755789618334196,-5.523554845719577,-8.999133807553044,0.9742747307617547,6.212802678761232,-7.21018170278177,-0.18957499238774922,5.450004190911586,1.8767406965405309,3.0306201499510363,-0.620756710471313,-3.203195471244454
158.0,-0.9958904558201861,-7.1419356055162,-6.146045149696038,4.099389873230071,2.5443483189930456,-6.671894006034289,-0.6173791219360425,1.4223080290944385,-0.39967305172378165,-1.0705874871275647,-1.7942921191754835,-6.189351490798444
159.0,2.030563976690199,-2.1746109084854606,-4.205174885175654,0.024599324744645656,3.1617461759476364,-3.220834279891246,-6.281686874761302,-3.819846939189173,-1.7353828880479347,-0.9135830547206649,1.472476848970706,-1.2341883827262055
160.0,2.191849966443928,-3.561150518096705,-5.753000484540568,0.7171752727187748,4.0150093683517545,-4.615815798189532,3.5135375966460756,-1.7753044565315155,2.953666836759819,3.152566884572465,1.95362712781107,-1.233052344471196
161.0,-2.067900418962549,0.325930560950237,2.3938309799128747,0.9057599867436912,-2.2657369697661984,1.3124551603345829,4.766886694519438,1.4960390633588743,5.316920513349871,1.3710346306708312,1.6484187463571538,-1.7165869262071975
162.0,-2.930106605094031,2.9127509772906306,5.8428575823847595,-0.031901887182777866,-4.418667467664347,4.397073133116269,1.2840390996195952,-4.053966713322567,-4.441923839513064,-4.994780086800453,-4.871904924334592,0.49853400793457076
163.0,-1.8585396860508485,-0.24521010439267998,1.6133295816582667,1.093992780758535,-1.6868824556952733,0.6913734099935187,0.5443784799301036,-0.3441134852815182,-5.49301978814881,-2.083678342252495,-1.7269250424299023,2.862820343189278
164.0,4.599305844772776,4.823173320269673,0.22386747549692254,-4.744378656207437,2.158990530851165,2.521626327647147,-4.83522209785523,0.9440002574451627,-4.0925570660538355,-3.460766639403535,-0.6472487637888575,2.6772192401889816
165.0,3.3188157870240085,6.9551512079639455,3.636335420939843,-5.168025681633028,-0.1885839291510223,5.289764406912471,-5.340637869324915,2.293146677084559,-0.837538350127379,3.8079749328378867,1.8867314374316044,3.3528441906085407
166.0,-11.956652427058408,-9.018126455005358,2.9385259720529198,10.535348375394818,-7.401418642208085,-3.0433198025742585,5.686463795401595,-0.5123557803491012,6.32897158582511,1.9558503291597962,5.570915781659831,0.47738748778130147
167.0,-1.054397154976399,-2.744823162269478,-1.6904260072931387,1.867445417595044,0.2821910043365413,-2.212187764663234,-1.1522640323147548,-0.6795336655960453,3.238888427990225,2.6091596657929266,-1.6145374412944329,-4.720263457372803
168.0,4.5869633411377295,2.0253040964938305,-2.561659244643892,-3.261746973603713,3.614989259683837,-0.2490094615519114,0.951402779870533,2.980872592460912,4.2218757263037965,-0.19485941605618629,-3.063619658229009,-2.0287981470156935
169.0,5.2543842754710735,4.95002117899686,-0.3043630964741717,-5.138465770164429,2.741307588370906,2.3573554946571895,0.2964126012380476,-3.7548842655899453,-5.007483746064459,0.2577968896050621,1.3209681029012232,-0.22111409697920115
170.0,1.6549897351829497,-2.0213852986171394,-3.676375033800055,0.1464555365872422,2.7092260233013237,-2.8799046524628293,1.2848331166281846,-1.712853658641849,-5.290979196871797,-2.3709315186324535,-0.21906910526087967,1.1619966054166546
171.0,5.4799657749547235,-5.014269576732181,-10.494235351686925,-0.189150069029832,7.957327384649146,-7.777475143691092,0.9620570641748502,2.940499316205206,0.7592895703644653,-1.5050430865093307,-5.090853314274953,-1.7960934096745287
172.0,-1.4905558974217268,-5.906336769755596,-4.415780872333911,3.746023472439756,1.4397084421974788,-5.183411182995232,-0.6821433552317618,3.9319069388936074,3.6347565479159316,-3.6869857977166625,2.556574372148111,2.309407850477571
173.0,-6.988117989178569,6.856243097264339,13.844361086442879,0.03997530783021652,-10.353845655458763,10.32262501436163,-1.3952844047765118,1.7242519462376424,0.507160672752107,5.484935449904718,5.323993002182103,4.091035564003471
174.0,-9.532729666578376,4.217995546009597,13.750725212587948,2.6364730839710626,-11.653807481189192,9.02656176025281,1.090693986415226,-3.297575682355103,0.26957918100687217,1.3098420550557495,-0.10870858431144859,-0.8705384943728105
175.0,0.6906956802835689,1.228925844565738,0.5382301642821519,-0.9772629642688175,0.06460952701414069,0.916782316898618,-5.663338217533877,-8.484345142014059,-4.6631555283033785,-4.829235015980439,-5.739011825991661,-8.482012642385936
176.0,5.016536177482869,1.1971408983709564,-3.819395279111937,-3.12335951434628,4.4024940342764864,-1.2841867376724105,-1.2262122822696955,-0.9499041341470922,1.0139748772735815,1.6517650416870322,-1.757561836477711,-1.5118035313020828
177.0,6.398980066451777,-0.642901581430724,-7.041881647882516,-2.8174096402539206,6.69781579278201,-3.896311231815325,7.941731755298257,9.509727232127474,6.502322324132855,2.1919112190939063,2.5990042974570997,6.166097823356523
178.0,3.0491051551830988,-4.836296866400236,-7.8854020215833005,0.8720411579381793,5.4365698960843805,-6.334095566638215,0.9626190014000193,-0.8705560251036197,-3.2251210998214033,-0.04941612934672013,2.763686247062359,3.0960660158336157
179.0,-2.4357095525760317,0.22127210759148763,2.656981660167616,1.0814413715681273,-2.5043961382643127,1.3919284120135087,-3.566663061453279,-1.469793337604207,-3.4981431487648034,-0.5777698212221036,2.571553117012621,-0.07560542939932513
180.0,-5.156968030698374,-5.339081551410488,-0.18211352071200435,5.297027748384454,-2.447552156187875,-2.722893054569529,-0.7410232474924046,-0.028976602371163285,-2.260873048827629,-2.5633015970721726,-1.1603008119164275,0.03651407287982411
181.0,-1.6267799250840542,1.8407988336060352,3.467578758690185,-0.13969052429310524,-2.5051228758897306,2.6192773020872204,-0.9599362282614043,0.7376256736675098,4.780649214305968,2.7126047492123253,-0.8899299261772301,0.5673028371979367
182.0,3.090069535966152,5.258837485220733,2.1687679492546152,-4.208677594561477,0.4285091329528119,3.7627376395500987,1.2555491654606201,0.1258375410887262,0.24233260289015912,1.742782372900316,-0.0702358437130659,-0.3297275624049161
183.0,-0.13648675226076795,-0.4292808815851412,-0.29279412932441895,0.3270668422997749,0.04982277193709961,-0.38746182889627034,4.133884357325192,1.35023802122543,3.290519619757889,2.993856916176017,0.4264302785370867,-0.8801518299450974
184.0,-1.312562552804585,-4.5469624160239235,-3.2343998632194344,2.97402874129161,0.9328511962160494,-3.9158216128950016,1.860138124947313,-2.58620093285765,0.4969849712364778,-3.913831021016324,-6.061629967952339,-5.546771989869571
185.0,1.6053876924929562,0.2761322047387049,-1.3292554877543639,-0.9759225306605214,1.4348262858082395,-0.4739798148282306,-2.5685613328309613,-1.1225973670306528,-6.2267924568350015,-6.494046920816395,-4.5566552784165735,-3.321683155320396
186.0,3.3628023322551095,13.38092578533997,10.018123453084778,-8.409610345518024,-3.2895278567543627,11.669997464366316,-7.9369039109905115,-2.335407315758693,-3.484946626126458,0.2888579650517311,4.272640925461558,2.6561042993975006
187.0,-0.04068326268170663,8.586409553369016,8.627092816050704,-4.236840807388944,-4.304988512801508,8.650535829102227,-4.025520567325799,-0.18381341020825714,2.948559259890241,3.4480191979375356,7.502997592425535,4.885695536345533
188.0,-0.7266802455826475,-12.912904911075916,-12.186224665493222,6.770246390716935,5.751317824547835,-12.591337416477831,5.056815933620134,10.183649348248498,3.882007528940593,2.24762810005166,2.0616390008729195,6.428353997881489
189.0,-2.96844050420404,-21.719898941977828,-18.751458437773767,12.366253516229845,7.831061446679738,-20.28430693369465,10.359371490541093,0.6021643625655062,-0.2594466822775323,-4.101570733953164,-5.612025594932669,-5.076024430585901
190.0,-10.272460478400706,-4.4113303951386715,5.861130083262099,7.358505479011887,-8.0468664288143,0.7499189660757715,1.0941064133373732,-5.956411430683324,1.484316995058132,5.453759366462696,1.346782947023521,-1.2225176755034224
191.0,-2.9763972008715087,14.360246177960484,17.33664337883207,-5.677561513717292,-10.130964927378686,15.871837023092471,-2.988735945535054,-4.102877070723364,1.3399691016652706,6.016316628040685,6.4026002835558335,1.0778549049106736
192.0,14.090162117093286,15.606289717692672,1.5161276005994706,-14.832284383007966,6.320047400458,8.587296026771213,-7.1497036114002706,-2.2962943544155423,-2.8620196934300774,-5.647459912187452,-6.303403269364559,-1.6839109345690653
193.0,13.50913687472583,-0.3082504604784013,-13.817387335204211,-6.658401991163634,13.62420569239975,-7.030292604939218,-2.484822740826152,4.289611984879436,-3.8097287276219807,-2.1404532490616064,-4.6203831489351135,-2.492200101211531
194.0,-3.5755020674742592,-5.0444277162463305,-1.4689256487721578,4.337457928680844,-1.0886383080724613,-3.294584131147609,-1.120259758490802,1.4269909462238832,-3.559243583394134,-6.522369253772387,-2.5404863698031686,-1.7093572623805893
195.0,-7.106854246763171,-3.7977778458840574,3.3090764008789875,5.486634917954608,-5.243342314109026,-0.274390518629255,5.677786236432713,0.6110504919599018,2.167405148022355,0.2708576183635829,2.5620331134857115,2.6607631416360955
196.0,-9.681976092194672,0.9304733872819586,10.612449479476544,4.336826110325808,-10.106780465248399,5.747100633073579,8.212959972885258,2.4202552356729363,2.883493263494983,5.8869463091603915,6.882991943460373,4.800673524603272
197.0,-0.7098878899879173,-1.5729467265360912,-0.8630588365481904,1.1059774294994442,0.11304218719375392,-1.2394110083322198,-1.8546264610600298,0.10271879858114796,4.638931230918805,3.0029021579260515,0.6849428643123918,-0.5246331776822184
198.0,4.036601621554965,-1.6193355595410526,-5.655937181095942,-1.163643541129689,4.8797259671051085,-3.579567973045532,-2.974167033072226,-1.8000198651972608,2.9333659975930466,-0.41283543671304335,-2.8609377174905974,-3.7111088314362473
199.0,1.5142297547966301,1.2917574538928824,-0.2224723009036338,-1.4359726093653868,0.8224424067445684,0.5920164416682683,-6.436363831593947,-4.380377196199541,-3.7740460440815724,-4.193605546659236,-4.154476962876165,-1.4426324533206765
