Time(ms),I,II,III,aVR,aVL,aVF,V1,V2,V3,V4,V5,V6
-200.0,1.6083229580045786,-21.69269332201848,-23.301016280023255,10.044630058830826,12.482177120195853,-22.483043203987286,6.68649053230183,13.82780214485617,15.275372990392631,6.42609902255945,2.7403368916681035,-6.271127759652451
-199.0,-1.5609350709964604,-8.234061066802745,-6.673125995806389,4.907961248557927,2.5050456327697095,-7.517158027914917,-0.07646025622388519,-2.3661887994047293,-4.25663756944806,-8.957898073136036,-14.69966217881753,-7.036417185774776
-198.0,0.7812148053519017,12.887743445207109,12.106528639855252,-6.891469738512093,-5.715667972011916,12.517852770436042,-8.508020461014826,-13.946135326759823,-16.147462875885495,-20.295638782112036,-15.694203733260188,2.7765350161538054
-197.0,-0.6608879062503221,12.030572916089167,12.691460822339454,-5.649829204845525,-6.6544737823859546,12.39130808848883,0.40588039477860294,-2.6729702464847485,-5.783713859354115,0.49196751715021403,3.119378157390413,-2.670016444961256
-196.0,-4.330537592834482,2.239194338806457,6.569731931640982,1.0939693965230015,-5.433203475489432,4.446788995647627,-0.11703841714011488,0.4483130888507638,5.9880457820471715,13.257400284820534,9.115612807723203,-3.8887938777320286
-195.0,1.81825448671672,1.3107245542522767,-0.5075299324646463,-1.5840294182886454,1.1762202265075694,0.3768073085656405,5.824486870037489,5.249146494538858,4.042596596711408,7.866401315566478,9.180793313532345,2.378650769307877
-194.0,5.419770022219149,-7.385341637841226,-12.80511166006064,0.9693593376465759,9.124780683527371,-10.11207517200198,1.6558516796800506,1.2957569885997797,-2.2457489716156895,-5.123941913965056,-1.5153810258882379,-0.0007799577505545052
-193.0,0.14591685956598033,-11.765687221120597,-11.911604080686908,5.796065064436301,6.043036424963175,-11.85370656951076,3.5903749424452327,-3.922377692043274,-4.1274613306419194,-7.842492899406691,-8.578936055239655,0.10839833765319717
-192.0,-7.438216319227118,-5.1417000872546,2.29651623197306,6.268975773077033,-4.8490779531382415,-1.4425495406574003,-0.8963930399089279,0.8873165773171983,4.698365735488653,1.910316191028611,4.278244479239417,5.8930489078552455
-191.0,4.787931904650729,-1.502367006339204,-6.2902989109885965,-1.5974293428353685,5.4833655110708985,-3.926116707547767,0.37951980560646814,9.645286982000943,12.167307785763754,13.383908226207637,14.704686166805267,11.39283405885179
-190.0,6.035134715728408,20.921454865993134,14.886320150265973,-13.526323316620125,-4.476966820322577,17.941502839972706,-7.21774937465233,-6.313953034852489,-0.9820730593104812,4.231226804721006,-0.46891039772146836,-2.4342651415772942
-189.0,-0.6694612492778544,7.919006382962436,8.588467632240151,-3.6071290800356426,-4.597696527299472,8.282151139513585,-13.87205321416727,-7.016081655031441,-8.907698388234216,-9.719752058526737,-16.210474584121492,-11.36366012571398
-188.0,-8.584798814616105,-3.4086463986146684,5.176152415999196,6.0062825368088575,-6.845189026534041,0.9075825296123794,5.153157645034106,-0.18939447337307636,-0.5304446236915625,2.7267421619253227,-0.7874737455859195,0.5796288915232504
-187.0,-3.9761844551500056,-8.645298330802383,-4.669113875655096,6.319291235024324,0.3866114512137737,-6.632930580405731,13.47096322454736,5.53637084429392,-7.904905890464827,-6.124163142196756,-4.199430101838873,-3.4639441803142916
-186.0,-0.3947758358187732,-11.47457417618248,-11.079798340364674,5.949349514632978,5.309780756494822,-11.327637932100014,7.979696924338327,4.553436060274679,-5.122499618580326,-16.911866520999094,-11.009386551999771,-6.433680047370439
-185.0,11.979328311227288,4.106520175390399,-7.872808135836113,-8.016954025464322,9.899648652575605,-1.9282824240198346,-4.650974030535843,-1.48605526857106,5.443447220153859,2.5500652422445613,5.618557450572416,3.290968054237068
-184.0,-1.0547510926242332,4.282017910976208,5.336769003602551,-1.6532332907590321,-3.2164950523810907,4.847738371649447,-2.186889295732087,2.9767957634854536,17.113586701064534,14.803385195256297,17.781837087958888,10.55478834570876
-183.0,2.9473843780781097,-1.5593449182753254,-4.506729296351232,-0.7220039044795235,3.7889867688531593,-3.0699527419422465,-12.537650761797062,-12.677577106018841,-5.669355990095056,-2.564713638668483,1.2395761751948182,-4.7340149124537
-182.0,-11.6592654968802,2.474140038961814,14.133405535843458,4.572147660389122,-12.911912590037332,8.34842065715367,2.643464177664452,0.35243967850680047,-1.0553264116787446,7.884808572260339,10.273150868913655,1.649637889231363
-181.0,-0.01594404481131484,3.977162691553236,3.9931067363644557,-1.9196525532362492,-2.0219867316902143,3.95437831166998,4.390516875945846,3.6492026063634224,-0.1753983114735509,7.4711358042430085,-2.1753082930825265,2.7150374811108993
-180.0,0.3816619582268488,5.044564932385352,4.662902974157436,-2.7326141789795337,-2.1629543069040444,4.906645987735593,-2.372021237686419,2.666489703252052,2.69468562475233,3.590038849246344,-9.091159558434452,1.3018975503825854
-179.0,8.567825470473625,-1.5628057756943379,-10.13063124616968,-3.5264549478349903,9.398571536290182,-5.865810566468035,0.6089211857620729,4.831085611459447,-3.7548541180158748,-15.517241285759447,-11.73538915721737,-1.3259888578805397
-178.0,1.6405050902913025,-9.51273329324313,-11.153238383536058,3.9856216413103107,6.359515641316595,-10.344221079143113,11.52752554080829,-2.9533459601999192,-12.66230417556402,-19.21767283545953,-10.870052326798572,-7.322864427074261
-177.0,-1.8821845482728183,-9.208630867049,-7.326446318776181,5.511628984368384,2.7562948967928547,-8.27124193691316,1.6951244638270344,-3.3185895182647593,-2.6926705990947464,1.7492751973094904,0.10119938850535348,-0.4437391629458389
-176.0,1.2241216867614073,0.5381517661308886,-0.6859699206295593,-0.8389024047858968,0.9054796555146022,-0.07205966214536508,-6.717577109518058,3.26309566455176,11.590594474783218,15.167441948510852,17.624390849217086,4.856896769648996
-175.0,-2.943961148165742,16.570775503869882,19.514736652036376,-6.850424781056084,-11.201774244131796,18.046821047101517,-10.41020644447627,-2.5281182701959355,7.626834138852907,6.498776092978004,5.147288542324329,2.921788767227903
-174.0,-11.839382162384224,6.188414228422461,18.027796390807133,2.7901851023010455,-14.903845667985019,12.110366364625824,-1.613756359505909,-0.8046799473470503,2.2740941720184864,5.185660693426142,3.644844591375522,-1.7915455085461
-173.0,0.5212006731221157,-4.174719234577016,-4.695919907698581,1.8738249074777422,2.565014572130555,-4.438693016405201,-0.8079441427484058,-0.13415493322228578,-0.643539127954956,-4.522961625618433,-3.175768696256938,-3.036076825558641
-172.0,6.562436415740621,-15.314209557444617,-21.876645973185077,4.3490704076686075,14.262169779239722,-18.607214819830787,8.179142166885516,2.798871370000857,-6.509541929913489,-5.8806487343901725,-0.4829511928918886,-4.909928098671445
-171.0,2.350620220976204,0.197481011468005,-2.153139209508595,-1.2170392101093235,2.2232890355086745,-0.9991382493204854,5.620686201326035,-4.076027570985165,-10.982151770595152,-7.2323732121691275,-6.602177626437069,7.384729861931328
-170.0,8.69399120343791,7.263890720623148,-1.430100482816651,-7.99677923241762,5.0391868102474255,2.9655161023363936,3.7194750652537287,1.983530753737536,3.1959202755454275,4.845634544713956,-1.4366371456970608,2.3864951577529028
-169.0,0.8621359439780165,-1.7853298786507348,-2.6474658226299064,0.44511747915244904,1.8131664120313906,-2.253298579624195,-1.614696945229819,2.100951553403562,8.495162274639949,5.68744368996613,-1.277697379127136,-3.1058775573489013
-168.0,-8.706959729713518,-10.254238326161534,-1.5472785964480729,9.462167220448638,-3.6016296378376147,-5.863247603526063,1.0875513093180809,1.278742066983326,3.787238843075285,-2.075505048703497,0.07761475996872955,-6.3804138812456825
-167.0,-2.0115182655205244,12.790390765219511,14.801909030741728,-5.41285320798421,-8.433362689301394,13.8310524302637,-12.153349824039957,-0.7204750488586686,-0.641959126608485,-4.807458913111657,1.9565964628607755,7.8479095752297034
-166.0,1.6507107792613227,23.31370034182409,21.662989562564952,-12.433552459149087,-10.039684220215646,22.442194812258055,-6.420433857614758,-3.0133138797656263,-4.321413928858288,-1.3096144682252455,-2.329934635164461,-1.6437516997402346
-165.0,-2.5681255358302537,2.679748923183211,5.247874459015164,-0.09238078586440635,-3.869716050295953,3.914245589686156,0.41607907268597444,-1.3100300134830096,0.2003490637999339,2.042953661969874,1.4297533080456863,-0.19656235582793316
-164.0,1.9870180101863146,-22.502317268849303,-24.489335279035192,10.295273546255498,13.271406572972552,-23.47188586305238,12.877216741449615,5.221050308969382,0.21194756219482658,6.218473407770775,8.019789592291172,5.058964455801774
-163.0,-2.92903050741092,-31.45476270127264,-28.525732193862737,17.22775685825612,12.829477729011042,-29.973117190660794,0.24944081965426523,-4.133954452848796,-8.315325658378638,-2.2293134886191974,-3.9689378318145887,-6.088174207248081
-162.0,-0.19371036776173922,-6.190787672761992,-5.997077305002978,3.150234079333628,2.85492122455715,-6.084200876116231,-0.7469258191142352,-1.8833242571863016,-6.983603760592262,-3.3778981651514264,-1.4986381439141463,-4.465204088174128
-161.0,4.519355833997072,20.310078700848646,15.790722866848753,-12.454133034029102,-5.67937991451102,18.053317256715076,2.4533866999854705,5.236865741577467,12.646893299357508,5.845851053574734,6.774928769377441,6.699284859171964
-160.0,0.011132567240360824,25.381893763017075,25.3707611957755,-12.654016648992755,-12.640453829093802,25.37395355728414,-4.803818262209379,-1.9333048666604586,13.150108365895193,1.7312446582324459,-4.381879566093314,4.33024733803723
-159.0,0.27395231369811046,16.254862273037716,15.980909959340458,-8.297932964714995,-7.888103460394539,16.112319665484822,-1.3364794438525198,-2.630002657517413,-1.105050476238377,-3.6065623751053333,-4.654464005792054,-3.9838570884364266
-158.0,1.608677415543514,-8.448936872895294,-10.057614288436069,3.4669527497503303,5.881884031842958,-9.25963135159178,4.326007732634195,1.3707985819279993,-6.952295180500431,-1.7888839786241213,-1.4320391456786288,-5.076643520381257
-157.0,4.1315516808780375,-16.783372733762192,-20.914924414637373,6.294014545233953,12.496996058433904,-18.853691872253187,-4.337487474914774,1.589241082842131,-0.7767061957246799,-0.35757565873600905,8.140250455325244,2.4169468272977928
-156.0,-2.5194418713808835,-7.723814225734868,-5.204372354352316,5.166722360144511,1.3969562778911495,-6.464073962360411,-2.5799615737942645,1.237321003387769,-7.44365412505976,-6.560693951995271,-6.0485722011756415,3.076373444819234
-155.0,-9.01346183747742,-8.88466389677635,0.12879794070048334,8.911922908396402,-4.5962286599120965,-4.370613802807979,9.707521563348976,4.380922461949626,-1.8660964550358017,0.3482132975115695,-3.6257471727558785,-2.0896260749268603
-154.0,-0.9269783590453731,-3.20758632896198,-2.280607969918735,2.0254140732512047,0.6474203936486782,-2.7271365995687775,-3.286709221458291,-8.843355598151158,-3.531661701774197,2.1365711478881524,-1.2967769865081609,-5.498895943390689
-153.0,-0.7225366658170908,7.463184395972105,8.185721061786861,-3.3385211344366867,-4.490955175934786,7.773661975350101,-4.581818846908846,5.4982398050708,11.618728745668562,8.85373914356044,9.451147351699355,3.2316037557317303
-152.0,7.599580317219328,18.564314612738254,10.964734295517545,-13.054511046241675,-1.6497476207657629,14.80319824908731,-2.3554737424071233,-3.4584935184430527,5.615750374642277,0.8780802169712105,-0.28906787789316635,3.708157472828457
-151.0,1.7385801435321975,1.2024758447306212,-0.5361042988013258,-1.4458822449536965,1.1616778735695399,0.3801541769389942,2.9540171011182266,-3.43803842551833,-0.9359259280386691,-2.7683593959386377,-1.3093928507788348,0.6437686369224882
-150.0,-1.8191180603542607,-12.075949602261378,-10.256831541905754,6.8926498123040405,4.237576892924219,-11.194455806253686,4.720256720266826,3.8342227690996635,-1.7067283892755096,0.8918350000546253,1.1431643570507855,-1.9469274475614333
-149.0,-7.362685778181817,-7.401922286570137,-0.039236508386563784,7.407473235489785,-3.7229892987482702,-3.7509314950614847,-0.9795750870421902,0.3812223560889014,-7.589926017791762,-4.893726260962443,-4.9092327028269285,-0.7854275787547287
-148.0,8.308228305175165,16.096673710208684,7.788445405034055,-12.252713889977201,0.2807544865517074,11.903997386053101,1.1137961617535113,-0.41778870626483244,-2.6669464651932633,-4.335263074341504,3.65807846284903,6.421954693879865
-147.0,8.48548853952066,5.5614526220534914,-2.9240359174676454,-6.989741601776912,5.7324639251647245,1.3466842582572158,-3.5490458167412244,-0.905885581689589,0.06911602253729088,1.6997173594616295,4.104191530316657,-0.7556826387527824
-146.0,-9.306531828365582,-10.721657512080604,-1.4151256837162711,10.054771390816434,-3.9099625757673273,-6.05327007865889,-1.1842801793226772,0.8736305894231913,3.51597055120776,1.5310823882083437,-6.498245915720837,-8.412907659743812
-145.0,-3.665759286041869,-1.5974695397413754,2.0682897462994245,2.6016453534669193,-2.903482690479409,0.24080373426044366,-3.526163284821607,1.9346447517611738,5.345503813193078,3.814163053708096,-4.344954722613863,-0.8690865869558464
-144.0,-0.6031559538891482,-3.5915655869195837,-2.988409633030585,2.0756735197015153,1.159105183889495,-3.2882160110350176,4.589769543475459,-1.9314099288450124,1.7844006564354724,6.340132984584713,3.871364351023515,1.8186303397949308
-143.0,1.589005756552648,-0.5418645500670862,-2.1308703066189705,-0.5381291914978714,1.825080174081389,-1.3308115826734797,2.62754812950816,2.272803011382758,0.6396120872945971,0.8465733828610686,7.615576829078071,5.301235095029072
-142.0,0.8786706919882673,1.7080488407236811,0.8293781487366493,-1.2246939129221435,0.06407223840207865,1.2847729408153006,-2.4056557179781,0.7146292606585545,-4.42873028767209,-5.3529485287786525,-5.459995803750726,-1.0323554293420711
-141.0,-2.1245076574928285,-2.6243351024707633,-0.4998274449767315,2.3647410864018243,-0.7780437009822909,-1.609928552290521,4.9639343377098095,-1.6353199583177391,-2.6643496266955324,-9.099374325801938,-2.152697208615076,-2.6015310879973113
-140.0,1.191454649296636,-4.021261910107883,-5.212716559404017,1.4006253420473895,3.1545823826934276,-4.57023760858346,0.5444150103771104,0.39466776877013965,-0.15275367498811576,-4.408630592037705,-4.255210017413068,-7.026487413759601
-139.0,4.428157413238403,6.899905622352426,2.471748209113363,-5.687827993648287,1.0103958938638729,4.667330273869224,-6.62410363681749,-4.235211957498893,0.1991283957068467,4.634232728347598,4.7531913079137285,6.910338265797909
-138.0,-3.2643592688454586,6.628608465293204,9.892967734137498,-1.7188780671811066,-6.541163453278933,8.250958863728822,-2.625293796845901,-3.649557581917873,-0.4856761267508295,5.409043785047954,1.4688121442161552,2.811726448305309
-137.0,-1.2122829273194693,5.365498997902847,6.5777819252212435,-2.048251229168511,-3.92788602537647,5.964639909426135,1.8250832409441922,4.638655396798909,1.4834144635022817,4.302236650969991,3.2512480351433073,1.2339256078130953
-136.0,0.2378626106267696,-5.512916198324877,-5.750778808952002,2.6548169962435235,2.9705162346516545,-5.641210317408291,0.2036300313136642,7.817054845337443,0.9066870958596649,0.23416185235339704,3.919774650190362,5.052676156693745
-135.0,7.187540141195036,-6.494667045278044,-13.682207186473278,-0.33503502263900975,10.418012285392267,-10.103422581262619,1.1069842308508808,1.1459063157308225,3.3939868444896226,-1.208103792269954,-7.290221157104175,-3.363757757364011
-134.0,2.159459789416667,3.665578761244433,1.5061189718279469,-2.900861836623318,0.3911438952487609,2.643130505570972,3.6905855727826733,-8.469492326142202,-8.003863291829699,-5.445629338498046,-4.643557507692087,-7.385081475362755
-133.0,-5.7778717974889116,2.398080519827226,8.175952317316819,1.706932012716324,-6.994111787792519,5.260129427503949,-4.042740970530577,-4.0511009865929655,1.2767413063809814,2.2086982777924073,1.4698855742623311,0.22332134079133992
-132.0,-11.515131897773433,-2.439817955267344,9.075313942507247,6.923689170718505,-10.320579358416055,3.3660426071495455,4.923382790963944,-0.4379791021986885,3.82898288394726,1.566703539699513,2.7250353594684,-1.4224790640492317
-131.0,-0.07322741030017443,-6.663380479237113,-6.590153068936226,3.4006192187925057,3.2214511027997723,-6.659376159503809,-1.1874065988214948,5.43739737198681,2.523615499837713,-1.9724966015216987,-0.06575409357018747,-5.264606454762065
-130.0,6.2696038960051395,-6.888855252555983,-13.15845914856093,0.2674101853741443,9.74345671739617,-10.058167512628081,-3.7298666257955015,5.160411051880681,1.3859043578067003,-0.14434968949520455,0.6100242617411561,5.857439437965837
-129.0,7.635461981493958,5.417501546980748,-2.2179604345135395,-6.490033619312508,4.946324219634635,1.6412556602371318,-0.002764890594541658,-2.026689603889401,-2.6555179749905244,3.1471737424438206,1.7137521776415037,9.437485542067297
-128.0,1.4116298770257565,7.013276669420753,5.601646792394359,-4.258688686864163,-2.080225509883567,6.266199151220795,-0.9523612564651853,0.7100799197196934,-3.856988238477693,-2.7615796571482063,-1.5803909041998965,-3.140829051708461
-127.0,-3.7558060873138004,7.30758676039563,11.063392847708949,-1.7493908405569765,-7.393630759207077,9.218327199969531,2.2737943922011783,0.9812573101101183,1.3258224322384642,0.15950783041333605,0.003790164053348255,1.3986426441898803
-126.0,-1.713027147022236,-8.715292321732354,-7.002265174710504,5.234907310876954,2.5884155281354753,-7.908634957917677,2.910638260892039,-7.364247756256249,-3.9284611167825108,-6.129468344398131,-3.69456614748675,-6.377604632531217
-125.0,-4.492300750242062,1.3936518998965508,5.885952650138521,1.566670505749082,-5.156532414570302,3.6669900829360897,1.421189930159978,-3.287653806775533,1.3054022790335553,1.50939055431818,2.1582501831403493,0.2568642637452747
-124.0,-3.9552581022334112,2.9586393610612,6.913897463294963,0.43703822955752303,-5.469769786241626,4.964935418188453,-2.8394407101336894,5.749519845544596,2.0355743602381704,9.77948079851561,6.848595156345041,4.827171392451773
-123.0,12.355155919396733,7.1463571026765385,-5.2087988167197565,-9.72963079952842,8.834912047137667,1.0018958365103348,-9.575511757776523,0.5744080711514985,3.7243704331837906,5.85221903881251,0.1240121418727016,-0.344660615051837
-122.0,4.859720030818324,-3.597210537302657,-8.456930568120773,-0.604159769364188,6.638405456373502,-6.066728852549443,-1.0641589187956781,-6.076646705293448,-4.415628026392862,-12.275766989004897,-11.552943803188704,-4.067897491052866
-121.0,-7.599531658502055,-14.779678546495056,-7.180146887993361,11.22295816889283,-0.22807513833335014,-11.014210217734094,12.510451643683277,8.350486337178005,3.086788007363921,-5.492632620146778,-3.7261342425354123,-4.694593727569076
-120.0,-4.520854695786752,-0.7723419296424527,3.7485127661436923,2.6055130658606407,-4.155534601105993,1.5353283604310342,3.4287298334705607,3.9315433384385607,5.906126953305133,2.092802475964467,6.167680548688274,2.656989802575311
-119.0,-2.5421801706660925,0.9773618600079964,3.5195420306736813,0.7421168364960644,-2.9779368397416643,2.216164545953929,-7.08430884010358,-3.993916203367459,-5.279840019226603,6.051654905944468,8.15363482743071,4.302085455475799
-118.0,-1.7005498654424158,2.8759578449597005,4.576507710401857,-0.552122231750069,-3.1696259512938694,3.6898743185991156,0.40157622591831643,-2.2632123504860577,-5.1573734582418345,7.787158973435679,4.3410722233534,1.2627720917848482
-117.0,8.030965800040548,6.962879074057083,-1.0680867259834352,-7.545134987429316,4.515092471329398,2.983763853795766,6.459381712204621,-0.07433468835882717,-0.5451595650333987,-6.711087668302176,-5.737474756911617,-1.073559305147838
-116.0,1.0704075280470096,1.4876938417634875,0.41728631371693026,-1.2530848664045688,0.3709701838898368,0.9826474014562097,-4.320647447109154,0.30777909736472076,5.77792039228701,-3.489233219725431,-5.955377615413195,-0.23644676051035007
-115.0,3.5006872922400305,0.7452279804360362,-2.75545931180316,-2.098382552479453,3.1761795911637405,-0.9798561436897486,-6.4282007814186235,-3.736462387178647,-3.8246094207616936,-3.389599859139399,-2.4672130765107143,1.6383780212584158
-114.0,1.83937877157638,0.5297903278933735,-1.3095884436822078,-1.1566116052386857,1.5498515019264247,-0.44612474366398525,-5.106716221027782,-1.5972715841486964,-2.717755481431767,1.3080242825103416,2.903525341947965,-0.2019072889917266
-113.0,-9.627532648693796,-1.9548657983490434,7.67266685034507,5.7483830868318435,-8.668670443985699,2.88112724773868,8.723343009265955,5.173092555972671,3.469674501894311,1.15304324815334,2.475586345320825,-1.0470472194261873
-112.0,-1.7646478082075543,-7.754586510240115,-5.989938702032747,4.806047182852608,2.0979167040927518,-6.926632312326537,2.307795475286745,5.626147123087816,0.7831839481241343,-1.6457680599151954,-0.3338524087440793,-8.862804123304285
-111.0,-2.9241142868635692,-3.372896531889243,-0.4487822450264689,3.1261640508040442,-1.2520545654278359,-1.8819168961313202,4.865932783668789,1.2636857953737253,5.095467294577134,9.437459739703975,4.316686287241387,-0.528884465286469
-110.0,4.540349852931964,5.7928179920610585,1.252468139128442,-5.182336115867552,1.626596708238355,3.558225274043051,-6.866115252632984,-9.850534306411552,-1.7099464224000087,-5.278492048958947,-12.620300470182986,9.8292441869152
-109.0,9.204244571557108,8.532693153110888,-0.6715514184462978,-8.882551289962162,4.99453782356357,3.8953827219217585,-2.356395008396633,-0.10181572678342077,0.7990018071827325,4.475307795909548,6.19500768516892,-0.3864613443828713
-108.0,-7.201629427769673,-2.6100704687344845,4.591558959035595,4.88896842663891,-5.923258025570503,1.0420992260255533,5.257579300808741,0.7961446544290183,-3.0278922174552383,1.2335747680970095,9.749647941170586,4.503232129520764
-107.0,0.6705892519031872,-3.795371129019663,-4.465960380922385,1.540478051268957,2.617736140973692,-4.152466700721586,-5.3545758375988495,-1.599773905904177,-3.2910334955989873,-5.152123079510559,-2.9066209071074693,-0.3785524510663576
-106.0,0.01533127811535906,-2.3792107425052063,-2.3945420206205874,1.234539950424795,1.1758250569928028,-2.4072095955768287,1.504076127609106,5.25300738489238,-1.4077591012607729,-5.304805862524517,-6.568431382994583,-8.267804721176063
-105.0,0.0896626649671145,-0.789671006446983,-0.8793336714146994,0.4016169181284046,0.45831416884703696,-0.858602043561125,0.416729110645596,0.27544447875099065,-1.9043512486812113,-2.9200305135984332,-3.6545657972109415,-1.7144428801232192
-104.0,-0.6315859238534738,2.400678568953276,3.032264492805975,-0.9085938908792027,-1.853183102976471,2.762357029095872,-0.050779248199588345,-0.4627616259416082,1.0037965277941234,2.239896236738506,2.652753567268066,1.270263127062461
-103.0,1.0615598437315266,6.162270334931562,5.10071049119974,-3.629815577999666,-1.9563485720166915,5.586505545019409,6.084353322145048,0.9387308644410329,9.48819856383091,8.499189381471323,6.869980840475221,7.327780380358031
-102.0,1.0629591339701414,-4.679173110000384,-5.742132243969927,1.7972007111849464,3.392114738048887,-5.189733297881731,-1.8673245448058622,-2.5187549601271444,-3.3178546583546344,-5.650743766949767,-6.989218549563086,-1.4895285798917528
-101.0,-7.8945079869829335,-8.437433955555322,-0.5429259685711942,8.160602689889776,-3.6832996693501214,-4.479941529179296,-6.1703311441863,-0.11889288462078262,-1.786172033797521,-0.7118260273963877,4.024717751158986,-3.416726602249363
-100.0,7.423507633055978,10.58290725430776,3.159399621253058,-9.005930246702853,2.1240044461118517,6.875248934859657,0.10405121378008131,1.5525694017607183,9.691294532003456,14.341591958792854,9.82549628851631,6.217132323875813
-99.0,4.36789876747836,1.4432634463596954,-2.924635321118047,-2.9086835633699266,3.6335332004126526,-0.7369141923223692,-0.11606376509925065,-0.35713234566117114,-1.4808974934779304,-5.837485136293193,-10.756711975760382,-7.806365865803976
-98.0,-4.722561743540151,-6.792652512628429,-2.0700907690886057,5.7520936564324,-1.3476282366115133,-4.422129339724494,0.5836841283899453,-3.500082059553024,-11.752898927674616,-9.452252305642785,-13.84842554269204,-9.885807224113359
-97.0,-4.363408784940409,2.830879280825939,7.1942880657652335,0.7577859399443532,-5.733165197972129,4.953151874005892,7.417935499768003,1.5651000387783411,-8.462909389115335,-1.4020387027831616,8.820747549057085,8.010923070216272
-96.0,-1.3387475247857394,0.24834480950260407,1.587092334287086,0.6131128538462685,-1.4304677512531923,0.9497139642460591,0.9705807253403016,-0.01560842873447188,4.569770443381439,3.8339121223147052,7.282734958139976,9.61080949441842
-95.0,-5.60693736160952,-0.0578127665101853,5.549124595098523,2.8200560364920952,-5.637465625559829,2.790510714180434,-10.537753277790607,0.5625724545048567,4.5592652990257,-3.2158999796296266,-4.012881444747875,-2.558957704366918
-94.0,14.086862175271495,7.9220092512647735,-6.164852924006958,-11.017996959647808,10.133815422933637,0.8553124668761405,-1.7826686536646532,4.3287399370457935,10.44315084729293,10.171826511074437,7.953465137697829,4.995882507325637
-93.0,1.3471982043379516,-8.321351894654203,-9.66855009899209,3.4714925851607665,5.507897031127779,-9.011726844505326,8.419744747264028,-2.146555986845447,3.8834823408842425,4.252581294800747,0.22423664661536535,-3.699036262673606
-92.0,3.7236633717216936,-10.528065625039881,-14.25172899676124,3.3831803075340208,8.984626780413167,-12.405223704016842,-2.4115147356715516,-7.71654104872123,-8.928677785913617,-9.355076072089147,-4.426327044517227,-5.534703673709819
-91.0,-3.2762323300330127,-4.611185054375513,-1.3349527243415689,3.920089192247717,-0.9711332973303213,-2.9916001155071705,1.1480605126969443,6.9751574256666355,-2.529842260165606,-2.404140484957588,-1.6773118070524338,-6.291043139217292
-90.0,-6.620112482828326,9.642594374578682,16.26270685740808,-1.4608314834661926,-11.433878152359371,13.006510868476791,6.1346645722213795,6.061420498214892,-3.485464633596647,-7.943808181604951,-5.095164925333115,1.8796448944396156
-89.0,-7.25352807155589,10.529289298465912,17.782817370022617,-1.6698782077916703,-12.498719270427797,14.123671401484227,-4.317302717505009,-2.890312016687913,-4.380607977919689,1.3398163556818088,-3.9260849080018687,6.4397715095339905
-88.0,1.386528335775397,14.0653266391197,12.67879830334446,-7.68123521723762,-5.613628107885394,13.411605030937293,-6.301590092680562,-7.853085108573559,5.5131574037566615,6.409748716367971,6.026205445393294,2.549087132446493
-87.0,7.4274896351840525,1.7873281864146335,-5.640161448769999,-4.563753046416373,6.498441012563738,-1.9707588960204392,-5.002727086666589,-5.177844957727615,2.3560729295709617,2.034146376492609,0.9804560220608427,-1.088590138803085
-86.0,3.7461716772053073,-7.9136063129564596,-11.65977799016283,2.047168712313196,7.673413873880005,-9.755667220611867,1.1798491009784278,8.143753164478554,7.621990064008186,10.868446868841389,8.968232289512589,3.203260277170231
-85.0,-2.9421515971757666,-31.576585787887684,-28.634434190712668,17.219517059228824,12.816031964037318,-30.076811885367892,9.297089505399585,7.960825641949138,3.2944088426249807,7.672067922598409,0.20270040379509924,-6.587835301289412
-84.0,-7.3921632855834005,-16.657715867320835,-9.265552581737385,11.979544679129795,0.9790743809642581,-13.01389926626096,8.181562875660864,-5.314509079734769,-11.226483787495276,-15.543408570812279,-9.963178600326755,-6.352907418880157
-83.0,3.4905519275015484,26.10205352086801,22.61150159336686,-14.769595342471899,-9.5276676172608,24.38061094109527,-6.888073775493166,-2.521118619350617,-9.538481787541688,-11.25684000707429,-4.129777225068211,6.14042238579843
-82.0,9.943932381870471,22.406240705405096,12.462308323534954,-16.1539146563095,-1.3146920868304708,17.376579460978512,-6.622532437363797,-3.4078584889769443,2.816761594839595,-1.1974558100098314,4.324595245970735,5.731160450385418
-81.0,-0.4926944550025967,-2.0312695798678586,-1.5385751248650106,1.280858167820126,0.5398782788181506,-1.765585980841804,2.637995691311729,3.3951177378369484,7.73235606410192,3.585933543122007,3.5833314906758704,-2.365472516958254
-80.0,-6.602628786126276,-6.362505947751719,0.2401228383743632,6.503213454044989,-3.4052122308716815,-3.041002345282159,1.9457711061191372,3.8521129008071915,7.8230766877713815,5.801362679518108,3.0806767713819716,1.2057726272477907
-79.0,-5.80904200816469,-6.08047928512792,-0.271437276963599,5.970209324220664,-2.747151674802419,-3.1513782383837636,0.07121604173538376,0.7508084202817442,-2.2054491938312024,-3.917961098305704,-5.408794921277339,-3.7356353715701935
-78.0,-3.506770266307418,-4.942849702242286,-1.4360794359352638,4.176856998015061,-1.0816985368871217,-3.1572288200107392,0.6965263785911713,-3.11018526519448,-9.624690943402117,4.244890930081175,1.3869571014821802,-1.7234089342105399
-77.0,8.386778294344717,4.9246898722036745,-3.4620884221408805,-6.700592311857668,5.970397135151664,0.6941143906041667,-2.730024661306181,-0.7636669142348205,1.8469566488559206,9.658806707765404,-1.1062855646861545,0.42483601656536774
-76.0,5.0643873732937825,10.057694342899726,4.993306969606288,-7.528142836644239,0.015958086489447965,7.497007942698107,-10.004170628395576,-7.166940139250238,-4.153020475704587,-6.147426395546651,-5.276475037186045,-0.7533175751963461
-75.0,4.348246110915785,1.4405649424090774,-2.9076811685064428,-2.866650690311499,3.6181804942466798,-0.7560808458920661,6.045244373637095,5.21279647407198,2.729265299900635,-4.310119714797075,2.986520400921316,-1.050758600860786
-74.0,-7.190370455784567,-16.548852312726122,-9.35848185694149,11.811100598052958,1.0785909284916662,-12.895330227931295,12.282146843638593,2.8494073514044285,4.034593169176056,3.218562690904946,9.437728037571478,4.990118267538581
-73.0,-8.003357922997157,-1.7905087405103552,6.212849182486693,4.9102825460555986,-7.1153240733180425,2.1890535783824863,-0.8090481263154112,1.461396533965924,0.925950461130711,-5.107134028209902,-3.0428261071317646,4.782651270471652
-72.0,2.158975772816267,2.701715664745455,0.5427398919292521,-2.4201136806513475,0.793994413505601,1.595591434737697,-3.7772819914803435,3.7285113474305227,7.901574411997907,2.1807594548512923,-3.0848743594161405,1.8936755829271799
-71.0,4.9857217325350085,5.278997757967866,0.29327602543312814,-5.119397836697786,2.4008174642674627,2.8323789252751235,-6.130951429167999,-6.210875345857208,1.2928893894719096,4.336426447419791,2.3134092496432697,-2.0833307300406183
-70.0,0.12473107242642456,-1.4907035928663372,-1.6154346652926623,0.7045666946323914,0.8351830282950194,-1.5913939251438878,-4.093015420095405,-3.1378927806459904,-13.041844983451622,-12.046067235568486,-8.966617811787733,-14.239051571713743
-69.0,4.484896243315026,2.5435244772873986,-1.9413717660276952,-3.480372857562451,3.2476725800047967,0.3366818098457247,7.687196883921966,5.3365783975791015,-3.9825828994462196,2.618891260019097,0.8466637534068386,-2.7558073875875886
-68.0,-12.08588774193294,1.7624325786430992,13.848320320575803,5.128843565632509,-13.017755613932689,7.837489909885233,4.517460193965374,0.7498580120210856,-1.6090010842791496,6.981119665757871,4.776236665605909,8.317850447295006
-67.0,5.151650902333369,5.19989083913386,0.048239936800537286,-5.200904984820344,2.5767960682425732,2.57515962691692,-2.3446240917762666,-5.083396635013415,-2.0135810760642245,-3.30332630022368,1.5197078445265242,6.817981298508776
-66.0,13.275819960363679,-1.082425962470147,-14.35824592283349,-6.120985840983704,13.842247071628952,-7.77045186228894,-5.063760908938128,-7.768382761524834,-1.2279146445812241,-1.3222434343457938,-2.190265400829615,-1.7708754948887515
-65.0,-16.153110146860943,-13.784075848621068,2.369034298239927,14.93807817869899,-9.312378457750132,-5.678986130123088,-0.3119475343863345,5.761422210740898,11.324522165841449,7.811684939995326,2.8053500740291346,-0.16572126871880966
-64.0,-3.8444752687728174,4.5460730491019135,8.390548317874355,-0.31360153570995397,-6.087233522286554,6.498037294443214,3.335049397859735,12.33530114509254,15.950717398038169,12.059304084421035,9.210385995657443,6.4853667465608495
-63.0,10.576228778079361,-1.476950131864187,-12.053178909944208,-4.524664524467916,11.346803744664848,-6.732923049171976,-1.5611679993864271,-2.40463964924483,-2.8962992735643587,-6.345941042075816,-2.9613782952935885,-6.957280429486765
-62.0,1.6216339107606483,0.21188281852099888,-1.4097510922401912,-0.9017148411600107,1.4685653342966747,-0.6425187893948016,-2.7813031265580133,-1.042401519429709,-7.33015558680544,-13.80624947657116,-10.252413732538765,-7.840358340616618
-61.0,-7.1406686644833375,-1.1711093755080269,5.969559288975354,4.165390887623599,-6.526754697776609,2.4369779329672694,6.2825842545828525,-5.154592033041448,-11.079180862094056,-11.301690809224144,-9.35627634012544,-3.742419662981663
-60.0,5.698628436463768,6.615075562782214,0.9164471263188321,-6.148197205682138,2.3352791325125644,3.7259487651602567,0.1294127933145519,-3.437525607725657,0.49371885279078676,-2.4415718937347606,-1.4967147715194034,6.331633812493811
-59.0,2.3943362207774577,1.4189720541856938,-0.9753641665912234,-1.9739569922376181,1.7019070785661317,0.18146176713793638,3.387292060640745,2.5012356901817023,-0.001788802463453365,6.937662674825644,2.792228470914004,2.676438668491635
-58.0,-5.8545062900622025,3.910999029656897,9.765505319719555,0.9881056493322647,-7.797060608102576,6.875020969342394,-4.540468166144979,0.7714226866116698,2.494424338026872,11.241582110562552,15.406707227036971,10.719400728072703
-57.0,-4.994744542224907,0.6249873330178488,5.619731875243027,2.2070465891000763,-5.294739998296091,3.1576609994727276,-6.977564708783468,-1.6621801866135522,-2.4551711372113303,13.053558198014837,11.875632120058622,2.69374979093173
-56.0,3.0034136775913516,-7.159863027499277,-10.163276705090649,2.0278259619291,6.599796883686868,-8.704951595570085,0.6614251537760687,4.407639206827033,2.3385322733631897,4.866018564675695,1.6548216559559839,-6.769485667146234
-55.0,2.789244174875769,-9.288763712498964,-12.078007887374907,3.2845977935784907,7.457647724137248,-10.645584696233952,0.15548141140529864,0.09035216493923448,2.5827079603084435,-8.270947314147142,-12.404592143681564,-9.323189118279146
-54.0,1.4700366070396034,-2.1257252202811214,-3.5957618273209135,0.36942147396401026,2.48734915991665,-2.8969454335297966,6.1222640965618265,-2.4676285898565364,2.238006710115819,-13.104204428693238,-15.255105994150348,-7.958758287980272
-53.0,5.408997340659848,8.01130986463508,2.6023125239750824,-6.74079860299003,1.3661371359086274,5.355483012587808,2.2343608060450197,-2.0323500957591585,-5.244636741742179,-8.436511269951264,-8.730365934626189,-0.6634238686297773
-52.0,-2.7424326534766497,8.975960107927772,11.718392761404349,-3.14208255042476,-7.183368654658506,10.3230807461797,2.5373854968472256,2.3984318634402717,5.173437022502905,2.658975034484981,7.771387694093757,10.768647439586083
-51.0,-6.760531791850752,2.940378005208471,9.700909797059209,1.9663816559443603,-8.260821412489447,6.300787624510383,-7.768855061193605,1.18535258846376,6.687461867910798,5.775162703282188,13.067138827695995,6.366887705138531
-50.0,-0.9619041529666092,-7.547481603354921,-6.585577450388344,4.23166700162848,2.858191962170846,-7.085072023718731,4.003821692533562,1.6100557655515197,-4.670727950410182,-1.4084363716718444,3.643605608645112,2.8909970674761167
-49.0,4.227577650650482,-1.0805456135932716,-5.308123264243873,-1.6008015086271796,4.730076014319283,-3.136193837997973,-3.8848539303945713,-0.29352365812431647,-6.7714613817003615,-0.9307249100835753,-0.6331191260369948,-0.2541997411314507
-48.0,-5.1224192783772375,-8.76081732480971,-3.6383980464326817,6.907245620467206,-0.7081812865701851,-6.225367676830009,-0.5455633576847057,-5.04726257876862,-8.771349797307753,-0.3047767077480761,-8.463413806537593,-6.203218238179003
-47.0,3.2333790424108413,5.612522595811303,2.379143553400303,-4.386703578592272,0.3748080059744867,3.9626987648070724,-5.445203806222189,-3.546595575935984,1.6367867255373767,7.642554268979336,0.12855002021775874,-8.789582317063472
-46.0,4.729169930494935,7.591939248145466,2.862769317650625,-6.131369477004152,0.9534300966938025,5.264514996729442,4.12349389401003,3.571255711301036,13.470583057818681,14.112579510608551,5.0240648103741234,4.377219011439597
-45.0,0.23278760587978997,-4.507182558509166,-4.739970164388554,2.1620433001945223,2.502558972742413,-4.594808620902162,8.63378119373313,8.098219411151344,7.438418356439197,-0.7360037375023825,2.207508539610317,5.9283740150767406
-44.0,0.2262982592101892,4.862051233811511,4.635752974601778,-2.599019690941145,-2.1901787014478518,4.691517665572414,-2.151138362050859,0.050677615778190965,-7.49949781545785,-15.299065182932884,-4.8969639686667215,-0.797505722178617
-43.0,-8.743777327767432,-10.846273105160016,-2.1024957773922806,9.821050388277524,-3.3058287569638223,-6.458802545487837,1.8035763393602222,-3.013123062804737,-9.77383690294552,-9.313286933372929,-3.689041785147124,-1.9167662751118182
-42.0,-0.2489351085748348,-8.07217551736234,-7.823240408787588,4.111987589016855,3.7243505849846237,-7.935945288865101,1.107141799838937,-3.627617695772106,-0.3163667205891638,-1.8332287814427808,2.539487082030914,-4.370417048553524
-41.0,3.520870322981069,12.67641183435535,9.155541511373949,-8.063587333069437,-2.8003908241035327,10.926011726343683,-7.692474432588156,-0.3795840654015459,3.4076542025474774,2.1616966911071827,2.073036765104374,2.9391013653761546
-40.0,8.760528362072858,10.76457930835267,2.004050946279566,-9.723269292375049,3.395500083242875,6.394711714288028,-13.069303640378381,-7.881188278581439,0.3669650957157595,1.951535409558307,0.4336615827112089,4.836837725807074
-39.0,-3.5067026902494884,-2.0345906737763135,1.4721120164731092,2.733564082753553,-2.4723876931559836,-0.34716440656820247,6.4625543244175585,2.0390226934296307,-0.03357822471614069,1.395707684326982,-5.676432859834156,-3.6406479955069795
-38.0,-5.08843296652075,-0.8104584978405103,4.277974468680375,2.9120324510284963,-4.745054982579031,1.7510734889495734,10.553801519780528,6.733648004681704,5.680602402913446,10.941197524107944,0.5015754128336176,2.72443779892156
-37.0,-0.2105133952792353,-4.862125659737566,-4.651612264458134,2.574277639555955,2.238350475811821,-4.733147207932577,6.586626920411062,10.006705578510722,6.524958787835949,8.862924631254538,6.056132647260902,-3.1945820842415107
-36.0,4.845140045344932,-2.030536580505986,-6.875676625850909,-1.375495329207816,5.8807796754889266,-4.421672978845189,2.1278880466217007,3.582160043852923,1.301749010048116,0.17663684339540797,3.748457804227682,0.11759556251973624
-35.0,-5.1069600742579935,-17.073550470580567,-11.966590396322982,11.035205872190295,3.4543432098306517,-14.559666908555002,-6.838969025649031,-8.060597391890889,-15.11872686180042,-11.661260363708905,-2.666451113878694,-3.6231957004885946
-34.0,-2.1676326979748253,5.734656048114078,7.902288746088614,-1.768651251619859,-5.005666645773055,6.863520899272943,-14.124444513644386,-11.017811243406744,-7.3588334520676755,-13.465088877718642,-5.796290824154996,3.4799162938540453
-33.0,4.104871077151577,17.179396244655624,13.07452516750412,-10.635414303724579,-4.530416202915388,15.095537404046727,4.631049945029393,-1.7912425611074898,4.457368334196298,0.7392275220063107,-1.2862222128298852,4.1887919514013054
-32.0,-0.662662393448703,-4.649152701732554,-3.9864903082835363,2.6565826942153574,1.6180564645699227,-4.351565547036204,5.780872700034931,1.8815682489547978,4.554675592610541,1.6421656860295166,0.30131745803475196,-6.468862677616782
-31.0,-3.67011492653275,2.1536147519042723,5.82372967843763,0.7560488231425544,-4.712608334101136,4.027173454314746,-2.66724140384153,3.2066234744291746,2.2497525751432774,5.067987392335669,5.975019047373037,10.337646734743831
-30.0,6.273818861364338,4.694950826727952,-1.5788680346360362,-5.485798929831864,3.8801547349185075,1.5090013284763,-1.0657715527970664,1.3910399402379285,3.6323733206452937,6.137786613821489,1.1062397536525825,-2.994360603161064
-29.0,5.95054466772499,-3.0506178741868664,-9.001162541911787,-1.4471300853634042,7.507439405050245,-6.004405691555768,4.186623316448642,9.643668958166044,4.732383752926779,5.815134739562644,3.4704867860556927,-3.3334180204772794
-28.0,0.17502951402872768,-6.596767900061911,-6.771797414091159,3.220552235821049,3.506572801762797,-6.667630597951691,4.277331346119077,-1.3985049228834496,-5.557583363211979,-5.298986804359468,-6.786188298996433,-5.45902564710719
-27.0,-4.004182971711924,0.24228135967443087,4.246464331385913,1.8988023996591128,-4.087388785901545,2.261330091425677,1.3224683533828714,-4.3245410065787695,-4.306839617021964,-7.425248174073195,-6.291648617975709,-3.61509527233447
-26.0,-10.458651543687173,-2.659856032215563,7.798795511471568,6.506514474863773,-9.162368072449654,2.5918499494352765,-1.1655312344980107,-4.948259334974695,-2.467615816163922,-2.6850202837285955,-2.013019152387067,0.7702836695920489
-25.0,-0.12201445243670239,4.345951440276093,4.467965892713084,-2.0787704286469855,-2.320885129897951,4.359355798008778,-9.62399276059537,-4.5465447661808165,-3.391388087396709,-0.9700426093854433,2.144073552202103,5.377151609022499
-24.0,-3.0186485846410123,-5.725412759744465,-2.7067641751031553,4.332351093761064,-0.1753925410968653,-4.175648169012011,-9.755877787841081,-1.7134438132731216,2.1469548390886097,1.5399612273095342,0.9704287324684648,0.612608808611129
-23.0,-4.216064948437833,-4.7006628129065104,-0.48459786446902925,4.502229220800196,-1.8811491100702318,-2.623886521233043,4.494705572454594,3.2922808633556295,5.534017563725739,14.237619371055416,13.49233712301151,7.248044011576782
-22.0,8.78785129616471,-0.01948526586615873,-8.807336562031264,-4.414828518257752,8.86253819152347,-4.4415604448888715,9.849745406451943,11.997020089828235,2.8021638205442008,2.9408680381865078,1.6991368223743244,2.2929359579265673
-21.0,22.50011597139579,19.561693388931676,-2.9384225824645376,-20.978680751764827,12.705472112748499,8.282479633260206,14.13782256357386,5.542543214387091,4.45497866886193,-0.12996012512586264,0.8866877854553179,2.665216447402699
-20.0,40.45160696665131,38.725579993364796,-1.7260269732870819,-39.61099537962854,21.074572580486333,18.545370892998413,12.746193257824341,8.691500788959024,8.463017044903578,0.42713150048967385,2.8289335521454695,7.382578503896047
-19.0,-79.2248955838498,-67.4907427623002,11.73415282154936,73.33937908648717,-45.49369124611768,-27.8381192082363,-35.3274328639678,-33.387039965994234,-24.67218048340085,-30.168940348166412,-32.87516529514836,-34.60045526794445
-18.0,-9.604664005358782,-7.175498167585733,2.429165837773539,8.375157577871299,-6.030024132175555,-2.338670375429335,-12.027169060857974,-5.135875635510073,-2.1126262284087023,-1.4088865443434795,-0.7641754560772167,-4.652075614046293
-17.0,19.426138825616235,24.742329434711014,5.316190609095963,-22.096365417151993,7.122347570019665,14.97945775416023,8.932317638454878,12.787731744158624,9.402381153586106,10.792574028848762,15.869703594212396,14.806949864129162
-16.0,8.007309620772288,9.237265329842387,1.2299557090710063,-8.55394184419513,3.3786107633236666,5.1783573172756565,7.746770350279675,7.2797135137865645,0.014727441704954547,9.06901382884361,7.101385842340135,7.367642936511311
-15.0,4.1180332663415955,-3.9729449683733633,-8.090978234714381,-0.08283030787869539,6.093776816259107,-6.013653300167832,10.381766252097067,1.0363322023119412,0.07822619951457987,9.10053669526366,5.990469835071943,4.673487492472074
-14.0,15.937716076466963,-1.4163342666250804,-17.354050343092137,-7.273172728422986,16.631227171178843,-9.37110203742282,7.3072913560500945,-1.1229635227096249,0.5618884941514939,-4.687464120494584,-10.407240478060624,-1.008624249005381
-13.0,4.281614701372116,0.610921846241122,-3.670692855131376,-2.463784034998112,3.954065128752063,-1.5179958054112377,-10.412362649618121,2.387177470583114,4.044326633196036,2.7371017789565126,3.0638290479687345,-2.9080629920514074
-12.0,-12.610773126194438,2.0255966482158314,14.63636977440943,5.2673201197967,-13.6553868013215,8.343536555563366,-6.2688636759164,-3.46281191450906,-0.1158242639549023,0.957755732743673,3.504098899574775,-1.065045783663927
-11.0,-17.347363062607354,-7.147373457324628,10.199989605281715,12.291387732175595,-13.736400531420369,1.5425771147928224,1.334300563984991,-1.5194159504800346,-0.9621471166678871,-3.371375592502469,0.7087132723205822,-0.14569262900991387
-10.0,-10.09112094653388,-4.101941744555642,5.989179201977403,7.052337884748743,-8.009880231294092,0.8873244038462018,2.9998830527436025,1.8125326220211795,0.614558499459152,-6.916136388749038,-6.284468875303615,2.9145952826801875
-9.0,1.8229517457975453,-2.8453553858018603,-4.668307131600053,0.5381459355634415,3.2732716554499177,-3.7268571561826036,-8.594780328350726,-6.761226238674125,-7.197671584783422,-10.619303453022477,-6.5218513660430855,-4.320969349824951
-8.0,12.56987391905437,10.401392502848305,-2.1684814162056796,-11.463126425862837,7.320025984284862,4.0751426803271835,-2.5033998063094507,-0.2938233603227711,1.1638476352830036,3.49332504116345,1.7816392987210494,-2.2039129056323024
-7.0,15.810908374187015,3.2563942301872,-12.554514143998606,-9.512064634227825,14.217601611371974,-4.605626651553654,8.54554047956611,3.7569339362201184,-4.599551187230275,4.617638093465351,-1.693056676657554,-3.8134923477680216
-6.0,1.717806602818781,0.10555303262729554,-1.6122535701899992,-0.9669056140736565,1.6277573108354328,-0.7066658786586137,3.6007629797069205,6.546526990354202,8.002481438431808,10.278124594753566,7.670517956870564,7.050312152230978
-5.0,-3.985534055789883,-1.1877791003972307,2.7977549553933625,2.6137243383235735,-3.423036166243557,0.7725491006075732,-1.5967448560925783,-2.0620640240393904,3.832484145722057,-2.345998840697769,-1.8514349982922482,-2.880386891505963
-4.0,-4.07168780467172,-1.8758748030215888,2.195813001649592,2.9259863211765023,-3.082579598636463,0.12350193653626007,5.691260364601725,-0.09455019501195294,2.52391616623717,-2.622865116696742,4.857082661705553,3.9467909682547844
-3.0,-8.525849070713242,-5.078460755322709,3.4473883153885696,6.836497698056499,-6.013000675854374,-0.8584717151069826,-2.107979598121488,-1.1604207499652626,-1.2492051229853616,1.5031938246925751,4.517850522291885,3.597327086920819
-2.0,-8.162101444037047,-5.9401884646401975,2.221912979395253,7.088076590534412,-5.140928153967206,-1.829856012597171,-4.657808936463569,-3.804669737698371,-9.823953515498456,-4.072823758782135,-10.060656159817462,-0.5912799846725243
-1.0,4.998068936124351,8.850670432487846,3.8526014963633815,-6.964258656537591,0.5418771945528502,6.377071070096964,-2.4483061096013317,1.6473187887286538,-2.9124711742455824,1.1095825103556645,-2.147497299111609,-5.2223292979008
0.0,9.406839404440122,8.242571508035315,-1.1642678964033615,-8.86293269042581,5.250535065522572,3.56536061302197,-4.776929163326125,-6.57810598318968,-1.187928807871478,0.4129036289369381,0.7198161349881738,-5.006676392968468
1.0,2.3699279708252927,-0.07645639934477888,-2.446384370168296,-1.1043886539474235,2.447912412753102,-1.2296375736869112,0.4111761765731963,2.971791072630446,7.519187138327041,4.08170318738566,3.9008912652443586,3.398430635849028
2.0,-3.8841522622281714,-6.8346506552371675,-2.95049839300746,5.403966432124971,-0.5083908400320976,-4.93086358938394,8.651714993244697,9.181383032922378,10.139811864249967,3.6310439959401224,3.535845843630311,3.6385948287698024
3.0,3.882314982447795,-2.345678136174677,-6.227993118622077,-0.8000264470395462,5.09211472721117,-4.316145229084865,3.0530280728191093,4.267901185299785,4.056972872880026,-3.975820052853618,-1.8981409607783903,3.1297027926913996
4.0,1.5613588337913624,-4.450875816059761,-6.012234649851709,1.4153286421893334,3.826204053111029,-5.254272092135926,-4.2737738389787205,-3.5347784523022185,-12.7265360910638,-11.078574451493408,-5.242601994912687,-4.2798636776471
5.0,-4.57954762400472,-0.24508989628650046,4.334457727717196,2.384398788574285,-4.49161893105256,2.1033956951759265,-3.4617895363905977,-11.58633366241251,-7.341570339190774,-1.4289920995262322,-1.3535010752273628,0.45093579224333324
6.0,-13.986048909851052,-0.2338265118383266,13.752222398011925,7.161005007219145,-13.897635717748612,6.738020011910347,8.112209528533501,0.8069919883624257,0.4583174952628646,1.0456865269359354,-1.4885522880523587,-4.087341574721803
7.0,3.165246110923599,6.965673692199006,3.8004275812750317,-5.01582599294332,-0.33957426348645736,5.358463743589159,-3.358523527730224,4.481279577129245,2.5080264311334064,4.87388880400979,1.0426251185517543,0.7486246544594416
8.0,7.52836617297261,5.14712778727656,-2.381238385696877,-6.370197842696013,5.017683122037789,1.3550241412048707,-3.560047429295068,1.225607908384125,3.099533839111552,7.18693296109563,5.327204488199849,-0.38533731361979906
9.0,4.325051330452942,12.570636315463977,8.245584985009675,-8.485340505326668,-1.9710057514100656,10.457857828268466,-2.571625482446299,0.06796499545691392,3.4996046167171797,8.220728539467956,8.204649794692513,11.023732726231668
10.0,0.6829037039524488,-3.451215306118944,-4.134119010072245,1.3408215677018123,2.4014633238799243,-3.740730050296065,-1.450417525873677,-3.6472012523123176,-0.6348777578188893,-2.463540891554781,-0.48237268842880177,-2.919418140046563
11.0,5.645091136420152,-17.388456409013944,-23.033547545433713,5.902079905380575,14.33417214798302,-20.233058709754733,2.652789230326296,-0.03232476102014359,-3.3404255070134345,-12.243051700359695,-11.117849991946205,-8.275933016445192
12.0,-2.200199284831124,-7.813207190599402,-5.613007905766298,5.034589335373605,1.701209557682101,-6.730062863446109,3.431518576169508,6.595253647834236,2.1630233969045576,-1.4531036055442774,2.3472294564197558,0.008917111740564643
13.0,-9.092453493671186,-8.61246452703527,0.4799889666380597,8.881181882460064,-4.793303276083734,-4.080524817588207,4.338012668513622,3.366232008403202,1.3213498517343303,-0.04294942174717997,-2.3610862455238415,1.3283510476951401
14.0,-4.50620597119721,1.756116647520497,6.26232261871907,1.4073280848667826,-5.394754698987399,3.9930531188683385,5.4567440487187815,-0.3571729052325048,2.7849634883159955,3.0390235755426076,-0.8320448921853156,2.664659510185591
15.0,6.988148680699834,17.659140775002925,10.670992094303044,-12.36573301519626,-1.7777353455521308,14.141899308980637,-9.963555709534953,-9.845017428473831,-5.69163609082352,-0.9429113757615306,2.7637897956514896,2.321462550353252
16.0,-6.306126735707463,12.336783416603707,18.642910152310076,-3.054460817954933,-12.495064859375862,15.534449455864404,-6.038695795383786,-4.677470044717504,-1.978263249610378,-0.8261413387477741,-2.5708011265111073,-1.6375179986007704
17.0,2.543012073758142,6.330101283721229,3.787089209962007,-4.475589275402381,-0.6487783496787212,5.090610351776279,-1.0292346903824838,1.3213160698476267,-3.671108795744516,-1.560594935662132,0.21355520294588048,-3.574166602612711
18.0,2.8097388805911434,-6.991707482623536,-9.801446363215483,2.127942425864594,6.27229119294637,-8.454704317726058,1.5364508165043775,6.161222888259932,2.438132009982616,2.7579123351952415,-0.46877132661863974,-1.042786063376963
19.0,6.057217417283789,-10.390135939374256,-16.44735335665887,2.198998357517809,11.29143090938583,-13.405844161858976,4.735609340749194,2.4978509506951587,5.889823836802271,3.929083988958071,4.500285496180851,0.0978858196301422
20.0,0.6234081082990794,-9.265780422888792,-9.889188531188307,4.34923232640932,5.290218277293608,-9.567031080926476,5.792440194627049,3.7548058328725906,1.985891890513133,7.888789730282182,5.3896978663575705,3.863768434178046
21.0,-6.188654244865168,-8.287768235575184,-2.099113990709972,7.184101423550807,-2.0930059399157344,-5.179727819827012,-1.2294419121502416,0.42092405257995136,-0.7927698368931768,-2.7123285757609565,1.4778820573032594,4.063605680519152
22.0,-2.022565458303921,9.794474967878156,11.817040426182885,-3.8632599971385204,-6.890456753546424,10.827674580339252,-2.1452204717275114,-6.962385723195824,-7.927090858195858,-11.581405535122258,-7.76378542953198,-4.221470052178471
23.0,5.814119069032243,12.85276553595189,7.038646466920549,-9.311506835424536,-0.6606287610268566,9.900359272352103,1.8502469035973448,-0.8573755466251334,2.286375952138401,-3.7616223555909505,-3.6351947666964852,0.638621173030318
24.0,-4.143461738359415,-8.345643912349638,-4.202182173989345,6.187662992864055,0.06246643371591354,-6.30652879357938,-9.287148861700127,-1.2033538659391414,8.740741301816936,7.994760723532327,4.233680200482475,1.6232410642259463
25.0,-5.853238085910045,0.6098345688104398,6.463072654720646,2.643871945718937,-6.121658714428352,3.594640661246071,-2.0395911770152457,-1.2128258298931534,-1.9603774185591938,-0.7721360805006658,-0.7704893234920761,1.6986692511198944
26.0,4.76550286496378,6.339910332373886,1.574407467409801,-5.529699509279178,1.555989060215937,3.9464227379411088,4.689588197918277,5.843476204867157,-1.185317132379043,0.32987037495765414,-1.1939305147672163,-4.65959701487532
27.0,1.7016001744806484,1.9750854959837438,0.27348532150295024,-1.8921929813351634,0.7539105903592827,1.1200155449299147,5.786665915549693,0.23616367021267992,-8.072984529823765,-1.8994762660042028,-3.2140242560599486,-10.257986318044553
28.0,-0.10677442875518217,-4.049564938895438,-3.942790510140375,2.106626188025322,1.8769990414835025,-3.998088454533565,-0.6142499894682008,-4.979387411848657,-6.465188501721032,-6.183440374303846,-8.009170180998595,0.36610023242923484
29.0,3.2701731606456783,-1.2797270124312963,-4.549900173077352,-0.9612832626814032,3.864481934535503,-2.9188165194576734,0.14663702878238039,1.5755299329327204,7.460337140935808,8.386133927214424,8.895604517300358,8.849916772300608
30.0,-2.4121594092549117,-2.154967093218586,0.25719231603591686,2.2457455263137973,-1.306981271444286,-0.9593303417055838,-3.6042053107299807,1.1554552778932947,6.244460249727939,8.022073540944366,13.528447559793886,8.071487400975768
31.0,-1.2162671937717602,-5.4310720412836675,-4.214804847512537,3.371965682972865,1.5225954166459934,-4.7648244182908766,0.276923092358746,1.3766442277463815,1.7708610182972833,1.8703473569626512,3.0481802823900432,3.159291683546634
32.0,1.5478239046318116,-5.1507576762389515,-6.698581580871153,1.777233120023003,4.145089179206343,-5.95811476008146,2.8128940138166367,1.7269041834205787,0.8389441790466925,-5.409163488784911,-7.140406838547147,-6.855828755467233
33.0,1.1673190357417,1.8979252017772168,0.7306061660355004,-1.5530663050027118,0.2424525068976637,1.2671163545174084,-1.41917847194066,1.0472414347377923,1.8559103739582927,-7.0646085417444695,-5.641954321091253,-3.5596790611964164
34.0,-2.7375698340012082,9.82272592418195,12.560295758183463,-3.562161127546966,-7.698318062511834,11.210723271248913,-2.871801858822943,0.20438033485195045,-6.258400524723818,-6.410458237561944,-7.375789448785702,-2.9392534382196556
35.0,-2.188678997322083,6.391731977404478,8.580410974727021,-2.122709277965554,-5.42716646218102,7.496513472082759,2.2130243381512624,-5.282557503426246,-3.1933170555112826,-0.6244837959349443,-4.148755762543965,-1.302765819515685
36.0,-1.761173050606315,6.055039840246946,7.816212890853917,-2.092348624887851,-4.746243544817317,6.94261353906615,-4.60482576365073,-5.877001965902296,-5.56044106439799,4.67177039313115,4.3761337006266565,-0.07311018938177116
37.0,5.644065326503171,-0.676190651721642,-6.320255978224235,-2.432701982407344,6.028693866827969,-3.4889901333194597,2.885611307725484,-0.6666755341090445,2.149440442477952,6.319099946078028,6.723607838374211,2.668065416695524
38.0,-0.8077967932148908,-13.44876887073648,-12.640972077520825,7.097492932575088,5.884928959340456,-13.028945098513915,3.5976088678024367,7.568041031135287,6.507794598012128,5.980337551517001,9.715266184789805,4.489621484263326
39.0,0.5916284537981926,-9.252540552318035,-9.844169006115969,4.296344118239514,5.182804788536371,-9.523870663453053,1.9476501983814436,4.5783832100177,3.373406284327691,-1.3948756652909755,-2.2354008263733895,6.526510307085011
40.0,3.9589462566554205,2.578390099028164,-1.3805561576278684,-3.306376591641672,2.706599112271591,0.5521022821571391,-4.6620636436060074,-1.5567731770315576,-1.0365866391427048,-0.9308029653604281,-4.171295329343271,-3.5537458902188566
41.0,-4.332250207419605,4.319832228325114,8.652082435743527,0.04349735193309945,-6.542516659828258,6.443314918944941,-1.434786373415077,-3.245929082165852,-0.4611704166013938,-5.328059915635876,-6.063853708919753,-8.625735777522069
42.0,-2.6197396239470105,7.5293096923588045,10.149049316304815,-2.420868494782151,-6.363636051644126,8.875717087574554,1.0324137612549524,1.8822400698075255,1.3877443340603601,-0.5340414337245467,-0.7998525788683519,-2.453903755977643
43.0,-5.9128361687643425,-7.449736341578902,-1.5369001728148968,6.634130832043201,-2.171659153257016,-4.53746423038061,3.0554182623186446,-0.2667950657847731,-3.4989010541828502,-5.339888325885342,-1.850417482661279,-1.2774727786860804
44.0,4.309438367310975,-0.6916791510347758,-5.00111751834551,-1.7781214478499965,4.671781490797378,-2.8136064595739003,2.7349537699379742,-1.9937775869926537,-2.5129249432274054,0.5317456629656581,2.867481002688904,4.95727722796334
45.0,4.708067840324169,3.9431549624380873,-0.764912877885547,-4.294170523522659,2.757785638108649,1.6225658673645154,-1.082567291111174,0.8279017035713441,-1.6718951245630924,1.6688484840868383,2.817092755546554,4.080513243789236
46.0,5.416986421416298,0.44109916483730816,-4.975887256578398,-2.9744173791005055,5.146847141391755,-2.229758994807381,-5.043175410722797,-1.0499609903553329,0.2348120571546521,2.6292509550133905,1.6676187536285767,4.519961934056788
47.0,1.5058770609954983,7.5918463366627424,6.085969275667651,-4.591356530482517,-2.252331490226959,6.804880730845373,-4.6418979387095805,-0.40935712282862535,1.474558825450083,3.856183689769383,2.187204863959271,-1.9555668728327222
48.0,-5.021435337538732,-2.634072054583017,2.387363282956056,3.8676865109385403,-3.7385172034698284,-0.1493083831591182,1.225715563242875,2.201163750034383,5.555385627492376,1.916965495692632,-1.1993614206314107,-5.066150856732126
49.0,-5.651695231818552,-4.708193974586753,0.9435012572318873,5.224333491781431,-3.327894171259169,-1.9014314899656815,1.9642298185536198,1.1229736636055827,0.4316607188721484,1.2343922725607894,-2.0200374274544597,-2.4939369747869855
50.0,-7.531333620351987,-8.0639503072565,-0.5326166869046617,7.7684231940080615,-3.450391641584601,-4.313226922770749,9.094409415505291,-1.391772612153359,-2.687784861478679,-4.249746237569859,-3.8194769986033705,-0.2013814829766698
51.0,4.087072071467709,6.213322496929398,2.126250425461544,-5.173910267512951,0.948707333477972,4.234577264530578,-6.331953735753323,-6.124339678155263,-3.2060485857251226,-3.615043973889702,0.7785005272327599,1.0441933381961555
52.0,7.620196157069083,5.916523696463735,-1.7036724606056952,-6.786771000273223,4.706054742945413,2.0908159837678073,2.2029544065372964,2.061521610333762,2.6257112303783736,-0.6972637005415407,2.605969985812587,3.622294566512365
53.0,-1.5234141016685117,-2.864181172049549,-1.3407670703812513,2.2584758390165938,-0.12853276501820243,-2.1213267363645953,-1.7954652193591434,3.369144725354519,-1.0479973131121194,-0.6879294854833737,-0.2353690374498778,-1.6471184077541796
54.0,1.7458340536456778,-3.4332976124452674,-5.179131666091193,0.8321495672033492,3.5026206663155084,-4.328790858821963,0.35166873857219794,3.099529776285224,-0.9499310199068237,1.8914369876114012,0.6015873270086485,2.5446534370191225
55.0,5.622299712598806,-2.5576118892089115,-8.179911601807763,-1.5441484460034978,6.862433116205662,-5.315970092039109,-4.334870481492664,0.23303745653595764,3.014100409957762,2.6674536184919457,-1.5269169734322572,-2.7296489949179943
56.0,-2.9465804540790925,-3.5134495566420045,-0.5668691025630862,3.2147435127823396,-1.148855483139539,-2.0688701964950553,7.669978309290036,0.5359071498934298,0.16067135587319703,-0.397460331756311,-0.259438785966584,-0.1906857496946145
57.0,-6.09365687027916,5.648745300246687,11.742402170525928,0.20059832263679866,-8.95445858942309,8.743201420016588,-0.8209471179816465,0.803714112784383,2.1472979791430418,1.8819551214656878,1.2099043049662692,-1.23432848270771
58.0,-0.29535937220783426,10.70443532807422,10.999794700282354,-5.1564476731211455,-5.682809810259554,10.818310598815897,-2.543801203225821,-6.665876977248057,-5.969468839546154,-1.6363862170065246,1.5918795380173252,1.4794520937885762
59.0,-0.4124472946800526,-10.426069221547024,-10.013621926866527,5.37905327348593,4.844838405926107,-10.25704998961697,-3.349573147070838,-2.8398465450331263,-2.40552365996095,-2.4281054805490836,-1.6797374889607724,0.6275184782682918
60.0,-3.6879555327137794,-4.203690718422459,-0.515735185708464,3.9756902510966294,-1.5418095556017548,-2.322107997138665,1.4511353322461404,1.7722030332770053,2.0027538895174555,-1.7540030229646315,-1.2898172888119102,2.5591971393805326
61.0,6.741627334095408,6.682509441046395,-0.05911789304919912,-6.688711344721688,3.3650825072270893,3.26700135301091,-4.633250643477405,0.7864382989058352,-0.7317912852461095,0.6627057846122616,-1.6409844539089156,-4.841199838619633
62.0,2.796466777757925,8.171598659920084,5.375131882161742,-5.543066444354936,-1.3264884929063805,6.805628294436328,2.4595998565727077,2.0196152178275137,3.2932987948050565,3.75742836399158,3.1696397993643552,-0.1774219788324689
63.0,-2.09695192617788,0.7548578976428004,2.8518098238203624,0.6900116067804412,-2.4355466962495522,1.8367400118122978,2.3882392473611747,0.021026827924991665,2.778529278408284,0.5094863121092239,-1.0751848191513689,0.5858563986696875
64.0,-2.2951964063756263,-3.4587315279543547,-1.1635351215785028,2.8974725302984714,-0.6088820332885374,-2.351998273338896,9.425417069705354,4.383379976768375,2.582280835771543,0.6128928451503802,3.5686445142435086,2.866451878132386
65.0,-2.5649379979319233,-12.452942620103148,-9.888004622170978,7.532252414978646,3.6945073124861194,-11.125410049526234,-4.972252470638461,-2.7365005527456168,-0.9281807196141774,-0.8082936332425988,0.778984361211685,0.07509474140305894
66.0,-1.4689594509868489,-5.789560425469938,-4.320600974482736,3.5766907384588364,1.457227632528361,-5.080369118683089,-1.221763403561382,-2.83411050649278,-3.1266076084250685,0.07310180289382917,-2.450923747583709,-0.2124951044130602
67.0,6.047246247831341,4.661564752165074,-1.3856814956661465,-5.326269021240247,3.6691240564839647,1.6204663477915693,2.1202251878429816,4.537584272294802,0.4914130550547111,-1.075919379134059,-0.09391908935818094,3.020258673103561
68.0,11.458248721589126,7.229196184554139,-4.229052537035493,-9.393746723532491,7.876607329927361,1.4882649856558503,-9.161030424685782,-1.706473741777994,-4.183669097649606,-1.1930573874159303,-1.7751686091704362,-2.6087675793427785
69.0,-9.653267696551094,-6.275922504089387,3.3773451924607114,7.992659504368999,-6.55838782132318,-1.45854840861315,1.909564564833154,0.5583955339995481,-4.079738760208407,-3.006887993729306,-5.635843677456441,-7.841905359439564
70.0,-10.51295219049507,-2.8572989451760193,7.655653245318322,6.711704978991696,-9.045323685072375,2.4677036256874394,2.1721133675840365,-3.6667541564506108,-3.1134924713119725,-2.8182342822572233,-0.7651962104068291,-1.9397890936654596
71.0,-1.9643604830595116,15.616528596974367,17.580889080033906,-6.801436864435828,-9.80913139941511,16.58402889212736,0.2751364573546782,-0.5756345567490775,5.742583471490469,2.3919600919869772,4.421904042712049,4.533147197606888
72.0,15.079760248623764,22.32217098471971,7.242410736096654,-18.757296121684572,3.9634550196102305,14.759991932665706,-5.459290280568732,-2.2031981211718143,5.4411070031765405,7.000258201656828,8.877177140315677,8.025238263673803
73.0,1.5031577223642723,-7.214825752649918,-8.71798347501321,2.875799377289579,5.077731357589206,-7.998744706857274,2.507950123918678,2.1513114291144366,6.811963438316647,3.287996668694325,1.2460797254393832,3.776005539414721
74.0,-6.276696142542352,-29.350958997532786,-23.07426285498965,17.83141449222359,8.443863540558633,-26.177372947862267,11.09990816125856,4.344762924437779,1.9381572178800694,-1.6610848488976886,-4.739770659314402,-5.921237533300733
75.0,-1.9597578186451374,-17.00964665816636,-15.049888839521023,9.421980898945836,6.50839327453255,-16.005032159955512,-1.6304518103626044,2.901894804016802,-5.832464952100077,-3.0821456395248057,-2.8998234185417746,-4.254235152185652
76.0,1.5325338314830093,11.308676467807555,9.776142636324135,-6.404240799821246,-4.163303671242461,10.48057495146909,-7.140806685533108,-3.0681826444614164,-8.21410902321041,-4.184357374521672,-2.5698576461533946,0.4263103501559109
77.0,-6.401459353517376,10.070032361753633,16.471491715270286,-1.8147609411857708,-11.404947276098454,13.28429120174173,0.6335996297259219,-1.749703400641377,-2.5062174593200286,-0.03320548043710714,2.015189589113121,2.189455594975091
78.0,-1.278962949906385,-1.9604261191705188,-0.6814631692646369,1.6453633589864864,-0.27260225989945663,-1.3054194863560902,2.31656452585601,0.5769524515938182,1.8723026429599359,0.8752601125019353,-2.166452727857907,-1.8852670910639437
79.0,1.544061890567591,3.597460245543374,2.0533983549754615,-2.536987536222737,-0.23246333385682783,2.8480141639592342,-2.627401883065865,-2.89696032319179,-0.352985602605733,2.6736521941288798,0.9766874178602571,-3.0100722551204067
80.0,6.878785127750377,21.871388870193737,14.992603742443263,-14.412008303575053,-4.115345889755825,18.464987047173956,-1.2839939472725743,-2.2891751607043194,5.142705077961732,0.22784784534009583,4.13345312007854,5.257876564204262
81.0,7.013855205959453,1.0889859101719601,-5.924869295787361,-4.0825449189644125,6.489913683207011,-2.452634300689871,0.30498822737199466,3.1404005197460814,0.5610880161237803,-3.1025083265537035,-1.6276999983605878,0.9506948810734093
82.0,5.613907928994788,-10.274439529823404,-15.888347458817897,2.3012618005722496,10.773761600953835,-13.1070622932952,-1.0085486912472998,4.791080712766045,2.260090943402865,2.2942780418788566,-1.4514310614095445,-1.663598351487364
83.0,-4.72836614608181,-12.28827017457326,-7.559904028491215,8.5564918313745,1.3631429756323272,-9.944447434818743,1.6627271590247104,0.282178744121389,1.6233439261668172,5.014011689985977,0.6994531901307055,0.13143850342337418
84.0,-11.79829094049995,-19.50408747615449,-7.705796535654549,15.616647743987565,-2.0156839944414346,-13.623770907082308,3.6998062735872983,-1.7954273989650988,-1.317499470379945,-3.898022262420372,0.10810054425833913,-2.850973776228974
85.0,-7.827163367711642,-6.307365326664918,1.5197980410465426,7.107069873670759,-4.63797097559501,-2.334781029602386,1.4896041536533555,-0.20720125862559324,-3.0556305567346143,-7.317237565255729,0.2597202902545589,0.7243874765351479
86.0,-0.024552501164477825,12.035554695542327,12.060107196706749,-5.968737271278046,-6.080535929099543,12.026551879319216,-0.18617679806997567,0.16664398562770955,-2.227389152490253,2.9793199386843585,1.8207043599986357,2.2236607466055087
87.0,7.251672617765991,22.291862647422803,15.040190029656719,-14.814332390687749,-3.9277213888533353,18.7226873992531,-2.262881450851393,-4.466766589715106,-2.9357335329619394,1.6786514680349283,-2.370951076031309,1.550513148313528
88.0,5.4714843332183065,15.912119622774329,10.440635289555882,-10.732187016950547,-2.435170453168102,13.154450342391502,-6.729728931106262,-5.289281716909345,-2.620254465064131,2.116662607064481,0.9388094494617103,1.3505428192209086
89.0,1.2333963373349706,-5.001006745652532,-6.234403082987562,1.9267694662560855,3.707682972901401,-5.639235144024553,-1.6108852158462992,3.751994758066302,4.167955523802243,2.9396419263208804,-1.6126281997541398,-1.8887962011848651
90.0,2.531796537075975,-10.600241114604817,-13.132037651680879,4.004663886936721,7.886099869401953,-11.888156525050295,5.606880401300891,4.4724326195069875,4.721388755204588,0.03362461340747547,1.2329697458379476,-2.1377380002759603
91.0,-5.849505451085566,-10.278773785332968,-4.429268334247336,8.120016275908934,-0.7350936050775534,-7.3782525214513655,2.178600932227619,3.814572114813588,5.092141422888368,-1.141057076099751,-0.13539740083309582,-3.259659705796558
92.0,-2.835351394472563,-5.44081213779708,-2.6054607433244366,4.120888454428996,-0.14280863632951912,-3.9728115718933337,1.606034137315736,0.2766810797255208,-3.1285918867270253,-5.436682711789494,-0.7596090106475819,-0.08069505824363121
93.0,2.230496097851237,0.8558594908371262,-1.3746366070138227,-1.5571894209823194,1.76937232541201,-0.21497735729804823,-0.23789784237764378,0.25694245635251645,-2.4723564046822517,-2.8568430193570498,-1.767825762261346,2.4935617400972707
94.0,-0.22615295220459386,-1.880934747661852,-1.6547817954569315,1.0391155629951254,0.7526909272399445,-1.8092746650583147,1.2188220971777788,-2.9320237376792697,-1.7260291416225182,1.5770877242952424,3.6034075099574103,2.8941635176789875
95.0,4.040113309088531,5.857371883076621,1.817258573988381,-4.967519503301236,1.141690851457676,3.7884201184604476,-2.033979384212781,-5.854299885461636,-1.6959490673368998,4.498506591833632,0.040335007339335816,1.329728720576638
96.0,-0.33792050752513125,0.013821733816375747,0.35174224134128984,0.21426987087694505,-0.32274655780638284,0.2057324670761167,-2.0358713669609125,0.8530849701661083,0.4145092585172381,7.124909682810949,-2.628789102706703,-3.6140923032968573
97.0,-1.5048295200566073,2.0206770077343315,3.5255065277903648,-0.29444056770128313,-2.5794334316364322,2.790779005749222,-0.4895213990906966,2.2191610878734758,3.7193871241179677,-3.200329927557745,-0.6215755468567143,0.6059661696210681
98.0,-0.7210637299555335,12.839047840953459,13.560111570908381,-6.027531368130796,-7.132574297468405,13.214475788731756,-2.179376522234097,2.6022590056120034,-2.60848600713871,-7.12636738270177,7.925469455713433,4.016046914578239
99.0,-0.9233811972669623,3.965257937177867,4.888639134444395,-1.499580512565896,-2.902652799965919,4.441781837506351,-0.9424862308245224,-0.8050074658966668,1.1276590770724335,3.18753770581223,-0.6001518591407762,-1.659465011749715
100.0,-6.719350426463612,-8.40281011026281,-1.6834596837991462,7.495627674426114,-2.5165702085718804,-5.10480714084183,3.0630614957379376,-0.23445283134915829,-0.10154583388226734,-0.7124639126017731,-5.419577243082337,-0.021438759894887083
101.0,-0.7317452986831636,-14.177922177152869,-13.44617687846931,7.463411469387253,6.360062182550313,-13.791342612406527,2.396030044551522,1.6650737843673749,-3.201002804615368,-6.062589293139656,-6.638917534040863,-7.049028808910477
102.0,3.227892882022631,-5.347725375463353,-8.57561825748536,1.0682387674683098,5.909827359182314,-6.937068130187124,2.6221922078781885,-3.7936318080890876,3.3485862830920254,3.39181221867047,1.541087762169,0.29742544391843273
103.0,9.617751812214278,4.101529285890167,-5.516222526323502,-6.846483345405071,7.583533565691519,-0.6795823784588979,-3.651760882097202,-0.342772962311786,-0.31071286099439344,2.3375468468207217,-0.4633714789168367,0.5429135509042478
104.0,4.062727585847562,6.33299409011238,2.270266504265198,-5.175077130732291,0.844348792957899,4.252467087243479,-2.662665463232901,0.7375077474526841,-2.68733631549103,2.916251159472533,6.435796056700745,3.9250471919688565
105.0,-5.288255385031386,3.6538089678903747,8.942064352921893,0.7742069380828083,-7.078227837769536,6.2492754333375995,1.2895165222584626,1.9601169921246846,1.6335049119784668,1.3385652927175928,8.119876464190611,2.738451471916406
106.0,-0.04210313801651289,4.4451905479944,4.487293686010734,-2.152026647525933,-2.220317246946311,4.496104532661924,-0.585311929197271,-0.935662879307547,4.686390536528294,0.8399529164617981,-3.631661857981122,1.107460520520192
107.0,-4.467131616938198,0.8118791080105883,5.2790107249483675,1.8100620582650468,-4.904548658320579,3.075076210533863,3.362392231970571,0.15777464742582548,0.09228408669704158,-2.56466558641106,-1.4724747900768762,0.6182720524339858
108.0,-2.4406323330302495,2.535427194240623,4.976059527270383,-0.05798520491810999,-3.7422591096581552,3.7853513345418017,5.290808849432095,1.7475008878652702,-4.262808086822049,-5.419116285995766,-4.499593673670168,-2.2634546284495025
109.0,-1.7550631330245041,-5.945233905923323,-4.190170772899303,3.840465117680478,1.176835381771513,-5.038551856866517,-4.68778109489822,-0.5221763940982199,-1.3659488906949315,0.6770427831978849,-3.9818941323388377,-3.098219202566956
110.0,2.5170576398741886,-10.514278070619934,-13.031335710494517,3.9840875734734595,7.803673322905712,-11.824453990615208,-4.015769771297645,0.4981568836977913,1.8514470565723822,0.9956980015799368,-2.5679082628631935,-4.095931219139631
111.0,-1.040014138896682,-5.06722246750998,-4.02720832861337,3.030482289884652,1.5161920726431761,-4.603259862644302,-2.7566610797650677,0.7486568331501589,3.073568993010417,3.38700998349477,4.1590680054901785,0.4802565199223332
112.0,7.0170598493344585,7.578326089875414,0.5612662405412254,-7.251542792057619,3.2481616091801984,4.08627383609122,-1.8088690208051474,-1.9898846699073072,-2.565025314441647,0.7601051072106153,6.457951078390082,3.6772659030004458
113.0,-2.94729652649146,4.428714643619423,7.3760111701113775,-0.7020383035247644,-5.1380188936222755,5.912789153765656,4.177415712139642,-4.051463091272261,-4.350394407619998,-2.8300436683417667,0.5788651673917915,5.924325342921888
114.0,-0.39259366551160113,1.7707551788388036,2.163348844350913,-0.7328357390108757,-1.3250419537581097,1.974417349526111,3.146368079798833,-1.2011053551551292,-3.6091379082155677,-1.372516571764978,-0.6452022153339632,-2.3940525548079257
115.0,-4.04308900604483,-2.0794786444421067,1.9636103616030436,3.09680511924907,-2.961686663212321,-0.048250159552136296,2.913858641280785,1.5490814948508254,2.5351653382550587,-2.3869107956534377,-1.3593701922416592,-3.191161037635289
116.0,4.201710717339395,5.257211111087493,1.0555003937482383,-4.768789563892711,1.5446185051004027,3.17453923765982,0.004124788938876467,6.040810358297392,10.109344954547478,6.5687311756842615,-4.342279166234872,0.0360000657618158
117.0,2.093467812484868,0.7220383568106268,-1.3714294556742288,-1.4413269180310762,1.708550640523392,-0.29315978104401913,-1.777450038899622,3.3568022343556456,4.19872541876791,-0.7409904614613008,-2.402817720693189,-0.2652912827331384
118.0,0.9715033011774576,-0.4710865808872686,-1.4425898820648242,-0.19912131448478565,1.1827275208786698,-0.9889636606774821,-3.5311526073273374,-3.4088543523811317,-2.971533498745471,2.896374590193119,4.196704217992809,0.7141811055516061
119.0,1.806103513345116,-0.6014110140539843,-2.4075145273992815,-0.6255397435548882,2.156680924119119,-1.5235644462950106,-2.4547033669968643,-2.4294374351102084,-8.617332844605126,-1.3513008179934314,4.274526531682742,1.411069657537384
120.0,-5.8611081607883975,-6.809243583066099,-0.948135422278007,6.392384002904275,-2.4918240104056553,-3.889926774097198,1.506403603697906,-2.9767489989271043,-2.3451240564238383,-5.815915595990152,-1.1547589907696736,-2.036958376802863
121.0,-3.7113553089537463,-10.200947260789647,-6.489591951836201,6.932467867581103,1.426808629447403,-8.355119250955031,6.348818674138014,0.734601328991382,-0.964781565963996,-2.225860170129115,-3.3239919605031796,-0.39982163405373616
122.0,-1.3834460690283363,2.5667598075461813,3.9502058765742887,-0.6215020182531426,-2.632048934626923,3.244307162102299,-0.4892948162537296,0.4319428311884429,-0.7595940758241195,1.3108220665093135,-2.898527741205789,-1.6567137079537866
123.0,3.9910807552934506,11.338397880976412,7.347317125682874,-7.7039068424905,-1.7212747921177998,9.399710633927826,-7.6596472212542945,-1.3896587268152885,4.255925700002606,3.868780761772168,1.9743688307027458,2.6341353983364506
124.0,3.228729727250742,8.325812458771956,5.0970827315214065,-5.748244286471142,-0.973094210008475,6.681265243702547,-1.0503662748512066,3.381372740980109,6.999214885237414,2.1342963351267654,3.1832953637642825,1.354071004359859
125.0,-0.7147677660236158,-2.146904233221406,-1.432136467197433,1.4504999760479897,0.4049073454852799,-1.7475253433825184,2.9102101791449533,2.533193824960528,1.3280886543699792,2.2636441116558896,2.2896704045080774,3.002650448615861
126.0,-3.514899637228651,-6.737196711099081,-3.222297073869947,5.139546723251776,-0.17217402774162827,-5.020305930736129,2.6693422140470697,0.3299011054185883,-2.7008359329534075,-3.157176677592661,-0.3710615262763248,-2.082521411270541
127.0,-1.2128905436559525,-5.071328534597127,-3.858437990940918,3.153441814639147,1.3803909085535688,-4.427989451576027,6.575096129653868,-0.8870945930507979,-0.8894621440888542,-4.2125415460425,-6.7876417634416,-3.846541366451779
128.0,8.449009577507494,2.5139193266569766,-5.935090250850584,-5.468908326708577,7.171682915491814,-1.7524175400463862,-4.3146516001063375,-5.476760573736378,-4.407014595134643,-3.3580793299342555,-3.927081056815877,-2.0210823116282155
129.0,0.8541421395384075,-3.370827535193807,-4.2249696747327175,1.1952004218839982,2.5146072440304295,-3.7610905212620187,-2.2810471306887035,2.570893672647494,-2.8411048071503164,4.16463815248532,3.1929978850217227,1.8377171392013
130.0,0.8862404991937132,6.073651616902776,5.187411117708475,-3.46113433239507,-2.1855639035349057,5.587275706448723,0.9067298398342549,2.7361765992103884,3.345343693558136,11.144801642440587,13.219558458771969,6.282738935253047
131.0,-5.334491639727977,0.6526392186886727,5.98713085841622,2.3620729958548856,-5.631063246931179,3.35261208040748,-2.2166126624817806,-0.6994602808231305,0.28431494247394085,0.01908739647862845,2.168226304807053,-1.8238919042116337
132.0,-5.271496099355652,-3.228234724261762,2.0432613750939423,4.193699871409795,-3.6428893560891176,-0.6420865566886609,-5.903132143530958,-6.686856991400331,-4.801773929867032,-13.25711617009542,-12.066281312397049,-5.404716721066406
133.0,-2.591095056245047,1.9635214379761274,4.554616494221595,0.33768704626529367,-3.571514229911682,3.285050319474229,1.0577175028933767,1.5874693489979388,2.7650636967441344,-4.4612039409328315,-4.499604698312105,2.2175361191830554
134.0,2.899996385112523,7.0655389555400125,4.165542570428156,-4.956670450206785,-0.6394059612695508,5.639959250067965,5.733889241158986,1.7718364251404268,3.898650502996367,2.2382124963113,0.5687713733917241,1.4231407539626129
135.0,3.9510376994775083,-2.4539935735784892,-6.405031273055303,-0.7187701406575315,5.1706481343669815,-4.40446995174577,3.4395255389747788,4.017549131006403,3.9676080732360917,6.4831085803721695,1.9029457765096733,-0.17316478153863257
136.0,1.3764773451646448,-5.340586563762573,-6.717063908926894,1.9379521817742758,4.046423616567521,-6.0800474591116735,1.0193197845386135,2.1835864797527558,1.6836458406592896,2.2294535124733557,1.0723709326410722,-3.0539511457798074
137.0,-2.186261234058905,-5.143867763180529,-2.9576065291217235,3.704977132881675,0.3990892331003928,-4.0199337290337045,-1.3311834578743498,-0.534578927145818,-4.359348408537538,1.3174444265343932,3.1963443444565813,-0.4411309485524479
138.0,5.57084453020035,1.712122634294552,-3.8587218959063634,-3.675661510880148,4.746141855436239,-1.11851000694651,-3.0693533626178198,-3.6693240403206047,-3.654745115445208,-2.401292988778839,1.9312462625230784,3.343600421092626
139.0,-1.796756265666485,-0.7305366794172912,1.0662195862484087,1.2330508978044457,-1.4602422353093978,0.20253359641494018,-2.8371995953968083,-1.7836899166782971,-2.3395954859346744,-1.5501670935649032,-1.6053808945832018,2.0879568357899605
140.0,-1.0918514641341686,5.703144335908982,6.794995800042453,-2.3334545963160704,-3.956400853038507,6.282977065484656,-0.03025069700418026,-1.0234411402638035,2.2181355260880955,1.9009242712137735,-0.11822952044193957,0.5589995716565407
141.0,-6.315316588655912,0.27013655887785637,6.585453147533415,3.0762326771769786,-6.453115251436495,3.380773290480954,4.529605551657186,0.6570480609981627,1.672028415219294,1.381666052243077,-0.3789845756246102,-2.016899212188618
142.0,0.5758441738310598,-5.464057942204747,-6.039902116035662,2.500762497193295,3.308774236347624,-5.801154584455883,0.29658832853733785,2.0043838554624034,-0.8013153483735229,-3.8620345034236436,-1.8413629854119837,-2.9017814347067192
143.0,-0.8450256771290223,4.933478624625732,5.778504301755239,-2.0635238955324313,-3.313162858837309,5.385370014912341,-1.495874962271505,0.618514096177968,-1.1589973711979595,-2.9640438441847485,-1.7205660318891496,-0.6324667484524384
144.0,9.578164764224475,7.0233119733528016,-2.5548527908710814,-8.318890725539205,6.058954347827526,2.2670600147735116,-3.4548375998790006,2.017079017758771,0.4796086743448964,1.0978146414713716,1.4564630049358047,2.2202733518811923
145.0,-3.0427276824839113,-2.9995518932401506,0.0431757892443021,3.0008657237230025,-1.5578708757121493,-1.4376887036581345,0.7566478780006983,-3.5703632710917796,0.3077299059663875,2.0020512112020903,1.0881810097747062,2.0810996858935944
146.0,8.886552206086135,-2.2612782371526805,-11.147830443238586,-3.339094765197787,10.074697416608402,-6.7319970533091995,-1.233817153354778,-0.43427981279083416,-0.01121408512647415,-1.3948815495878994,-2.582250138771707,0.206328881483834
147.0,-11.71340745225103,-6.277986643481161,5.435420808769851,9.038432529854108,-8.59989597631121,-0.4372866122217456,4.10153932188666,1.8938966021358041,3.266598000924557,1.6888966946538755,2.819472087354759,-1.7255109006643377
148.0,-6.573548676293315,-0.4883057947429035,6.085242881550127,3.48412458906372,-6.278710564732699,2.7914799492812525,1.1109649955911156,-2.3805785186606556,1.7922860749759355,1.9805121298569488,2.834183619628298,-3.1922616787182307
149.0,4.927718426860446,6.502406354829541,1.5746879279686006,-5.692244398017825,1.6460295722670102,4.035650758657172,1.2970528565610506,2.951802237406612,0.2699320569508157,1.7115217113891388,0.5539683009754075,1.447526689407581
150.0,-4.184457390289845,-10.324647470247339,-6.14019007995792,7.272472510830315,0.9435200973643803,-8.23725284475567,1.6269955230946116,0.9863698020523635,-0.5210335153287641,-1.2938699233972177,-7.938220469152482,-1.5207632376782403
151.0,2.8427642576234238,0.8273724358033845,-2.015391821820094,-1.816547294309653,2.3887214180327834,-0.6062270754264936,-1.4627261955481867,-1.7261260105871572,-5.868155774735918,-5.499827203338821,-3.4533431431173938,0.8833121144352944
152.0,7.329405119600305,9.24318218611463,1.913777066514613,-8.262198288396014,2.7387105128802274,5.634217500378239,-5.888392665646187,0.2996652120760903,-8.378753725245144,2.0466607216293218,8.924766554681327,6.660600328089563
153.0,7.263470010107725,8.7106424599081,1.4471724498007092,-8.033247610832248,2.931786674865056,5.0445638870045935,-2.3412342584878494,0.043044401916777886,6.056450123696354,10.127621539305556,9.469274870463003,1.4679998807308539
154.0,-3.202566463082836,-4.344337871038483,-1.141771407955523,3.735794561278291,-1.0118741474451776,-2.78631940936878,-0.6985486207426471,-0.24934272605961105,6.772291027068066,-3.890514849221243,-2.906170800002597,-3.8488456001754967
155.0,-6.339759529970706,-8.1401489152605,-1.800389385289931,7.287083433877983,-2.252938614707479,-4.939064227380769,3.899557082009289,-5.923430188115025,-0.6587638296634211,-9.673942272246897,-11.646106920903124,-3.9974317113046354
156.0,-6.708143678349732,-2.622155289118668,4.085988389230861,4.63545845127957,-5.457459938582355,0.7643018102289036,5.169594917845872,1.6687425811007877,-2.410637211198433,-6.407865722543983,-6.540073218057966,-2.8712937906718174
157.0,0.12539567611312075,1.2762339539757672,1.1508382778625126,-0.6543262595728847,-0.4903344172986883,1.2515985529749156,-5.728906606111719,1.251843663718058,-1.1537326661456684,3.565336645909679,1.1713886186155116,0.3972808203758702
158.0,1.3835158708393842,2.843152417602612,1.4596365467631118,-2.151919108180639,-0.010727837143278018,2.1183815556769052,3.8949556146122397,6.449616561023897,4.833964487202288,9.29303707411253,9.042282628269172,4.649656270157178
159.0,1.4749413370241344,-0.23000336511350206,-1.7049447021377608,-0.5907305779130017,1.542874888409381,-0.9939089375289052,1.74377463066709,2.060400859550508,1.5697247111237183,2.535961741467803,3.6160762709999847,1.7217530779639403
160.0,2.547462951979284,-3.7365838574605617,-6.2840468094398885,0.5392408690591011,4.450100894429125,-5.033693318130681,2.2817985536653165,-2.0535480836364286,-1.245383217063271,0.03165010789926903,1.27193669225929,-0.9898070604562756
161.0,4.860773772738487,5.790918007231619,0.9301442344931776,-5.308277705292515,1.921459173253345,3.3358825637094665,-2.214139988944278,-1.3637665405818478,-1.1615730623153988,0.7496833893303014,-0.5524115801918236,-0.915248532938572
162.0,-2.841468349645454,3.3110095499515273,6.152477899597104,-0.21880371881719984,-4.463408489543961,4.781219985194989,-3.7621010479417603,-3.8436801613367018,-4.129105107695443,2.9110104276941415,1.6227680540268317,2.8364514664581697
163.0,0.7267116239916809,2.3224747796818033,1.595763155690221,-1.505287733000016,-0.40344082532243797,2.002754670043811,-7.276775703569014,-4.242640051058985,-3.976778821758484,-7.650102516874779,-3.3638462812383247,-2.124705829551741
164.0,0.026638337279440982,-3.9229819119136358,-3.9496202491929586,1.974963063943609,1.937810961047882,-3.976118343688612,0.8738023175318705,-0.05722639634172655,2.2194611244935847,-6.397902669693639,-6.971964836507192,-2.8089941160814336
165.0,-3.5852636164278167,-8.243226617587593,-4.657963001159749,5.871858907998218,0.5629748186031546,-6.492222903729023,5.237478354137695,3.364898893554964,1.441236715906361,-0.6921025069266049,-1.022296567436959,-1.5849902035488084
166.0,-0.5025903730437515,-4.229321265097532,-3.7267308920538795,2.3326172646330314,1.5598634154001783,-3.9391338933067317,3.4464510295402886,4.133869667881957,3.4134436099451726,7.312145952557366,0.6587152276773764,1.9380744706727178
167.0,-5.830704828691984,0.31671382302826157,6.14741865172007,2.808669442678223,-5.960403765659032,3.275781997936763,3.9372732705998454,1.071615134485473,1.2905135421074116,0.5462513885835332,3.874278503769928,2.1986425561317713
168.0,8.354033081178423,7.568947215352416,-0.7850858658261495,-7.986308375421518,4.602269040169963,3.3631767049803076,-4.449102672192485,-2.04773225893996,-1.3011912857979377,-1.250872810775053,1.0546188441062592,0.5217518820023075
169.0,1.7376355938915227,4.003024692641734,2.2653890987500973,-2.896818321142696,-0.22633905506767782,3.1110049991756163,-0.6866805503974049,-0.022797423655629867,-1.08097483502807,-3.7353628714479328,0.7415347531653809,-0.7675831331755664
170.0,-0.3092951275631908,8.652694144862988,8.961989272426075,-4.123844070626537,-4.673034644083546,8.786898633407707,-1.7453803557889946,2.0104098751505735,1.5709462160072014,0.3355469952162675,0.7451760895588747,1.8039698709989325
171.0,-6.840701632513937,-1.1236245164329364,5.717077116080891,3.9459313112898067,-6.315124278830595,2.3537066801483264,-2.0093797625131717,-2.7991197937314727,-1.5748592966746686,1.4067709756823112,-0.15242724929949297,0.7774803948984889
172.0,0.6581704042446186,-8.497618287554753,-9.155788691799476,3.9577549079971064,4.868574978054911,-8.854052502904803,2.23545097045173,-3.034857502172408,-2.241143841541579,6.521437682862205,1.6056106444886094,-3.4125628414986493
173.0,-0.43153609152974404,-11.48335402067752,-11.051817929147859,5.914268200789436,5.345713405437718,-11.303814263277115,3.2364669239733868,2.12028810856831,2.7301862150188203,3.5712513539759065,-0.47532657649809884,-2.986444893249013
174.0,11.033683751998186,1.163745486559515,-9.869938265438723,-6.063337923558081,10.481773951071787,-4.320973248870945,0.37449413259724373,1.8412274576582859,1.5571145820361945,2.2972866958635527,-3.20372435718414,-0.2640562584120607
175.0,13.885030124374845,10.406713216140325,-3.4783169082344925,-12.109156437115601,8.707140064016727,3.4865295060083596,-4.393321349948465,-1.2946699635671088,-0.5771846166135848,-7.672162157578391,-0.25125522919957133,2.067574284492456
176.0,-27.2959382781069,-3.0438039392742455,24.25213433883271,15.129385901989718,-25.829406763212802,10.619266450720362,1.0364803725257352,3.6114292165412736,2.1732001582479996,-1.3488949013520912,1.49066266977841,3.383391459132888
177.0,0.7706958386831442,3.461602191514476,2.690906352831343,-2.1561631552885,-0.9361659623310654,3.0093468372438865,-4.092378190391387,-8.547743498235238,-9.778667098350613,-9.609941996338145,-1.771162043359849,-0.6504132313191935
178.0,-4.838158180623202,-0.5014409842074374,4.336717196415753,2.7072871377066496,-4.5610248853779485,1.9308745183996665,3.5755490756787207,0.8715285570766005,1.2234890262915132,-0.2344868859274043,-0.6608746367934795,4.86438532331223
179.0,4.336639028617132,-1.8581964790349508,-6.194835507652131,-1.2831958512160804,5.2164999609009275,-4.007385049882932,3.072919998593342,4.042088653736709,3.0335497359422496,1.8079394698087141,-1.0954597787064142,-3.2514661644068346
180.0,3.29125354391877,-6.782028018058625,-10.073281561977485,1.7768709928591762,6.714197777351427,-8.399212360423455,-0.8745259270822475,-0.8590064522248575,-1.5818577098328426,-0.37532552456320545,-3.2185734581916154,-9.161342366342632
181.0,5.329804791043459,7.496162131348544,2.166357340304965,-6.3844606169884335,1.5357644570581552,4.791687581509749,0.08031888129910003,5.691576748331631,5.959241164257797,9.338197162460924,4.499633042604501,-0.3061721326809983
182.0,17.02544910723691,14.771752759594442,-2.2536963476425433,-15.872312276714913,9.671450075085637,6.307796097925507,0.31830439506509745,1.8943771077992257,4.646552787031084,6.790632856176303,7.082146535718396,7.255502866793009
183.0,-14.964680293307708,-11.043898196085744,3.920782097221959,12.950080507318264,-9.413146904120666,-3.585557854498198,0.059792428784695484,-3.556348837247426,-2.4724929111326075,1.257018258456069,3.087783202306113,4.083663901578913
184.0,-13.838517931858478,-14.810385436879713,-0.9718675050211667,14.347217749501565,-6.485372243780004,-7.914263494570499,0.16161215947463803,-3.021720623050243,-2.1293726341616797,-5.500571610121964,-1.64128010467185,-0.5670391303415383
185.0,0.9376983246490962,0.11955708137888177,-0.818141243270093,-0.5866519247544346,0.9021075607750726,-0.3765871376104659,-2.7800931557952575,-2.536494410714592,-4.254397846398948,-6.504723810611157,-9.519596718001527,-3.155588543736311
186.0,3.902332407134189,5.781395349501375,1.8790629423672445,-4.823097023185587,1.0346086444445395,3.8743470049455935,-0.4333673416925906,-0.004483590692271777,0.04268647252026536,-0.4769664013368864,-4.319920408003073,-3.576127631130588
187.0,9.012578933829776,8.847381030953342,-0.16519790287638703,-8.91234982904873,4.533975124127162,4.298983538439355,-2.815729502331183,1.4988303491753445,-0.8891177488539652,-1.5228262326408841,1.955333156305835,2.028813283552801
188.0,6.774818003777334,5.078367321116096,-1.6964506826612085,-5.908702964748915,4.262896899779331,1.7231614065377974,-0.13342585231560905,1.2113647783513808,-1.6037930877934505,4.113279623578025,4.741825545662899,-0.39992344023477394
189.0,-5.203599151820892,0.47603265454742605,5.679631806368341,2.383219654113653,-5.408291075387801,3.1107639200766086,3.7831659546875906,-3.3010692549354195,-1.1615567659153538,-0.4711025561889781,3.6933667769967737,0.7934336640948405
190.0,-13.327328913083637,-9.31378767690165,4.013541236182082,11.34198696391801,-8.707592101573985,-2.6898009254987483,5.258877430605559,1.8383114482085203,2.855838312829566,1.3512389413755326,0.49917092165689425,2.7644566189861965
191.0,-3.6879686593662706,-13.206027955556447,-9.518059296190089,8.391075665614888,2.887426752237935,-11.31322762428326,-3.9912274653699695,-0.9088135467678771,2.3264454268342556,-6.262709439572948,-6.592453895946289,-5.303575456519695
192.0,4.8330902379323675,0.9015580589919061,-3.931532178940393,-2.922877260430461,4.442897111157894,-1.534845396108115,-1.2057039610121099,-0.15939200630547312,-0.14236925275676393,-4.74908784909213,-2.3779593558319103,-0.7237799437083401
193.0,-0.868453307095935,6.1859188091278,7.05437211622378,-2.6355472154110515,-3.9717971145112996,6.607119702918958,6.019839364169142,2.1098891855769697,5.484104320067621,8.702090436650423,2.566140502398201,1.8656458078712364
194.0,9.274607999689149,5.492400341607406,-3.7822076580816866,-7.3592533963779605,6.522604879451646,0.8430994391236601,-2.1984655552658525,5.271665208695207,4.6103266351537115,11.67229308269009,3.973267690705547,0.32836934117723393
195.0,14.959091434889368,14.742966183030926,-0.21612525185837098,-14.823305504567204,7.582178702736724,7.246081251800099,-7.003963873208984,2.5783057287352316,-6.715542840584941,-0.676078843812558,2.6257229758488294,5.6095000056749384
196.0,-3.489477621033478,1.3631558368394732,4.852633457872983,1.0969629907188905,-4.1803531029010195,3.080494808416166,-0.903889466678887,-3.260870236590317,-0.21000151853188598,3.0286380041579513,2.8696218240646103,3.042562445598093
197.0,-6.8610406879869545,-5.605582587570368,1.255458100416533,6.195696015802188,-4.074488953517752,-2.1352715181887567,0.9545093028401566,-2.597697301464492,0.1352842819162774,-8.133629047580133,2.114188266737601,0.7306343000149967
198.0,-4.1259180451225514,-13.201289676428543,-9.075371631306105,8.632093132770583,2.4505986174991103,-11.108082513954235,1.545583422534319,-0.029003010742782998,-7.171248961243576,-16.5083764304156,-10.137959057007214,-7.644355798868158
199.0,-7.715646976228565,-7.088392290924735,0.6272546853037038,7.451546134548095,-4.123297297463168,-3.2053457503788616,2.504664864652287,-0.5134498109707203,-3.923860474586086,-6.464423706368669,-6.35556298442495,-6.134196292280833
