Time(ms),I,II,III,aVR,aVL,aVF,V1,V2,V3,V4,V5,V6
-200.0,3.069784572533533,5.926827486841235,2.8570429143075966,-4.46846360806925,0.14313856918776813,4.437693596703584,2.005294867955505,3.755297311199425,0.4865334036761908,2.6738135440486928,0.8383652367396102,3.8357831602632286
-199.0,-1.474327972779995,-4.064132920947077,-2.589804948167107,2.7969582855341164,0.5146341800049615,-3.3555955664185126,6.150879847640088,3.0958763744796554,2.459087435869082,4.649861553109551,4.2360383833641855,-1.9957039299378851
-198.0,0.10042058688242572,-1.0068433237443792,-1.1072639106268225,0.48092530101898445,0.5604875202693982,-1.0865699529042132,-2.0478891597900475,0.46134097296069054,-0.46575262173260823,2.699980839420312,0.8147203161550527,0.1522718412632933
-197.0,-2.1772455044385577,0.6260577818637247,2.8033032863023655,0.7268417395661367,-2.4549788233505665,1.6792191303718231,-3.3919181204413698,-7.8622348268037925,-9.108347800631623,-7.060735185378171,-3.3734797346145395,-2.6632703375485303
-196.0,-0.7169265106527758,-7.273406786579542,-6.556480275926712,3.950941057778506,2.876298618484713,-6.880668377259324,2.0775300557747176,-1.4278097485877534,1.8525512424971406,-5.439850380195718,2.2178774708919455,2.1067529317899805
-195.0,-0.10420666206803664,0.04232979464221032,0.14653645671027427,0.07192702373171467,-0.0895646014873972,0.11958175917653291,1.6622890363870348,0.10449422633360772,4.748391704091146,2.740319566134554,-0.102288490164292,0.26979849771784165
-194.0,1.8051173597311632,8.64878322959941,6.843665869868255,-5.178224350301442,-2.4818198764628123,7.764848970012505,2.7611836775200684,-2.1880557153810107,0.23222196177149335,0.3993143375371294,2.105354983762227,5.079160377694292
-193.0,2.221241350102925,-0.7124148771484724,-2.9336562272514426,-0.776590828484834,2.5390294425655267,-1.8068363966001402,-2.8560234221691143,2.7224909815611444,-2.7236475784203016,1.8351073336785166,-2.1743742955165657,3.6607475522370585
-192.0,-2.1688825271414354,-0.04931408690936634,2.119568440232045,1.0932903294683503,-2.100277532484315,0.9742225026286503,-1.0369316726369702,3.0486248902106015,0.08244120612937994,1.1615819254926185,-2.8861624412281603,-1.3069992532776262
-191.0,0.7357330780511379,3.0974015456868917,2.3616684676357553,-1.9291017678868512,-0.8442265230770102,2.751929269642524,-2.758086164073129,1.814141205072701,1.1254691414571814,-1.6269686243883685,-7.758842959778994,-11.744177546526778
-190.0,-0.23557669897352987,-4.901930092731547,-4.666353393757987,2.5552499268675297,2.186981295294072,-4.7558630296306275,-0.17132104166294204,2.415533922070723,-0.45921834991914223,2.2719037524039445,3.3161172562693673,-8.064596557130605
-189.0,0.07896215415026464,-1.8417150186669033,-1.9206771728171217,0.9410887964692207,0.9735509296298125,-1.9257042920193261,0.42128809088106345,-3.50366272365965,-1.6131135420873082,-2.0153997371853514,9.308547131692825,1.624715922112475
-188.0,-0.5493105412216017,1.4834889537510223,2.032799494972653,-0.4956361636145069,-1.236620200924305,1.7191312595512942,-0.7581575095927959,-3.827097760837365,-0.7853618395791002,-2.820398895351259,6.939727901400459,12.576219390908776
-187.0,-3.8394988391931713,-6.861626213705598,-3.022127374512414,5.309915376497399,-0.4306588819880729,-4.896990577011297,6.848698820356997,-0.6424295037599901,1.5136313374814092,-1.0197252799344603,-7.838250513739042,5.319019293963118
-186.0,1.8885156428361163,2.320610288441711,0.43209464560555827,-2.079246238517658,0.7877017930374633,1.42640093722131,4.3786323260249915,0.8817596610918088,3.277221006785436,4.259689680357068,-4.831887649965138,0.9868678122687493
-185.0,1.6330977845172936,3.228741755728552,1.5956439712112425,-2.4170767325294005,0.0016584270351724661,2.3887356818779044,1.7069050484624773,2.448136184515256,1.6153937250887982,4.899071248969221,1.7972983799852562,-2.2621244761313495
-184.0,1.1718799934385267,3.7814528359387563,2.6095728425002216,-2.471397472652794,-0.7357055117191575,3.1769048257924646,-18.314607749854748,-1.5727136352246922,-1.675093858457595,-2.9710616022310927,-1.40780967031142,-11.36574939568126
-183.0,2.2417349774745046,3.65407796045269,1.4123429829781469,-2.947512102735555,0.39485102206657924,2.5181742860549012,-2.6541792645083726,1.7977569180010566,-1.3972422650070937,-1.4081466407488805,-0.6252690167229169,-0.5321714032631624
-182.0,-2.548043969316471,-1.8859641692219338,0.6620798000944896,2.2161839507695036,-1.6312306089683672,-0.6256319842880516,10.57234717125106,1.7505673872637542,-2.491784258671477,-1.2373941466590974,3.230570110924626,7.019642348162004
-181.0,-2.3041782304238367,-7.443439157128971,-5.139260926705193,4.874851009713837,1.4617604821643595,-6.227915094880794,7.694457290218127,1.5011088559897177,0.10145767193135602,0.1377993674422282,3.156508379544124,3.701868061756971
-180.0,-0.41290457969341876,-3.1732466968506565,-2.760342117157326,1.7984097289237395,1.131216394380544,-2.9871196800023077,-2.9589794595830146,-3.5561097837055504,-2.1265299156394772,-4.337889231505846,-0.5804314230412317,-3.55917834461365
-179.0,3.4565039615548168,9.1767289713483,5.720225009793365,-6.3836274316295,-1.1004941107732242,7.419789206144473,-4.036186430994787,-7.526340940437929,1.4604948442645493,0.11268656591062132,-3.6136479473249103,-5.975328645159145
-178.0,0.6228239889800298,5.404005693840856,4.781181704860752,-2.993089983171335,-2.0476632084913593,5.131592672380524,-1.132264195730281,1.2683721018217935,1.1441133705541038,3.214749975998025,-5.536853870006337,0.891307561266867
-177.0,-4.222446270918221,-3.3565560174280042,0.8658902534902055,3.8206538261984715,-2.585822604275002,-1.2974410033892667,-1.1798997744683346,7.62297430042617,3.868931206846251,4.452181782498021,0.8901761010800517,6.013126056835691
-176.0,1.333578552772078,-8.613837833100899,-9.947416385872959,3.6837809295488935,5.6872375502213455,-9.265556033209645,-1.5823895568519728,2.2558359440323525,-0.89499835161917,0.6507018632108803,3.296646856341027,-1.2941450854197014
-175.0,2.16258149988553,-6.963058833477344,-9.125640333362863,2.377704836976935,5.6230864296474525,-8.037712362215101,3.2665240995610256,0.3050798932579508,2.438187630375797,0.8927933457335056,6.058460731709576,3.529220731389394
-174.0,-0.764287424266325,2.379408383449284,3.143695807715621,-0.8198917283256087,-1.9658765151638358,2.764860776676448,0.30118709002560284,-4.194139218208464,-3.9140808130793925,-6.348455901515154,-2.763572380243109,0.29052322623249816
-173.0,-0.28791496883383877,10.270045402657981,10.557960371491829,-4.998000814686451,-5.430122786887343,10.420004194696194,2.4218296569025486,-0.11349836953385584,-2.4868336991106297,-0.3403772107292289,4.461999932550104,-1.0458722090803898
-172.0,-0.5326394044165036,2.2074779620374834,2.7401173664539904,-0.8452250195886584,-1.6444631726690813,2.487982474229802,3.4261967019015866,-2.9023036057371883,-3.6287767096720076,-2.658738997126823,-2.591018367960789,-13.14280135547746
-171.0,-1.780189430670923,0.43212084682266516,2.212310277493604,0.6593017480443462,-2.0102254760965095,1.3481976048063902,-0.650924620718176,-0.6411637161441335,3.9911385114827733,1.4144420090415932,-3.1389307513479388,7.088047571666265
-170.0,1.2552906385350733,-0.27789297487265946,-1.5331836134076977,-0.5145165610739907,1.450248224098214,-0.9455031439823838,-3.6574063865048068,4.86270453785444,5.475098809415944,3.4396859941504263,-3.458174583686048,2.25547639314758
-169.0,3.970221541057756,-1.7975909592177655,-5.767812500275481,-1.0457172146125835,4.83756968717332,-3.811291793962468,-4.417521468820562,0.07327684771038401,-0.19919510299000365,1.3196334842393374,-1.2478152664969617,1.8346337195517066
-168.0,-2.799434172218723,-1.7893965660243834,1.010037606194338,2.324259581044488,-1.9419853743111508,-0.4098155546537847,-4.888027398495545,-3.023253967820422,-4.309544356576048,1.111976436010431,3.7299059072928884,2.2028607290443176
-167.0,-2.0840324498365583,-5.5604522911236565,-3.4764198412871843,3.844671792868782,0.736737570183087,-4.4545925232782535,2.8781106605117035,0.41005094456865643,0.7505285692847401,3.8092678815311336,-0.18560857644134332,-2.8696998315668343
-166.0,-0.8762781546656446,1.7050128827890787,2.581291037454575,-0.4744903326584826,-1.6839330169575788,2.1307958568994936,2.204130313858751,1.4010184515537165,-2.912759741310352,-6.0538160408053265,-1.2818245701917554,-2.52442054671011
-165.0,4.190315669638973,1.478817430549268,-2.7114982390898534,-2.8170471570747004,3.425297075246304,-0.628072571545566,5.222857003833228,0.7780071295219075,0.5364446040925819,-6.536983803847631,4.619625254835324,3.0580578754994123
-164.0,-0.5815724536987725,-0.8172802880552037,-0.23570783435649284,0.7171584872531267,-0.18886411841139772,-0.5391256555897186,6.500897222243292,1.4731229023759989,2.0471504627517687,0.8857265358180695,-2.6953882439778436,3.3732388660144297
-163.0,0.3420911646983409,5.973666629894687,5.631575465196453,-3.2184595003581324,-2.652628304831811,5.866132235818586,-1.2782705681871005,-0.2358522289354976,3.0720304319901253,5.549635343541119,4.208741749021008,-2.0156027812611716
-162.0,-3.0716047958146624,4.626440595379957,7.698045391194878,-0.759005912235954,-5.388760973175867,6.14206750305306,-3.5537931351397605,-2.6623448929306472,0.5739309105489263,6.61790593816196,0.39588604290011575,-7.854407396505234
-161.0,0.859089237315209,-8.772231818396854,-9.631321055711775,3.975230567701882,5.239905499324138,-9.22979075795185,-7.867636640974922,-1.6107391665955961,-2.250528702018329,-4.950998503434774,-7.120820858696194,-5.293217587343829
-160.0,3.6738333008514337,-6.545526620397229,-10.219359921248472,1.4551871095202844,6.934809360801784,-8.42111753152557,-2.786951032145093,-1.8234390337363844,-5.051295291730164,-8.513451262477515,-7.331520181676498,-0.6308201130562894
-159.0,-2.0905572945990487,5.53499647689008,7.625553771489113,-1.7015152108794829,-4.80140840342031,6.607963963128675,-0.11252922912739294,4.575826746040239,4.383104252499302,5.725336018617866,12.623395103220219,17.35681482030061
-158.0,-2.557082620751464,3.798293787699061,6.355376408450271,-0.6766786367047644,-4.4906025380901005,5.092358115835049,4.15595455660318,-3.1143636769882064,-2.452839855108987,-3.2135492302913917,4.9450712120105305,12.62331671430347
-157.0,0.6454853166059611,-2.871555264263048,-3.517040580869314,1.1380560469322245,2.1133919383300857,-3.1885350737054323,8.237342651871453,1.9345326686027204,0.79889621076024,3.3742888936267192,-4.460678506584875,-11.247744326974285
-156.0,-1.1321804965194062,-3.8690733412483502,-2.7368928447291374,2.4494402105469497,0.7453100034331664,-3.3028812525927185,4.857771056257456,3.882766245510636,1.750920317430033,4.38044861594452,-4.600785407324514,-13.826167775789253
-155.0,2.0606437360552974,6.743166308317468,4.682522572262164,-4.3716945017036615,-1.2963606748230774,5.712106766981508,-5.460720717244945,-1.809343986206726,1.0349406983470422,-0.20729436268438062,-2.298696718878345,1.7404647399192044
-154.0,3.112983850530626,6.114826787822147,3.001842937291612,-4.581199213101956,0.06730976288243237,4.56125263135152,-19.904496884529806,1.2443062232882802,2.042823001555522,2.407789156791311,4.017705598187039,4.98822823901415
-153.0,-3.298465048866258,-5.1942927050361165,-1.8958276561698115,4.280746237730769,-0.6878733151184648,-3.535102570306639,11.878803797329189,-5.478417654623663,-4.799781048488162,-9.887063551197446,-1.2039411545539869,-5.132187742367786
-152.0,1.173454798864154,-2.9103004251762954,-4.083755224040225,0.8238102055381826,2.64767071545227,-3.5568681515149025,4.442008611521384,-0.023253890611252714,-2.1289530600676905,0.11906235303213997,-1.5825200848259835,5.2460521346074
-151.0,1.7238435217045889,0.017968503528605684,-1.7058750181758178,-0.9186092849305547,1.6632692362827353,-0.8156503646165341,1.8488664731279565,2.7842467826156336,4.490581079917057,5.179833585703832,2.8761466318425875,-0.4649473645155875
-150.0,-2.291184789263267,-9.774764600201417,-7.483579810938074,6.057780924933158,2.632039013731258,-8.592341094358803,-0.5345624636829809,1.7690967154050614,2.0394414437499653,2.821119631742966,3.215612592005656,-5.12330611963048
-149.0,-3.118023718584013,-2.4758754219202963,0.6421482966636527,2.813068312703412,-1.9155633102382303,-0.9522544220589793,2.398352530962816,-0.6812598112457462,-3.327057181494168,-6.720348193765103,-3.4341546660234443,3.13414525241577
-148.0,1.2560523960961318,11.403903921957797,10.147851525861668,-6.32344110387902,-4.397798394814039,10.82283602633866,-3.2193138439379867,-4.945105325181359,-3.615766651258542,-6.574597434194459,1.0855803636127879,4.199652959586076
-147.0,1.1092739570321577,14.172209596839012,13.062935639807003,-7.642711485122297,-6.005850428658243,13.585938138884437,-3.6026247483973575,-0.03218078200509322,0.5683597785605448,5.5629421784683775,0.404508927946458,3.328245307198721
-146.0,1.3964173494690524,-2.670950866364846,-4.067368215833604,0.6297886753619286,2.701539507524716,-3.403850167602176,-5.689583598051135,5.177411533931766,3.4095770864075687,5.076536693208976,-0.862131880843202,-0.8660921154979773
-145.0,-0.9931616089808692,-10.359305414085005,-9.366143805104,5.667759208743584,4.23152428639614,-9.823753778810831,4.317164342000231,3.456610134534155,2.285560524016156,2.736659268891507,-3.3399743646957005,-6.2289482117296195
-144.0,1.3069641741174043,-5.627326811305124,-6.93429098542263,2.156033605134476,4.082799157893994,-6.325715860881169,5.425720271725571,-3.8618392990821606,-2.317324124674812,-2.1992698748013018,-2.294455927322313,-1.9927961230903297
-143.0,0.3066371871905509,0.609446760718896,0.3028095735279921,-0.45270105285149476,0.03914631601717389,0.48706063761702545,0.28371790546752385,-0.7133612735528454,0.7262065575592441,3.257638200536366,5.132789745159852,3.860631072519475
-142.0,-0.21505466004676227,-0.7918529769934851,-0.5767983169471224,0.5221271743025954,0.21553225714484603,-0.6523424849868685,-2.4636480749584786,-1.9091867779034821,2.1901301942295595,6.504017380042829,6.679356247128956,-2.49685984754878
-141.0,-1.3444036778387751,9.933655864371454,11.27805954221007,-4.2611872914477775,-6.35663959852701,10.564661740008546,-1.8165922426716106,-3.4628535870858883,-6.9407462677577145,-22.48054602989616,-7.865997782118377,0.28272614954694253
-140.0,-1.728511186804873,-0.3617043433775047,1.3668068434272733,1.0129672224987196,-1.5933471567704975,0.5493050254508347,3.5895634748918974,4.196920689900535,2.750178353454089,1.1249355975448871,3.323916297055272,5.431459054277458
-139.0,-1.3236419372928703,-9.814796188017809,-8.491154250724863,5.54586347837876,3.617280141575279,-9.174214358526742,-2.2742191158002,3.2811358578788092,4.0791285844924925,6.529087699152013,1.7697459836854084,0.43983774108121976
-138.0,4.578489204616466,3.211320965988956,-1.367168238627262,-3.915486164228608,3.0072637044514625,0.9106077971623399,4.898399873695895,2.1542014727620282,0.9104997391325069,4.624735842495313,-4.877048330093517,-2.054116268230495
-137.0,-1.6277830911778088,0.815672038013962,2.4434551291922757,0.461115829767764,-2.07899574888131,1.6247397242148107,-1.6406548636297962,-1.5233282916198803,-3.5991880557229985,2.2836703365866913,-3.082225118901118,-7.2423889105968655
-136.0,1.9822481892895105,5.978562314177973,3.996314124889041,-4.011223038679862,-0.9713673882338019,4.985111723466021,-7.58375360293687,-5.160469606155454,-6.028141752342863,-1.9300278778072884,-1.6542013115341891,-0.3677647175484178
-135.0,-0.5013648006545322,7.254313218523697,7.755678019178365,-3.415437148636782,-4.094015340426467,7.501399377322897,1.1138388166824393,-3.3928008654284554,-1.3060553163542148,-0.3916653601555536,-3.558114944984202,1.8270124301025517
-134.0,-1.0854433343047452,-9.832957751572998,-8.747514417268803,5.492983466949992,3.783660464766724,-9.297331040356529,4.566979300346705,1.360713497466566,7.557250472883487,-1.642779013902038,8.62295835628164,6.9840178530828
-133.0,-2.507796014730693,-11.502799078873053,-8.995003064143084,7.037444509410553,3.19141795943215,-10.259705895528455,0.26718469982683546,1.6467629121150105,1.2545527466658886,-4.389403716939199,11.934684008555895,1.5655459321855782
-132.0,3.3510987777926946,-2.289496251570432,-5.640595029363615,-0.4954329720649273,4.51729072303297,-3.899382163778406,-4.091657352593508,3.584273646205733,0.7074196261109018,0.4504020641636539,-0.2428618110434524,-5.973889403787311
-131.0,-3.1316524718171093,7.951101491476252,11.082753963293406,-2.4464136008558697,-7.089059932286449,9.503566491843488,2.050050009900886,4.551545212486111,-0.7401721172200433,1.8289422683713723,-12.153887049385325,1.7125685587411361
-130.0,-1.6334756990919537,9.967730493410034,11.601206192502405,-4.196264394274327,-6.5986475386226235,10.77217053560608,5.279152848333736,1.0693372202848443,1.0003859422011816,6.310096628441886,-1.9639642888435036,4.006866700473321
-129.0,3.8079376721554667,0.864481094333807,-2.9434565778209736,-2.3596622394136926,3.3997523203267965,-1.0509120542458792,-1.566384452674686,-0.6481113198190861,2.025749237765167,3.7146438941494058,-0.8403616767087989,-7.763789727538633
-128.0,6.034304359011993,-4.3437956148749395,-10.378099973886401,-0.7879718441626005,8.161021506081982,-7.373349730350477,-0.1455311370426295,-7.584288572938638,-7.290741620423511,-6.819576926207089,-2.650108336882671,-1.8199663358836347
-127.0,0.0017568686367361863,4.860608621448431,4.858851752811789,-2.4547796181205515,-2.3834513761258616,4.843375203546299,0.22045824454281615,-1.5501275573127051,2.951507324955062,0.33839037562533125,7.59323425709408,9.162009385529876
-126.0,-5.291250428272087,-7.262109345740015,-1.9708589174683655,6.247805880441587,-1.6831864758264774,-4.5612698367626106,-12.046574274901797,-4.588255265692079,-1.4951278958736993,-2.5036110130083857,5.159540888942802,3.290256093975731
-125.0,-3.810700239836451,-2.3412437247830056,1.4694565150526573,3.1193379472938756,-2.655854608803302,-0.4692363372529331,-4.990905498477806,-5.535794876063081,-7.855914106835733,-7.407841123749295,-1.419146288087195,-0.8290444910299879
-124.0,-0.07939583908078829,-1.3324073040813877,-1.253011465001154,0.6649696108870968,0.5734154712632118,-1.2584854945907211,11.82155533768989,8.13076319905388,3.00852188636901,2.0802096088708804,-9.649431352781889,-18.35654997443472
-123.0,-3.0286359009556905,1.7438778071148298,4.77251370807059,0.6773658872340521,-3.9161447868082657,3.2027707170053534,12.904108192530305,11.873590550170926,6.375394522736116,6.180107032614473,1.739478334019902,4.620856550171304
-122.0,1.575680858098224,-4.398006511551847,-5.973687369649662,1.4467998346135758,3.832859344097039,-5.171325549732585,4.258987410234913,3.702462087457742,2.3163425579529684,3.1026569191453137,-4.954996314729555,-0.43098903252490217
-121.0,3.7824036843529987,-2.441831217964282,-6.22423490231689,-0.7096635321007057,4.977399935611202,-4.323617245978739,-7.437656756422751,-2.595532081256089,2.859537334544557,-0.1715888093500455,2.4159212423249565,5.930600668637193
-120.0,2.7286563108847757,5.901980608033123,3.1733242971485196,-4.349167040889478,-0.25162765636790096,4.546608932052413,-12.823622490201407,-4.386750038715881,-0.19160428376266697,2.226695372294697,12.732163020644116,8.851270359944003
-119.0,5.046713036914855,11.040552850008917,5.993839813094078,-7.993067895461467,-0.42420839808177757,8.530272506852869,-5.787407550570175,-6.328369832645218,-3.7578491790238773,-2.3745481111138806,4.250517381654866,1.6138522330644776
-118.0,0.14464612082471862,9.171916990283393,9.027270869458977,-4.682166532067045,-4.467748611385399,9.12023711075038,3.0753603752253005,-2.895544545784994,-2.1536553002564554,-2.9486665049232315,-3.037560663408788,-0.6708259823971139
-117.0,-3.5178419680275947,-10.863350102254671,-7.345508134226646,7.1686486575451935,1.9704147293510657,-9.153370050716315,7.2644373028586235,1.974266568688773,-1.227165418748216,-1.382382712658567,-7.614536525132963,-7.442498182547049
-116.0,-6.438304367843807,-7.870634368852904,-1.4323300010087716,7.210485602019168,-2.522296898544815,-4.691646227466057,7.973042456738664,3.5521040765015353,-0.7491432179167417,-0.7671072962322114,-8.893935855969264,-7.099978422912967
-115.0,-1.501954854811554,-12.454428110566763,-10.95247325575524,6.9522219406117385,4.704803217563098,-11.65812023714738,-2.681557593708824,1.0273031864699873,1.0190307317114369,-0.23850617158393567,-2.660635439579374,2.6581602565849893
-114.0,0.7280640006198076,3.5426701349824095,2.81460613436197,-2.166189313790717,-1.0701120256519214,3.227565777085946,-2.2733574826416714,1.7918768314685183,0.8831121071458923,4.882761253327803,9.739710785652898,5.762139346250864
-113.0,2.9124815890190447,12.903522946529035,9.991041357509163,-7.865303290140839,-3.576808896166483,11.417304186395546,-4.241328693254768,-2.1925364393322915,1.6409488798059548,-0.2788317441531576,4.746590667800109,-5.90045620262416
-112.0,-4.415628389812867,2.155143756626072,6.57077214643836,1.0899745197062716,-5.463979919275454,4.329002120163775,0.5909271495095374,-9.20995605613368,-5.888665247945965,-5.676369422231311,-3.8016654410031268,-2.5345221076815276
-111.0,4.4468538735629926,-3.185856469229994,-7.632710342793007,-0.5940681550367466,6.059628612972743,-5.371674975580722,-1.937474649781197,6.20432519696074,3.3877604309092453,3.397984770885955,0.7744352445820903,7.58552511625131
-110.0,2.9803816203932407,-1.1980096660688915,-4.178391286461612,-0.9328956441839429,3.595735165295416,-2.7383527953543756,-0.3649068607616279,3.618680070420413,1.5303979724868644,2.4307333247793075,4.323916355491665,3.8731500513012787
-109.0,-1.4883877144556132,-1.688732049410517,-0.20034433495427262,1.6284012338225096,-0.6241439421244737,-0.9248262518175931,3.4137245144901986,5.076540356318118,0.7891556323298086,-1.997122841584923,-1.763137726461883,-2.7941161779382195
-108.0,2.4761258176889056,1.037026287213712,-1.4390995304747225,-1.7131992334381192,1.986589388284996,-0.18809312499269248,4.1475950469946445,-1.495316652433074,2.3214770781770993,-1.2551479063945628,-5.996797987412801,1.6822455813501416
-107.0,1.290458967272646,3.4759169789115028,2.185458011639041,-2.4163260919948852,-0.48603301449252967,2.8403537748418666,7.231962969925946,-0.12914309264357993,0.14763616115571662,0.653876230086877,2.040952140849061,-2.483599103396828
-106.0,-6.509286036350053,-7.346772898731136,-0.837486862381362,6.8940088438879785,-2.864966522679194,-4.081979247282167,-8.686906184977325,-6.60161376295716,-0.6054908327848386,-0.3106979181078021,-1.1708258057548382,-4.893265261351525
-105.0,0.7879253677409483,0.036271625222017434,-0.7516537425193277,-0.4508731089259008,0.7456473943261148,-0.3441777363383366,-9.32453839448309,-0.4585986128511328,0.7515077998537494,4.557080631230727,-1.4598880215689243,0.48797515496999244
-104.0,-1.2070152159911507,7.40531851058988,8.612333726580715,-3.0670915813387576,-4.934065784192815,7.948221880415561,-5.078809899957878,0.3436772658864242,-5.777729124035493,0.07761897039189702,1.582677566749124,0.544362297801091
-103.0,2.9805100451085433,1.1117255788930822,-1.8687844662157156,-2.023277019212683,2.4750053788210176,-0.35612364625653115,14.077349896470576,-5.41357066713056,-9.405398849371638,-6.4045033865583,-0.6706027977804228,-4.626444327233813
-102.0,0.38937423413576866,1.498592179484802,1.1092179453490303,-0.9294936634217208,-0.31483052810033907,1.3291409210880671,1.827498182133624,6.477489220223208,7.244638494105257,4.707515389796525,5.16166119355986,6.493247731907131
-101.0,-2.9702120948609467,-1.652056079554042,1.3181560153073508,2.319803502082543,-2.1820984749708896,-0.21924169589658268,3.1298230952917128,2.4202029006805823,4.016228653459396,-3.622678368411402,1.6490292669917714,11.044043348181633
-100.0,1.7835353280354842,-4.989891915677692,-6.773427243712641,1.609341728818561,4.317265644139659,-5.854969071736862,-3.3511821225436007,1.1864490218527144,5.028745968040041,0.024825974832519915,2.2048238970192986,-3.5651179603830068
-99.0,0.9907395453971041,-11.031851802728834,-12.022591348125543,4.948827880835591,6.46678880736786,-11.500255306905814,-10.415978873579963,-1.675919264830386,-0.5977129158265972,-4.22647246896118,-2.7249425734485007,-3.4324185210757148
-98.0,-0.5123271881314391,1.3442252057742796,1.8565523939054573,-0.40502116938608024,-1.2230307738352866,1.5498619239617595,2.7509422732335675,3.3132989812746323,1.3660033598647694,3.9815279556322993,-2.210047346119282,-3.007112658097884
-97.0,-0.8912505310454838,3.791240460573956,4.6824909916187005,-1.4325997013372591,-2.745500517457859,4.2677053265788265,1.7481942081555757,-1.576617258760484,-4.907770858467808,4.42243005359606,-10.076901226193877,-4.944959089737896
-96.0,-2.4995886519579917,3.8210879086490976,6.320676560606817,-0.6350935456425069,-4.368790380168166,5.1052728420488815,2.3983631792908167,-2.0111942191525864,-2.0731974236568025,-0.40400972610394814,2.01156445644804,-1.8400265801074103
-95.0,-0.4701261077309382,11.865294899248822,12.335421006979935,-5.663115299570733,-6.442236400395672,12.059345256185589,1.4842963353452097,1.5551463459473922,0.9407007375238758,-0.4714282514465695,2.585969509761328,-3.0720785698528807
-94.0,3.9708321468084575,6.672912378924158,2.702080232116177,-5.358413963005145,0.5906060278994256,4.726973771633197,0.7647706862639168,-7.034501541604652,-2.5512576685112345,-1.657532234454552,-0.5041614283291067,0.013254408480174451
-93.0,3.769299712072111,-13.243606468162074,-17.01290618023387,4.705752135985973,10.419944022065975,-15.1683852785454,4.942618414950245,0.44362121322588477,1.641849583723289,4.322698259825449,5.389985968114555,15.716355425485618
-92.0,0.24944729022719825,2.6705837331204094,2.421136442893327,-1.4896878115496444,-1.064032135440196,2.502290975705826,0.3661223830866601,1.5515286252709415,2.8395937127787163,2.3199391253134687,13.9660836452531,4.9696987552732255
-91.0,1.3631188515214072,-0.28344139346050934,-1.646560244982012,-0.4922337381605466,1.5199041125273964,-0.9346707103443901,-12.978880125171758,-2.826707808710279,-8.050506607492244,-15.332565935145087,-10.530643193683296,-5.288642867203328
-90.0,-6.590036853650745,-4.99450309535932,1.5955337582913103,5.836256057181235,-4.083038101221606,-1.6735117116547296,-14.089653133122193,8.57859150015861,5.528110668804224,3.2931350715385177,-6.102312122776427,0.3457099559891814
-89.0,-4.070473762313785,-15.972166810213324,-11.901693047899672,9.982222539911286,3.8438018060511174,-13.913006152192912,16.050097592936556,5.856197964998762,6.213840135798055,4.197149470365705,-3.4942243649246043,-9.035403106224981
-88.0,-0.044783644786849264,1.3614143192213652,1.406197964008091,-0.7010962743671261,-0.7177894686428646,1.3301835928337793,10.66679463028326,-3.9738294719302316,0.581397986964483,-0.8457474796552011,0.8263417393247452,-4.866978147750788
-87.0,-0.8078874424595716,9.459502511628493,10.267389954087998,-4.291861565076098,-5.524746593146658,9.892731460169415,1.5571372729597739,-3.3420991665352555,-4.487614185461786,2.6555865639902425,3.370589422189302,3.5615482803060505
-86.0,4.342040272748404,10.16612656966079,5.8240862969122,-7.220055234878273,-0.7182825101048071,8.030092592603992,-1.0556483827880525,-7.246446695827885,-4.532181188325024,-0.5892875784404377,3.702692434057767,5.778931916088445
-85.0,7.418004259128873,3.551976280777783,-3.8660279783511964,-5.527785602841234,5.678332110033866,-0.1955362075336975,-11.771428466247174,3.5801048530321937,3.2816545234468895,5.961252780297295,0.26682280667266545,1.1092943683502106
-84.0,-3.516105964310305,-8.180549772468108,-4.664443808157804,5.887124577915161,0.5468001742502699,-6.458040224164769,-1.7809098359796254,3.5767354034616843,2.6703846308386474,-2.4030312006600174,-4.813689777517104,-8.098218996474431
-83.0,-0.044256303000750896,1.7966239903634946,1.8408802933645187,-0.9136751633568414,-0.9564710379029564,1.861604933725685,5.412649912895039,-1.5529208694966377,-3.0870328843554766,-4.436760836962781,-0.597834014962739,4.758671844584155
-82.0,-2.37282462968538,6.001169804313182,8.373994433998938,-1.7720052855591861,-5.3784726130832725,7.148086121191362,1.1865406929593472,-2.938892157588808,-3.5664855848736488,-0.4922183128760622,1.9166587814023903,0.4119218542729628
-81.0,-0.8026231378793118,-1.093790189704279,-0.29116705182470104,0.9104206180797008,-0.25859097924804897,-0.6590243214060238,-5.067516927087626,1.9037471437333857,0.8070097911418391,-1.6518546390163695,2.350809549889636,-0.28875928422470665
-80.0,-3.193103725143723,-13.47653052022255,-10.283426795078725,8.294051893280233,3.537440814905334,-11.852962280295026,5.780484880173576,4.718885873159895,4.020004993680005,2.166891740470227,-2.958632740761744,1.2870797779610543
-79.0,0.6862511402631721,1.6294979244056664,0.9432467841422882,-1.1235199589724765,-0.1469419396465359,1.2291322942172398,2.647280596325111,-2.0693844392223104,1.280515950513323,-1.2766219102893517,0.5953424572289441,-0.3837869235196957
-78.0,3.8681371673720757,5.2869085982588295,1.418771430886325,-4.546038078207626,1.2707166918547248,3.3709558819286984,-4.492910776195783,-0.8127028927645255,0.10345275040233948,2.498619462774797,2.589209955060037,2.5473578421213707
-77.0,0.8886061949977979,-5.364707956461924,-6.253314151460222,2.2684779001797626,3.601888895968226,-5.791621534715291,-3.7118511315157363,-0.42792430550775906,-0.19660858151115385,-1.0309136449897724,-0.8810057734735208,2.4498287943867556
-76.0,0.6779711938040173,0.07520356532574735,-0.6027676284785162,-0.42387361606696694,0.5790875666477544,-0.24460839413432173,1.2149378863394489,-1.529153625127909,-2.795159752475855,-1.9616788400144134,-1.6032225075533255,-9.58105379868045
-75.0,2.6550937116134845,7.984141723836209,5.329048012222867,-5.364242357795985,-1.329440840758764,6.600524945330369,5.605797142390683,0.6414141192746625,-0.6725007150441633,5.770506244769834,1.6410099512854135,0.5745133092902805
-74.0,-7.270277477520107,-9.188893573954324,-1.9186160964338095,8.267060490376558,-2.673540023158099,-5.527012148424414,0.5745570218152629,2.238494707014658,1.7414043532695342,-0.5002419150755073,-0.9132504635805101,2.1678994150981192
-73.0,1.386903476753493,4.476839007948085,3.089935531194917,-2.8914829866562477,-0.8494440836218551,3.8135530960589317,2.3776655019054216,-1.4477886844040455,1.5491485074718716,-0.5903576499705085,-1.1113243306665268,8.170816216662798
-72.0,0.3045652036430631,14.847803863132025,14.543238659488907,-7.6131749370835,-7.113044559493964,14.648839958263622,-7.801540119523101,1.3398370178511256,-0.37195640926302,1.8983911218883704,3.215527029978959,-1.9054126890822305
-71.0,-0.9213752213297085,2.855964597355718,3.777339818685221,-0.9265220579078473,-2.3359430288455805,3.348812087449769,0.06555133888369147,-0.7111329420611648,-1.5661392310813858,-2.763477403821207,-1.070930103976583,-10.573433377375881
-70.0,-2.0960457529568814,-18.55313947096392,-16.45709371800731,10.283143096597875,7.201714350538281,-17.552992305883176,-1.0610185810360417,-3.4195347240693104,-3.222796867885161,-8.875839371948684,-11.180140849765163,-11.342708456776219
-69.0,1.7659954731754275,-8.959869037232982,-10.725864510408737,3.5504365449837745,6.194391596744319,-9.813579756244838,-0.6494287138394855,-3.2343588959785445,-1.7479253774550338,-0.006301448165203727,-1.6582615326331034,-1.1055145222191864
-68.0,0.5799527723650642,1.9762205772495909,1.3962678048842205,-1.2505602765314419,-0.3785192519833682,1.7150292668485205,1.3971702665427788,1.4065815142076632,0.8673597956980857,2.6945683190048997,11.87255167916614,34.79511566698451
-67.0,5.579626576667617,2.8828523421148664,-2.6967742345527475,-4.205787843801106,4.087251736617136,0.044896182534334333,3.052546908344341,10.594981301347925,8.075234091329959,7.037749242163447,11.04292282515052,10.303157407193238
-66.0,-0.20876848560746675,1.8387300479805369,2.0474985335881914,-0.7871648820955834,-1.1057529957119525,1.9785368846888014,2.0285103329237337,4.6219020722318795,6.141836317709177,6.395985331536837,-0.8109687812659985,-16.610370733848967
-65.0,-0.8111370091211523,10.71673223501821,11.527869244139692,-4.996508354547438,-6.154451067681543,11.086617787348958,-2.600922270236356,-6.3510161660534274,-6.228173037418862,-2.3115140621096124,-4.501467079461307,-23.180865923780228
-64.0,-2.750324815958301,9.130620316848493,11.880945132806994,-3.1442853600652247,-7.307859876745956,10.558260586766695,3.7872900169279884,-7.7789669458604624,-4.032463038060749,-3.127139908345633,-4.472343217918708,-0.2658691390884407
-63.0,-3.0297819000282082,-5.703716910842234,-2.6739350108138327,4.345693370137395,-0.1758610285137303,-4.20571422836391,0.6249130354950765,-3.0266236448707593,-3.774951661604957,-5.421395375101444,-6.615038451825278,4.223866060885747
-62.0,1.1129515748101402,-12.317281359409208,-13.430232934219097,5.590857718407002,7.270145471551853,-12.8833940967993,-2.2706143550235676,3.006093189732331,0.6826044314281394,-6.955664799028116,-14.000603779617958,2.3993258400327293
-61.0,-0.16365782835119225,-5.922107013846601,-5.75844918549531,3.036639019125834,2.7944092527048,-5.8466229213475485,-8.881204431561688,3.2512176295687363,2.7646076504577977,8.003428753907595,18.235857303403726,22.56938761881512
-60.0,-3.0481360730811295,0.9144525924246087,3.9625886655056792,1.0596526235314052,-3.5086812416495694,2.4305185981180726,-0.9119488114033971,-2.3757927194275026,-4.907392617873754,1.1302569874539454,5.355441491786219,-5.506839851457844
-59.0,2.6945600876092413,1.014636879745783,-1.6799232078635808,-1.8684606988085293,2.1839960811849233,-0.3471127802551041,11.380468170097979,6.214460663503641,7.762163369810697,4.21779959238073,-0.5124730061567782,-14.018501277128953
-58.0,3.769215210195541,5.044267315006892,1.2750521048111505,-4.3525580428291075,1.2438983208757786,3.2138562330969003,2.9693228340195903,1.3966710927933255,4.221346291868484,1.099068532855771,-3.2933579850423227,-6.391666154043633
-57.0,0.5142627079679754,10.726070871568776,10.211808163600454,-5.656919307054311,-4.851731363001916,10.432582774355241,-5.926621025646884,-3.573863988491854,-4.820696783396175,-5.487125245254132,0.18419099779235304,2.318588421775395
-56.0,1.3101494847463688,8.046955642273893,6.736806157527221,-4.647487901772985,-2.7152148063156636,7.422910471405917,-14.11993939137878,-5.738624161600566,-4.5896853729718705,-6.530466257691755,0.634766592818812,14.570967160735826
-55.0,-2.1125569163242903,-10.301896451011547,-8.189339534687637,6.152186180853679,3.039293482437657,-9.302239362702192,3.501451588335131,0.21937499385627346,-2.3721573155387685,1.2350910706874543,-2.835226850699941,-3.914895039582471
-54.0,0.7404453081819122,-16.90021129169457,-17.640656599876696,8.101260819178673,9.196554681430825,-17.253216580571753,10.851108187736953,5.017021734744178,6.695127232903715,3.894404644363295,-2.962024238685091,-5.320170924810805
-53.0,-4.324404142694313,-1.3624159604516208,2.961988182242509,2.8676966930827303,-3.6298495273501454,0.8167446102085325,8.56467547756944,3.8627186371008273,2.4796917885916727,3.9284764068206046,3.1410921185016645,1.9823155903704897
-52.0,-1.072378841257813,-4.024335897366316,-2.9519570561085344,2.579639388399735,0.9618422126496002,-3.4672920771891986,3.876191250696371,-1.1365141537488805,-1.9932216406281533,2.0244367538163215,5.523261153788317,3.7402384964518136
-51.0,-1.5215843552839643,8.071871260546613,9.59345561583066,-3.3138214665411647,-5.605600135680632,8.85991364192438,-1.5979407412991051,-1.8358157231085566,2.367380956323797,9.107344845032854,-2.966783538716369,1.352947117084626
-50.0,2.8488352026464487,22.80118354682463,19.952348344178485,-12.855874807779673,-8.514052100492957,21.33183323384011,-11.549449404833283,-6.936560120107404,-5.466929349870326,-8.39383580196421,-1.408948294914306,-9.907901112836946
-49.0,6.346150722089607,5.159259799962648,-1.1868909221265538,-5.70035762486788,3.7299971501597287,1.945845776640148,-11.61616738684279,0.14891031405970168,-3.4534282317270995,-8.031025991294111,0.5421939055581464,3.589470858547933
-48.0,0.1380311080165577,-15.175971706609637,-15.314002814625736,7.492470675621168,7.69149545302748,-15.20509292205076,-9.844175915214663,7.118957104711514,2.3749548145218586,-9.001478585578809,-1.6454330329021185,-9.498391882694737
-47.0,-5.28218829763382,-6.816731303983094,-1.5345430063490273,6.0186385864103595,-1.829269604084804,-4.215910187296574,14.773793344587112,-2.103369105962186,0.058283324823256155,0.41097493476956437,0.8716158547307686,9.534256604521621
-46.0,-3.0844430522538797,-3.7117061562540723,-0.627263104000396,3.4392476739941737,-1.184167707410667,-2.1340596846725095,9.521506129625973,-0.4091985512174354,1.9617206214837557,8.95710158740203,-2.608803473213658,6.5547319944658184
-45.0,3.3163850631338008,-4.2275544896605215,-7.543939552794818,0.4115055232665399,5.396274809980402,-5.8534050324879425,6.313075319233868,2.048703771338717,4.438876796722688,7.712970798343451,1.6881613444708086,5.0151955043138114
-44.0,0.9054772469317698,3.174001292057086,2.268524045124825,-2.0086201489997775,-0.713924629458768,2.6729458075560077,-4.294779283305567,-3.4807238262923335,-5.531494240169527,-0.7252643265854717,-0.5724267628781246,-6.3732316151446495
-43.0,-0.5064648256685077,1.6609961193584684,2.1674609450265936,-0.544988919345776,-1.2881812389195433,1.944320361429067,-3.198289815556598,0.9760950148885774,0.9455778817706983,0.17779257281620042,-0.9778011948898245,-7.535994017151702
-42.0,-1.5551464646484823,5.043577898486218,6.598724363134648,-1.7846671005240609,-4.104018840433082,5.852093539803217,-0.6028240881401032,3.5842929288324594,5.415388346274787,2.613571448240619,1.7009196963463151,-5.137963212329282
-41.0,2.2319714712850462,3.9868856189654274,1.7549141476805854,-3.0618032054950284,0.21409968668195356,2.8244039719838527,-0.9345791148647491,2.9154964164984865,2.979420590891562,4.250144001037749,10.063648990241637,11.786983338890353
-40.0,-1.4797186537899534,11.583818365538695,13.063537019329157,-5.073302553519078,-7.215597724104869,12.278411837872461,-4.724956729720458,-9.285038073176478,-18.0269070636001,-31.14064114241255,-8.625558338312365,-7.8757206875002375
-39.0,1.953047457202552,-11.336777289784434,-13.289824746986561,4.678036924550396,7.598847206183732,-12.278673878174907,1.7290636566936586,1.9407685652666467,6.954893032128094,15.117036511187973,-0.9045670347033323,0.5242271262147133
-38.0,2.5206374554781132,-14.460228481709326,-16.98086593718731,5.958783153046574,9.726286588585229,-15.684405200376116,6.9855632228708,3.1892782941318876,7.421463677797339,8.000270568266542,0.6027050967387653,6.499181753310258
-37.0,-4.141361100420092,-4.400088444545019,-0.2587273441252602,4.257329220663301,-1.890990006839342,-2.369637075407258,-2.6564870149627238,-2.684397261685194,-4.691798515557358,-3.4335866130177455,-1.822622439631476,4.160404770191687
-36.0,-2.0328120683734383,15.281840945989334,17.314653014362232,-6.644400473899127,-9.70778393550823,16.340063685503267,-6.179047105243836,0.7332514488876718,-1.072528851955759,0.2157663079485066,2.683514405446764,4.651807601799485
-35.0,2.4270811769240406,8.628528815484394,6.2014476385599355,-5.477323621461234,-1.9276250771144072,7.3816788473058965,-2.2881698871232565,-0.9124367473623614,0.5062977733007666,2.865988829615059,-3.3868607002994886,-16.169221391087305
-34.0,-3.3652549396761366,-4.110593065421177,-0.7453381257450324,3.7805408521251262,-1.2776043542333424,-2.37962292969034,3.7942465209611287,-2.7598851051846864,-2.167312953814485,-3.9789406866358528,-2.623472219034573,0.44583609308398486
-33.0,3.65960298544742,-4.616519009959067,-8.276121995406033,0.43676163455885936,5.995770888818932,-6.475567449630438,1.8281137154266887,3.5649449188483695,4.329563574483653,0.8070450753016183,4.9206788860131,-6.064310529031927
-32.0,0.43447299129766503,-12.190168797580144,-12.624641788877089,5.833676789651938,6.55503631224017,-12.437639448587964,6.097142108554804,6.864411837628789,5.375842568889899,4.062563091957843,3.3354682328078047,17.92498092029178
-31.0,2.2717894591739327,11.301578732422417,9.029789273249087,-6.75162375893064,-3.4329100760187337,10.132880653911826,0.3162038405777228,-0.6611746853532696,-2.152268935001096,-3.013786142334834,0.4288875786679003,5.056277283554897
-30.0,-1.7373165842786291,3.0085391956363083,4.745855779915173,-0.5978838787111729,-3.216325886358455,3.9203801755212866,-3.110054912413266,-8.23043995152725,-7.91704483645634,-4.9590327350001395,-0.6871214593446571,-7.996327576290531
-29.0,-2.2447827088757717,-0.4370725031420277,1.8077102057335916,1.3036584442917973,-2.079044758561554,0.7270861015780601,-3.6818058215895926,-0.9983096094027921,-2.5088059071370146,-0.44391058347149226,-8.696862353574542,-11.618799963082916
-28.0,-2.526336891959485,-2.981359939553499,-0.45502304759443657,2.720296381182154,-1.0092496318486246,-1.7543637220148878,8.274068538519684,4.641751051979352,4.03130734713961,2.1231149885533895,-6.12599755590887,-19.58386804644708
-27.0,2.80780513297299,-0.183685398689717,-2.991490531663189,-1.264064270055787,2.926101465831437,-1.5422433085983842,-7.019735596199645,0.5157331219103294,4.248558578853733,8.803944759811788,11.87815050508244,11.022865062237534
-26.0,2.929570334841265,4.24715073103263,1.3175803961909647,-3.617749822147025,0.8321090936565964,2.7523984919872078,-14.654008251689984,0.22677618752280593,5.809611412287417,7.654800503355206,13.550989245909388,33.742381987253275
-25.0,0.07699483307254829,-7.54468053918489,-7.621675372257573,3.782981475700867,3.7961170401312874,-7.610707944902476,10.413408918485915,-3.4183961155058356,-6.6761963520051735,-14.394238824385873,-6.804219072133048,11.364735370107104
-24.0,-1.9427077067037863,1.051445819933086,2.9941535266369788,0.4143625090213129,-2.4433557432433295,1.9953823430102489,8.55421408167525,-4.18069616033351,-7.909032926752647,-12.732014676915718,-3.491702779196376,-4.146135780487602
-23.0,-2.457710330114859,-2.6399074119272066,-0.18219708181216476,2.5148922944414607,-1.1910253966859417,-1.3624474662941142,0.5885376965565987,-3.664065982727607,-6.603079771696107,-5.24613421652171,-10.240855035129094,-28.93937834529822
-22.0,0.9742653298530473,1.00527619424143,0.03101086438854539,-0.9478782586473886,0.49941189027365607,0.561518395875887,-3.9724805991928203,7.679756312894446,12.053660087313666,19.180976926640124,-2.831017809314231,-20.205412863091357
-21.0,0.7556995628338262,2.9557644598092327,2.2000648969754835,-1.8950408509397414,-0.6892780825925755,2.5358117222283636,-4.093105258579576,4.362417333764302,2.46864735779835,4.164653979577111,1.5551264840574148,0.271293702722172
-20.0,0.32805540013779433,14.603644607753278,14.275589207615582,-7.4278055940894205,-7.011450570783306,14.390758428816447,1.0751668951857387,9.592902868000374,9.305767367827952,7.836420089864541,7.948632676817394,16.071940567843278
-19.0,-3.508230447727985,2.3752535925251297,5.883484040253254,0.6042756711545882,-4.644474048050569,4.1542077749521304,2.590008558301652,2.7126693604555188,3.2003228007927045,0.6702424298145209,8.823273154217903,15.645422584504587
-18.0,7.098281993894657,-9.533535044424198,-16.631817038318662,1.177140722770672,11.848176711077292,-13.059556623106463,4.285334111228407,-2.9840649387379408,-0.07025626869272614,-1.3532862545535038,-3.0609172789876267,0.7200358511332556
-17.0,3.177025118416468,-12.678098778763676,-15.855123897180002,4.710663978953414,9.507328655114026,-14.240861401599034,-3.5949327180817994,-13.618933679861586,-13.643565230774659,-17.8824840819057,-4.160689279471674,-2.2978666435918287
-16.0,-2.646634513139596,-4.943563988902597,-2.296929475763098,3.8343437770971125,-0.18009132460912447,-3.666273084299278,2.376278304476353,-5.964038272777863,-10.350470512383367,-8.815603744867243,-0.5013922115318965,5.192210590079477
-15.0,-6.458573687123575,-4.399969658183879,2.058604028939376,5.3899390706822965,-4.266050095507463,-1.127718213957062,-1.6394901446857193,-11.03190940779002,-9.588066135918153,-1.625774299405892,-3.661350400580344,-10.399606296464203
-14.0,-6.53677869136459,10.80038942123745,17.337168112601677,-2.0920417230067265,-11.951871944435258,14.044714973246744,-7.9804854848127285,-0.09277532886710899,1.4438330671710804,9.07558705302569,1.58542541434824,-8.45614889777638
-13.0,-2.77197616662147,13.711108514819802,16.483084681441056,-5.428901538372191,-9.653069606136796,15.084316768774025,3.7026498089278386,2.425729275896214,6.595379012508346,11.333174706689881,3.705297921503104,1.3589843501538983
-12.0,8.649911005083021,3.7745933556507065,-4.8753176494322865,-6.248699176402143,6.804759773385202,-0.5538093988104045,-0.21957998114314203,1.6488265064177048,5.174082566256923,-2.525792596346646,-4.84948811805493,6.771607063618694
-11.0,8.991229184440522,-7.44568199230353,-16.436911176743955,-0.8068380099792378,12.747232805030897,-11.938195566496166,-1.6876306029558847,21.18510020187305,16.30478985404465,0.6748525459610484,-3.299614787607116,3.199938044421081
-10.0,5.128789622100405,-5.5442699656521945,-10.673059587752512,0.17675355352248423,7.928575281045164,-8.102013917696212,1.7070788083384718,28.205045875382904,22.086011213791725,10.418634805596312,7.375813930616405,-1.1357992777865142
-9.0,0.9397197554580741,-9.921074684140674,-10.860794439598568,4.542056670918582,5.847156979461335,-10.383628955288886,7.201431709666928,8.781732622342519,-1.1777027972815595,-8.980261237528168,-5.228744264399367,-10.588365628312696
-8.0,-4.568308184151029,-1.393456889170137,3.1748512949811047,3.035873139796061,-3.924056497946243,0.8958545771654167,1.3800338001912258,-14.448955331720198,-17.04718470022341,-7.722667900250494,-0.12705210595541072,0.8385961711627621
-7.0,-11.389661165320755,6.817056844441465,18.20671800976239,2.2650262419550597,-14.76981724273524,12.512013669135271,0.22380572504047658,-20.401057481888706,-12.603219446994775,2.7890871212183397,-0.31492330829428294,-3.7216716149180153
-6.0,-9.230180548598668,17.317984848820316,26.54816539741887,-4.0652724397887905,-17.85819998050116,21.925118016186804,-0.7582862717004355,-20.480604706785236,-10.964942142360385,6.461440368147622,5.271394600509483,5.795447848923547
-5.0,2.854331225357926,18.332823362481967,15.478492137123968,-10.618687964666945,-6.278728468323238,16.886566423696202,-8.10038464788806,-23.18935603490063,-11.22410370306417,6.96023302366819,19.016652944606435,28.070525836299385
-4.0,4.479155691802394,-15.6735793163476,-20.15273500815018,5.564755347232977,12.27218039599416,-17.867221499765805,-6.311219033361746,-10.064900207581182,-5.1893676255783445,-7.052013279008491,-5.513935212006953,-4.012243725750423
-3.0,4.325450853160933,-21.063679052047636,-25.38912990520901,8.405839167788354,14.814124981918113,-23.27442245759984,4.610219870315756,10.054280668648053,-0.6084425140565521,-22.09006914149249,-18.444143443134216,-12.179653849721687
-2.0,6.943724666012838,-20.264581124949274,-27.20830579096239,6.687657512232912,17.111185410660728,-23.720634469316717,1.677320965291139,19.18468283150042,9.0904975612079,-14.537831424546663,-13.481566411082763,-16.475665214786815
-1.0,-0.3312113738333151,6.10446177094812,6.435673144781298,-2.8664243582538123,-3.3494582568865887,6.273449556506543,-0.7267204169422938,0.28228322467099076,4.800044946886915,11.087947685389492,3.5109954302008477,1.0920790050033382
0.0,-0.50717414127082,16.85871239782428,17.365886539095214,-8.237120429502562,-8.983046761217656,17.108025173646492,8.63500137829433,43.08070966623569,36.10872886930346,30.801011547985592,12.499245922235882,4.550077212825928
1.0,-2.7587107482251203,6.280665640529865,9.039376388755324,-1.7414094835716245,-5.869191328697175,7.654666384376506,-0.24730060062485615,41.934286663376135,32.21448382043206,21.949404556952526,4.788798425392862,-7.698556439952808
2.0,2.1676446869984725,-3.024366238637765,-5.192010925635724,0.45475633268931226,3.7062983871939963,-4.107252625411917,-4.448841033809305,-8.498934860162441,-4.6214032482477485,-6.720242908174525,2.0791245346606706,0.45335052014003985
3.0,3.0507893864968256,2.067592898720374,-0.9831964877759019,-2.601284178582451,1.9598846888278008,0.5561715417470543,-2.6124256221099023,-43.86371823111303,-38.63285011566043,-23.068802139424967,-4.432203376498447,6.33662801966016
4.0,-8.328663351592688,5.33859427031711,13.667257621910101,1.5435194622929085,-10.982747820378147,9.534530385319275,2.1707187550419538,-48.5029010328869,-41.07781024985119,-22.97957185875711,-0.2680400534086537,12.331603203845976
5.0,-2.6428961044345387,12.31918356603089,14.9620796704657,-4.857131035339275,-8.794840013132607,13.612353805021431,3.466024472595025,-8.760179370940953,-7.786307712595917,5.912073579220348,1.5373809846618822,6.5878765090975255
6.0,-2.3321237433967323,3.4520660779812284,5.784189821377634,-0.5701080342369867,-4.058021406569569,4.606150874494983,-0.7781879597774637,17.403345596049608,17.56267093775937,16.88776206029384,-3.795556045046164,-0.5654729761235044
7.0,-3.0046268241669063,-6.392668028109015,-3.3880412039433714,4.693764370416884,0.18612961147241958,-4.891875599627127,-6.035193550219912,11.226158599527725,17.751018057011095,12.167393452473203,1.0901841031070443,-6.381240767863267
8.0,-2.5418896678859983,-12.303392033247153,-9.761502365362341,7.419224702191862,3.6022375251319474,-11.031267644102236,-11.64693528862108,-7.9936519482583925,-12.771277524152223,-12.861255799923413,6.360700144631579,2.579857163297107
9.0,7.2501471955606425,-33.70609218381631,-40.95623937937772,13.222959837208897,24.098920218326803,-37.335158516979234,19.380809467462136,12.394827408757633,2.363521411772462,-21.137704323884794,-8.123160414752011,-11.40931214210629
10.0,19.534655544006974,-25.006142610718925,-44.54079815472575,2.7273093165994684,32.04265332810524,-34.78891143690262,3.193255797051383,23.736839580288557,23.40951762255299,0.6124083102046729,-12.57913329064848,-20.779324452001006
11.0,7.144849786017771,2.8959530853934403,-4.248896700623874,-4.9541313793356245,5.716080688560016,-0.628078193798081,1.9237220758244677,21.688469591342624,24.131824925435428,15.700751291473017,-6.775934471257582,-14.24070811838935
12.0,-15.256490444443436,36.91905115224933,52.17554159669334,-10.84768027216218,-33.67985300302418,44.50184403209502,-9.271620060460469,-21.799632571845667,-17.493549184242852,8.634071027190195,12.352005467154457,14.116498676405428
13.0,-22.55022377561183,66.01774231281767,88.56796608843081,-21.75369301489781,-55.58562400037814,77.31388942861676,-4.651287602210064,-21.020336295739952,-13.130584657229772,20.28184852682975,28.30565957969505,36.58029793008423
14.0,-5.207362338169782,31.572319680735394,36.77968201890594,-13.205471908741945,-21.008639031192427,34.18976267751491,-0.29571092361969775,-9.717543506074005,-10.064028135098527,5.551561054850251,15.046397330644048,25.392001292968388
15.0,11.955931799262446,-28.79867493026957,-40.75460672953215,8.396076577116409,26.344240788985665,-34.76418444433069,3.599961553483155,4.725295971691002,-13.933033215172216,-30.09162223316064,-15.90625876403422,-6.926182188924686
16.0,24.077937997368146,-64.20350167076046,-88.28143966812965,20.11523679151349,56.16479355871254,-76.30432635302172,-0.2427599053711309,13.555041365774422,9.232981310629617,-18.063463571193804,-26.74957521587114,-27.327050187437848
17.0,9.172754218009523,-42.76983092715641,-51.94258514516719,16.773025434388217,30.532620632883567,-47.33037397634291,-5.217289207801114,0.7404368735448292,8.343540575939898,-0.865269059654949,-13.281809736335585,-21.33604969365601
18.0,-8.26615984296401,-10.269420092756352,-2.0032602497930867,9.323550517744817,-3.090829790036313,-6.099056468836963,0.5971332784338723,-12.025955202047303,0.07050196602038206,2.670453947013809,1.2745847390174454,-8.728526449953808
19.0,-18.931262253913356,35.56593230007233,54.497194553985835,-8.336829850651629,-36.68576833631229,45.00159677109918,8.07050576148138,10.238077549722622,9.26149119406427,14.92187270443216,11.89930733386717,4.157114126788439
20.0,-10.30111454303659,45.36884194947179,55.66995649250889,-17.550140256859777,-32.96522815775019,50.49839917783603,7.380034726129001,10.509524435401872,10.117372734984599,17.146459260016947,21.588376567834644,25.489902068419866
21.0,-9.172701720006259,27.151306750886445,36.32400847089336,-9.003771439889473,-22.80938417051844,31.79959318135902,-1.8284791824325786,-13.905602136208023,-17.719504179552835,-5.923873009446643,-0.5688151886091646,10.064648861352449
22.0,1.4089375607619878,-17.74236319624929,-19.151300757010848,8.152173715277616,10.300778949229661,-18.465612931360063,1.38041047263513,-14.28247374935066,-25.14660278867698,-32.45255851704502,-15.064131754186965,-4.6740556192683655
23.0,11.266667211158424,-24.530759971159956,-35.79742718231819,6.615902940127793,23.559977310483514,-30.19096793943025,-11.60753860150196,-7.577288002966644,-9.529924399705395,-14.017844171079751,-3.3319799289668777,-1.9200395483056598
24.0,22.353547137258328,-11.586925052004876,-33.94047218926322,-5.323066937727582,28.106080431062182,-22.8030705937901,-8.325221684191465,10.237545610763457,21.189935220398333,16.28022720062486,-0.7933773152844976,-10.214978039527283
25.0,14.168597458966705,-2.473746875332372,-16.642344334299157,-5.86850102309807,15.375373454047494,-9.532331577106476,0.4285104290685533,24.58121007583301,42.79658476968917,47.22522555936158,13.510328036129316,-1.231572097885449
26.0,-10.418519189518873,-5.738075281710862,4.680443907807877,8.13303859590415,-7.490403717008396,-0.5139823403105463,3.095349884908425,6.151215847959094,5.698061187085679,8.616038952527973,-1.5322058823876041,-5.315803020644241
27.0,-14.731832055362696,6.810940348234741,21.542772403597265,3.9323441714849516,-18.147950982796928,14.187034091503799,13.271026702270884,8.677995682730392,-4.390605476261789,0.27703051227359876,-9.20020773251468,-11.195713250887408
28.0,-8.40175373441129,19.61474623353173,28.016499967942877,-5.640664905258445,-18.212921597261168,23.82916525236689,6.263023087434496,-10.550040656935147,-13.929660081229958,-9.368720319978486,6.578328759785962,17.639600497818606
29.0,4.457885458723583,1.8281775359274643,-2.629707922796161,-3.1852812718045396,3.5440767219464053,-0.3762504486760072,-4.680187694616667,-21.028463751496787,-23.31824231706952,-27.708776477250304,6.418017235747727,12.853235053179427
30.0,-0.9722204605030197,0.9147686194820945,1.8869890799851206,0.056258171676952795,-1.4284026541247017,1.3628417994598623,-9.741392821925142,-21.534161225321952,-27.951113814584915,-37.985684687753576,-3.5925925803202023,7.351576044790034
31.0,-5.032397904442018,-11.118781484365053,-6.086383579922957,8.09523119387779,0.5259967043521009,-8.622676020306546,-3.5997681353593904,-3.6985120380964425,-4.081645632388215,-7.731966591814372,-10.930311814043193,-10.99550298896722
32.0,1.7955834361482863,-12.064790320837766,-13.86037375698596,5.149341160515446,7.82223662598428,-12.966493482006374,-0.3621462803085316,13.923052764385982,16.563906276448584,15.652313905981211,-16.048312113940007,-10.488859097993712
33.0,2.0610637957963265,-0.4198987608767384,-2.480962556672983,-0.8068186390641403,2.259073196188937,-1.4426475813525172,-0.4276485543543974,22.822449945768007,25.526284295411585,24.82571594013374,7.118443681284172,-0.9246970571031898
34.0,2.5393767381438295,6.316510041748478,3.777133303604728,-4.411651036309669,-0.6370926940215682,5.060193871271169,7.854755593697802,10.275344504334152,10.576693997728032,13.85889349684832,13.306787590547945,-6.698751654507977
35.0,2.1036694389917603,6.09027338756254,3.986603948570851,-4.154899055015129,-0.8860685908207162,5.0507399408372065,3.3194616511346413,0.6495734127808159,4.253651545401002,10.233306969929814,7.953886998026828,-1.415060258980112
36.0,9.523711689006591,2.9206481362613643,-6.603063552745191,-6.196620984354958,8.0366193404446,-1.8362712976957658,3.897234574261609,-7.7473061348833685,1.345740609325087,1.7753155839395456,4.92324646402686,9.505271466533097
37.0,0.7422089950807593,11.545758230135887,10.803549235055137,-6.19352362506517,-4.98065868990342,11.16717717767652,-3.69355752667439,-7.2853168220441376,-10.450433044263294,-4.76656374872187,-0.7488245401011691,14.288059562406087
38.0,-5.736193833918852,-6.315017947213364,-0.5788241132945227,6.056991718765654,-2.6088584530040726,-3.4696983151996497,-1.3311353800645989,-9.757497559049522,-10.570007853607253,-9.697624014464434,-7.524653673454862,0.34675639041777817
39.0,-8.679374225308072,-12.32176877442522,-3.642394549117177,10.533041544191153,-2.5505174608261263,-8.020089269529207,-4.239708572268038,-5.739509040552367,-11.076712238589717,-11.111150523041653,-8.005293360243243,-6.382603743855622
40.0,-4.6738731097064825,-7.115971176436206,-2.4420980667297716,5.849320503512614,-1.1505608659953528,-4.75020837547622,-9.599468015055397,0.8984697759126896,1.776096308361705,-4.941208343274555,-1.4324828092095565,-5.310610296031655
41.0,3.0331278912795954,7.905548937265167,4.872421045985519,-5.435410220072579,-0.8785639159589207,6.4118195291811455,-2.7104637646942846,9.719614715018022,7.920430142192403,5.135105239292332,2.838536528915841,-3.9618330643387605
42.0,6.211372020229396,5.475810266129444,-0.735561754099983,-5.808676320934244,3.5121446624982506,2.3938885022723015,5.8631273004039866,-1.129502375099249,-2.159893608940121,1.7786621718786209,0.23315481999012527,-1.5755583482304725
43.0,1.6711682853213445,0.3894904400685002,-1.281677845252832,-1.0731460830443647,1.435320060816694,-0.41558770267170964,12.732827683724159,4.401959384189225,1.3754216043286438,-0.6897654877997952,2.489512422634427,0.9561583578779584
44.0,1.2341740760945505,-3.3299631746809952,-4.564137250775505,1.0060275038241677,2.9372391946508984,-3.9855823975480096,6.085100159901042,8.04217446684421,6.829163882260255,1.640613217903467,0.7034711878947091,2.887412813580023
45.0,-2.350634655609044,-4.363888093217444,-2.0132534376083444,3.3953003607549785,-0.2081930382264089,-3.217847831447374,-4.518360111309096,0.38756879988923276,4.281584110945554,1.9529239734262043,-0.01147460611073381,-1.532433302179074
46.0,-0.7407676140714591,-4.732121497016679,-3.99135388294517,2.697702439563817,1.6651294322653307,-4.38487003594227,-5.604062094853798,-3.3153189563286674,-0.4957416281936433,0.7964456220186173,-2.237137846795084,1.4869542000281517
47.0,-2.690668792941871,5.4406258728740235,8.131294665815918,-1.3316889867584003,-5.451231725829408,6.764846878824341,-1.8814904504377514,-7.79388218637394,-2.448703322110434,2.0465391519590517,0.03242120378004815,3.871360291698031
48.0,1.6143265409181975,12.755791723540991,11.141465182622783,-7.1373275999246175,-4.729174490886404,12.00476346377719,-2.489213611627393,-4.508003041276768,-6.715471999332218,1.4290837754624808,5.431568608167732,6.071654723696569
49.0,0.9009508958390625,-0.9882897381001383,-1.889240633939238,0.017225937772730848,1.343921494346921,-1.3861557180829793,-2.2643648786511954,-2.483978169948429,-5.792209852494632,-1.669456719480351,-1.8682543992914198,-1.972661775826004
50.0,-0.5108564233784251,-2.0275437903277047,-1.5166873669493262,1.2459124668166774,0.5219895260037246,-1.8022778909157084,2.8142305073742744,4.226097639207295,2.5434595851294657,-3.94802569541223,-2.028972129374057,-5.980657148373325
51.0,-0.40337992111805954,0.031415524918830595,0.4347954460368544,0.1631195473575483,-0.4084874998434296,0.19951432233895128,0.18231566952976852,-2.2110742396686,1.2039345132141044,-2.4712902763739844,0.36752691794441716,-4.978052571088635
52.0,-1.4173519618618107,-8.206429679818093,-6.789077717956297,4.786351166948954,2.689829980777965,-7.5335374858972495,4.997006032889481,6.03060713465697,3.690128286095492,2.5883521398367835,-2.025246091555198,2.5440888174514886
53.0,0.04198863548966872,-8.507628733701878,-8.54961736919153,4.281017455928934,4.296271329309114,-8.48628014410173,2.209522795162926,7.909918036273018,3.118656586199999,-0.5378093398112508,-2.2697299684621197,-1.6653888894592392
54.0,3.1700885742923526,-1.500643437044702,-4.670732011337009,-0.7923391311881041,3.9208713563167636,-3.0423809893282976,-5.000977444533891,2.1390687153095698,2.571302646080258,1.9024821494898625,2.5648652444723785,5.520823379096212
55.0,2.869472403213956,4.438713914302144,1.5692415110882534,-3.695392709937302,0.6534147944841351,2.9706869401954683,-2.4825585833703787,-7.142532625232893,-1.8270397609404583,-0.8242986966875716,1.5682623385537742,-2.989544691042919
56.0,-1.738357295133714,13.214925265179966,14.953282560313756,-5.782323721804055,-8.33819510934364,14.053369609023827,-1.7819655847578795,-6.394291919830376,-3.1893929329596813,2.6268787695812463,1.8832125733526262,-0.0755209637326294
57.0,-3.459787180604883,3.0437205002033334,6.503507680808293,0.24283562301737094,-4.969729539210782,4.823667322009964,4.7627700290688795,-0.7585222884075691,-3.2233868092216094,3.1586732928247505,1.891740882047753,0.16060036372598852
58.0,0.9579368383006992,-1.88456983143613,-2.8425066697367627,0.5008452697410055,1.836596503585859,-2.39144207304114,2.442375812620321,0.001328937736111424,0.7082058176449717,-3.17868191681887,-0.8790148964534318,3.7030814785346537
59.0,-2.1369502890385568,-3.410808724130608,-1.273858435092004,2.736957087749974,-0.4144425900388736,-2.3709732923463767,1.7447207128093467,5.345219081463418,2.005693527117799,-2.3051955151266137,-1.6341485937040507,3.8043443277396793
60.0,0.704865170041576,-3.660412088695876,-4.365277258737459,1.5237921159177237,2.5537300724470926,-3.964785983454564,-5.395628006867854,0.2648822880687418,-0.012035702858733899,-3.0970883399094506,-6.483164930426454,-7.351971569446614
61.0,2.7898430081335377,-4.994748513769386,-7.784591521902987,1.072088171938049,5.308349806789902,-6.423151024428996,-2.2244448976589988,-0.6588666853670877,1.1203706158203086,-2.0525430313954263,-4.52711257348604,-3.9437726020103856
62.0,0.872409866179904,4.20237031897754,3.3299604527975077,-2.5682367684049496,-1.2817756495553714,3.8086153425796603,0.271967687325368,1.424412175818028,-1.2134033032073483,3.1117170485331593,7.025310642561877,6.45508254205056
63.0,-0.9552143380933524,5.682511614278711,6.637725952371957,-2.397662452157468,-3.7634477769575048,6.121613437768006,0.3652064993783386,-4.306662226141764,-2.8539092427997934,4.655646526173981,5.21105894849074,-3.2471920431924675
64.0,-2.3345763450513837,1.8808534906258227,4.215429835677181,0.26702662027306934,-3.2325731652381418,3.0872998192497927,-1.2678364558208775,-4.5399328058854955,-2.1845323589212198,-3.697132242166121,0.5243257454304024,-3.310222838909028
65.0,-3.2291055594837057,-7.809218422259461,-4.580112862775636,5.555096778314146,0.6492552180366433,-6.23383535745811,5.119500383207445,8.832629997692477,8.762298943840545,6.044665942615269,8.037568566222394,6.617664295710343
66.0,2.4562724237745157,-8.016952193363604,-10.473224617137907,2.8137479463594297,6.4473177846643415,-9.282060663066042,7.401511476492681,4.676762498879559,3.778700455465335,2.1086055041249803,-4.302717715042599,7.523859969737904
67.0,0.9435959050441519,-4.579409597160854,-5.523005502204775,1.7722240787278438,3.221809651497969,-5.0054709918574805,-3.3579233325149165,-0.7175266190480971,-2.994913631340628,-4.3965990385044496,-10.692962816320701,-8.100196674184776
68.0,2.746664170476525,6.633467007420191,3.886802836943862,-4.734217031781648,-0.5792119812763812,5.311027078188511,-7.112816180762135,-5.250669701520193,-6.096447538601718,-6.076221997079472,-6.601645002506012,-5.167888594253374
69.0,3.89828079434677,18.685139830744344,14.786859036397644,-11.254382685950905,-5.454307768792806,16.71324822095112,-3.6572460416151182,-3.0390634614039613,-0.24193482490548224,-2.0748938103503693,-0.0019025425874983348,0.6971225566816357
70.0,2.7282871400090367,8.074390710539813,5.346103570530781,-5.4395214865953925,-1.2431576658013324,6.6909078305346945,-3.551285500433144,-5.5361889629191,-5.106680958132069,2.306040753355866,5.516333504834658,0.39303140312447016
71.0,-8.290240247870564,-12.837744684538302,-4.547504436667807,10.607648089483835,-1.8881526403776092,-8.711618945509368,6.483809670370775,3.688555591414742,4.906146228772158,4.049736694865399,7.45696440919383,5.040073955542864
72.0,-6.704784483493425,-11.903380730885235,-5.198596247391894,9.349908690813688,-0.7734509141040483,-8.573108023484586,5.110889104821741,3.1437038535962545,2.252419484144351,1.4819430705178678,6.944644377101923,-0.6754674349574774
73.0,1.1952116744011687,1.8784369425755738,0.6832252681743487,-1.5693379393812714,0.23284660070608199,1.3317224914332044,-1.0054148378268013,4.229384613104696,1.9759536268940137,0.09293144815251275,1.4965466903114821,4.329463339493622
74.0,2.6245671675129123,3.6966941863364355,1.072127018823506,-3.1950679082967777,0.8300033493444519,2.3500425739251285,1.5371964891568681,1.7345969874072846,2.4914744591602016,0.9363006029348039,-4.625749502479017,-1.4799589190140574
75.0,6.062259499140671,-2.4184163474951172,-8.480675846635751,-1.8604574341265272,7.245598176421357,-5.410274111657452,-0.5388924441852967,-2.7987452449820314,-2.185887873714452,-4.593248707728342,-8.922110675775066,-4.352275976389827
76.0,-3.2122482055214854,-5.352158900167003,-2.139910694645464,4.317197986849642,-0.5621784429209455,-3.787466152364818,-1.8891860056586223,-4.201562744391515,-3.644367160990967,-1.813951348883403,-11.09750269510866,-7.2979039812975515
77.0,-1.2651006815551682,2.6161611465497807,3.881261828105036,-0.6453059372342138,-2.5199500029618958,3.2880122432546126,-3.2617935297828655,0.6089545558435985,-0.37324947866781333,1.607718406592945,2.557669246071601,-3.7985546785402913
78.0,3.799454457809385,10.942537540250349,7.143083082441052,-7.343723246841298,-1.6962187537007396,9.008815417486169,-4.871219911558438,3.792423917026329,2.2103517836851525,3.8764525784449373,13.580651539017492,10.22884757568827
79.0,-0.48571778017071693,-5.979421780620976,-5.493704000450218,3.1805372494997495,2.4814798811714818,-5.684494618440297,11.355959332900529,-2.4258257262209764,-2.000375015223989,-0.04249085971288835,2.569200199131611,5.314303758477341
80.0,-0.04625178568153354,-0.6632721432093143,-0.6170203575278069,0.3829673562229411,0.26577549808280765,-0.6599649056598643,-1.328063350980433,-3.144952237784981,0.7228777949658067,1.0008341427007235,-1.1945845526382746,3.5782706997099027
81.0,-2.843597294054644,-2.704510674192728,0.1390866198618405,2.7260247867265965,-1.4281948092614265,-1.2983822162152563,-2.173622024593116,4.930654539375055,2.223394181865095,-2.419205142170317,-1.9923096957160924,0.5460264791548315
82.0,-0.49290448976506074,-2.006716407762235,-1.5138119179972298,1.2828091975421887,0.4995939551247246,-1.7759175390320832,0.5240297669062527,3.2786103333664203,4.279256866518878,0.6074207102665414,-2.5738520151188227,-6.836925010173825
83.0,-1.0923732545011609,10.956634272231359,12.049007526732549,-4.898247244050244,-6.5770486656152,11.48302109800421,-4.587461022759087,-7.020755027701959,-8.48319017674329,-5.985675227302314,-3.593388161157687,-9.378402159325312
84.0,3.89185859738493,15.135755878287666,11.24389728090284,-9.559948572776895,-3.679546045648463,13.241836779846162,-3.301965533782257,-3.2696022474147197,-2.289436139258749,0.3008431628099151,8.495093873311008,7.072403312429032
85.0,-0.22977773569298154,-8.058336224473205,-7.828558488780127,4.173105556093856,3.7956079971603613,-7.977661112662293,2.2852138550856194,0.3353311384448907,0.6847213063517403,2.8095460923564186,-3.6399140136728776,-2.802494714253312
86.0,-2.4251144733905234,-19.200395911414198,-16.77528143802358,10.757882686104914,7.167086832199402,-17.94895150556484,10.13805086038435,7.221845317914173,8.208293546350738,5.267548222388351,0.890050113120473,-0.9563339258356611
87.0,-3.0012204471298376,-12.585524470765838,-9.584304023635903,7.811855587620313,3.2754164458907016,-11.126893131232931,0.3183607028632274,0.32955625795240007,-2.140266303151548,-3.3463888340858032,-5.833642299835597,4.7286464790766
88.0,4.614929399032941,3.7532122547666056,-0.8617171442663887,-4.1695394467023865,2.789944676937747,1.4845017919798895,-5.552697342961089,1.3757077631420662,-1.1722964059019996,-0.2547877600147882,2.034406787674761,5.6183669597547
89.0,2.334532707589041,16.597150345953036,14.262617638363825,-9.452530700502567,-6.003198654839823,15.395243224167752,-0.9472942795431498,-2.082227378444185,0.6909668606588777,-1.0558736001218536,1.3929086725597843,-3.242274253178167
90.0,0.002533342221352042,9.466461933881384,9.46392859165988,-4.719310462537222,-4.701838394762951,9.516206056701641,-1.8622006407954197,-3.0132256028664006,-0.07408928401798864,4.260730613950671,4.859778279954479,-0.1754924020134283
91.0,0.1642249731491069,-1.8396416017777408,-2.0038665749269207,0.8572031466518881,1.0270732269615328,-1.9434518617523082,-0.21915995004323663,-1.396548226525674,-2.841165563181553,0.8564716385932498,-2.1537964207939497,-2.3446063782429984
92.0,-2.6232387044126013,-10.903111831981692,-8.279873127569019,6.709372666630225,2.848559536731602,-9.610250209022894,3.3119440372793845,1.7287244073465917,1.1969041664384035,-1.6773359976022069,-3.548685208726205,-4.569872192020005
93.0,-3.5676160248826303,-5.920805271556947,-2.353189246674155,4.695765407029834,-0.5821058114580326,-4.15722108676073,2.8239102296281606,1.661485484350487,2.011980917855112,-5.559466764297712,-2.5090095828685293,-1.976980704406758
94.0,-1.437145244264842,2.6629360416075594,4.100081285872579,-0.5780524160357459,-2.73289308544798,3.434312919154337,-2.0982026274953176,1.5632806414558948,-1.653641428187156,-2.9929550901490574,3.3404034438874612,3.4971538675948715
95.0,3.3074741846734534,9.212464998148574,5.904990813475237,-6.221631131450506,-1.3276522839992508,7.5244727865591585,-2.9032627360698724,-2.1907134133655246,-0.699896682360146,2.7144569897978137,1.7210707281970028,9.142459771685681
96.0,2.4245648969720532,1.3961884818296961,-1.0283764151423678,-1.8696619562317756,1.7119575031204803,0.14150727145945274,-4.138648158989381,-3.019878820874803,-0.8861795366909864,1.1101712242551747,-0.32286571932414965,-0.1070270847720809
97.0,0.7032018715364801,1.8466005976842346,1.1433987261476362,-1.3118513711704822,-0.22335927852235438,1.526366563146337,0.10807108016122124,-1.189452565424443,0.746948765278987,2.7413245383413427,3.57774868266107,-3.1517696234162607
98.0,0.266074436776104,-1.8709518861341694,-2.1370263229104323,0.7651638348805017,1.203958393761845,-1.9722713794549722,4.663084073615105,3.518219910415858,-0.571984876482577,4.32171003434783,-0.8045695183286559,-3.86680436784847
99.0,0.37847321417848195,-6.07221168097376,-6.45068489515236,2.808145861467442,3.4162294394171493,-6.2235887825799105,4.463637723957904,1.9453802941283873,1.796949398116547,0.6301004425328705,-2.312068694521005,-1.305288169896587
100.0,-4.2474926031380145,-6.402361105724696,-2.1548685025866723,5.363172057149274,-1.0508906239370477,-4.309130600107343,2.8274046637386268,1.6320065724912998,3.337830513420337,-1.3904024362596785,-2.658615814520081,-2.617824090106591
101.0,1.0339685463634163,-1.1420645261234603,-2.176033072486727,0.09109453598361217,1.5911432364940132,-1.6779895351376173,1.428873539948788,1.295607096609344,0.045838347606428353,-2.7402401057551464,0.3958451381622119,5.194144116587546
102.0,0.47406440795089333,1.487554708746894,1.0134903007962075,-0.9439327975557759,-0.29277663316390734,1.2409907694480353,-7.852375398373761,-4.996857813571774,-2.9903377827695077,-5.338238153163556,-5.668900497594815,1.6767974951320097
103.0,0.2632856104731338,8.43010894508165,8.166823334608674,-4.38802679058537,-3.902406919498337,8.29366295795193,-5.504954113652838,0.8080809374567708,-2.6527384721075116,-1.5949741000217026,5.003597533768486,-3.720180311728802
104.0,0.3528974704572822,0.5226608479923778,0.16976337753509263,-0.47864161957961215,0.13904205860543417,0.3405058882214682,-1.6823530206639958,-1.9699948121102455,1.6827155806864658,4.057293569029531,2.420560678383227,-1.2269373697041441
105.0,1.06624102293844,9.912105424691692,8.845864401753138,-5.451508114585822,-3.9186784929301015,9.36737272655112,1.9330650665730726,-3.704193826646202,-3.6236862320314405,0.09791425453604274,1.7826550969503279,6.37839654199041
106.0,-1.7938188236925927,-5.342737042390368,-3.548918218697993,3.52637965892394,0.8538468804937718,-4.387951312651052,2.6702449625510893,4.789727735949711,1.830871798037224,1.8874381726605323,-1.4275059954962348,-1.4996958986740416
107.0,-1.051720075082151,-7.524707337402372,-6.472987262320446,4.324534055965987,2.6927925341921384,-7.030467742067664,5.25360911571834,2.369908423497775,1.6538031830303956,-0.53193530922818,0.6145119874703042,-0.7679042983041209
108.0,-0.3903608479139867,-4.962672974736099,-4.57231212682224,2.635050648187737,2.078045134117524,-4.731144231569562,2.7986960894203117,-2.568953495669033,0.31039594264895487,0.2375286636239748,0.2499752462285978,-3.2549855373070415
109.0,2.781294975400927,-0.5889156513835587,-3.3702106267845062,-1.0555938911686502,3.0660059926136833,-2.0320030030641423,-0.4861562839967868,3.691252309118656,4.891337105892986,6.521298267470476,2.6814435447903335,0.9924136287711982
110.0,0.9119755737850475,8.631961938446455,7.719986364661447,-4.725819876477545,-3.333594327455068,8.193210222733146,-4.389629614264658,-1.9090415696383265,-1.2333221795819405,-1.0694739611977853,-2.956618029653174,3.4503634401774312
111.0,-0.5567290830158541,-0.663755700201599,-0.10702661718561268,0.5842150498220415,-0.2333632258334024,-0.3763008713306233,-4.510275548369146,-0.43294540773834267,-4.659792547776734,-9.469080557463439,-4.171629498856703,-4.408539279169261
112.0,-0.34231500468373,-5.042912409233857,-4.700597404549926,2.6723092773029418,2.1689439686360363,-4.869869846414313,1.1596764827576664,-2.847222032336698,-3.1061954266571266,-0.8549636065817516,-1.506733032055073,3.0963822353403345
113.0,-1.4365093760002,0.27607440279425677,1.7125837787946339,0.563136962771637,-1.5879910962777004,0.9902471444186143,2.609967995529961,4.416686837475455,5.574200205603601,4.490281605732886,0.7826609382170433,-0.269106578212305
114.0,-2.082595985089952,0.08444525553175453,2.1670412406218027,0.9820825033977669,-2.1429599560025174,1.1176599105393512,1.9710997091062654,1.2893186853795138,2.218241007618411,1.1400237554933204,1.8759597893568496,-0.6458659805414876
115.0,-0.1625945082863417,3.250384602556209,3.412979110842569,-1.5633414400206165,-1.811577161031404,3.322707587704107,-1.2909877211782348,-3.006365066849205,-2.885313533321421,-0.8935118650538556,0.8924241994827464,0.5031882561874333
116.0,6.480588290465267,5.614743721430081,-0.8658445690352472,-5.992001378634047,3.722377323999763,2.368998639251559,-3.160728665333172,-4.072800028674682,-5.578541331746511,-4.444166235103445,2.202550576797167,-0.9936510122815325
117.0,-1.7121995042938725,4.548528916254705,6.260728420548414,-1.3660460191201218,-3.9424663388860015,5.408056410229313,0.31259713236464926,-0.44102259002681543,1.7471576297325142,4.952392857709558,3.1637528910271104,-3.0483240939249887
118.0,-2.3928327296050176,-4.0986958012735455,-1.705863071668803,3.2162544509895206,-0.38226007645847243,-2.8846844129964184,2.713603457132106,3.054899948768742,4.56284950121003,6.698837234213719,0.39673001019045373,1.86087271743093
119.0,0.3580943900939022,-6.0701137487805275,-6.4282081388746155,2.8241557973591718,3.351755641410143,-6.213663805990131,-1.0017178069388986,1.6051948146617911,-0.6726499482598105,-4.799587909919236,-5.083702087248775,3.474766529578649
120.0,-0.7866783874643377,-0.4184693972429794,0.3682089902212957,0.5686083393683374,-0.5410272652043677,-0.04978636496774458,-0.2379464607903168,-0.4273434576190609,-1.729703978384609,-10.333781721074928,-4.719761040888449,1.5700270649003905
121.0,0.6228189686260174,-12.947577464390578,-13.570396433016594,6.205402291814275,7.055483234530396,-13.268256751609721,3.0211468333606395,4.254914826432899,4.3023330769124435,9.766442739625592,2.771090319619586,-1.7872616441906923
122.0,0.2260146233501948,0.1575452787208369,-0.06846934462926324,-0.22820851222721417,0.18871226372574768,0.04375926977077338,4.008133488506273,0.6807491880881943,0.4882726405273351,1.0399357180892521,1.5428901922251426,-3.959869212003522
123.0,-3.3370934647087704,4.429730023419037,7.766823488127989,-0.5026851444877871,-5.5826845721536955,6.096786544624939,-7.104972813122514,-5.775538874800057,-4.659835882353412,-4.8935382321995275,-1.2351422472050197,-1.0729884801543426
124.0,1.1137384870468368,19.538290726378612,18.424552239331955,-10.357229550156319,-8.598909408007447,18.969901231058657,-4.302815512151945,-2.48323715094337,-0.3694159214325885,2.424033714992464,5.01905214403366,5.078928676645984
125.0,6.363960630328259,4.778753735556238,-1.5852068947719324,-5.517654666118043,3.9609353200398196,1.5681703709535384,4.27044775494948,2.8505175046407625,2.246552546598822,0.010498569215230402,-1.5290471424319807,-0.8509950396688151
126.0,-0.4693510070012934,-11.85516168644201,-11.385810679440707,6.144279280698636,5.450889004190665,-11.59034623058714,-1.1551198193044427,-2.330069753711386,-4.086594298769546,1.8443131110130673,-1.4715334270074276,-2.115994956065502
127.0,-1.996593526535533,-3.039948678300971,-1.0433551517654926,2.506224410748509,-0.4822036809474586,-2.0295463407234724,1.0332938295369134,0.6048022607381791,-0.9391503265188934,-3.5216341637280073,-2.2248021419577446,1.7433177080116906
128.0,-0.8630570097979013,-2.1283076214675534,-1.2652506116697735,1.4864169222058998,0.19157902535448978,-1.696399299262155,1.4258059127837788,3.1014766251161627,4.067303982175348,-0.7087741094555619,-2.6204731505546444,-1.0226376681062208
129.0,-3.255277364359052,-5.620506255883602,-2.3652288915247057,4.427024786609456,-0.46354196453309815,-3.9952681693627685,1.8526058407053947,0.5019373919753551,1.6993084078611769,-2.709020167624703,1.6847066802445236,-0.04093541837238068
130.0,-3.2346816464466723,-0.029777141275943997,3.20490450517062,1.6153385131205567,-3.249999756318217,1.591637702586298,-0.26497384833801874,2.8414006656023574,0.8416226048443234,3.191268543326646,4.587052240434081,2.701393123522842
131.0,1.8187290169282406,2.723439034846955,0.9047100179186843,-2.218585738716128,0.494547946051592,1.8318594855880048,-1.199084635602062,-1.8569577495387757,0.880723865019249,3.798302155251735,2.3943725911269063,-0.9737514805345602
132.0,7.1826749575221465,10.27253063254937,3.0898556750273154,-8.764805211896352,2.076728941168104,6.6373968330011355,-5.0391159619801,-9.894890589249792,-9.219377611295291,2.787690437255075,-0.16895563567108107,-3.5008735168239555
133.0,1.4711749703055395,8.447577087055457,6.976402116750045,-4.928538702183783,-2.724125096861137,7.763010096732606,2.988640853462857,6.0328583871111645,7.430711818298178,2.472839213419375,1.0288956643458957,2.885307773650094
134.0,-0.508008689392025,-7.374320522232211,-6.866311832840061,3.9630275942404953,3.131951462016669,-7.137248374669606,4.277076733996123,4.731712219584975,1.2294300949820687,-6.279302590049286,-5.86089247229139,0.5182278254016204
135.0,-5.607737709051873,-13.246400123188815,-7.638662414136877,9.363970262981207,1.052678789279284,-10.456589754641808,-1.7908323741969383,-0.48478019438950737,-0.03377216976423014,-4.142764507072916,-3.8914658631298193,-0.9147868495118625
136.0,-1.779048626127567,-8.338685872480854,-6.559637246353293,5.071701299929954,2.3539819524454737,-7.468621565155746,-2.547241180209553,-3.6953943329033896,-6.086916634897804,-5.5270056916293,-1.548860293443252,-0.12219047010853992
137.0,-0.3613729983224381,2.05682436631178,2.418197364634139,-0.8339947973358863,-1.423892855066323,2.2064859719974472,1.3629015980620551,-0.8458054660214902,-1.9274338824179233,0.05317920404504117,-1.1396296006740105,-6.275623465144486
138.0,2.6781066985465825,10.704782984868613,8.026676286321942,-6.673146716612372,-2.631624253129322,9.399658148025974,-0.7037668786326006,1.449177450105101,5.223328150445325,11.316892729365618,9.214671716247683,3.7859090592199744
139.0,2.7549444941626833,16.578693428020294,13.82374893385747,-9.719600526893185,-5.576158283674262,15.223558260994135,-2.953483501298616,-0.39267691007877437,-1.5595973181735303,0.5149160721299673,4.3143097342333245,8.799283342862283
140.0,-1.1212656239195706,-0.29088985220614916,0.8303757717133688,0.7416007494539496,-0.9464013033171446,0.28613843219831914,0.7186578006424479,-0.4906855258153941,4.22410302524965,1.7659032194685074,2.0464135768856635,0.06705161307434926
141.0,0.8493442638801773,-9.212963475862974,-10.062307739743083,4.226946806224406,5.4780163612301855,-9.620139256890663,4.2049250269526,1.6532547040376424,1.5455909482745545,0.9192942815252189,-3.8730881074094543,-1.331205655904112
142.0,-0.03785936252546631,-10.019009071700978,-9.981149709175348,5.00238779379857,4.988870921623326,-10.05406930604139,3.4522798864294897,-0.2947527094756328,-2.718817411660611,-6.536228592768231,-8.011468127985134,-9.165440143785386
143.0,-3.389796571998125,-10.366829654391257,-6.977033082393091,6.856003144018542,1.73046989335836,-8.63630246176324,-3.2293299677083973,2.3881238502883737,-3.811643000710659,-3.7883173739634692,-5.486223812904498,-5.810874414977922
144.0,-0.7689316741762062,7.224941622107389,7.993873296283528,-3.251183562043388,-4.363970582945482,7.577559824236963,0.6547041898104671,1.7005891101954902,1.6198451345109477,1.6270937922028637,7.34260870285217,7.18062624491175
145.0,3.2311659104455313,10.070293914134519,6.839128003688897,-6.678797211762889,-1.7819678541210437,8.431714269777334,-2.5377474547639243,-6.544012118354308,-1.1144747304050384,-0.5460965670242369,2.117255814998413,-1.0059248705242196
146.0,-1.4553971107559298,3.9667921803491177,5.422189291104972,-1.2122584298519388,-3.410700532732079,4.754897011039437,-3.354607793266214,-0.7630524159628775,-1.1219220016675198,1.5213855464852637,1.3409440306545677,4.2632350661601
147.0,3.31813306234285,1.8442322105511182,-1.4739008517917225,-2.545413450326487,2.3514916624940025,0.1668053854196052,-2.838831432897019,-2.0998293355345674,1.4770718355692205,0.46943116132449014,0.576887486695072,4.865761165470338
148.0,-3.0439746343902208,0.911231741372119,3.95520637576249,1.095381652102772,-3.5391572821629778,2.4109109332529854,5.224133853589007,3.4860252599808925,4.608091817687443,3.272200557232889,-2.027598293404419,0.8599418657133375
149.0,0.12660347025984464,-12.943984859065425,-13.070588329325105,6.353510194453798,6.640872759705694,-13.035867888953575,3.7874652440683994,4.320549044116104,-0.059191056710144796,0.8738091830232575,0.09422324702344409,0.03720391378624144
150.0,-0.5165993690980959,-2.2633374766142698,-1.7467381075160642,1.4092503611537537,0.6584861313943948,-1.9615409232448604,1.0794724019210808,4.346537180387019,-0.1653356910015294,0.45358493106997677,3.270672657767258,-1.1703219790126649
151.0,3.265933778887673,1.132334653151172,-2.1335991257365627,-2.261751756078718,2.663998382414618,-0.4626134452746462,-1.2790257721500335,-4.9282579529873,-4.005146376438925,-1.1065942160994737,-2.6586693509639643,-10.88135922205724
152.0,-5.4862137367065245,-5.343514407920646,0.1426993287855937,5.429632543769548,-2.8515523646966026,-2.6446776615365337,-1.0012525737329039,-5.139185924675094,-3.0938881350100473,-5.255448070406694,-3.025678596172337,-10.145513512680745
153.0,0.8173514934459398,7.8438279922131136,7.0264764987667965,-4.314181992757368,-3.064281746728659,7.467826030923854,-1.964825613005524,1.3340133767583149,3.971534262899932,0.04147910303222391,-0.6019428273558338,13.753404511364966
154.0,2.307436286145539,11.14607752817591,8.838641242030189,-6.704569880246418,-3.30468009606765,9.945392733054979,-3.0767347314911566,-1.2910805052548124,-0.12714506901238765,0.7137079678973096,1.6034330989382033,4.331779412973994
155.0,3.923331173197098,1.3874300806217077,-2.5359010925751813,-2.6230010576176084,3.269918587226816,-0.543302891109188,2.103424692961775,4.447594363411861,1.6026612318811955,4.327310886983069,0.9358755978047046,6.5606254501597885
156.0,-1.1214805691444991,-4.526715166520963,-3.4052345973759874,2.791329874698487,1.1839446379898684,-4.0150976584567735,2.354757454751633,0.39152300844749743,-3.0845464093172783,-0.9114353332479741,-0.4245318189312872,-2.6392223081271737
157.0,-2.622365855658524,-4.310220595759658,-1.6878547401007733,3.4484417618344683,-0.5016582808787797,-2.97116090544481,-0.09757667971309236,-1.9435430533134908,0.9488082293082243,-3.074402032424649,0.9765378135932548,-9.562092263948925
158.0,-3.0669821172676603,-2.4738600685542407,0.5931220487134987,2.766230107595779,-1.8623720308280427,-0.9143595803701783,-4.337093852908151,-1.7566869009591433,1.3476094581870206,0.025309792264203046,1.2974238980378585,-0.05011500033418681
159.0,3.070864437225008,3.158681052295231,0.08781661507005922,-3.1089216830266766,1.4608348771011916,1.647637376753683,2.3706375008455733,0.5808770600581218,1.5326524541272333,2.499655869394828,2.3027715231000974,0.7244961751303785
160.0,-2.4626108436439704,-5.537260663985916,-3.074649820342163,4.010528043811059,0.3557126148599856,-4.361418152571208,1.6627867442008342,-0.9503101850063232,-1.5201516776974218,-1.6396299802746472,-1.8250993754873643,4.018345540700509
161.0,0.6230626313337464,-1.1247170237506094,-1.7477796550844293,0.2600895885133375,1.1588848102500175,-1.4132510139966867,3.7492897705311976,2.237187771218464,-1.8244393750472852,3.215855531327944,-3.781761470099741,0.4267171951991857
162.0,0.3491104486036125,-4.853073992916967,-5.202184441520478,2.254099234292918,2.8319598454983463,-5.082393704104053,3.3697630083309544,2.434079475092626,0.5408071128990986,-0.6983651819432959,-2.457532287100337,-2.4308815487898707
163.0,2.599156895504008,-2.50879644219485,-5.107953337698737,-0.05465921876991231,3.836724094459171,-3.781561082476011,-7.620766422881775,3.5409008662990034,1.3726372211936384,-1.793967453686397,-1.373636924744082,-3.9646900492196093
164.0,1.2665661865905915,18.35600978800198,17.08944360141149,-9.834367801524742,-7.922124830254719,17.7544784721843,-5.883443007852126,-1.8164161655684787,0.7401602828836044,-0.007941786125741368,3.976940920664144,1.260920827803171
165.0,-1.140145812528782,7.005782672199452,8.145928484728323,-2.968295268003117,-4.648562299262213,7.614178733681537,4.974594402427942,-7.230049349911937,0.8254764703135605,0.2051389859792666,4.714539059329056,4.0952394569396215
166.0,-0.7016982017730575,0.3460732254937233,1.0477714272668601,0.2130981100798186,-0.8775476752302089,0.6633565212325436,-1.9204905993126316,-3.2104665875147473,-4.586025414173956,-1.2492703324253713,1.1219224478935663,6.80052959846227
167.0,-3.181483027444703,-11.299267600403994,-8.11778457295936,7.274208674404109,2.464744688921536,-9.736743476150217,1.9746713283584578,1.4777759667542496,-0.31049525680296797,-0.24046884346721792,-0.8558417511650125,2.555448654323671
168.0,2.2203279389924178,-8.186725350250507,-10.407053289243116,3.022230927083993,6.306390814247158,-9.32279995874725,1.245630439700961,7.340349485309169,3.136697709287081,3.2277908349651625,-1.8096135091460757,-5.519704150592646
169.0,2.785423622727503,-2.7255802195106513,-5.511003842238327,-0.0599044815202161,4.134475939798167,-4.066841302220199,0.6106716818017195,0.5561362171943274,0.3676104857106035,-0.8461113227180204,-2.237611350110484,-7.926138515470652
170.0,-3.9687071444219204,3.884623781532279,7.853330925954105,0.02272481942249649,-5.853859564421112,5.83696975516155,1.9497482254327934,-1.020591605469976,0.6633101741163638,-0.849861594727271,-2.0526323174415015,-0.2667877990791978
171.0,1.856523932341784,8.115522001806388,6.258998069464607,-4.997422871595898,-2.2310133992801653,7.227106138975084,-1.9072149028979286,-2.4564524286180105,-3.119037197812661,-2.8242840040671946,-3.307867098002868,-4.212531646331087
172.0,-3.7796807909443366,6.802594251257421,10.582275042201818,-1.5200103543434031,-7.139704830922359,8.645869893116219,-4.349852473596716,-3.5968134085200085,-0.4222952262347165,-0.28144102836195695,5.556293959191511,-1.6530718349136408
173.0,3.3908034829802896,-2.4066113629797536,-5.797414845959875,-0.503020546071872,4.550066741287496,-4.0769702032617925,2.128143934859025,0.43137016380405724,0.8996347534020207,1.7868290663870456,1.902917678926455,3.787740208258386
174.0,0.8966152558058313,-15.860271786954561,-16.756887042760177,7.465237682602018,8.778011143223415,-16.289293795615563,2.661126536181319,4.537841218937333,2.5853579254182515,5.433649618989145,0.1273004372163311,7.628442164153634
175.0,-2.91229486259362,-3.1415494481923307,-0.2292545855985333,3.0831732475238915,-1.3134423717912749,-1.6700931538591215,0.6937932682571837,4.827019692278696,2.7335648226988924,2.2616273824813686,0.38429419385070096,6.395857466079411
176.0,2.3978672847649696,6.631541004872441,4.233673720107534,-4.540516758102884,-0.8882365395400704,5.367069938150346,-0.06639781140149856,-3.108504516674737,-3.0461544563699023,-7.296012204520982,-3.709693786903047,-5.322567110453879
177.0,0.9568690348619228,5.929808281328222,4.972939246466279,-3.389680692313624,-1.9732043239711512,5.464458265239257,-1.7010641200794976,-2.034898427201524,-0.8991554642605419,-0.4520131284759361,4.740591512030562,7.075660854448231
178.0,1.3137585922120316,-0.8627975065967579,-2.1765560988088843,-0.2463023192536813,1.7089302762101188,-1.5045169315799738,-2.0576577725684313,-1.4283162639008964,-0.9672998154208347,-0.26939853526036783,-2.044398993020713,0.7744070789795732
179.0,-0.9924423771725548,4.5996571715623285,5.5920995487347955,-1.8187138858347434,-3.3203278381682857,5.115584254379651,-1.6030872438751382,-2.3575649756714605,-2.321296205197221,-2.0087062359736096,-0.1969349679353838,-9.382417550020222
180.0,-4.7597135350103486,2.375122064136492,7.134835599146772,1.1815560636265932,-5.8903932839680175,4.702928670277096,2.2690819041403008,1.0236883312524014,1.7254627504873608,2.7919471703559853,-4.546053967438219,-11.10391706864289
181.0,4.209605538881634,-2.171342799893792,-6.380948338775442,-1.0292367681077714,5.275570497402248,-4.2406361609194,7.802728292456224,0.8295429345351896,2.01051182078651,5.0032329371672795,2.2599226925527955,-1.9848489747155034
182.0,-4.4854483382750745,-6.872511715288965,-2.387063377013887,5.664605212349563,-1.0716237852655586,-4.5850128128685785,-10.087345370292292,1.8050199035763268,1.3225249618040138,-2.8007526281604225,-1.8249640453023417,6.284649563150847
183.0,0.7773194156479033,1.1903142913827613,0.4129948757349302,-0.9283006583022231,0.1528938410876879,0.7755340955595709,0.5941995124071084,-0.2288263682710865,-3.487367926479304,-1.6836898860727507,1.1551462038971405,-0.5787023099270412
184.0,5.0714272121226305,1.9513753996641396,-3.120051812458383,-3.5464892490957647,4.13659796581506,-0.6058055575647037,2.050972053420585,0.7140516985811205,1.4093300776412956,-3.4166635928949107,5.053963432073912,8.528644619332688
185.0,-0.07389014629341739,-2.919137709089334,-2.8452475627958083,1.5277401404906594,1.3405349894455878,-2.9031895189317294,0.6378861761302724,0.06495440292591392,-0.6517511790410496,0.4892525621613377,3.444240462604827,4.502806135292845
186.0,-3.5011611005882153,-6.198507766929862,-2.6973466663415158,4.791991093358804,-0.3713796960273723,-4.472322951690767,-0.9502192211459505,-2.53620309483204,0.13895963929959276,1.8401735668937726,-5.056780194696907,-1.6934061898288721
187.0,0.9808622082931218,0.013393858096238498,-0.9674683501967067,-0.4820105021058825,1.0070218586507558,-0.42843146120007375,2.5633618011315735,0.21800018290923817,1.7608258505846512,2.5956739380568004,-4.2783244940789285,-2.9178630913007066
188.0,-1.467444156870792,4.936201776397324,6.403645933268249,-1.7190055464041856,-3.8959821517204634,5.712536563581997,2.6612740213493686,-0.3068190409637882,-0.5075492851988657,3.3165330951192824,0.8788455555378589,-1.058950723504629
189.0,1.011752229190902,9.619004043475469,8.607251814284428,-5.293639432927187,-3.8289111932536573,9.072665918908017,-1.6254642389198457,4.894359589727843,0.27408673626715896,1.4710601187602264,2.9817722504723188,-1.070663285817767
190.0,0.3560434879541473,0.0340503484782646,-0.32199313947626607,-0.1624182673352803,0.3133133091581053,-0.18591382371425613,-2.788203486375183,-1.4146109192758005,-0.22163361262305892,-2.5891303202159457,-0.9370615084459106,-0.5671129620775126
191.0,1.9795956412158207,-2.311344292186916,-4.290939933403132,0.13234412150047192,3.109393704710128,-3.262729398993907,-1.6910119100907544,1.4929796854602158,1.714820274460012,-5.2564513178508,0.7271785994176017,-2.9480070463462837
192.0,-0.7150873187318892,-4.835699945279183,-4.12061262654753,2.75308869676064,1.6702057496108822,-4.435698309426686,0.7369771678243267,-2.688763898699996,-3.341622642469581,-3.886727140426773,-2.3809096686767326,-0.5568599327318261
193.0,0.17780297833753228,1.4253480870240858,1.2475451086866851,-0.816166484719846,-0.5002288988746906,1.3053328893372527,-3.0851736211844027,-4.648149879859668,-1.6613880944688617,0.1187936670203471,1.2108162867940744,0.2989574508927511
194.0,-1.5230410029526527,-1.0421986608976126,0.48084234205541976,1.2717634432141645,-0.9802613057777497,-0.30704361310840267,1.8321768046363838,-1.6866946365251079,-1.0795003016113838,-1.3112164280374219,1.4936254209940623,6.052797272153646
195.0,-0.658860711628023,-1.5201018059643414,-0.8612410943358773,1.079543798805946,0.11238899705962976,-1.2140562710806346,1.0872047986942066,2.388814595996381,1.5533134230293324,5.029316368233923,2.111812112255649,3.3330338705818843
196.0,-1.012831631344676,-3.510128159716123,-2.497296528371197,2.3303847576314185,0.7484049089303787,-2.947924222517187,5.223804187809574,3.1037419144260703,3.577801631235359,5.466313103642243,-0.4024049163108958,-1.7280396309266397
197.0,1.3667570482253528,-5.766525304901427,-7.133282353126739,2.1909968830812923,4.2578885306636,-6.475215652885339,0.1729603776386721,5.370163671270484,2.891902374072763,6.682828957641201,-4.469516859496821,-6.967231534876964
198.0,-1.9078863562198123,9.919420217312332,11.82730657353189,-4.012285130271568,-6.930587030002439,10.921889132274769,0.327330792837694,0.04351263892997714,2.6446808521222853,6.311770871390191,-0.46045372393561723,-0.6243534397582229
199.0,2.50786362961342,6.772773581360034,4.264909951746246,-4.643849741252056,-0.8505891185315395,5.4816748877073564,-4.755620862308268,-4.29141529181844,-7.770541638440253,-13.879194103075719,-2.5645375253928875,-0.2652700803182083
