Time(ms),I,II,III,aVR,aVL,aVF,V1,V2,V3,V4,V5,V6
-200.0,-0.10168477479582427,-5.976825113511353,-5.875140338715623,3.0909606965108454,2.8476762624103777,-5.933843305444365,-0.984550364884696,5.319949090341531,1.2831976342671956,2.112385656832558,2.281983624073031,-3.891139999244795
-199.0,-7.836516442807412,-11.26874758822765,-3.4322311454203778,9.609727157690864,-2.241907669617376,-7.356320868531187,-0.047898853214239756,5.44441112694709,11.23634352061223,7.327246747971761,-1.0859607137135858,-9.911597223787295
-198.0,-6.953558886212383,-10.572884853002478,-3.619325966790075,8.746143850392063,-1.629884045630012,-7.104896950504948,-2.141465728591288,-2.0797450460355393,2.312523461671601,1.7883498999025589,-3.953813656063002,-3.6124566003254825
-197.0,1.7864613518148698,12.972836929008626,11.186375577193779,-7.394824284773865,-4.6647792619238775,12.063528052401331,-9.527635682020305,-1.4136444566585498,0.011799646349418325,-2.340467675074793,-2.068271801389802,7.3340606463355105
-196.0,5.641223679594477,6.7745853940185885,1.1333617144241233,-6.22541217494298,2.2087056730855683,4.006709761953678,4.07380916753447,-0.7355833790548298,-1.7345282738740373,-2.889520800215526,5.3734804268840275,7.778555422264141
-195.0,3.757122872092686,-5.747662415211099,-9.504785287303816,0.9709253217173224,6.663724784617589,-7.662862088335322,4.9799235885237865,-3.766214124918851,-11.223061998965727,-11.945896590888086,-8.81108448588815,-3.3367721594288002
-194.0,1.7430243813730915,-1.6249005145002622,-3.3679248958733696,-0.09322532157582408,2.509895473907773,-2.464084352860941,1.668904765066857,-4.974794289578103,-3.668174258722299,1.3555947485021358,0.2497365632587485,0.3048866450321665
-193.0,-1.6743960455631555,5.824616844835149,7.499012890398298,-2.040413525453551,-4.551949380029631,6.685911977261979,-1.0296815802530133,0.8951051117729947,-1.2059655771834283,2.766271252524879,-1.4011816463449316,-1.5848308332533303
-192.0,1.7841576402361323,10.32368994185502,8.539532301618857,-6.026092319681959,-3.4191508833561044,9.370227507668336,-3.4684255195073836,1.8818116937395566,3.554057069774984,2.778302153348155,0.39893351796189536,0.8563090774608835
-191.0,-0.08803988572369126,7.45219954502804,7.5402394307516944,-3.656239516858106,-3.7739882969010603,7.507930215173041,-0.8648626132937808,5.913127216215252,8.794457201448882,6.348203000285063,7.380000800948979,7.826572263147321
-190.0,-3.017173243621931,-8.184895342359294,-5.167722098737459,5.629466401558202,1.1175931620420765,-6.669526596014343,0.7373603354183732,2.9143802877906655,7.069494011151633,2.509944471055553,5.032472317834758,-1.9808388916934192
-189.0,-7.120649421406896,-17.415965960619637,-10.295316539212763,12.22285970875312,1.5511395926622944,-13.853066632715676,6.792550172719668,0.5427782920500688,-2.3368966143922343,-1.4339796514257355,2.4417384219749905,-8.8396007917929
-188.0,-10.03564849277231,-17.649547666364327,-7.613899173591926,13.801055046926434,-1.249668904720271,-12.632294076341676,0.37358807236038327,-5.788664593724654,-5.101758474561063,-3.642082091662835,-4.6562647431325646,-5.737682151881433
-187.0,12.05078789671073,7.307979765908634,-4.742808130801958,-9.64197623443839,8.431348907711747,1.2804514372609859,-8.664666385364756,-5.932230433171396,-8.906240806430429,-2.8175842980663406,-4.305129331808409,1.1089657682612226
-186.0,18.487640505287093,18.862220928123374,0.3745804228363412,-18.720909778573862,9.005404885557525,9.616755807969698,-4.422367465548543,-2.0295273441989066,-4.842432345231074,-5.864762697417505,-5.611557455411392,2.069692593310747
-185.0,-5.36887952649673,8.485499571982535,13.854379098479248,-1.5342049350473914,-9.590192762163149,11.171056267940367,6.898213120666526,8.520477138231154,8.09480311571378,4.38633316044653,0.920418533462906,4.426376439533674
-184.0,-9.536401490656749,2.5456128176907997,12.08201430834747,3.5091148815422732,-10.790805084508415,7.319802636773351,7.089402958673797,7.530080218690659,10.218532110978762,7.629517853521447,3.8166401779386248,5.2169979558351125
-183.0,-13.88328145407569,-9.947289094594769,3.93599235948078,11.919810306925834,-8.889548658959056,-2.9932101821712207,1.2331645708725167,-0.49281805301371273,2.5135510044760068,-3.2534039874696594,-2.6661945706320003,-2.617176255665104
-182.0,12.295710607355906,-1.5345441326891818,-13.83025474004522,-5.381518692869841,13.089469487214616,-7.662646847597515,-6.338545877510803,-5.56174137007656,-3.8892821374851945,-2.892968094326953,0.9388278955752618,0.18837699372170502
-181.0,9.377681414827622,-7.483762084956904,-16.861443499784638,-0.9481193444350555,13.076764622549582,-12.223977006867596,-6.432898910359369,-7.459976485592702,-9.455898735443483,-3.417987460535342,2.198020296610622,1.3283860172718231
-180.0,-3.100720610842396,-2.349350281438503,0.7513703294038265,2.7290802263504483,-1.9590076124296383,-0.8425535241465818,-1.4627385809359077,0.1789126854145935,-2.112409080806575,5.356474433416343,4.287398743362518,-0.7915154904152251
-179.0,-3.109685318388804,12.148572375031579,15.258257693420425,-4.505756848947768,-9.130802961537023,13.746873474642502,1.7631374815818734,0.6219366885975008,-0.44296480806370986,3.2975820564588263,0.6889254631481452,-1.4671498741743751
-178.0,-5.7248656198682895,-0.5596308892727722,5.165234730595689,3.0894716466664893,-5.4678235735848695,2.3552153996612475,2.5929972784992663,-0.2469909193715618,0.9132741126776003,-3.504428954001326,-4.45343658219395,-4.1912749580145094
-177.0,2.5051703391802453,2.8902347098322556,0.3850643706522199,-2.6589281923150505,1.03460884391998,1.6205406987123778,8.058832068833345,7.2640313601405735,8.86254232572907,0.2981185503809556,0.997818224388829,0.045538251219370496
-176.0,7.245673038226112,-10.952931329093058,-18.198604367319078,1.8248920166376275,12.767721765760777,-14.58466917557422,2.8172598802073554,8.242543295025392,4.53766052430974,1.757685023615101,0.5549172238141054,0.8624212169488779
-175.0,-3.857966498562201,4.799363072950235,8.657329571512353,-0.41275329188472687,-6.302046198419224,6.724785945364706,0.3697326976504345,-7.643158874875111,-3.927777101824303,-2.1476360125897553,-1.3671596203546004,0.06482354666165335
-174.0,-8.492792671899727,0.27993659472764143,8.772729266627179,4.089086688215309,-8.610955115953017,4.523600023416832,-10.280391673810476,-7.043462502631126,-3.9256892560784262,-1.127478540170474,-2.75903297812263,-1.0117577775237079
-173.0,-3.2106179914348942,-6.846311604005466,-3.6356936125707406,5.0098389183401055,0.22274291744963515,-5.2480858460270206,-2.1287513649221452,1.5372287294684037,-3.783375826351107,-4.6421355841288765,-3.5029516016062825,-0.21612897328249425
-172.0,8.655477357264186,-4.52764622677247,-13.183123584036721,-2.0877114511348003,10.92064346487156,-8.871239440209793,-5.24139112964055,4.121575792662237,-0.5113594386540945,0.38389386981933726,0.04230574990775213,1.342411756405391
-171.0,10.474418885968635,10.423769227437779,-0.050649658530822705,-10.479987042640428,5.258751627353761,5.159568022639569,-0.10121548512314082,-1.3171507831991902,0.09578291670755945,1.6710830792524614,4.586117285517896,5.520685016028139
-170.0,-0.8802392001346391,12.446598020685844,13.326837220820599,-5.741859018327083,-7.108562066561286,12.927640694652055,9.916584092129193,-3.252768632618454,5.804619495117833,8.63211625836772,6.251278659755959,3.4999140483266302
-169.0,-3.3187166096263225,5.4975736723978725,8.816290282024335,-1.0520346162066139,-6.0704140146268735,7.189617970342731,4.545031463106931,2.5781136997882728,5.133193958503028,2.92649443337255,-0.4353488929247544,-3.341719618059515
-168.0,-2.5139608793336596,-8.489281347312067,-5.975320467978295,5.538434164380734,1.7323056485870199,-7.2041411160244415,-0.2486460589653392,1.4628967697665005,-0.37006601638396974,-2.8051020289519712,-2.160047959736662,-0.9711092630907401
-167.0,-6.185953070798874,-13.336325463715038,-7.150372392916123,9.721154093725346,0.4897357178207633,-10.295036249613391,-1.5164290476107107,1.220239911069805,-7.714549406895031,-8.27538616597187,-4.724874699979049,-0.625482397545535
-166.0,-0.32421908786303577,-5.146771925909953,-4.8225528380469065,2.6982076312157126,2.2629904064036492,-5.0352525968116595,-2.6475233179152617,-9.292414778467714,-7.321921087236889,-3.445383294337033,-0.13560389800886785,-6.3621556780477215
-165.0,0.08076295125614946,1.6046790550606964,1.5239161038045508,-0.8783327374576888,-0.78053638547525,1.5942801442525754,-7.830764269577275,8.435550294809602,3.4883898638055837,5.508815512807898,6.168184667421902,-5.121462904547221
-164.0,0.10966056336553254,0.7011778992865896,0.591517335921017,-0.3625979925645473,-0.21596216121538103,0.677714772029558,5.075023750434544,2.2024155773208984,5.330194781507612,1.304693221723609,-2.492922013819525,0.9337852258314636
-163.0,2.47374658597143,5.5102411410616,3.036494555090112,-3.9514869370297423,-0.25232085898230744,4.30503570082851,7.348108826748108,0.3011493690823326,3.544652228593223,-0.7018256702829482,-3.853151261924131,4.856646588795703
-162.0,4.222155380401103,2.795276520418615,-1.4268788599825601,-3.550619460219481,2.856281681239854,0.636271482990268,-1.7778018833122582,-5.446983206673124,-2.9765727122898813,-0.020801234223153164,0.6597368447188153,6.176760277967663
-161.0,4.8316871333326565,5.770902000040433,0.939214866707718,-5.268565790582407,1.9003044256073722,3.3057205480413856,-8.956640976162843,1.3559667788840581,2.7047314704202687,0.21061366584435964,0.08072975152282791,2.8254597369310823
-160.0,-6.055960120129732,1.344335470726156,7.400295590855849,2.306078788235548,-6.7747494036366405,4.40090278338096,-1.7219037617999131,-0.9077993737887016,-1.8831247240999875,0.711040271369949,1.698500186538339,1.3619519319721805
-159.0,-3.8982904611113085,-4.736737554147018,-0.838447093035712,4.343948251836668,-1.4999186852058886,-2.757918463687835,5.115618104561574,-2.2145191729880254,-1.969421658743359,-0.9189897214181065,-0.26325027454911054,-1.3612669659478132
-158.0,0.763184906871933,-4.724972163476254,-5.48815707034819,2.0063904902424055,3.152762367386841,-5.07302993937593,1.1201998741975436,0.17002417991030766,-2.2736162458791727,0.34657628046125555,-3.367957072239884,-2.9156318453414833
-157.0,1.0202572826493206,-2.2930880354011647,-3.313345318050479,0.5840932866089603,2.1908786666732967,-2.8419090782329883,3.3628277074214723,3.967996433545571,-0.9325238563483387,-0.8136188223499508,4.3409466131785095,-3.3743835016624173
-156.0,5.522419708444128,2.6989591941734075,-2.8234605142707174,-4.081588394472133,4.1155649044446365,-0.0929173952240312,1.3438463707732735,-1.3595002959708862,-0.35298944480998107,1.8793936592001135,3.504598399989165,-3.8311019837882387
-155.0,-3.1709033461441116,2.7269543934435694,5.897857739587641,0.2550203173198259,-4.515326222748849,4.36817472724402,2.689176628444236,7.066163944474704,9.753094166331984,4.968371095146013,5.55800132053664,0.09770592888105889
-154.0,-3.466058791223293,0.9451595755315085,4.411218366754704,1.2192348983165084,-3.92163857490699,2.6606023867790936,-4.495230839130478,-1.6918197093337577,-1.3970380821901598,-5.422830432333775,-7.118138039198042,-3.358799641935831
-153.0,-3.823234973875329,-5.515359129422579,-1.6921241555473414,4.632278849451401,-1.050397076198852,-3.6196996188351505,-7.928792981104003,-7.229178199516035,-5.194236496103945,-4.819719181375923,-10.258175096875503,-0.2084502883163113
-152.0,6.705100303059936,-1.670095399383477,-8.375195702443458,-2.472687915503892,7.475154901268693,-5.041282826934686,-1.3610003639565829,-2.3958523766851214,-1.4971056538930652,-1.2188468147735771,1.6821282217918752,7.755946850674484
-151.0,5.187828589577707,5.830877284043604,0.6430486944659055,-5.463312453361641,2.2857708066329003,3.2907024283238107,4.003638178117169,3.1763038151926524,0.4624122851430774,5.5071914853671595,5.346637532369982,8.18519878206214
-150.0,-11.722732562536827,-2.31277695399306,9.409955608543857,6.983832090749947,-10.551551366043814,3.5151850000854723,5.424447083999349,0.8695127479586326,-0.28076440894587334,-1.0989163761066685,-0.27740490199943313,0.570124884532611
-149.0,-0.7940626330340121,0.38508167496996154,1.1791443080040938,0.16672480988145666,-0.9680962509939826,0.7406157573845684,0.9129156819554969,-0.950871831130315,1.4731490945752281,0.38155705947592455,0.26523003844206183,-4.723841470764081
-148.0,10.998652067653367,2.4571620656420636,-8.541490002011185,-6.692884369975505,9.79442697304399,-3.010396786238637,-1.4614628765952262,1.973367448270515,0.7797072930986548,0.23958915502050326,0.25288587695392994,-3.3836941329377965
-147.0,2.808987766596848,2.655423992788704,-0.15356377380806974,-2.7826862997227084,1.4338801815908782,1.281331384530704,-1.2902511744676666,2.101364356881801,4.366772682841838,3.6813438989171074,6.236172581619463,0.8822530751362354
-146.0,-6.21130887478899,0.10742438001524278,6.318733254804249,3.074500775907546,-6.227020418424296,3.246334148201244,-2.85141152488964,-1.558887395750003,-3.7301413049518612,0.9002970415949123,-2.1610577405801705,-3.418159279833902
-145.0,-2.6669726506654694,-4.7311407738153015,-2.064168123149892,3.718597538012556,-0.33730390560828893,-3.437493799750005,0.7978064951329435,1.5786370194195403,-1.1901438411653795,-0.5348069336082801,-1.2941255223768078,-1.1139118641303083
-144.0,-6.0547943142812395,-4.520339073740264,1.5344552405409058,5.307504415142155,-3.828336342596733,-1.526714316754001,-4.490985142389973,-5.0193405847746515,-4.682741830405321,-7.323059496447807,-8.408179573240844,-4.474929941525699
-143.0,4.238824437188153,1.9010262025449798,-2.3377982346432615,-3.0467646583032337,3.3328339377575773,-0.16932321726900157,3.9463090544148036,-0.19655971746025847,3.4205168884456794,-1.191522936940597,2.285863771305234,1.6320600887653323
-142.0,8.155125184128277,5.343783516953698,-2.811341667174698,-6.800624729494524,5.52515855833985,1.2371741465246393,5.365055848274759,2.044805953976318,3.0948666261773803,1.8472685268943172,1.7131211205203973,5.7688102776455565
-141.0,3.691458139140561,0.7491062825308066,-2.942351856609863,-2.188916268496701,3.2763726640545285,-1.128477648169241,7.445523684744482,6.78706176785044,6.139938945169044,8.540093862328632,6.409659111230003,7.8954215570892865
-140.0,-5.219862438912439,-2.1683063944922187,3.0515560444201926,3.64881988103009,-4.180032018509847,0.4836777057235706,-0.8199946753004377,-2.372949752978676,-4.723042409450326,-5.0356489203995,-1.8436904452353517,-1.6302086404154572
-139.0,-9.923424074866622,-7.997656469959047,1.9257676049076644,8.916081144717326,-5.893168493790963,-3.07727571949778,-12.17666552217603,-6.07268242064569,-8.353217524067297,-4.06511501225337,-1.695515880590517,-3.1823534858822815
-138.0,-0.7878986188549089,2.0375882176226883,2.8254868364777446,-0.5895112796685025,-1.7769553125793873,2.466658873152861,-11.550132716016673,-2.9780344836880546,1.3441483091030069,3.37518115756288,-1.1742535552549787,-3.795872064429155
-137.0,4.378204062317057,6.436417365179569,2.0582133028626552,-5.368885682653776,1.1893602964291536,4.283554672947737,2.345315845456029,4.248060298234826,4.4089541220568425,4.243935014035019,2.059445728848689,1.648991989145948
-136.0,-0.8056361601322206,1.3548292818436507,2.1604654419759477,-0.23014698960668722,-1.531939031722091,1.719169538383658,9.806464675887629,-0.8959103941793325,-2.257931743923685,-3.9016412471266735,-4.13868035189851,-4.1826652775086846
-135.0,4.518236703917819,0.31997756536236566,-4.198259138555498,-2.4452094870358954,4.310138119338715,-1.8938563148230985,8.73303194719702,1.4998025087769322,1.2536517561041562,-3.0144133679244973,-4.530055915432767,-1.1466698096782582
-134.0,3.673734363474275,0.03992215764426543,-3.6338122058301545,-1.8747450360975177,3.6850886511119665,-1.826994704393822,0.2642318700442301,1.9129996581882693,1.4741199518583759,-0.9040765260336276,4.343774508190835,2.013194233529728
-133.0,5.424750431309337,-5.307688779693954,-10.732439211003499,-0.07085819194614235,8.11038670648291,-8.050398897251288,-7.4981328994441725,0.016868103280429758,-1.1543164665323433,1.6152054745584485,3.928460902473665,-0.3815071279386697
-132.0,-1.0298873593256372,2.110041447833254,3.1399288071587055,-0.5511426706979226,-2.0528149104323714,2.5899473142432385,-2.186379937402435,4.178758632393841,6.427086507850918,6.390088014760819,6.7534404764703435,5.210589040470886
-131.0,-4.406911898850167,2.104643383523583,6.51155528237369,1.1369379353903553,-5.505782645818355,4.343634443088168,0.357256841920226,-6.2733080967502906,-5.016173165193961,-3.081977564892107,-5.040757656298947,1.4364869020395792
-130.0,-13.264187858010931,1.0790615087227917,14.343249366733758,6.072449971643171,-13.850377690958394,7.737155140818519,5.4046416447567,-1.0662097955577483,0.3810235454580906,1.0334211008247232,-1.3449680515312459,0.9281721442709845
-129.0,0.0714895228386414,-1.063823028079285,-1.1353125509177788,0.5486101881841718,0.6352509120699423,-1.082095705923018,-0.0064928220295611405,2.0935729734361996,-2.091669106296081,-0.047165110433628366,-2.6616220471583505,-1.1922192477953422
-128.0,2.210214410969267,-8.656391156493514,-10.86660556746255,3.2713494889348786,6.570064391517484,-9.749736602490085,-4.5379302850680165,-2.529850615901358,-5.131364578334329,-4.969700820154722,-5.273878427453626,-5.865878487139428
-127.0,-0.4609541439368394,-2.76162857865742,-2.300674434720377,1.5798044131716866,0.9514761560676623,-2.6001025850407995,0.8102478570308829,0.30578761664440807,3.697839874887934,1.277261222823319,1.9957696476507016,-1.0545425240175992
-126.0,3.865002085067218,5.235975328050863,1.3709732429837622,-4.579968719927756,1.1999867352242846,3.315226329350443,-1.9554478263237944,1.1102569947662444,2.85909801401791,1.3064185475306802,5.634837075395996,4.261608134047403
-125.0,10.15059272874149,7.187774406889565,-2.962818321852006,-8.69479504160191,6.509955712234366,2.12974632464344,-0.5212085732177323,2.2833651623200266,0.9914763262729869,-0.14496281730175098,1.2023961234448266,0.33241503022001084
-124.0,0.8695029939189309,1.810558826472981,0.9410558325537902,-1.2826415748333293,-0.0030559129525644657,1.4013997221724397,-2.8121031047008405,-1.1791406171248247,-1.3239381347442178,0.7646558924356147,-0.6367842524048579,-1.631502695211994
-123.0,2.946233206756461,0.1732480477326328,-2.772985159024127,-1.577785269557541,2.893972509902966,-1.343033825773605,-0.6929068882708378,0.6262861725244672,-1.0907902698597032,-0.16225578921855743,0.16015968202739994,-3.23803261907383
-122.0,-8.078578588245689,-2.3209330858875674,5.757645502357904,5.183192499785595,-6.959564270029622,1.7641591243006745,9.912994465387438,-0.263399554455541,1.7229948840484215,-1.2124983928499833,-3.5095872795147582,0.6505274779433899
-121.0,-5.061318869663699,1.199960781383869,6.2612796510475155,1.913342548729223,-5.619891110981323,3.7066056177523365,4.712070884771457,-1.1531439173093883,0.2681775880856854,0.9134959825320084,0.1399227838688557,4.754351827140921
-120.0,-0.11749970013107269,-4.646381002760745,-4.528881302629511,2.440309610219008,2.172875481196046,-4.605255483851258,-2.082519117808417,0.9449154495759843,-0.07953673646455148,-0.15553952697449835,0.2426152524264037,0.7869279822293378
-119.0,-3.4846577893931587,-4.458344065313588,-0.9736862759201779,3.9460264840877226,-1.2058385889409844,-2.73052098089184,-7.860290740034131,-1.3766361112125058,-2.4497520689513967,-2.109619599873818,0.14011262365124255,-1.0664350874319217
-118.0,-0.7425759407740626,-2.2950858549361066,-1.5525099141618455,1.486518801333148,0.3775267500299071,-1.859803458899743,3.392462267806417,-1.3507857270626682,1.2600994695780219,1.2486242187194794,-0.6019649034997425,-2.876434582454023
-117.0,3.256258573112265,3.98388694400957,0.7276283708973672,-3.5818878800172884,1.2358287130917922,2.337871260761788,-3.960444808924542,-0.27035277618679415,-4.561717922345755,0.5837926144703537,3.2161056760236884,3.1497376424219774
-116.0,4.5548614572736374,6.65870110589813,2.1038396486244952,-5.577867739325393,1.193600600219653,4.358349034548429,-3.264863635162114,1.1316812881912919,1.8451758892718026,2.6821606142006726,-1.2185980705118324,1.7242408248012437
-115.0,3.847748687245032,2.1225308480577882,-1.7252178391872923,-3.044671002075581,2.828803356010922,0.17016970289514743,1.5744990920255082,7.69151686394413,6.480751992520553,4.532616661527259,3.955392344826657,0.789021113973331
-114.0,-2.586009804978879,-2.4916311388518304,0.09437866612694323,2.548870834690814,-1.3017946516872934,-1.152884175629807,4.526023488775779,-0.09117562170235693,1.4358406266013928,-1.9530479763328732,-2.2751746117533145,-3.9167244950345697
-113.0,1.918564641564039,-2.1030879823877573,-4.021652623951972,0.09502466340498139,2.927793436649721,-3.0974815750775426,-1.0126824610863312,-7.5316122416786895,-3.4469783073545472,-5.0008920953272495,-3.950514188018852,-5.432332483480236
-112.0,-4.574550510001258,-4.495256785085317,0.07929372491578424,4.533817404731494,-2.290018656580505,-2.163384406062046,2.469842081961393,-1.2235493729031601,-3.0320589545030026,-5.538204563374887,-2.250416064760323,-1.1622419306272904
-111.0,-1.6333545276052694,-1.2570384987043473,0.37631602890082533,1.4449994939575443,-1.0442666783416783,-0.4709810011002439,-1.8334840806472117,-2.4848335197301714,-2.6370740740649197,-3.7227313813888516,-1.169029688626363,-0.7353169012570089
-110.0,0.9621363008128345,5.014871043733331,4.0527347429205225,-2.9825737484476225,-1.5027420307110964,4.586403914836153,-0.39831684015322527,1.001335600482916,-0.20016670761619304,3.6392175055463527,2.618399957217203,5.700264810477161
-109.0,-0.4196232633457252,6.077370829966284,6.496994093312166,-2.8122586917175827,-3.491665199662555,6.264131610854454,2.5826760262032686,4.6769728025505595,4.222680925121262,8.348140187798464,5.8831923537078366,8.119848677762118
-108.0,4.202850646128597,-0.45454474933763,-4.657395395466104,-1.844140787666239,4.398365754584631,-2.5794086967069454,-3.422129221880238,0.9538533945525711,-0.0033624799656108983,3.107012500724103,-0.056495997533911435,2.101138119355827
-107.0,-3.316312620971535,-6.968741961281905,-3.6524293403103187,5.107382387858445,0.21521497316773086,-5.338874852038696,-2.778741200814239,-0.1520265967767318,-0.037057629239614975,-0.5786239415706635,-0.2693271298828446,-3.4475896229128793
-106.0,2.5189303412739528,-1.4588458378956077,-3.977776179169523,-0.5537387274055232,3.2158274897108297,-2.6764264170597056,2.9004644252417715,1.3443213485422967,3.3559606782170963,-0.9364972669226939,0.2145044231586537,-3.548455583528529
-105.0,-4.377665372746613,-2.4625412325598037,1.9151241401868724,3.404357370729061,-3.101678358781972,-0.3205119571122472,5.5144065445674455,0.7829777861274306,1.332519269292427,-2.469406345893985,-3.4431670512837926,-5.639481281085053
-104.0,-10.315271679484932,-0.07418897663066137,10.241082702854314,5.183412818649474,-10.313976760802944,5.10732870160406,-0.8171437294275119,-3.943039577034409,-3.396802606601735,-4.531092552524671,-2.478052909932628,-3.288833521460499
-103.0,6.153969124841565,-0.8564812069482599,-7.010450331789858,-2.5794070883555276,6.62305327990138,-3.912809669586735,-9.772579158257003,-5.007569974182956,-5.714963567477513,-4.260425302968773,-2.7394297516681356,1.8968552220131172
-102.0,9.598398011695972,6.275183437789502,-3.3232145739066277,-7.945528669400486,6.420050341140413,1.4998572300425732,1.7984481542388755,0.9587755321644265,-3.1718334923946423,3.2062436656890885,3.070532458009863,3.531859030050546
-101.0,12.478910607450079,19.044815445267236,6.565904837816923,-15.77023800198098,2.9904845194886756,12.759754194097198,9.331192504548426,8.174315799240116,9.891454251011876,7.852756375107571,7.4712688343636415,7.914599160070837
-100.0,1.2326802701216697,-7.735350656540965,-8.968030926662804,3.243274939189388,5.050334621705471,-8.305532266482915,-5.442944613171306,-0.5240049761944334,1.8316397272138394,-1.467555529604251,-2.274456073038582,-2.8637232389298535
-99.0,-8.992337311550244,-8.156485598697607,0.8358517128525893,8.566358970738353,-4.891350795660983,-3.6796600925003107,-1.299735576600249,-0.7960998825496097,-2.338079063546319,-1.8616343326862455,-2.0151789198501753,-1.580180352099238
-98.0,-16.286985234286888,-13.806365116605228,2.4806201176816973,15.037830931761125,-9.366676392696927,-5.672313032992171,0.2124844134909905,-5.405383463940709,-3.846524004316798,-0.7111955096448501,-4.284961324790893,-4.730297547215958
-97.0,-8.6453723753059,-7.769302005828268,0.8760703694776661,8.196375325672914,-4.747363812434884,-3.451977192071401,-0.06949655114156938,-0.5947132171777829,-1.055602347483084,-1.021082116417721,0.28270058104082274,0.902184661684291
-96.0,2.3292327433419753,11.451901143459029,9.122668400117169,-6.826737105212545,-3.4625093156190063,10.27964416552183,3.851005453706566,0.012487622334184767,2.633276946984557,3.1747287144991363,4.974365966399612,2.0478882742137396
-95.0,9.323851267970907,11.369331010007098,2.0454797420363793,-10.367795141765782,3.656267355213729,6.692742982074314,-1.9697418109607503,4.310970241035293,1.399358503183091,-1.1999105183125878,-0.29631022108246685,1.7860361168297159
-94.0,10.582618254772477,0.6503594313726655,-9.932258823399664,-5.64658816474589,10.283484792766451,-4.664157133668477,-4.682197093606915,0.5031764318439436,-3.7801407422696425,-3.7365069882851563,-2.582103990594346,-3.1688260641516206
-93.0,2.458039144135731,0.37913288038761506,-2.0789062637479923,-1.3811832779352917,2.3074026557998746,-0.8007539997206224,4.147828257288383,1.2922504721110597,2.9962623218954114,-0.9666864734659699,0.9951264108113396,1.5931126728268727
-92.0,1.9547007716006117,-0.19691937613004545,-2.1516201477305676,-0.9327031845137079,2.0278946252715153,-1.1266792690811125,1.7607838430147265,1.379257304974991,2.288969824826254,2.3185808732640467,-0.05386511880309064,-2.2500835305988027
-91.0,-4.225034275312889,-7.1806616131361904,-2.9556273378234414,5.716160740642499,-0.6468556048589575,-5.095163746474307,1.1645695244342225,-0.9989587792875366,2.3553039613397715,2.9169184087793316,1.1697046618042073,1.6467783930102593
-90.0,-0.8327900591778539,3.448095622747122,4.280885681924754,-1.3025431093496653,-2.5603593498189734,3.846005228475421,-2.825083477896906,-2.947914980488828,-2.799449023094995,5.1522957125220366,1.4630496218807054,3.6709755344964163
-89.0,-9.938341782384459,-1.4173125589642812,8.52102922341998,5.680474686912693,-9.231008428209408,3.5435365142782524,-0.2518480262529408,-5.725920497918677,-4.453648715188429,-4.9274914018516,-1.5111379153468523,-0.9856743985166714
-88.0,-4.183904693649237,-0.7052008976268374,3.478703796022412,2.45163672558858,-3.8370227190559802,1.3870366644261505,0.0726040724343503,1.562593199002087,-1.5581064768915547,-0.844054489652531,0.33860684267083274,1.313635067411914
-87.0,7.975176066202156,-0.9071590334662948,-8.882335099668275,-3.5162309830344136,8.413764109482733,-4.89001954889249,-0.6814590006448482,1.9224257467895507,-0.2033337641662274,-0.8848243595458309,-0.6716688785907091,-2.742225956373461
-86.0,2.198626230332594,-4.866932984529638,-7.065559214862088,1.3663968391005938,4.605973400421442,-5.962609144835803,-2.3566939132004623,2.9267913799597114,3.8221384715016127,-1.9610032157223674,-3.2301766702671584,-4.638638709863026
-85.0,5.929232040470962,8.118362128699957,2.1891300882290308,-7.055710889158375,1.912939314209455,5.150887519034264,2.3477544197585516,2.671923332632412,2.237073561693049,-2.0645885545931235,-2.90517085569601,-2.8327516571575577
-84.0,-2.817281181358119,-3.901061758005965,-1.0837805766480426,3.338409942209002,-0.829981203112065,-2.505673694732244,2.1175087972723614,0.032296928893287946,3.91073466805394,2.3607446660217475,2.1848804953918552,2.186554508824362
-83.0,-6.375031625171392,-3.0832520534664116,3.29177957170498,4.713916307895245,-4.798696092910788,0.07915462568429499,-3.636911630588262,-3.3422190485513807,-6.951064702408647,0.8362127325876054,-0.21563346511007753,1.5415451747679734
-82.0,-1.8154274096839054,6.8567947439899415,8.672222153673896,-2.535988959127608,-5.287153492434003,7.80748480206713,2.5156499469694307,-2.3642604155677165,-1.835769551068316,-0.6384481974656462,4.022204260558455,4.329544102098819
-81.0,1.1704507505417965,7.115977838035631,5.945527087493938,-4.1621851460179995,-2.4294552739161013,6.566347528390076,1.6136096378948555,2.1109719464865573,0.5845352047462395,5.899509423829457,8.120432258523058,8.307919918988139
-80.0,3.261550570801613,-3.453570261151046,-6.715120831952529,0.15155766989480268,4.946917183273882,-5.130624977412303,-1.7203072765042018,-1.5352100778053994,2.0283977321311366,-2.9649499434621043,-4.618863725773537,-4.673882918485
-79.0,-1.2501402189579807,-6.484748074520656,-5.234607855562658,3.9207768047930074,2.02877929481675,-5.826307693058027,1.8399833399324301,4.0385607941481085,3.0176853456004755,1.1328985154639486,0.2990167190659445,-0.1099682773006565
-78.0,1.1583353511168881,-2.1477955857017155,-3.3061309368188616,0.4701718851313559,2.267503878157677,-2.7685096488980325,-2.5961826981631564,-1.6329365805768843,-0.2751258662058057,-1.8932543092807688,-3.4186761871049156,-3.407058837394885
-77.0,2.4722470011904045,1.7744143213823884,-0.6978326798082386,-2.1446289087095036,1.619808203387021,0.5020633024533385,0.595157377833492,-0.7402940724411354,-0.24446948951453235,-0.5722784899443614,-0.8956680871849119,-5.010444393610447
-76.0,-0.7212718572010451,-3.533846328508403,-2.812574471307192,2.1101801112769474,1.0029208006343862,-3.1253467039733387,-0.33739368792398905,-2.238542378634814,-4.716531201992082,-1.4849641260548982,-5.87841765598929,-4.421110071138094
-75.0,2.5172807771556314,1.2205984084949546,-1.2966823686600288,-1.8835254499015883,1.8675898166836715,0.013810737769602066,-3.217255109648775,-0.42495638960911564,-0.8110757677778235,-1.268232328894267,-0.6007460020606827,-1.845015405656784
-74.0,2.795284182935185,6.193823286290876,3.3985391033562644,-4.508531548981804,-0.2571527916379128,4.770705589442606,1.4428770388980254,3.3110386561091207,0.5204197319548052,0.9946765219801958,2.2461604238307755,4.5513612610074645
-73.0,-0.57498198523289,7.454159358316998,8.029141343550059,-3.376529447099027,-4.33026703826214,7.7142617659186445,5.83863680996504,3.4633399336045434,6.059321943480878,5.656382414082184,6.532423935835294,9.88278750685993
-72.0,-6.60125084549579,-1.8369443553056013,4.764306490190025,4.199877727766593,-5.626418969660494,1.4311943103875286,-2.8749617670549625,-0.6054560296914548,-1.143045127057446,-3.126390036754101,0.5851947259224692,2.290664157773726
-71.0,-15.02705405719852,-11.958880323578317,3.068173733619748,13.469120897495229,-9.065819350679943,-4.406015834229731,-0.5347685378060221,-5.087629308589664,-0.8362044442047101,-0.5756317444437675,1.0558163304905281,-2.0295858259174935
-70.0,7.081787800438588,-2.0243741750978703,-9.10616197553689,-2.4788772019312693,8.07719130231676,-5.611106999960994,3.508946015975902,0.7041482216511254,1.2880703598450056,-0.23229429098168944,-0.8916697794256089,-1.5237216454336118
-69.0,3.95050842402617,-1.2190424266939306,-5.169550850720699,-1.399655867040933,4.541522437141279,-3.1648142726041826,-5.03775627872091,-2.311487441095015,-4.000124188622591,-3.441058893143576,-3.8015597766329288,-1.0519740816467014
-68.0,1.649152116690102,-3.112917463914668,-4.762069580605207,0.6934824209378281,3.18291619906031,-3.9068028341982477,-3.9426813327603765,0.7889741778330813,-3.3049602582532396,-0.21264729483265166,-1.6527202422918443,-7.349152320685904
-67.0,5.972438629717371,8.203591815133107,2.231153185415484,-7.051194087304064,1.921643262852485,5.253933508509511,1.758701100030189,1.9942817250114078,-0.1800710151087812,2.945486761821309,0.17973957698579346,-0.7381018750843689
-66.0,12.151909568790678,14.472701228518725,2.3207916597279805,-13.277749688202196,4.883776561792135,8.363450680399735,4.258430391501646,2.6865553370581496,4.75982623075484,4.016652368291461,2.462926091453054,2.9442155385805724
-65.0,-5.131873403711334,-0.22194337201269754,4.909930031698793,2.6317879819064833,-4.9755725060521385,2.3200545039165252,1.6780206889826217,-0.7912653981431443,2.9811308429439456,0.5202921906695182,0.13792251026293834,4.157302219736859
-64.0,-13.067102048050309,-3.8583201785118826,9.20878186953917,8.49656598715046,-11.170351373145706,2.6587984669097278,0.9542236276093965,0.14733762211452578,2.4921218320959735,-0.8623972664783498,0.8782587514347674,3.1897697439230894
-63.0,-2.8066605266714477,-11.587686544227147,-8.781026017554346,7.153340299328089,3.0362129123738093,-10.196248714822215,-5.048952955000444,-1.5192251190209487,-3.506206832853861,-1.815754075711414,-0.2910416359935716,-1.1880413739433804
-62.0,1.345590380698769,-4.035224545795211,-5.380814926492796,1.3813899419873188,3.3360904189953464,-4.718006765650436,-1.6202651386870741,-0.7852085989434205,-0.758383136489267,-4.509991288678185,-2.571404867492159,-5.7778456254226285
-61.0,2.1872459854203274,0.7219601210841593,-1.4652858643357694,-1.4945875256759211,1.7999317424067316,-0.3023587528760534,0.5900847951043051,-0.06258411530768948,-2.7570831440550174,-0.5924349429629321,0.6173300774035759,-1.5362336895742204
-60.0,-2.9659711111541736,-1.597760935814275,1.3682101753394071,2.323444257318278,-2.195419274821623,-0.12372609573207022,4.992492150657381,0.9668361699032447,-0.6389907535638177,3.2055116132372556,1.014492124003452,0.9028594224595716
-59.0,3.7145778975458477,5.569445442415304,1.8548675448683951,-4.6756838701160754,0.975750942753128,3.704296801295561,2.970975417785494,-0.9100269628982683,2.278057453839158,2.5314043750316255,2.3021838949667197,3.3130046731036624
-58.0,6.804663372519654,7.959179605656098,1.1545162331350691,-7.3327663193646995,2.786359861878122,4.550440865310128,-2.397988370743136,0.489777102811174,-1.4458273646199449,-1.3500199901904275,-1.457648914029871,1.6963716257004025
-57.0,0.12807753199314664,4.129454960147301,4.001377428153077,-2.1540391177724048,-1.9023407205423162,4.060021199077729,-2.0383736038607325,1.3687989895501407,1.6241455428347873,0.2630840838951344,-2.013470011844607,0.8943845900098246
-56.0,-4.667300990764011,-4.108917085461052,0.558383905302493,4.366940213548986,-2.5831318481501753,-1.7809340012581591,-5.15346099229092,-0.8787903801548901,0.351268918824968,-0.6289233419789761,0.4294981063812364,0.7650493071656427
-55.0,-7.0822980380508564,-2.9414645739191108,4.14083346413213,4.994157997504308,-5.5851573170375985,0.5920001363700809,-2.625998019120261,-1.0643410004270963,-1.2201642127013614,-0.7028690939295794,-0.4043123121200513,0.07951835473927837
-54.0,2.437922155941724,-5.391432249955803,-7.829354405896872,1.5402271253804143,5.07887260545284,-6.621768797228067,0.3095849939613661,-0.8675696016792329,0.3033353951409553,-0.42642191475660746,2.5151615092881454,-5.371525592324074
-53.0,5.5116922634293655,-5.910359862335337,-11.422052125763688,0.18523752365224744,8.410220015445251,-8.603719155006557,6.712534331523409,2.1656578533523536,1.1507132745687958,3.5139462080196893,-0.5720034547700112,-4.075152102136599
-52.0,1.006347834052796,3.1563567283003606,2.1500088942483107,-2.0957241129404998,-0.5507774122769225,2.631490765134356,7.541683788933076,1.8366166351029587,1.702631308178651,-2.2470798116539337,-1.2688603348897363,-1.547921272990798
-51.0,-1.5949425986040473,3.7487984574232827,5.343741056027829,-1.0930706995364405,-3.447562768302713,4.519284372978634,1.0245585765676006,-2.0862333891694824,1.4628483908106051,0.9324116784292609,-1.0736194679914637,3.786019819622781
-50.0,1.1315624838310394,7.481153594217966,6.349591110387166,-4.3255616938358745,-2.5838248619712303,6.883875460884274,-6.879953522351805,-2.9422027736818674,-5.629145332779508,-3.062057049414013,2.303889893781333,5.712736938421597
-49.0,-6.620473027220214,-2.8253285197985996,3.7951445074216053,4.7784822878822055,-5.17642125302561,0.5289697497996548,-10.073944245536403,0.3613905644600104,-5.332207008581131,-2.889212813779603,-3.6672946202219476,3.382616975141701
-48.0,1.131338577123576,2.7086915956706523,1.5773530185464546,-1.9477050212059126,-0.26247275781253876,2.1854601851599207,1.9350496971132785,3.640502710593049,2.8743499163885473,4.310162524254353,3.5638167213216243,-0.38300633835870834
-47.0,7.6204443184927655,0.007816564747938681,-7.6126277537459,-3.76802944317371,7.584659386283256,-3.838977625696672,9.475445420296793,1.0332544043212561,8.416885599471868,5.309497778273135,4.131879142245642,-0.7676823202147719
-46.0,-2.561857231187041,-8.568480887117756,-6.006623655932154,5.5270437196044435,1.7743459825900696,-7.323619313500983,-3.748979570735214,-1.9292770712028973,0.275938794671692,-0.24733380404368122,-4.526740207400784,-7.292045297160694
-45.0,-5.046886811445188,-3.2753922160403595,1.7714945954041363,4.116979103507108,-3.4349665078321214,-0.7087223248317178,1.7311302976102194,0.6893268427374785,-0.7296086882115744,-2.966775316984595,-0.050607822896537424,1.0183700187259204
-44.0,0.5065551990033941,6.087685664010882,5.581130465007485,-3.2689050085381632,-2.5665476919363326,5.798897025663612,0.6275947608569861,-1.5510664495692685,0.03429845972249146,-3.9478187060081185,-0.750708539401814,1.498822686043572
-43.0,4.240624674158102,2.7293631961880003,-1.511261477968819,-3.463015629945229,2.9183486278996815,0.6514958026782596,2.614112655981644,1.1508574004431087,-4.092242721894413,-0.06739183059110498,0.7547804829745517,-1.828957965482001
-42.0,-2.455941875796297,-5.409031828574308,-2.953089952776774,3.9488915725797047,0.20348184708851685,-4.218953628803733,-4.146423579406879,-1.1110578301792167,-5.007122198307382,-4.147156015116341,-3.5662856181418485,-3.6736533749410065
-41.0,1.6577387224778493,1.5885523126976346,-0.06918640977897225,-1.6112368841907512,0.8890686450520797,0.7984010835993901,-2.3679901816124795,-0.9249018349206597,-2.32686249560835,4.076469153828287,1.3569370509970113,3.457325066369888
-40.0,-0.7251566270194802,2.201776896156546,2.9269335231763245,-0.8082043158651734,-1.8057768607303641,2.5220506465987267,-5.464495305804785,-2.1083723987370364,2.3274024640543742,2.170326201093528,-1.7162023838008873,2.09955937300722
-39.0,-0.9013836457273008,-0.06449349840610763,0.8368901473205934,0.49068914031411837,-0.8504457679654186,0.42077531719469285,2.233196992611055,0.9907642476880756,4.77398321898864,5.156686088980096,4.125157992097906,3.0202177666083507
-38.0,0.258096734960775,-0.7399201491087699,-0.9980168840705743,0.2501580331838678,0.5700010558021928,-0.9140445748905607,4.051513146155851,2.900881151186576,7.612575042650294,2.4425679584324467,3.6612825831309146,5.112202077937112
-37.0,2.737753170298671,-1.6917421455744366,-4.429495315873858,-0.5091920306238312,3.6086726356307453,-3.026450541729133,8.122134087624433,4.089874872568896,2.2681459840774716,-2.245534809132719,1.3144263385450166,-2.8195685786826923
-36.0,-1.2286768340955447,2.433898751211167,3.662575585306136,-0.5813733197109053,-2.4156662673717157,3.0844463259603656,4.1261495794528225,-1.6744227339275428,-4.5131194355692905,-6.069401123283745,-2.8717124743181084,-4.691462395858426
-35.0,-0.30837429725988885,3.0379006805992095,3.3462749778594216,-1.3344203868172946,-1.872405066767384,3.1529579020850225,-7.197139335507277,-1.2843066745498377,-7.612755129187768,-4.597247278981596,-2.6555684135611317,-3.975368566343625
-34.0,-1.3159795133165972,1.9878065776375298,3.3037860909544827,-0.3754298788930086,-2.2748614028611933,2.611064690885895,-10.0721533560639,-2.642486127469003,-3.4049218242449797,0.8452416663339037,-1.2885342712849295,-1.9183262153749179
-33.0,-1.7446206011955097,-0.12179527987220701,1.6228253213235317,0.9004555905485228,-1.728597755017362,0.7995158007993665,-0.7045155521914062,-1.9128496334648342,2.5962428315088726,4.497315642188013,-1.901236661662291,-0.32267061274128894
-32.0,2.8552643922989853,-6.395105424603344,-9.250369816902126,1.7406289528524703,6.084030053944953,-7.84727111308554,0.8787855645994802,1.1507188234888246,2.586718900555961,0.646800123487004,-2.8890524351972275,4.641619117124399
-31.0,-0.837442703982858,-8.014486769724597,-7.177044065741567,4.475478587396081,3.11988100248287,-7.615256246360624,6.23911116907362,2.60905279202092,2.3158744956888553,1.2623939838397837,4.684056017312078,2.216822636910251
-30.0,1.536243058964632,-1.5470455240559966,-3.0832885830203534,0.052311682382884084,2.3384067241793334,-2.251682074718171,5.465516366743134,1.8698165693480109,1.8966126368899952,-1.5023880324946985,4.9477199833988355,4.95768563745242
-29.0,-4.460095653902763,5.025646009585971,9.485741663489325,-0.31879802132945056,-6.941103597201362,7.2428960495419705,-1.1485109407565406,-4.199387346419478,-3.214646939280437,-0.15320547067412701,-0.5759245626634457,-1.3097879083374604
-28.0,1.9440030181205081,9.099981701844262,7.155978683724072,-5.5627812691394825,-2.567840767610199,8.114864447278645,-1.2603335302954357,1.185025936019731,1.0170833053158894,0.9855537380163426,1.263070173463205,-1.5482614748645278
-27.0,1.9725072715740726,3.911208704492256,1.9387014329177266,-2.908491328029731,-0.01580311925641764,2.9080904250749207,-5.384005527321892,-2.6769524520729253,-2.914781730488539,-1.1832129925741581,-3.491815959029843,-7.445525994527444
-26.0,-1.5076517258899413,-4.56703985581846,-3.059388129929875,3.0667873822396468,0.7503595234922059,-3.837046727281516,-0.9568970469045177,2.183619081219319,-0.29599138438879724,0.2921259752085694,-1.4786643848683068,0.06745929536142192
-25.0,4.013194146242966,0.7644665214867175,-3.248727624758029,-2.441133937995102,3.6101104663990027,-1.1961621552113386,-1.5792091481163832,2.3966657965358142,1.5907092530273863,-1.5104640727446748,-4.051516037941995,1.4429381523845248
-24.0,1.1966708766582315,-3.3546393204280642,-4.551310197087095,1.103438934108126,2.8547076723888507,-3.9947130997870897,2.4071966056042706,-0.02219528031123852,1.1361025116401127,0.6752999066378644,0.1748905797899043,2.9154493772493555
-23.0,-2.059329820436697,-1.8191002984380904,0.24022952199938086,1.962663073321461,-1.0909353800091612,-0.7593229648074531,3.0144863375340796,1.1477248693712414,1.2644903021041252,2.668642620365066,6.0855372167512805,1.133290260907509
-22.0,-4.903172557320882,1.0170093100050077,5.920181867327871,1.8877458619058,-5.432607330418078,3.49531085577296,3.777661540461496,-2.8146960297426493,0.4602103235711358,1.4976716211795067,3.3475216330405733,1.3378108725970548
-21.0,-3.614235552070479,-2.69710387355369,0.9171316785191403,3.180058850871691,-2.286297757089006,-0.9415931179852349,2.5193011223432227,0.6125333393264225,-0.5572046912472414,-1.5257081698537251,0.9519036714925044,1.1048907654677622
-20.0,5.641181395299071,-0.7444156318218038,-6.385597027119545,-2.421981185295753,6.074029976639448,-3.5345254832625628,-8.466120537500071,1.0663257831435793,-1.878861093732398,-3.8563564324703377,-4.396783635922436,-3.0058449608310944
-19.0,3.9588423457100976,4.813730849923877,0.8548885042137393,-4.435697130884629,1.5381030995469953,2.8691823383405355,-4.831572875208554,-2.9434623579418897,-0.8285372208964215,-0.6878727590718405,-3.287602852360271,-3.5625307394125736
-18.0,-1.7127030579813742,4.959311275680249,6.672014333660222,-1.5904895511630133,-4.201857478346522,5.775051765889107,2.507208201682109,-0.8439882247269409,-0.545612028958467,2.3150290389824653,-1.5393179843024112,0.4784024491826826
-17.0,-3.0752350680898104,-5.989034119122864,-2.9137990510355447,4.568270173190976,-0.08772910108477983,-4.491632654717694,4.57736075655897,-0.27787174586436075,0.11131323283764773,-1.4300586641184296,-1.2891854118189856,0.6286627870774779
-16.0,-2.214100420082727,-5.74235639525353,-3.5282559751732094,3.9379348558402376,0.6491262553359498,-4.599938230077278,4.406899632407355,0.34311401453993984,0.37002379948188235,0.14400996510095487,-0.0021736774074230247,0.6972284042629209
-15.0,2.505677834521535,-0.36231628230723234,-2.8679941168301175,-1.1113535998824493,2.6741975712690356,-1.585914850590023,-1.1156052909942868,0.6449810842446332,-0.3508627253018656,0.5929888129064602,4.128107010765054,-0.009235069377732108
-14.0,5.343038081556436,7.443077465447743,2.1000393838913047,-6.355313283996162,1.6015526356525853,4.714622449531188,-5.952401549357815,2.531094664506116,1.2241685840744947,2.550521561802995,5.354880350396794,0.7793493414860514
-13.0,-4.19898610356924,4.191352601948031,8.390338705519063,0.03859341183215159,-6.243613757728605,6.306103531221382,-2.2771204838898274,0.7765201497082259,1.9028352747694086,0.963096964672059,2.235861644858323,4.956757891077555
-12.0,-4.694178744766591,-1.1927063268608775,3.5014724179084173,2.8956762561269906,-4.1313411934340385,1.1659187439205843,-0.45492782228496176,3.1820182121550875,1.4497987027932446,1.3813050363810275,-0.2625032553613584,2.293531985286005
-11.0,8.413933245149757,0.16242176147447096,-8.251511483672743,-4.2606896631146025,8.375756562484824,-4.032818722119234,4.1528475751895595,0.14074399662924186,0.7526025697600893,-2.2875592306715222,-5.660842717309847,-4.510335424720519
-10.0,0.6828456881387346,-1.5017195180273877,-2.1845652061647747,0.3561870705179354,1.39973241442063,-1.8275303073352493,2.7544993181867836,-4.422662983103792,-2.460186252684403,-0.9777787833921705,-4.711564817588941,-3.6935909836378973
-9.0,-1.200192230634825,-8.238191319948136,-7.0379990893137805,4.745196979829103,2.968249057025696,-7.616325353627316,0.4601031579575203,-3.0256761964823733,-5.428937505337138,-2.0876853475328256,-0.4934513597766026,-2.9012866002898816
-8.0,-5.199546781577036,-6.414444122683143,-1.214897341107644,5.836350722454336,-2.016438366024196,-3.865224380926318,1.9479029773110306,-1.2717349473594797,-0.23987365975517294,-1.1512771126715187,-0.7417767099184899,-3.284915644506817
-7.0,-3.419741676613386,1.885692748664229,5.305434425275469,0.8019875514206025,-4.3829362190938514,3.550013527673438,-1.9911481704346734,1.2818181293385669,5.420843129772297,1.1854428169356916,3.0202068888330595,1.6457818407734102
-6.0,1.3042911882978314,8.883399676532184,7.579108488232976,-5.1312284527926275,-3.1570287242456363,8.267336461281298,-3.9125317825538324,-0.4625336913709883,-0.6119995695628329,0.18849699470043402,2.8136142580717114,4.80761721583168
-5.0,2.5637747619232165,14.552327686912054,11.988552924988294,-8.590051583344092,-4.734584690621932,13.307695539079909,-4.796845702567482,-0.8280541035830165,-1.8759687073189981,-0.056951203652984894,0.548830486661616,5.381524715206211
-4.0,2.8002528293642515,6.341357363741717,3.541104534377615,-4.599913438772247,-0.31886016947364226,4.900296049202274,-1.4277630453759205,3.590426242040621,0.11359671194381413,0.38996076818607506,0.5522190438353727,4.630774341164967
-3.0,0.36068855571958425,-16.746403564532642,-17.10709212025173,8.242243336433305,8.77953851224198,-16.887835743896947,4.677143362051708,2.7892833978933886,4.006572487496685,2.0126221218859532,0.30531182495928855,-3.6157587931683053
-2.0,0.08802199627168161,-18.13152071745158,-18.219542713722824,9.067917293879345,9.115288116369307,-18.213031015466804,6.432310447542521,0.42983944624565384,-3.2893132687289737,-2.3364838399337975,-4.685123008594148,-8.74320520138145
-1.0,2.7613916268724723,4.565415957451412,1.8040243305792192,-3.7013604344052906,0.43641561489160097,3.229594223553157,2.3272728446449302,0.10791923337985049,-3.1933785292229304,4.483514255337587,3.1300718400184677,0.9729615328132599
0.0,-1.1028752909362698,9.91038112680125,11.01325641773792,-4.448007295011522,-6.023033762574841,10.43229357401978,-0.6661357248477766,-0.03689344800041949,4.923356707862829,3.0014948982521594,3.9396443365229192,-0.9484252010159739
1.0,-4.469370328358685,-0.37588695653372195,4.093483371825296,2.4514596807839046,-4.323943028418027,1.8334467639255116,-4.822031932037371,-3.7873279772427013,2.0387087536190838,-3.02041289004201,-1.4664577474467677,2.3477427298252134
2.0,-5.9915886761952555,-0.0012225451978089552,5.990366130997532,3.02189833586497,-5.951082922066551,3.051044409099406,-2.8957198229998147,-1.158819553741481,-0.8220429904383669,-5.743584109887841,-4.294397249513868,0.17426889365058096
3.0,3.2967120309757223,2.6610600110812825,-0.6356520198941977,-3.0317000468348194,2.011282172466862,0.9917561102419348,-4.549340532521599,-1.4280513737145144,-1.817509619943156,-3.5986063681535247,-4.949732550337332,1.3149246007247581
4.0,3.5658627970599346,1.5179205434734497,-2.0479422535864966,-2.510982504477388,2.7783915985486987,-0.286538779504815,5.658833675850643,1.617977418765999,0.39768635974621236,3.2435526649635653,0.22618915658962813,-1.5086779974939808
5.0,5.294740292863257,4.820933450250634,-0.4738068426126101,-5.017744573589358,2.8589581606698538,2.1499129693596197,5.129433556023678,1.9507013165922265,0.86517446001773,2.469218219524648,5.647337371734215,1.5300967534770704
6.0,-2.198826106928848,-5.8518477563377,-3.653021649409188,3.9986191419641615,0.701607950751979,-4.700267890764235,-0.36582921906994015,-2.2560615481802215,-6.04728943528822,1.6477654162029105,1.8388280380217417,3.334344845892866
7.0,-5.784359902390089,-8.792724017771167,-3.008364115381224,7.274259729665298,-1.3386343209360003,-5.930145627937954,-2.731680244786638,4.317764965641282,0.14254085524311555,2.747286656769446,4.897263253892506,-0.21484664122944064
8.0,-0.4988155052616663,-3.7301505605401477,-3.231335055278648,2.1106868086653736,1.330190149695473,-3.4343691490452835,-1.042515945979734,-1.7390962323809256,1.1882673968041604,-0.7816104697433937,-1.37164050346263,-2.431511504050764
9.0,4.652040079955761,8.570974577084423,3.9189344971283946,-6.608734877258391,0.40173465315955337,6.2098354547158285,-7.265556328466226,-1.8662752019960474,-0.7251949754636575,-3.858352826406552,-6.019586974399722,-3.4997414871531003
10.0,4.68253230517658,11.955074572631133,7.272542267454316,-8.314427569329649,-1.3444528394488542,9.654210571586413,-1.007950120621964,-0.486135592244054,4.468152124640881,-2.1865621119934104,-0.9141607352324348,-0.004919736042790834
11.0,-7.000408098603035,-4.703347856341195,2.2970602422617326,5.852889398873424,-4.621511210057694,-1.2455173352165838,7.471630745974344,0.6253992242707318,4.56359694167166,-0.42822273528424804,-4.104709096527314,-4.4963838560965845
12.0,-0.5829033595192246,-8.599003094771874,-8.016099735252375,4.584532543501932,3.7467766974990235,-8.354358441558404,8.750447976994367,0.7372640512845453,-1.6325475307161699,-0.5847125561046848,0.18879355158897826,2.7065512044425932
13.0,-2.084959177429421,-1.3660764848252454,0.7188826926048457,1.7090869622431852,-1.442702203784576,-0.29528845188904107,3.7907616728464246,2.9995126696126255,-1.7342594602732821,5.952478673904603,5.082979143539099,4.597784687392956
14.0,3.2086074549802523,1.1498230341697289,-2.058784420809634,-2.1277942127146376,2.6825704661225362,-0.42741423976642334,-2.2146515183454296,2.6800400759290883,-0.30589392090448575,2.567935014743902,5.755129736786477,3.9363631223160795
15.0,3.47573709461376,3.860478465461549,0.3847413708479249,-3.7056884301015014,1.5268164217390887,2.1520179737035443,-8.480297944282817,-3.910228075445607,-3.028131207144054,0.01059652976067893,0.9011650823358273,-0.36825503534129456
16.0,-2.352611597147573,-0.07837134759029585,2.27424024955677,1.2482176818188897,-2.323737374160645,1.0546242773281733,-12.244786725097063,-7.310567311303064,-3.887778952583072,-3.058540752646863,-3.1649278581473106,-0.47672354258142313
17.0,-1.463401963214843,-1.1693261338325627,0.2940758293813195,1.2644532143774683,-0.8859179797675341,-0.3936121490626605,-1.5805247182578235,2.13028946308228,2.1755485704679214,-2.117635904370375,-2.2995448458166488,-1.3209365958592458
18.0,3.0800288306484216,-3.093516778837245,-6.173545609486791,0.03063495482902584,4.61658681596175,-4.659140587280932,8.207145022299706,3.5790399510166306,2.880231676544654,-4.74770294886717,-4.88435273805462,-2.825852233615098
19.0,-1.01962678954128,7.048888215546842,8.068515005087637,-2.9907123876128408,-4.5625559433736536,7.54071622662102,9.260005018181358,1.898282162240219,2.2096739236668492,0.6203803036045157,0.7833668740358877,-0.5511192988614111
20.0,-2.3539860752227795,6.043837534876456,8.397823610099707,-1.897123663558011,-5.326793016413925,7.207573822779679,0.9213205735358105,1.8829925679971784,-0.18765738288257294,3.8641307012148274,3.871288123273976,0.5134958642483352
21.0,-1.2544683672658006,-4.336964648253646,-3.0824962809869443,2.8266523253095768,0.8734667630289874,-3.7215108397429977,-4.767385759738554,-6.786192468328931,-3.426324929086433,1.8522245337628718,0.10231638979280788,-3.729484288918292
22.0,-3.865615761363767,-9.266383774865645,-5.400768013501161,6.601729702654325,0.7979803361854327,-7.267833503718111,3.563573517406999,1.1152926444002058,1.0211537559341544,1.5950377825114352,-2.2200130067331925,-0.9597058389333031
23.0,2.4722928117749214,-4.637373923617538,-7.109666735392077,1.0431021032506358,4.8185169047977885,-5.889470682834872,-3.1785621834804587,-0.15176342436640633,-0.46145950009074,0.301821746493645,0.6449427676638251,3.504482268004986
24.0,10.03693380171435,2.0181784558358475,-8.018755345878084,-5.987328251925288,8.979080998610025,-3.0199483278624104,-1.752527778799167,4.182229314786943,1.725350465435271,-1.0741445678139836,2.252589949846935,4.085565686280976
25.0,2.3080196586969866,5.53892424351423,3.230904584817438,-3.9644145271935387,-0.42465913144105105,4.361417777395016,-0.9288639755112973,0.3938361787730653,0.7206251565395441,-2.002077729574185,2.4497835518326823,1.94955477625814
26.0,-2.824543255427657,3.770845783853562,6.595389039280974,-0.5192578773495238,-4.742676650072184,5.2346719547099525,2.1901629309367245,0.31788655034420293,-0.6178119859028867,-0.3605928048553617,0.1335760725534182,-0.3381748150812649
27.0,-8.631479548854376,1.0211975275488734,9.652677076402805,3.83174543843447,-9.165327925661403,5.306115355839337,3.579937054509623,-2.665994039350802,-1.1549467388793724,-3.51753876157722,-4.635649905032017,-4.344487595774965
28.0,-3.871177450802261,0.9071408107846584,4.778318261586416,1.5042382276534643,-4.261727685094985,2.8868398137512985,-4.159068858764153,-0.4358026616024149,1.5788296587565354,4.314694466412697,-1.718966262009137,-1.9863834037430181
29.0,3.828394758256311,-3.155000266079134,-6.983395024336042,-0.3150330975485869,5.394050723380728,-5.108063739441661,-4.074199799752923,-0.7273938154548858,-2.263764894446849,0.15581117836006841,0.6658956603575044,-0.4606777703646019
30.0,1.3728654525121116,-5.980398291930594,-7.353263744443078,2.3296241778035274,4.350515731290487,-6.7102284818830125,-1.8797028989046156,-0.6180725950283265,-2.86032437782673,-1.4266126908118486,-0.10740874119286475,4.147915756770505
31.0,0.0008523397190605131,-0.23450578887631757,-0.2353581285954114,0.07222742060607679,0.10030061994602946,-0.2038874944702771,1.103512982980567,-1.8272213946201643,1.210102400475912,-0.3755132332465954,1.07178861073079,0.6137613133042683
32.0,2.1765073704181352,5.925212211494239,3.748704841076626,-4.084932353082229,-0.812562737837963,4.864667460280944,5.320853157383338,3.3612922205390254,4.146863834779937,3.1215050873185306,2.627069411170204,-1.1771650689670479
33.0,5.993371794659217,6.958573562048538,0.9652017673896727,-6.4208804140475015,2.556352447996443,3.9878089475344853,4.531394226295634,2.190486778621787,2.1268166503386556,1.0400995948146157,0.7899652177346272,-1.070339917480115
34.0,-1.6743021128795128,2.0176487379768706,3.691950850856938,-0.18712822539148677,-2.6498379738189684,2.801850221415396,-0.8039948671543558,-3.7451537988851746,-4.397095747983066,-3.726896375049313,-1.277359768437232,-2.3154321004730245
35.0,-8.92527600010787,-9.70058400427505,-0.7753080041666691,9.30210753126152,-4.1262801717704525,-5.210910398764548,0.1219624962920638,2.030986466172679,1.7386423842613108,1.5787940272709622,1.0657409108197364,2.148575264386295
36.0,0.9257435697598897,-8.717657897329993,-9.643401467089717,3.8858009710762604,5.310657260860384,-9.230150057523336,0.6305228672175942,1.7017567802710474,-1.1486095478534144,-0.1966958637245814,-2.958186291581413,1.016155698609276
37.0,3.8864973302881234,1.6867101207126325,-2.1997872095755744,-2.799551192662956,2.9938668808814626,-0.224931188649792,-4.0739201281102355,2.2502699778377737,0.9694216367654719,-0.30291242033858734,2.4761548274652068,1.9148610174019032
38.0,-8.183934360060837,-6.682611364934386,1.5013229951259335,7.4939251076980735,-4.805817216127735,-2.556598801488734,-5.0992276433784625,-3.3539810887217163,-3.0727072759388427,-1.6970832560019349,-3.581761845279756,-3.8985986090664726
39.0,1.6401583191907774,7.695954709479971,6.055796390288431,-4.6924151768769145,-2.1615842418501456,6.833122680684632,-2.8305410782951004,-4.53787307815827,-0.16199234218843672,-1.574771708444593,-0.8683719415491645,1.136035966150096
40.0,11.94065203684137,15.439646947988782,3.4989949111471943,-13.720842499632527,4.197219000965667,9.506306689736773,2.35487284362489,-0.9025802097696491,1.872399738060707,2.2721902772131286,-1.1993301527082296,0.2491865433692559
41.0,7.829841495848212,6.162584883424879,-1.6672566124229768,-6.9538979971847805,4.730642386526615,2.2055573281514054,0.4340472028305853,2.8566442787783237,0.5212895424692793,0.6588943401101235,2.1151283665736305,-2.2113760967562324
42.0,-5.212719600994981,-1.3549175306698698,3.8578020703254956,3.2425423643523206,-4.5525435474126965,1.2863585111749352,4.965519458330776,4.487008377670023,2.65753077084166,2.3786206067044864,3.2349633201927186,5.3685356355646485
43.0,-10.819847801206457,-12.470495486494395,-1.6506476852874277,11.678761896044243,-4.60667907363172,-7.107129543001243,4.744524369790632,1.453943009993477,0.44535889874906187,-0.4822268661550744,2.554046567844966,-0.16326724210645516
44.0,-9.134593415460644,-15.63785300571875,-6.503259590257791,12.416870165850153,-1.2678454525000566,-11.041315089101008,0.3317573296190819,-3.8788226307050726,-1.351475178603544,0.41007991085710616,0.03995231234212304,-1.7177002048722891
45.0,2.110403789547444,-3.996871402561135,-6.107275192108822,0.8932688789508045,4.067599174521247,-5.0250897448450225,-0.31728314836751204,-1.381749080577272,-3.8585801730819353,-0.18393756330533173,-0.7556597253432116,-2.7140604762801956
46.0,2.9296025967231776,3.979293452468348,1.0496908557441924,-3.5047069163009743,0.9685897772272387,2.461924196864897,-3.827176784048188,-0.6649064540607093,-0.30233255035823525,-0.9353878764615874,-0.2510372167617194,-1.3875675331634982
47.0,4.916055239872046,13.907261745306423,8.99120650543388,-9.381139736388498,-2.0141274845242805,11.476433324470257,-3.190292867883769,-0.6439972916032088,-1.024605507331497,-2.644152203731974,-6.277564409060981,-1.8584932185585805
48.0,7.789315981971319,13.909084653334801,6.119768671363343,-10.813778970124144,0.8577265402777843,10.044326601772283,-0.45107792558558035,2.10043131339664,1.745748615561571,-4.247304841434922,-8.305007496457147,-1.0238388867102328
49.0,-0.5017516119200955,2.970211265227139,3.4719628771476625,-1.1913164427141973,-2.038777195744406,3.1760633446289637,-1.3308719617828833,1.4567245645387517,4.645784877430722,3.2736259661578067,5.191065834900691,7.339763272747931
50.0,-4.240034001907567,-6.307663832795874,-2.0676298308878014,5.246653542007014,-1.1311177808536645,-4.149721154710095,-2.0078695142842937,-0.8023463936264574,-2.213043241304457,-0.11290615636383916,6.697962204792528,7.0879793630555605
51.0,-3.001761419335474,-18.279979173916356,-15.278217754580595,10.621227697271124,6.180536620818331,-16.8160059376924,2.3471797738888696,1.1487754830395986,2.0098149212840912,4.5082080897385834,8.027073909249768,0.02311500139644984
52.0,5.93959461269906,-3.235795438030733,-9.17539005072939,-1.3672139316512926,7.608024961829837,-6.239235439887811,4.981929306139849,0.4674891649171494,-0.739008450663164,3.6395870207199517,3.0063135251649498,-3.077335427176091
53.0,-2.5953895913137295,10.825635180724287,13.421024772038397,-4.130453521179978,-8.030035500468152,12.170918129797817,-0.9519278815285657,-5.831703623182151,-4.367469715914622,0.9209352918740645,-3.7922597078733347,-8.637414584901427
54.0,-1.5096168240281806,7.731943694692655,9.24156051872118,-3.1305579655926143,-5.394054618544107,8.535900744715462,-4.228076961600293,-3.670830275048985,-3.321127444132879,-5.9540813858146855,-11.45845765781863,-6.6263504463903224
55.0,-5.373446514085568,-10.469984474115824,-5.096537960030442,7.97437884900112,-0.15700426649480104,-7.812551712421065,5.746386644279864,6.854777227913009,2.0728378364667557,-7.437026038502677,-8.44566669281857,-0.7014414305808385
56.0,-0.40304923445454777,-10.590108086199608,-10.187058851745746,5.5417199622703475,4.8705402248931025,-10.419231920429318,4.162064846509982,5.902129351879255,6.681288463873822,3.395122368774307,3.6344928789617432,5.190472586169854
57.0,-0.15048654499917546,-2.81470497161541,-2.664218426616798,1.4421142834389205,1.3099231622553051,-2.7733038615529426,-0.6367568296132199,2.061366029582459,5.110039632776843,6.530151755021912,7.723638763463659,7.4245406120784185
58.0,1.644895966318784,8.904893017588519,7.259997051269385,-5.320728195597309,-2.836928890846687,8.122668130031284,-0.8377438403299726,-2.833189406960063,-3.2146528427864416,2.771373146341139,4.602935850544712,6.592655993469118
59.0,6.298310280936648,21.330471254181358,15.032160973244434,-13.784939917735047,-4.319221030768754,18.216146071839116,-6.724326343988462,-7.837915683212186,-7.77753173855645,-6.742884958491475,2.6882501527846783,1.000847109029889
60.0,0.5711232740223857,7.414837309081743,6.843714035059186,-3.9650362650158097,-3.166419145771034,7.080140698484821,-6.660530512287608,-1.3389580339278835,-2.8810236420722837,-0.8570830893652006,0.24111260260675782,-4.934489707082602
61.0,0.7493454773190791,-13.613995975471596,-14.3633414527908,6.381853852416683,7.529268536405671,-13.96342172097242,-0.9777924017519708,-0.6037878915019115,-0.14897339611827554,-1.8855887688378468,-6.867011416401685,-10.504014687630907
62.0,1.783052374850479,-11.394112031637453,-13.177164406487334,4.835682645931115,7.535703892422495,-12.263583064675709,5.777532370351875,3.806646547397158,6.409265449608904,1.6647338287460671,-1.963703489973886,1.4734194734229096
63.0,-4.416643333225249,0.22801079805523372,4.64465413128149,2.127404101202302,-4.5505964403430905,2.377687571781805,3.247505937242055,3.638241650297477,2.1453244488831866,4.749769898832055,2.577133388848147,0.16478356339148514
64.0,-6.9644134295268225,-2.5416065769136873,4.422806852613952,4.710766669851228,-5.712441171571701,0.9599545984817164,4.139026162535382,-0.16479991781675452,-0.20409414072811005,-0.15252206861246353,0.32173019178081147,3.8157042541570236
65.0,4.2651624769874275,4.045935226868146,-0.21922725011910815,-4.194431183298775,2.221695416661447,1.9331195956371214,0.8814864444551618,-1.0981474168896967,-0.9643085160956198,-0.7580751547516164,-3.4858781742078104,0.7557805547658849
66.0,2.5888850539061843,-3.054624716859399,-5.643509770765773,0.2756237381933142,4.170230063334028,-4.3277324143866025,-1.7797885584532458,-2.3228999386606053,-4.128984031137954,-4.215589824174161,-3.9443116137668803,-3.5240702482582824
67.0,-2.3497744034603376,2.6043689037339837,4.954143307193572,-0.0824497937826516,-3.6823523418617263,3.724598539942248,-1.7172504483750737,-1.2725450196403585,-1.4610897076004579,0.5622390243954436,3.3576764155443675,3.0533907969559344
68.0,-0.8522575378602616,1.878625740908301,2.7308832787679536,-0.5460562109833109,-1.8275216603676037,2.33286620118122,-4.451959159486119,3.2573891559637276,3.5707629940197747,0.5769837560709256,6.394546047584666,1.6903689453533255
69.0,3.333700801686681,4.82600027444273,1.4922994727554038,-4.11288973926583,0.9595725586155421,3.1138560152884445,2.1051216238083743,1.8421475328748522,3.043217863799285,5.574890764283983,5.20166350101169,2.822820867726139
70.0,-3.832344542136502,-5.204930320444071,-1.372585778307989,4.563218269070976,-1.192422955134012,-3.2487754977055983,0.5967947337887208,0.7906043371984993,2.0937809460258268,1.8154392695809525,-2.039545514545268,-1.5670841751939386
71.0,-0.7094555820296449,-4.728333547467539,-4.018877965437848,2.683407794094423,1.6143995250429035,-4.326526415101167,3.2660750651068753,-1.690648854905659,-0.0441717659042245,-4.191493934284516,-5.52350348926617,-2.8744321842908658
72.0,-1.0203101912179189,3.080647482390226,4.100957673608698,-1.065957496144801,-2.5198643933991103,3.56564478667875,-0.08127631806605873,-2.292174984962212,-5.323083319776354,-5.87560451402249,-5.528707042022278,-3.926315989508883
73.0,5.079124551844797,4.657636079261809,-0.4214884725822128,-4.823528239747641,2.714535181580106,2.0974628915271585,-4.216926419269017,-3.19446765993552,-4.753728264850274,-2.3485888645159614,-0.7520823545243691,-1.719227974765759
74.0,11.109331319134624,7.522532936747675,-3.5867983823864535,-9.266468697508056,7.313205410256291,1.9488380039793936,-2.019567296199037,-0.9915109811988826,-0.6838762252068384,0.9433475597933798,1.352913717695523,3.92243649340654
75.0,-1.2236042535607754,-6.5718507680168115,-5.348246514455974,3.875212433556339,2.105498401379667,-5.980548454930223,-1.0685144449508448,5.081623549280358,3.717215214221995,5.9354329425563055,6.710583741473055,3.6487568259854553
76.0,-13.586564633692236,-4.589971081439334,8.996593552252719,9.07312297798004,-11.328872433120882,2.2579526770344387,0.7833105891383361,2.6508895702228976,4.313363279231192,3.469805772046311,1.5646019525399484,0.8356986126247219
77.0,-5.517880211100531,-4.046793544382214,1.4710866667180214,4.773239230194287,-3.4545788702492572,-1.3161969176188373,4.18061837540338,0.11399791388457636,3.070685685041081,0.3817844407032198,-1.64662985739308,-0.6185522472354528
78.0,-1.9286160414429157,-2.762990947271137,-0.8343749058289074,2.340004687288457,-0.5862837210573977,-1.7516528082476528,3.503794012148954,-2.4003088917706434,-1.6642951200290312,0.5643919664777289,-1.4863247553629608,-1.4943732971965946
79.0,10.544044606840984,6.345617679231104,-4.1984269276104955,-8.450396260816213,7.412063615372478,1.0403133264458322,0.6279601778175115,-1.8469311865368878,-1.9404815531687476,-3.4331488574587765,-0.21291518772336482,-2.9437354693662208
80.0,0.6546588497705637,3.1826156490675195,2.5279567992966827,-1.9261671333784496,-0.8937285433092317,2.8224793697417416,-0.7001826760447203,-0.5725588070324343,-2.9586561256057715,-2.974752423522725,-0.05569984350838719,0.8201199605193269
81.0,-2.2190869184239816,-1.4061607939241618,0.8129261245000426,1.8025009789834687,-1.5503806489064127,-0.2486280443180271,1.0724662175901802,3.643200150128301,-1.3946807139117032,-3.0963345509137943,-2.0270837132006583,-0.5974601394533084
82.0,3.784188266357663,5.147128645846297,1.362940379489353,-4.398781225792179,1.175545341014217,3.2268956358778844,-5.3048845231655175,-1.3009888574824842,-0.1558642661398505,2.2854755743369513,-0.8550661231286003,2.278749532203512
83.0,4.540862846484798,3.010835182162773,-1.530027664321066,-3.787988028576267,2.996819254214586,0.7929294141024585,-10.277756157386188,-3.8846891299478328,0.7215977862649248,-2.303151819427508,-2.6704815993950466,-2.520246062039093
84.0,-2.1487201172880788,-0.7881932878535247,1.3605268294352384,1.4570631615762533,-1.7202650690919337,0.25995298103080017,3.362855358112922,2.181100306623179,2.5618463985553115,1.2047695016113447,4.964192034407766,4.148304002412743
85.0,-9.39984214731524,-10.689328113586454,-1.2894859662709504,10.033668812288063,-4.027107990760061,-6.018139031930456,6.510827151412232,2.4812074618163003,4.329200667837222,6.080952710513021,1.8906494214114238,2.5926425506601087
86.0,-1.2048844714233065,-9.953611257506939,-8.748726786083731,5.567136785610424,3.795183031821555,-9.384614425721887,5.405054034689165,2.030507869375926,0.06781742999029094,5.688470220953099,4.24491965654441,-2.0488749231048855
87.0,4.56070241567233,0.11601739154391355,-4.444685024128746,-2.354192480873899,4.4453751767737675,-2.124649954864481,-2.0948937046978213,-3.860293964486651,-5.141599040700419,-3.223569558062028,-4.0569251062151235,-5.719126992956492
88.0,5.488251084335599,8.727467263791585,3.239216179455315,-7.051137259619314,1.1476039475066777,6.018243316046805,-1.6164650193547399,0.22829928366583396,-0.8884385346690435,-4.774227298544602,-3.0194189791957564,-1.2699253502761154
89.0,-7.2852562617484145,7.432733996423262,14.717990258170731,-0.1034968573782793,-10.973958579418342,11.029019919636665,2.765285204922118,0.4444686595475502,0.03806242305677232,-1.6442919544938892,0.12286816342977858,1.878896440883437
90.0,2.050913262135894,8.119607206795992,6.068693944659341,-5.122748863118122,-2.0538813082840446,7.126909171871912,-1.5732968878987377,0.8361745635737698,-0.7752013216815612,-0.7928562881792462,0.19870482800143385,3.2134764828979945
91.0,6.356121916560015,5.947779880327213,-0.40834203623314025,-6.116736883618021,3.421772932550751,2.805194159890152,-3.3188713558669964,-0.9994789085920688,2.575890160782775,0.41049411944620595,1.4402304772960426,2.3824395907409452
92.0,-8.424814332060606,-19.90695300928599,-11.482138677225098,14.198064524002554,1.4931999082700416,-15.733887812031847,-0.7368673742861123,0.13599877910275818,2.3214964582841127,-1.7077567458023455,0.015239996421832824,0.5510520660738616
93.0,-3.1236302832755705,-7.7676737666013365,-4.644043483324725,5.399614279457988,0.804104585353671,-6.241204020193177,0.022480182252866965,-0.12459673921329162,-2.885429773502716,-0.08726631630261572,-6.42620105301639,-2.9110903792507448
94.0,8.001351973809506,7.41285043099151,-0.5885015428167186,-7.670701534298142,4.257437165746819,3.380316002283857,1.4758249217469541,0.3087196236963627,0.9396916540442553,5.042638411457029,4.748417126104311,-1.7189908231543987
95.0,4.3387143834231985,5.703562424683428,1.3648480412610162,-5.057860691038787,1.4445180338036128,3.58419124156425,-2.9223644295323297,-5.385807262261884,-6.88868249124352,-3.541505519306174,-2.805945132674827,-3.247175581040497
96.0,-3.4289974426018155,-0.675572408194129,2.7534250344075257,2.1002753483053413,-3.06038372079465,1.0920033280490116,2.0866327293632896,1.725626648677841,3.546650283873496,3.360826100838315,5.191478411943457,0.6251324091102697
97.0,-3.364005045501679,-3.1196193596869035,0.2443856858140827,3.2158925226437516,-1.777710410558615,-1.4601213111253974,3.1366428499393657,4.263525003046116,5.87224984639035,3.76901910534576,5.003979144083155,4.336198451915036
98.0,-5.524018714574426,-4.437653613911066,1.0863651006626962,4.957823777354768,-3.2808910163539298,-1.6953898591917504,-2.078443699364663,2.2407322301677244,0.6495418793322196,-0.49374065776237686,-1.1864872918192952,2.747706197972346
99.0,1.9972040621316314,4.022133404200534,2.024929342068555,-3.0316001312444976,0.01024005457591537,3.005296926858536,-2.222796144513142,-1.6730097586977348,-3.5526503767770246,-5.874755430194362,-2.6411739033419686,2.4428314138732032
100.0,3.547762611528393,8.20572589925607,4.657963287727455,-5.819773512887129,-0.6090332879436413,6.41312318630242,3.89722064433181,-3.067090103172031,-2.065855833946259,-2.637285741142536,-5.842448163360027,-2.503524297961321
101.0,-1.6916036840876618,-3.9082029787073633,-2.2165992946198694,2.7785263839157066,0.20900385466367125,-3.0052150602386947,6.176920757662613,2.9461330797020064,-0.1297344189755676,0.45343877756807416,-4.520732143108762,-9.497457910921549
102.0,3.7835997456212502,-3.521382634043041,-7.304982379664198,-0.1510344220885456,5.5691700601675755,-5.4398553971611845,-2.4030107559642886,3.2441044482891024,3.1848943434219756,5.410005367056981,3.446429433363806,-2.315717442640509
103.0,5.512911867341733,-4.892640916385196,-10.405552783726572,-0.24888733777972016,7.983254976600083,-7.603908566348121,-3.910757454006603,2.1410554792058303,5.864261382611925,4.786546846619998,9.563339326423725,7.9373565481003014
104.0,2.6807562276252748,-0.3865729839347227,-3.0673292115596,-1.1622365821376892,2.8975807544495265,-1.7682707650063834,-3.203192164455791,0.6363812626808454,-0.011774044434005315,0.786588063523534,3.603018828868335,4.941694025333154
105.0,-6.3051781354475365,-1.2427899594633107,5.062388175984477,3.759509997584651,-5.659565115898221,1.8612622388929463,-2.0540870597833374,-6.42447852628777,-8.410165030492413,-13.76331093457592,-12.78019122171293,-2.5645975798530296
106.0,-7.469778966646904,11.4241633461051,18.893942312751822,-1.9941564293181422,-13.234160779105103,15.184388747756906,-4.823196589185012,-12.243897779623307,-8.862474880279773,-7.8814384752798325,-3.7382920957958006,-2.2734719468083084
107.0,-9.036161592966216,7.513339047646781,16.54950064061267,0.7381886187592965,-12.841390054021648,12.055922112910999,0.9935427529306236,-6.562679704456795,-1.8347048684049478,4.711998832108814,3.866302331107899,0.6175162170770045
108.0,2.4857200796297567,2.439632354978369,-0.04608772465180522,-2.4165585271642493,1.3009308476693722,1.2253464549453343,5.2736705578930465,5.241943446142162,5.8202227526980765,12.681283226005148,9.541393528576018,5.253812128172539
109.0,1.0510981530556585,-7.665069320121163,-8.716167473177233,3.2634508764170027,4.923716647153869,-8.232401982275526,5.010795636740792,6.222721854228094,5.375451313726437,7.964707825860782,2.871591548462686,1.262631026747206
110.0,18.903513176909236,-4.28830123316602,-23.191814410075484,-7.2826939348275666,21.09158488516522,-13.692489255403235,5.963782990049443,15.643217320857083,6.782494066909452,-2.6590065376133083,-5.471168577420122,-11.884101674611173
111.0,1.7411685229070084,-17.398346672957068,-19.139515195863854,7.845583225726651,10.406369454342101,-18.29038394000767,-1.5979233601740535,3.7651231277174304,-0.7604848017658701,-7.650598805191195,-9.820366020600336,-3.8488219743528695
112.0,-3.3725638356267167,-5.4160524861574055,-2.0434886505300565,4.406708640337458,-0.7019442443685593,-3.745444197780367,-2.7505261445731373,4.346130019379003,5.957613714001002,-2.7674283724418602,0.7860385249795936,1.1355053645554896
113.0,-1.0494399795095957,11.886389343369547,12.935829322879897,-5.407357344521637,-7.037676698287914,12.395229113427984,-1.952953853514181,-1.8883946944260916,-3.256416063775121,-0.822741623974375,3.376161494836839,6.87151966040139
114.0,-3.1542740577140984,5.47133858574747,8.625612643461997,-1.2247462341620001,-5.866125307957696,7.026075517750575,-5.558732120910152,-13.201449071639873,-10.004520347472154,-6.694977768503655,-3.635952545990409,1.8620099999517294
115.0,-10.612416272386628,7.254847801817131,17.86726407420366,1.6948096536388773,-14.224851347352637,12.606009890694942,-1.8652893032276716,-14.860996418443182,-10.44639241360115,1.7001420507537293,2.843032848527055,-0.19318906118496182
116.0,-7.018893928963425,5.228394350233586,12.247288279196553,0.9165809177445127,-9.622497288065855,8.769204279247916,3.2246911773530256,-3.2759611668210713,1.7585191266025682,5.7031559636081335,5.591455598005748,3.5827829182678164
117.0,0.9969910075892647,4.423555171762559,3.426564164173046,-2.760481568556507,-1.202238234574868,3.8650111059315915,1.677129397282112,2.937731196272844,11.019994906678491,11.926628076926955,10.482501858328986,3.1987616249255644
118.0,17.445277832617897,5.12768391007865,-12.317593922539347,-11.248825454379165,14.901746856714096,-3.585189836050942,-2.3194054323842503,13.740203239407716,12.528904476899779,11.798753679990561,7.972682607220488,4.582352063630876
119.0,9.53119648236223,-1.8854186426341744,-11.416615124996511,-3.7748513365598866,10.504793457387855,-6.644613176381176,-1.8830987498051877,10.216889715141521,5.0736147391627,-2.4138159870360836,-4.000085260037064,1.5588205236049066
120.0,-2.874666044966922,-10.772350840218447,-7.897684795251664,6.802900315952757,2.472669009247591,-9.325947511539827,5.686237607059687,-2.062859597412796,-8.994370359451024,-14.619313400444115,-13.664505269961245,-11.794195222772034
121.0,-15.866646535041564,-27.70893509404317,-11.842288559001563,21.77481265696231,-2.0475312538973833,-19.758988956267537,7.826107252059026,-0.3439552751451549,-12.439056140327887,-17.42277623144368,-18.68064135985127,-12.901184667308199
122.0,-7.909835778745149,-14.764463847459133,-6.854628068713936,11.327240054352892,-0.5668870812792384,-10.783000707221065,-4.18574012496396,-15.912833904146344,-23.915185839521797,-19.10790007429638,-15.615190278306567,-15.644655881350195
123.0,4.319036179898014,5.839697340956015,1.5206611610587837,-5.091856294889169,1.4283744568168153,3.637094098457244,-2.3078424880716764,-4.303775286017731,-2.7224639555972336,-5.854105621678112,-8.50004594793138,-3.3168173013747557
124.0,14.428354003394475,22.462642870049287,8.034288866655576,-18.465744421021345,3.213241321127131,15.210896222180239,-6.869059419717756,1.5116574491286068,13.105276663509235,15.10282110316347,20.7285312147809,20.678096955364634
125.0,0.5641548929242113,26.151716719503767,25.58756182657968,-13.31039324659868,-12.506341923389186,25.91121797238941,-6.364843167720586,7.2315358194840575,20.994489761285678,28.436296514986168,28.329090310650592,23.13681079223452
126.0,-12.392638756361167,15.962804146975575,28.355442903335742,-1.8276284408947188,-20.3731805092256,22.117402430162826,5.591930634839623,-0.4975388329362098,17.740405430541916,27.871110382423808,27.385690751806667,15.894628114598179
127.0,7.318021327820477,-8.89736486206786,-16.215386189889585,0.8168973249376633,11.771503482559224,-12.52725800854196,2.3088782458559076,2.7906353277387317,1.0872459548683162,4.007186665631062,4.234424686497529,-2.641194125336839
128.0,12.677331559912691,-14.19245868926178,-26.86979024917537,0.7799436049376052,19.78996059502304,-20.51099330831319,0.10345609081681517,-1.0956661404487862,-9.750664283931892,-15.051966837739117,-16.548465880529513,-13.241213322236053
129.0,5.160261478144829,-11.619812064702248,-16.780073542846843,3.2517996281346635,11.002374319483401,-14.187662414473605,3.7682735550993662,22.601471791109713,1.713107147698432,-8.20069243268781,-17.25589187279593,-21.270038200349866
130.0,-10.866836903364607,-20.406689776386045,-9.539852873020385,15.583255516982724,-0.6950304379136725,-14.96605423776125,11.042721113861061,6.067150110585834,-5.534881527744906,-16.56440610462745,-19.26993384606472,-10.923792437123343
131.0,-15.746900802043589,-4.910668232698342,10.83623256934616,10.359284627120836,-13.313753015254619,2.8899840515888595,9.255587534988377,0.4870621993116311,-7.949018279758517,-11.934762783818131,-13.575301272914084,-3.1694348119522218
132.0,-24.736647436973577,19.167562754039214,43.90421019101342,2.742247860043286,-34.34188746572248,31.54485606921655,-2.6293890732376335,-5.143567716215637,6.757521400567973,4.345001934185433,11.213663718394741,15.428298057295759
133.0,3.037880684218136,12.408236262762228,9.370355578544407,-7.759343654004243,-3.1956471255897156,10.905516908303838,-15.541346375958787,-25.058043202840953,-14.766829644605142,-7.976911433837644,3.569230616960672,14.898982389717982
134.0,17.704116904687794,-2.4623831823369198,-20.166500087024538,-7.572349815387976,18.97079797208949,-11.287558729918707,-26.739371946882926,-43.939804805473166,-27.701636916301318,-15.182231433934666,-4.473434045470011,-4.431919938510413
135.0,6.762670863079933,3.579207183884174,-3.1834636791958006,-5.116250732070611,4.993265327638873,0.2370167509879637,-4.920966092200398,-31.39044991692183,-19.85174027744538,-0.4289436755898599,-0.6185069998774289,-2.8049326380914392
136.0,10.959928508980328,0.21651809100290098,-10.74341041797774,-5.606412206421284,10.859585060535917,-5.291768097800338,11.301885173095116,18.64442057280127,17.904516697266295,20.57838556260148,8.207142073083212,-5.080951147097206
137.0,25.49190729229181,4.494337092086079,-20.99757020020604,-15.00677321368774,23.246308967864202,-8.272178876282368,11.400587901218243,55.70516885863619,41.30599036515438,35.618122208590975,28.675427569180492,7.7500962098205495
138.0,0.8125772958109052,-16.189336727137604,-17.00191402294871,7.6767479216893975,8.909023351547589,-16.613376142992266,12.289604037093566,42.83843896851806,27.4683166456594,12.715493361162622,7.669043981526183,2.017020464807249
139.0,-13.74014757553357,-4.917056790966309,8.823090784566785,9.315889471592744,-11.274664890349344,1.9335924512243945,6.651246708377201,28.271165951828255,18.765421396635467,1.527396996375928,-1.1950094803105067,-0.1603494908890621
140.0,-28.431896485443485,2.5214335973890227,30.953330082832494,12.938866672195163,-29.67842334892548,16.71408943745734,4.134506661044551,-9.387217917149565,-8.294396370578868,-11.100854982867595,-14.22401448024822,-4.80659512644244
141.0,-16.600906320455664,8.79151196523847,25.392418285694493,3.883651920553925,-21.05488835832192,17.144505307432464,-1.0254390126772113,-36.48549043361841,-32.62455395717353,-28.565306573531394,-18.87687518176856,-5.316329535865829
142.0,2.697433583707136,-1.4208592593187754,-4.11829284302555,-0.5844418341702582,3.4320077603057975,-2.716475910676758,-8.958679255435703,-34.05962616944947,-38.974935073717106,-27.81337335449161,-18.614048717619916,-7.343910750599001
143.0,13.128802080932225,-11.744971455344876,-24.8737735362769,-0.639897001133003,18.94756891558192,-18.330304965464578,-8.498468677309788,-14.182344317830783,-10.438846749956998,-11.278238546963319,-16.21705407768856,-11.714659678397265
144.0,12.463984278215236,7.261683990181349,-5.202300288033902,-9.889400336209897,8.857891171362114,1.016112502494991,-6.041273148761386,8.960543213627528,30.49114467576604,31.799677028040126,28.727371789070787,16.620935557326685
145.0,18.78859173785424,18.267452511697908,-0.5211392261561496,-18.55360434510254,9.680344244439157,8.866505694974197,-7.5374476280018445,17.47318099355505,36.16816752372464,36.55879525804745,35.70238735271197,20.503575175859666
146.0,9.598258043661456,12.752658923125114,3.1544008794637843,-11.200792496891722,3.2506901955778638,7.950082982762516,-3.8979057335659992,3.0822818346525196,6.1014779132657715,7.323832414816437,10.203382422756604,7.942899703508252
147.0,-17.940490444329537,-2.6788774516412452,15.261612992687745,10.282791421173936,-16.566421490913363,6.2851936435330344,10.421036675071058,-14.22195266055326,-25.92240434700341,-18.963099352697053,-12.016732496607043,-0.2735826677153117
148.0,-34.19456961522267,-28.088022195754032,6.106547419467569,31.18963846018398,-20.187683534504966,-11.005827787400372,16.25439908904007,-9.598168335789085,-35.13634218305096,-34.131229037879415,-30.443404025576612,-14.380431188015661
149.0,-9.742807149323172,-18.66062512248873,-8.917817973166446,14.245227598031011,-0.4435583560500511,-13.817623914462738,2.6946516399584866,-8.938907819756826,-22.42009900780801,-17.515789302059314,-12.289555013514361,-8.844734756893615
150.0,21.042432173253484,-9.12023529127811,-30.16266746453128,-6.001485359347744,25.57517554090725,-19.605640262155347,-9.606110397202514,17.81996362396817,12.593440548576876,7.216000352964267,1.047964507991197,-10.158753936570049
151.0,11.853190435104281,4.87551707651286,-6.977673358589605,-8.409233539664768,9.38935028319615,-1.0276674677234716,-1.2517227708868655,33.221626726177405,42.56828478459413,27.721567198662314,4.608714441337521,-11.080876431030088
152.0,2.8196554202033237,26.156531291358476,23.33687587115766,-14.457343429464045,-10.205770223125482,24.76219980733281,6.094085659944988,18.38924392788632,33.23216647264617,26.012600641503976,17.528783612318584,9.200096646851495
153.0,0.8860232693880405,11.372618944714585,10.4865956753282,-6.100013507607315,-4.74671183241335,10.942335359777116,4.231302849127817,-6.351036950513375,-2.076168769943777,-0.6679875981520915,5.223166266190185,2.1720774885182923
154.0,-5.627260016608782,2.2283601002995255,7.855620116908337,1.7288060587821583,-6.764283869944947,4.97741617615002,-1.852293998649681,-31.91444368660931,-29.925342001120868,-22.5615000368002,-11.03103356697961,2.8072237543836014
155.0,-0.04457857895067763,14.158346685550404,14.202925264499395,-7.1052865384045605,-7.1428570503223785,14.198662051792397,-12.021601075922417,-24.35778628799146,-15.170497369875246,-7.3803832133871605,6.930121655803881,21.25899801476755
156.0,10.999100622837993,-2.06256327362151,-13.061663896462317,-4.515279686136802,12.015136897393202,-7.539668679714994,-7.267395178627508,5.9342441599665285,6.349709362610213,14.332930828353488,19.67240382288375,15.950388014995765
157.0,2.4612659113187134,-6.872632313484344,-9.333898224805797,2.2390261663841775,5.884529180036036,-8.155820009766735,-0.6116190087020619,12.260903449224717,6.549132908505644,5.166019882361808,-2.8195170210577354,-7.576614772314338
158.0,-10.573359101293837,-16.75201569819692,-6.17865659690425,13.698045727826575,-2.132746780513517,-11.436508586685425,7.3674338511053685,11.289795388103467,4.6205860596358885,-4.36014171230372,-12.00459618076895,-12.221250933490953
159.0,-20.573178511203462,-29.269902409472724,-8.696723898268996,24.88084014235332,-5.957646580024044,-18.95281297296322,12.202862546216044,0.2141301634580639,-9.336252181776791,-14.78470056127249,-16.914374257057844,-10.900735840555116
160.0,10.357206478132245,-22.17044782102651,-32.52765429915757,5.9479535209647665,21.413782946733754,-27.396191251121238,-8.588966734444247,-12.557212651205269,-26.438657938244965,-26.225347750619875,-22.260053328408453,-16.946803380878293
161.0,14.764363983757798,18.093947344421643,3.329583360665066,-16.46334961648526,5.677085186337861,10.74421599136777,-5.031745602305093,0.1331398623424973,0.2961086569245346,2.4539099068329717,2.9186082178620474,-5.67694438579743
162.0,-3.145406046612882,34.75070059038045,37.89610663699491,-15.756044938169975,-20.493824800550605,36.35646706181985,0.932936777611318,0.5701432076719575,15.85920316840906,21.112458353752054,17.281485651383633,6.636385924379147
163.0,-5.4546880275304295,24.121661706742817,29.576349734274714,-9.365964110280737,-17.49711433884244,26.80357170954869,11.58728651515796,8.75451334289361,21.66443859214342,23.232227343501606,20.177277323954012,18.331752171893946
164.0,5.897319391199982,5.597334264664113,-0.2999851265349722,-5.783281445337153,3.113548018586556,2.603037658819101,-1.1063597337801863,4.73613194506461,10.294233765590166,9.62510805017952,11.23409451121604,15.310618430724556
165.0,-0.19513363404158124,-3.283340114892604,-3.0882064808509937,1.7754751004354619,1.463308452167909,-3.153251548884714,1.068539242685635,6.884048799279142,8.852038548141566,5.695726333137861,5.4127012774504255,3.4185165272369513
166.0,-5.960842110656731,-18.07321524794537,-12.112373137289433,12.044667728249951,3.0983474369090134,-15.061142316584977,5.030415464324218,-3.83811034366271,-8.447560401261365,-13.411634680440157,-7.442592148616373,-1.1695557878076155
167.0,-10.95188749684696,-28.222592021087216,-17.270704524241676,19.527301854148725,3.1103866200869774,-22.71625055869442,-12.087982386963862,-23.405795831040876,-33.389518849877355,-29.18751218418788,-25.133443367157767,-13.60024686397851
168.0,-9.91896371936872,-15.21762398742909,-5.298660268061292,12.580199336058733,-2.3532614380950365,-10.308535913858789,-11.360967373843332,-18.219868126589894,-23.694235293308758,-22.605280165893845,-22.560245437787305,-17.56272887667155
169.0,18.57992145896811,24.47359225140619,5.893670792438039,-21.517963921750365,6.381965378447606,15.208747009921744,-1.189852807346,13.553956610820943,11.291700285347934,13.94462998971515,10.008941345551936,0.41685761365969576
170.0,23.51437255154287,14.43520298357466,-9.079169567968028,-18.96437983593419,16.257380586903817,2.620017549361365,7.286218944395155,27.424182670733288,25.69313229732795,26.266503170841045,16.75745912964795,2.1452016692847646
171.0,-0.4370783217456484,-4.368040485854856,-3.9309621641093004,2.4188047144435245,1.7853109205760604,-4.1333632389730095,6.042470462526512,11.949122673992314,12.666912022025553,8.610728999950775,8.18607800867322,8.655708271383597
172.0,-12.40043776038756,-2.5010615853139457,9.899376175073217,7.475074159234526,-11.112595881763607,3.7119505248956663,4.850906676132243,-2.032134012277499,8.081099530254189,5.33774411183629,7.750551966433183,8.394913155081557
173.0,-10.987562946589112,0.4540868739165673,11.441649820505313,5.219766570769631,-11.256300031665974,5.960140040461022,2.869568043311201,-17.06194792643686,-13.680573895653815,-12.668799012821115,-5.262764404899013,2.9902168363444135
174.0,-1.598694081801895,-1.8636268922763535,-0.2649328104746633,1.7671014408080783,-0.6293774800814624,-1.0488197737320561,-2.077946414307216,-13.146245636520195,-13.533626834272821,-16.095455034532883,-9.36519365772498,-6.6981297794296895
175.0,1.903065070691878,1.5558663805615118,-0.3471986901303441,-1.7726985875602703,1.0841340771024859,0.6264996662746443,-5.576521476910689,-1.5547940566874257,-4.134410248469372,-2.961536596836524,-6.379905502541778,-9.90376744068303
176.0,3.9460553116892303,2.9354775974032075,-1.0105777142854224,-3.4882092229691333,2.515010884542771,0.9149142588116643,-4.477072352563542,4.897904349281158,1.666980190225721,7.18410846503928,2.2639923764297514,-0.16672640153191853
177.0,-1.2402165578985342,3.82200974826816,5.062226306167486,-1.2648339931926418,-3.196266183979276,4.404301081099225,-4.4604882961388626,0.05012258684217219,1.6287132510760385,6.406575697119338,3.4060578069634726,9.262158338389195
178.0,2.6241072657773254,4.6155557175015005,1.991448451725088,-3.5964241815932043,0.3454685061075584,3.353173823908893,3.921769694923742,10.987514273535737,8.17969890210425,6.4842688548237675,7.474493549599325,9.587208464487578
179.0,-2.840789051417385,-10.817293366857704,-7.976504315439439,6.855273134375171,2.5135010601706607,-9.419583474057688,5.577124528619812,-0.09929854247207981,3.1878723396100455,-0.24097979719001028,-1.3089643628760208,-3.69819278238273
180.0,2.4801807503991826,-8.921757962764765,-11.401938713163869,3.2560944120833004,6.962510484013569,-10.102804057654579,2.6986087133898473,-1.557880347665146,-0.4818334132842903,-5.395833859431523,-4.785976516623126,-7.705703404573443
181.0,-4.833079200937046,-4.624840884894484,0.20823831604195142,4.699002461914421,-2.498645103860053,-2.2292131651321476,-3.0768661147392056,-7.429140791753511,-11.023317484402709,-11.667496689417225,-8.66940192602852,-7.406485189875166
182.0,-5.2753666596418975,5.324867894887348,10.600234554528187,-0.040603220922032945,-7.911204719812134,7.935970819140206,1.6810423472757994,-1.5868194406723855,-1.7517301033858104,0.4670329418704169,1.8415525156180053,-0.36998856101987343
183.0,7.33808001573444,14.9234363616495,7.585356345913971,-11.136183215560504,-0.08956705465106962,11.218201021167664,-0.7655899764660804,4.6461380980502005,8.658160757821307,12.731406563535533,11.256160346463364,9.517174188429882
184.0,6.683998965863306,4.2281804430656065,-2.455818522798422,-5.4579430151713515,4.533195114326324,0.9165918962055395,-1.5478355472695018,4.56662535285554,3.866225396394715,5.079527926230855,0.28804772316271876,1.6273541128746194
185.0,6.0745308733305965,-3.8089405842290027,-9.883471457559512,-1.1388299959077992,7.948160425044767,-6.828446288422736,-2.349379561263757,5.272698222589069,2.5226243154663575,0.12126269843692583,2.326019834728823,2.2533445819993156
186.0,-2.5771412438906873,-5.394151565058446,-2.817010321166973,3.969398683750672,0.09137850981271689,-4.098958343564505,2.229673844836836,1.4125447780427975,0.3368104094522679,-5.256688190411263,-3.3111395954331804,-3.5740653874433006
187.0,-7.811741425950471,-8.519202627801274,-0.7074612018495534,8.136740495799579,-3.581716372504044,-4.614882288585683,-1.0509611793764935,-9.320845342302363,-9.922614374739776,-9.733003105557861,-8.083294407300889,-7.800186288937859
188.0,-5.7433854913129725,-4.200667322209467,1.542718169104548,5.01175184208132,-3.59646198209488,-1.3351084843449779,-1.4956069545821105,-8.411479620076369,-6.424487996021968,-4.502217479347782,-5.127404872519827,-5.342976411075192
189.0,2.866402801180804,0.3697272580791737,-2.496675543101332,-1.5829364968069526,2.7260321436390806,-1.0706950326146885,3.2500945830251764,2.7560350911531764,4.329257363255673,5.693360810023599,2.57909332907505,3.293816333278674
190.0,-0.7155254792402919,10.220106209301916,10.93563168854166,-4.714836960593573,-5.781578539872045,10.57254721751651,1.8395796036134557,3.0849606089805524,4.58044587284429,11.12544112993195,11.562634598348797,12.807592270574622
191.0,-8.487608898206801,3.9737406100922694,12.46134950829803,2.2234508071293875,-10.50846236554988,8.216462466432619,2.9373898297765253,1.6542668431763743,0.3308738698773088,-1.6947886150093687,-1.3728247487601992,3.8526503651327353
192.0,9.015312872769002,8.729242516463223,-0.28607035630674016,-8.895798686342527,4.617438540273836,4.226439600446905,-6.016813207975407,-1.0735052170637296,-0.903279941097294,-4.336752089895322,-0.033069485572150725,0.7778102362126582
193.0,4.739399642423346,-3.246443008328151,-7.9858426507517635,-0.7616429450700131,6.3289522759748404,-5.604287470372121,-3.969557794401916,-1.3922684777203016,-0.8361222461897282,-0.1891404385450859,0.1691858057298189,-1.0702429080793179
194.0,0.6659188313771791,-7.425906531397101,-8.091825362773964,3.368894064318175,4.343652304515184,-7.739576623775481,1.03916721859,7.246841669849731,6.15006217276926,6.348260828385396,3.75999320859731,-5.109352487629495
195.0,12.886784747786153,-8.113911904675263,-21.000696652460842,-2.398538906784509,16.98577449718163,-14.609473888568528,-2.4110540065038446,0.525228020777297,-3.27664967848368,-3.1968935748464578,-6.874046991870829,-13.449202709638989
196.0,-4.170318843103616,0.783723593686914,4.954042436790866,1.7549784390592462,-4.520069786892687,2.902218754762263,4.061874311686732,-4.034245225165991,-6.258613900779631,-7.640514443895297,-7.738489088784295,-3.3294541660356494
197.0,-18.958588658184773,3.3107045450298003,22.26929320321448,7.800232053737315,-20.569479614675423,12.750659738358248,3.993054168434272,-3.727888778103316,3.9346417078652594,0.5928960112007884,1.24321349529031,8.902276162462158
198.0,-2.284492570780337,-0.5144447924506275,1.770047778329289,1.369979506990215,-2.057686274653113,0.6726145873767049,5.133192492739408,1.2272001821089702,3.9518701795638274,3.9959477616579915,4.064030841019109,9.829892327094388
199.0,2.6584429193834396,2.8044409500381136,0.14599803065449013,-2.6851490173398536,1.2293171796377909,1.445944536414498,-1.8135110332002864,0.8370667185109514,-0.048710432092784695,0.8303764366743769,2.586737460827041,-0.3445077207823468
