Time(ms),I,II,III,aVR,aVL,aVF,V1,V2,V3,V4,V5,V6
-200.0,2.693711515255231,-2.8810119649147437,-5.574723480170766,0.11470904076329203,4.08238589000614,-4.280672460929518,-1.4253344411093194,4.419341652487969,2.0363009741944142,3.1542625735740923,7.670078773836529,-2.39512483284072
-199.0,-0.21292890023667088,3.470053957967205,3.6829828582030766,-1.6730080965884824,-1.9918588360086018,3.600410638506379,-0.15071393099948516,-0.2588264386473127,3.8269119364291426,0.057820340435504436,10.037058763949863,-1.3907108903609675
-198.0,-1.2592274607020668,10.528571552192778,11.787799012894487,-4.585045428695653,-6.480941364311777,11.17800125895487,-2.3295399979909748,-1.1946807618499,-3.2339203580656286,0.4005323072168264,-3.022816295000331,2.405514951388679
-197.0,-1.8606913885535155,-5.889950306490233,-4.029258917936981,3.860922482296305,1.1349857213842554,-5.023570045869296,5.48613583378361,-2.5408336571749537,-2.0394076407856487,2.0780177961804824,-7.312840144341589,1.2090388457738133
-196.0,-2.009072692479605,-9.499315388199756,-7.4902426957201005,5.7508255869125335,2.7213688263383244,-8.484075057576334,0.004424955912744499,0.6025793031078226,3.366056379734135,4.479343142514531,0.4719950205107386,4.3850887190565775
-195.0,6.4558788355912915,2.5065523742698654,-3.9493264613212786,-4.48000411522209,5.192393530751727,-0.7116054166478829,-1.6145089545151574,2.7263524848560596,-0.016377040706790136,-1.3742479063603021,-3.9699268651022552,-3.219421436698337
-194.0,1.0517057219915367,6.460825846525686,5.409120124534494,-3.7585120665303635,-2.181080529615869,5.948604497219831,-0.4620718555687585,-2.1062877245902447,-3.8369646361333283,-6.226833125058114,-5.6712056089663925,-0.647246878196587
-193.0,-2.86081208657133,4.125363576189355,6.986175662761067,-0.6458199070106339,-4.920906754751283,5.578154695028086,-1.3349272516764783,-0.2189544430286367,1.0027566143333624,-0.5370462752420004,0.3133558976643316,3.248629057738343
-192.0,-3.8805177506299624,-2.6867922894128147,1.1937254612175465,3.253120733141246,-2.5338519995231716,-0.7122381569044316,-0.09640107699798361,-3.3556739775163993,-3.859509173939113,-5.247398458964236,1.544442562613482,-3.926994278339855
-191.0,2.332284437702197,0.8806734008656594,-1.4516110368364827,-1.5772747845933497,1.8911280248617899,-0.31805967085574915,-1.4778574478776876,2.0133663595752056,1.2008600073225475,0.9588995018341837,3.1404665909854144,2.1832197567548906
-190.0,5.152720302879602,-4.045545274695829,-9.198265577575825,-0.5411803173731861,7.166609428565641,-6.64617325772501,1.0312346696557098,5.189001189343503,8.800359806642753,11.274345636395196,8.451204953672338,-3.048141894948846
-189.0,-3.638779975775958,-5.6323448606005995,-1.9935648848251395,4.636995379019905,-0.8414229835827429,-3.834822702142232,4.159845726736392,-0.6161433876330187,0.0535749402844492,1.1398988156930372,-4.298872777771024,-5.944920255232203
-188.0,-3.6731247892615606,-2.1866538062433563,1.486470983017512,2.9281355356895813,-2.607451170052061,-0.3757859479379977,0.7746422602677889,-4.603263439687476,-4.5692849967512394,-4.622424100801206,0.8091379935646656,4.156457542268358
-187.0,2.3747632110055057,9.010497617706084,6.635734406700429,-5.689967326254484,-2.0842173054665882,7.867959879554732,-2.817680706208647,-0.2778367635390193,-1.2434460742298195,-2.842160697381869,3.2334000605267663,7.698624672311328
-186.0,-0.5013064326134574,-0.5389824723229983,-0.03767603970912958,0.5326319206190564,-0.18458368087564025,-0.2529003553855893,-0.7028405894187104,1.804981505680188,-2.049107636154135,2.2797597643218426,-2.9461671226369646,-0.3363708130645171
-185.0,2.0727605041747768,6.186494126513099,4.11373362233919,-4.105385668428167,-1.04539254047035,5.099472436174343,-2.111602648811372,-0.6031733005961218,1.1815113516071323,1.5251291729957877,-4.952358540317072,-0.5685822927591624
-184.0,4.515183553119002,-1.5668041958853451,-6.081987749003897,-1.5186413050567968,5.283799196506683,-3.799183725002249,-0.03916219841700386,1.6894815211712753,0.6556438437636439,-0.46416863970062927,0.7759711237800775,-3.6813611919376057
-183.0,-8.189625336327016,-5.561273731915181,2.628351604411752,6.836768210228026,-5.413590497205401,-1.4389574688981035,1.6655427233444609,-0.9406977044703333,-2.863141966969322,-6.994472726648482,-5.737635704098732,-4.486433549936265
-182.0,-1.133083436627477,-0.8125177164738484,0.3205657201532646,1.0135951152593687,-0.7247723668018714,-0.29056808722854277,1.9740864777873122,-0.0741252317294181,3.004934110095485,0.4556025823747083,0.667100871252339,0.06785239603535764
-181.0,6.225370948545525,-0.3703565867292222,-6.595727535274712,-2.9686584947978814,6.413116182683193,-3.4398071470665577,1.5514670496537024,1.9602149953164179,4.690984957157614,4.35210678156312,9.34128215916752,10.322795599705225
-180.0,-2.3489890597681566,-5.715205771543019,-3.3662167117744324,4.064877174759201,0.5047257895154347,-4.567001211156887,-0.8544482168323143,-0.3007035301859777,0.6123091230448177,1.1969076600124446,0.5324006173148712,-3.4870644604931362
-179.0,-7.4936356537871465,-3.4410159121479276,4.052619741639541,5.496038683799266,-5.78922126421549,0.28708849387537183,-0.6380823101556264,-2.9451874336642514,-3.6474943879666695,-1.6311754655802142,-4.262247677953086,-4.219133534291411
-178.0,8.356348578489513,10.866176566275314,2.5098279877860827,-9.58436309507784,2.8921485250789867,6.674429068614903,-2.6928364618031306,1.22845454045242,0.5442616679920822,2.1969242803042603,2.6308248343961353,0.8281091648942729
-177.0,5.029744223470101,11.426054820922982,6.39631059745292,-8.279038394168294,-0.6497214658946486,8.900554940358912,-2.930241507306131,-2.6199358581925347,-4.274392846893333,4.871309530232773,2.6279049835283725,2.283801602421233
-176.0,2.1721881516236485,0.4232053243819891,-1.748982827241948,-1.2674663404817967,1.9843377468849284,-0.5932328000566476,0.6822450762450689,1.053669472992887,-4.236961481591115,-5.229017024278628,-6.807942671006017,-1.711925737763641
-175.0,-2.012174947420402,-5.417412876957453,-3.405237929537624,3.6700300608877496,0.716507418718048,-4.419667332202362,3.150397493043745,3.4615773948399458,3.7832482811030763,-1.312359543832779,-2.27285231173747,-2.101735431529984
-174.0,-8.776109174625491,-9.4659084089964,-0.6897992343717485,9.080828986546189,-4.021217300711283,-5.086204175202358,3.5059214201493463,-0.8756614819330009,5.908651120398671,0.4359945731214858,6.002053722013753,0.6847071185657827
-173.0,-4.11312105663655,-2.3626571966181062,1.7504638600175357,3.2821207751406707,-2.9828877028427896,-0.3157503155628967,-0.1852944737666926,0.4528804405222419,1.3270549880780491,-0.8793517276669338,2.578667810977805,3.877132308575588
-172.0,-3.8871703373178863,-6.520174006530441,-2.6330036692130214,5.254985195277285,-0.6713549707981619,-4.589459784193754,-2.826381809820846,-4.0216258233797175,-4.621055276362443,-4.51850064873829,-5.111258171507909,-2.130398485847454
-171.0,3.1856254628643317,-2.306183953108993,-5.491809415973085,-0.45887505713016774,4.378894733377428,-3.9171608768985764,0.673629840755029,1.8520087396843607,0.4410198213967882,-0.3069253970443476,1.439699462873039,2.7198799803912452
-170.0,6.214592722262409,13.528127136927068,7.313534414665756,-9.882150253386289,-0.5846908874178967,10.47463453249061,0.7033754650655659,3.427740261224603,1.2895902281476543,6.455441667819757,-1.2725305867627532,-1.1257271091450602
-169.0,13.181890762233873,15.46711758375951,2.2852268215267317,-14.32864379703942,5.492594896738411,8.844217915285661,-3.3047477524519864,-0.9237833004271259,-2.9514294738161153,1.3790306751416277,-4.955510071984081,-0.13680409680246675
-168.0,1.2653056473901945,-0.6555271723925769,-1.9208328197820626,-0.3059124645368332,1.6356786018411533,-1.32580033706303,0.05524822731643364,-0.8719054961048489,1.7216447658142926,0.949736778262249,3.1087195747446725,-1.437965931292152
-167.0,-5.462477238824132,-12.930151358192981,-7.467674119368572,9.1937415763477,0.9627748820810176,-10.160773443583896,2.2370400929208016,-1.4738818148986421,0.6150355529540141,-2.5352680700789363,0.518310319621319,-0.23862742253825475
-166.0,-10.861375068293931,-3.79843058483255,7.062944483461186,7.321148170358014,-9.007281259725287,1.6706250740269937,3.559807529865096,0.17969200678638664,0.7758855205958394,1.1089359683874669,7.23686567901021,-0.22125929032022157
-165.0,-8.228988099530774,-0.28439112219954765,7.94459697733112,4.238394655303743,-8.059445137735041,3.7925788446819317,-5.265004664704323,-4.248599513138628,-2.683707177214669,-2.45522074124057,1.7250673103199996,-2.8083916726827987
-164.0,0.26035887942255176,-5.323164698463101,-5.583523577886022,2.5811380091050458,2.942985793661877,-5.408242917687046,-4.782618784599122,1.5093419354856479,-0.422504365315049,-0.905218414023576,-2.4521627100912378,1.4538473572857107
-163.0,9.535245413697538,5.335584344105291,-4.199661069592493,-7.473868172228535,6.883375387678303,0.5371978407334765,0.16996328668604765,4.044123346779727,1.2095120829924977,2.202188742355525,-4.307479472234704,2.715731241337207
-162.0,7.62567704382454,4.110511796828689,-3.515165246996178,-5.833902601341769,5.504861140664911,0.2672888607894732,8.038263062292415,3.3214547592728527,1.8960026255006441,-0.9644139632134252,-1.1552409251857476,1.3230235159753303
-161.0,-0.2035880776407204,-2.6540024512355744,-2.4504143735948714,1.3825537765202576,1.1371875885504634,-2.585041381010587,2.93505972986914,-0.27474954212466174,-1.1644298538443851,-3.387736609825455,-6.6743726607343845,-0.29439519108218937
-160.0,-1.705906196783728,3.6375533962409707,5.343459593024685,-0.9307454258258725,-3.506709119169155,4.53212619355761,1.845386391310481,-1.6331870298641828,1.5454889020720368,5.01938053179447,2.079705040193549,-1.7338186627331942
-159.0,-1.7478670343515579,1.355044814034874,3.1029118483864697,0.2369245020517532,-2.4002669587259513,2.2661669875963995,-3.079669962947357,-1.9554926517889164,-0.09340148493178924,4.042383416592978,7.095827138218135,0.4668921650317297
-158.0,-3.1197709161899483,0.5368424247898358,3.6566133409797805,1.2593395120319388,-3.3546888495986766,2.052136841778963,-3.512318370612824,-1.3450300991178636,-1.6347410501422397,1.4605498610610352,6.54950860024363,3.1487207128386623
-157.0,-4.649126345156492,-8.132772413900538,-3.483646068744034,6.363369511456326,-0.6207284486832627,-5.77508101010534,-5.572085773660311,-2.946494251227287,-2.646728547584558,-9.614980406161887,-5.073205386770246,-2.7509197932083493
-156.0,-2.5416661112645382,-2.558124348945499,-0.016458237680715415,2.52381121302133,-1.2965679455642394,-1.2537682430015042,-3.3679353678372896,-1.286946818704842,-3.4495179661148487,-5.877053759442971,-6.85751343844059,-5.3682132189749305
-155.0,4.694448211758445,1.1930835868225542,-3.501364624935368,-2.8928726725143115,4.063780628781797,-1.1989335680814766,5.240329114238733,2.1747254821059134,2.020616120579078,-2.6317412693605604,-6.3283934116578475,-4.685411626009042
-154.0,9.98531706759955,10.802235013751377,0.8169179461520089,-10.425678465593895,4.625086486333873,5.763798181206106,5.243933833939928,5.788375249305267,6.531395230573123,5.758955110270785,8.230602032241475,7.688958525671872
-153.0,1.6866231934979012,1.508706291664319,-0.1779169018339294,-1.5554276987229207,0.9676549321403134,0.6951680734990651,2.9963595292465577,2.1754296667486623,2.5034743327225693,4.856884253108827,8.205443025285462,6.1567523461345255
-152.0,-4.580936624290482,0.5046374120715493,5.085574036361284,1.9982203508906036,-4.881772964767849,2.819709699339399,-1.2169237866985445,0.1873107886798473,1.2098208390948981,9.601499757950046,5.1601985690199275,0.4626126998967184
-151.0,-1.5188671945660643,-0.22086963460137332,1.2979975599638274,0.9077272862850987,-1.381519061450035,0.5572221219620836,-5.362467645268289,-6.872541335613316,-2.683088441305237,10.544021432517075,-1.2830995856537963,-0.6922941427800032
-150.0,-5.192780138807863,-8.445864008396434,-3.2530838695891755,6.780373134108633,-0.9441145965246382,-5.914506587078428,-0.2419755069666727,-0.6342924137241814,-4.082846229914499,-4.895569280433046,-9.41954775812102,0.5807908828157307
-149.0,-4.455521441412966,-13.224779014303602,-8.769257572890515,8.884376805242763,2.182730426894352,-10.98533996533917,5.43753250992302,2.339103555962318,-2.7807212895747098,-14.476686772526593,-7.2229863979166655,-3.813339169801293
-148.0,-0.9408611686439718,-1.6136612473187562,-0.6728000786738249,1.248509742384062,-0.18683754052338675,-1.1292155372893018,-0.6168670473922999,1.5568513498954264,-1.5229586808314628,-15.55090724602513,-9.454110396171904,-5.803973652453376
-147.0,5.5609829033096405,7.4304413834624246,1.869458480153991,-6.518892210524643,1.7919972579378347,4.671172281629483,-4.545637858429906,-1.6556161976100898,-0.14686783581823404,1.4176184971324393,4.796234355725895,-4.961652193008228
-146.0,9.083567372137923,13.966645768022667,4.883078395885833,-11.46574303858741,2.123268745934028,9.457321167635214,-2.1559827101533227,1.6985854605463035,6.655829322393181,4.38919320989532,13.305298558684184,3.401428939633225
-145.0,0.6578582665744737,5.929263499160193,5.271405232585948,-3.312150273633593,-2.285663258004388,5.567255329187031,1.5783221361041653,-1.9652921869850621,1.3931381799070315,6.434340548025646,6.911608499458568,5.125504759768077
-144.0,-6.331384475370982,-1.3489259987113824,4.982458476658924,3.81885998023384,-5.636299843243866,1.7962605393381565,4.594225100331822,-4.142207017872993,-3.5446012075619526,7.0984967165820985,-0.5016320383136499,3.8472779457299575
-143.0,-2.9044273880057183,-1.9069531463879552,0.997474241616527,2.378624957903254,-1.9285825963303964,-0.46559257688573397,-2.294862022908064,-0.3374848494233159,-2.1340847196808603,2.1428400984913933,-3.487088057375044,2.724999359865747
-142.0,1.4822770278396336,-3.742312246100754,-5.2245892739416515,1.1742088080217123,3.300715880449731,-4.488860140821963,-3.7181522238981906,4.419800882537722,3.7601654836355785,3.305037345541752,3.9493472435167805,3.8198114971850172
-141.0,4.168348412134838,-8.807305658743653,-12.975654070878988,2.277527153111302,8.602227373203835,-10.89581939572984,5.481392803912687,8.329846088289829,4.04094514732235,0.13938460087273163,-12.256819461608002,-9.947461630654448
-140.0,-3.289299146218717,-1.7309229949401468,1.5583761512788108,2.5412395773270475,-2.390760991058248,-0.014557369647523188,-0.47363392872541166,-4.2868888564032765,-5.0964992405979785,-8.535890019613522,-12.332622362802681,-3.692083613097898
-139.0,0.46747119370480505,-3.21277328323678,-3.680244476940779,1.4006020624929456,2.0281879265781226,-3.459085817302743,0.41204118337337764,-1.8672486654629226,-0.4436146379597643,-5.563132635403202,8.981550150205505,3.5534641084872387
-138.0,-1.96932549737214,2.879908991953156,4.849234489326312,-0.42837521333595224,-3.458157934436253,3.8446113681413605,-1.149519467828473,-6.293394754921538,-1.4387264324865932,-7.99808249317718,5.037715233224075,-0.6272932199866099
-137.0,-2.4731170507770313,6.525563371460404,8.998680422238373,-2.0781160400805723,-5.711338382452567,7.734160607830382,-4.726701833048773,2.538973278760699,-0.7720293934591738,4.724073942772068,6.8306487197376295,-0.04258624740634953
-136.0,4.073896389645848,7.021663237049818,2.947766847404102,-5.600020418939732,0.582441670236908,4.949740424102804,1.9534659463278503,0.6744983775557636,-0.24457294820021713,8.519007201274068,2.76351442043744,0.02584123036225494
-135.0,2.350040731334153,-1.1171115959889555,-3.467152327323496,-0.5912638761999571,2.9253502477825997,-2.2525759605317877,6.230399998024354,4.7203886597674,7.673339138737132,10.705133103238428,2.0669778518062296,6.477904237447364
-134.0,-5.12244751325961,-7.298894004549213,-2.1764464912902617,6.233724670489993,-1.4547261950211023,-4.6981653064925455,2.733411627416613,-1.3825071655580854,-2.0408952646825904,-2.578111706728489,-7.8823935476350915,-4.506981589532881
-133.0,-1.7533676847059159,-2.568523048147701,-0.8151553634423507,2.1816032331688855,-0.5238600594599292,-1.7267889465556752,-3.3439994045608943,-1.6173743195486923,1.1246327258712303,-3.1869687394704105,-6.308343249240366,-1.2144506523834209
-132.0,3.133145610057537,2.631326745652889,-0.501818864404886,-2.8636745704496365,1.849863961262249,1.115791152801324,-7.440591072490749,-1.2609735359871412,-5.695612256372939,-12.784675085058291,-3.828833318182988,-4.495634195201174
-131.0,6.652467073466733,3.1083337240457043,-3.544133349420859,-4.942147641073764,5.1390918021005,-0.2381047707919801,-4.265841328125698,-1.5095673484250978,-4.175836595940524,-4.857358743742084,-0.01472472895214283,-0.4355874811967886
-130.0,0.06337399007234223,0.7500961742985353,0.6867221842263989,-0.3907499328051456,-0.3440637047672488,0.7030124426840212,4.3070788621934035,-0.28347928036094694,-0.005121339073457243,6.4908034224524975,4.1660290620018054,3.9364056677168526
-129.0,-2.309852339749585,1.033856064306264,3.3437084040561524,0.6535177143109367,-2.858512496373878,2.173448114015931,2.30289745100109,3.1476565351336965,5.67720555706009,6.698890011817747,6.181119244561505,10.625172766522248
-128.0,-3.672776389476165,-1.126850048486416,2.5459263409899,2.4156074169266746,-3.1458056327139285,0.6893288979657287,3.8009298149107913,2.1047460099815836,4.461915153139447,4.577327338053255,3.9546700492228752,0.25268330173956155
-127.0,-4.533708753390826,-6.2177721761140745,-1.6840634227233364,5.314168263878092,-1.3913021867367847,-3.979114372869083,3.554700507510631,2.449416456409864,1.4720971583206213,-0.8363108014612521,-1.3482621118102198,-5.451638349351387
-126.0,0.4486884247012033,0.283112814348466,-0.16557561035295915,-0.3458431016901198,0.3303729395430841,0.10131978458829338,-2.8140024611477994,-4.0347601946728995,-4.0595227272065815,-0.971642484996576,-2.3235037856322474,-10.355111647644254
-125.0,6.7520811608088325,2.629217149771236,-4.122864011037997,-4.666107604925538,5.451657552840724,-0.7092643287410625,-0.8308878301841751,-3.691678808190781,-3.453426977347642,-4.863575665655969,-5.758806585215947,-3.0530733847723175
-124.0,1.7992487844666156,3.610219730270662,1.810970945803471,-2.6745883142982443,0.0024560957237942382,2.7478512189213813,-1.2818282705023571,-0.8037168553352689,1.0596903468188104,2.3258915166989738,6.736429773350454,7.172484169786031
-123.0,-9.833259885805676,-1.8493825418251602,7.983877343980489,5.798269625092534,-8.902120568682987,3.0299323709574875,-5.384231215086954,-2.332247574672914,-1.5124134151156556,-3.0072552920230335,4.0808674265809515,6.356191550602871
-122.0,0.1903852142364464,-4.620481960558871,-4.810867174794943,2.2546843518315867,2.4303239234271663,-4.745994371271739,-0.562053807172374,5.30722389113182,-0.8060346179484909,-3.8739261421874964,-9.133635272689693,-1.4850205031649581
-121.0,8.522956521685508,-3.4141379930866016,-11.937094514771331,-2.5925370513287014,10.243768887584748,-7.6982302172419095,5.728462917610775,6.052020538144258,2.261888508414902,-0.17635628451580732,-8.740135483355752,-0.8278115707626801
-120.0,3.328917155607692,10.49743797269452,7.168520817087675,-6.953756575877068,-1.898119919699632,8.817168854962448,-0.3432642361035936,1.5486352088912612,2.9853079942480583,5.356973147134942,2.792999230395891,1.3830152759750514
-119.0,-2.8406085970521446,1.802729787647524,4.643338384700399,0.551863240251893,-3.710407996580854,3.291107075491816,3.3162480920525925,-2.796005188611033,3.999341338330118,7.166787286621711,4.431148027844218,-6.9916731072161316
-118.0,-3.6908696486655908,-1.8093565257605557,1.8815131229051731,2.7765345039716642,-2.822452146686869,0.028723530186211654,0.668658485647343,-4.559915176790636,-4.876794291206684,-2.160582844984199,-0.08351029967247747,-3.002292769117267
-117.0,-1.5485331548079695,-1.1073498014643453,0.4411833533430849,1.3484626585036592,-1.0203813692348045,-0.3388511841887708,-3.516330482337395,-3.4558924641249615,-3.4266042034893185,-4.040088321289356,3.753736349072682,3.2860505662287847
-116.0,0.9994160582066407,-2.9679680146426652,-3.9673840728505985,0.9223248749792972,2.545686933221767,-3.4735233780022092,-2.798737169229539,-4.653438989451094,-4.439731446087265,-4.684298932177782,5.2832022844590645,5.879788043671963
-115.0,-1.1357817810337274,-2.4149004072307667,-1.2791186261982943,1.7915118147417672,0.0610562290596155,-1.854494815300359,-2.3940823448148105,4.362455245359861,4.113520463993766,0.6060635266908361,5.783427033278607,7.698733218957158
-114.0,0.09281654892650745,-2.8293231975133923,-2.922139746440512,1.3869954016889179,1.4983184865371824,-2.886129036945155,0.9780707250672543,6.065562504971993,3.7563225461773997,5.319237622433181,-3.0192846916249825,0.3444691249127261
-113.0,5.061695435684697,6.108682507076654,1.046987071392181,-5.561377866733234,1.994881836905424,3.56372989731522,2.306134187882748,1.4882915625832092,4.969169369988094,3.261241723167012,-7.736614420926216,-9.35280424119186
-112.0,-0.6530377535166103,0.9383052296927046,1.591342983210145,-0.19134828225370715,-1.1419147783267272,1.3254712583534078,4.528506258258645,1.22715179459297,-3.2416572298459743,-3.2565265743027907,-5.786819267581107,-7.978281716853154
-111.0,-2.68688176083827,2.9129771539057914,5.599858914745108,-0.07725703244617699,-4.172307027081223,4.234319064836304,0.46706780718267016,-1.8507520211603883,-3.5269810071737067,-6.113063609541091,-1.7328936269102395,-2.3463150751261863
-110.0,-0.1266754708844675,1.241097592597423,1.367773063482605,-0.5963233696160907,-0.7060529418873456,1.2783204954021958,-1.2096542369854952,-0.5503729281321872,2.50062324717658,0.22323544449436739,5.731846488586933,7.204038147609472
-109.0,-1.6158267550002676,-6.585069338556361,-4.96924258355609,4.141178876144111,1.7119144107932243,-5.728754070085247,-2.2124384132905837,-3.90952590045224,-4.5408785788711326,-0.9560185108038358,1.678231736830214,5.886318076486274
-108.0,-7.169249190693981,-6.87012670175706,0.2991224889366664,6.97997098672737,-3.701430126555791,-3.3203758917565978,-1.2629996004060244,-4.625976044435154,-6.67186385196742,0.1875326388220745,-5.852348030983988,-1.6280647526391725
-107.0,4.766164656917024,3.3719754986054555,-1.3941891583118622,-4.03377455280208,3.034603673536056,0.9495128928553913,-0.25972611604682494,0.183867822124548,3.6145468968836325,5.0145678762035475,-8.564509258330549,-4.417755701109638
-106.0,13.069044690952348,8.976794707223307,-4.092249983728974,-11.070851131960943,8.5367996178279,2.4778906792657693,-2.943937164981219,5.277941887506138,6.924738589718511,8.791922435360462,3.5413168400236303,0.4359813769297214
-105.0,6.328849971989802,3.493679792014857,-2.8351701799747304,-4.884217506006322,4.61839159157431,0.3627765331426134,3.5178458390338365,9.107008935030592,9.358422474578068,4.836883696680235,22.228061432920917,3.91235119305086
-104.0,-11.705364102926936,-6.9044936050930925,4.800870497833891,9.330045222635253,-8.29503562335395,-1.096854733484826,3.252821674424262,-4.267189969111789,-4.52920026941938,-6.697070637336391,4.1087905499267565,-1.8004250878376507
-103.0,-10.700022271182915,-3.0511933721722038,7.648828899010593,6.90113651891358,-9.137980920076988,2.3349758152483333,-1.9631277679680736,-4.0911233476968,-5.819431792821535,-10.498183629026846,-7.469055448196776,-2.3584497945905505
-102.0,-3.0807927026612774,0.07573980782397616,3.1565325104847495,1.4519134558543847,-3.082571140249228,1.577477537786923,-3.9837793111607884,-5.14394334403541,-4.174725989341763,-8.575492918280634,-9.300666951854609,5.5968286389935695
-101.0,7.300719098257481,3.2281081552285484,-4.072610943029389,-5.310769781487707,5.644725866793335,-0.37815655241941,3.1390315031556,2.302083554896201,-1.4458412342153744,0.9142007558028418,-1.5965159410252294,3.7605137809160816
-100.0,5.90372029405499,1.6756815826611056,-4.228038711393932,-3.7520909708028514,5.026471161241925,-1.3084483659000048,1.3923167102395575,5.003747926349144,4.714441358168534,4.980070884639935,3.8994182510617303,0.3218611153208117
-99.0,1.6511449621472405,-5.351088009347944,-7.002232971495018,1.8929534637316001,4.370472975358231,-6.130876741015385,1.7323732892881423,3.340934509455844,4.205566104355691,9.909798784048569,-1.2259551978497671,-5.464254742841678
-98.0,-4.7643920771213795,-0.5392867618481035,4.225105315273575,2.620546828511178,-4.44534729520119,1.805481978562808,-0.9024590132342175,-2.3338339038297544,-1.2995298545931355,1.8877262400632686,-7.633901323356968,-12.289104555352282
-97.0,-1.3131303920331674,1.3302522347464163,2.64338262677977,0.041197419351803655,-2.0023307583292764,1.9416892247847068,-0.7140799204503185,-4.537145935719171,-5.347351256243188,-0.1462443804641822,-6.41922054973992,-5.814625907965709
-96.0,2.5785320922771993,1.7758537402082062,-0.8026783520688943,-2.207153317451773,1.669610358164554,0.5110440666728326,-3.6056068125415615,-4.1841774858271625,0.39325574588889856,-4.972687527386797,5.79745324021939,10.781611000715253
-95.0,-0.1645751450320416,3.5424912127856905,3.707066357817974,-1.7233961612248472,-1.9573740756981828,3.641134824206985,-0.6337465342388526,2.1673310516308675,2.739919139828132,-2.0909069220622456,10.549899006037652,12.658661133659317
-94.0,2.328215132771093,-0.16422623047710272,-2.492441363248164,-1.123294419077241,2.3841904472360005,-1.3166294725329912,0.5061459400651535,2.6859501529341503,-0.030334819147782355,1.9434507701036106,2.9913045686734696,3.76107822363129
-93.0,-2.835503809654533,-3.9134566009379332,-1.0779527912834739,3.405057523115269,-0.8339519696719144,-2.4838548359707913,2.817151014820153,1.7456357910333806,0.767419066916768,1.242662470085509,3.7427669288245475,-5.356537665796121
-92.0,-3.3047077191968084,0.29476587588052716,3.5994735950772263,1.5314120896286711,-3.4166248637288037,1.9637858662526102,-0.44019222766473076,0.3657735151643362,-1.211982245869439,0.0980808670893889,-3.7714658695007324,-8.442700207633786
-91.0,-1.9068030626588839,0.026772388285834614,1.933575450944479,0.9669237189280531,-1.9726025117929002,0.9261644427968612,-0.9936252999235663,-1.3940381143427825,-0.4437208278638388,-3.0767031672374934,-9.214711876290373,-2.1516240623844682
-90.0,7.776837605335352,3.669977871091735,-4.106859734243745,-5.69137846563937,5.9607219256056805,-0.18440963290136056,3.084533652437436,4.520132292681064,4.58123203423961,0.8832518547380075,3.4363397227315633,3.1154589388262828
-89.0,-1.609913697708127,-1.5029812423257591,0.10693245538227858,1.517678175938166,-0.8444816721102719,-0.7341607446876152,-0.05643912368156734,-3.406343820622781,-3.0618064133385885,-5.596515747330359,-1.053404512806901,-1.2318820162253128
-88.0,3.5945114286667756,-1.3860415986006736,-4.980553027267724,-1.1350542776323593,4.29943774617152,-3.2129017382573175,-1.6740164685860996,-1.7616308311463016,-2.077130406899645,-0.008474850052479277,-0.6724134013188596,3.585126591934502
-87.0,-2.5660481743203967,-1.9804189102006466,0.5856292641194836,2.247817167839038,-1.6417491152969286,-0.6444998604251586,-1.4776948040938005,1.275504703013494,2.7639620762737165,3.8003962912418303,0.22131288628375012,5.9264782647292344
-86.0,-5.618298057253579,-9.035552262957774,-3.417254205704416,7.3819043475509645,-1.0838163685098,-6.172930262845653,2.7299871071265556,0.12212217314630369,0.11574007701857159,6.2704734559283954,3.238948387449232,-0.6230720136174481
-85.0,-4.196510325042228,-5.6177665855184316,-1.421256260475836,4.881745281572389,-1.3642885985728077,-3.5476229457685378,0.054513930791895704,-0.5406768331598658,-2.1855715222522636,5.5938640341798855,-0.7781699128049668,-7.0670052013168565
-84.0,4.70310566951054,18.878989626183166,14.175883956673221,-11.819485474626433,-4.7041553491346075,16.493145395543387,-0.47607550781868424,-1.648373576332335,-0.8760609831871526,-5.588686351771803,-8.402988210785761,-5.091299555430089
-83.0,6.211194421450981,18.96069439511099,12.749499973660436,-12.537712508148369,-3.305565957419326,15.812067339081533,-4.980651838738623,-3.833789595963376,-1.7165843824694638,-2.2096105232820875,5.036711879018975,1.9815288793548778
-82.0,-1.8655515740604178,-5.174626700725499,-3.3090751266649967,3.4904059946541866,0.6950653134087702,-4.215708109871324,0.38480234896592,-0.3394045796810903,-1.183865125755143,-5.40840202217271,3.055994329750078,2.609726400265775
-81.0,0.143590041861528,-19.558477594143106,-19.702067636004916,9.760961775462391,9.982351468947824,-19.612245304920577,2.3993072045065795,6.065812467610321,4.847972728805081,0.551185846620041,1.0850514747661941,0.49719594438981396
-80.0,4.643528525782548,-7.507986555785987,-12.151515081569013,1.4141672453869836,8.381810268810233,-9.816331128990603,-1.111121521991596,5.227400525640706,1.392147676669835,-6.5995743268072395,1.8050676824034737,1.7929271762455015
-79.0,-7.9832944447014365,0.4316524741501597,8.414946918851074,3.7654291280395182,-8.21635538767923,4.43656323454413,3.8994601146081993,-0.21092676148651268,2.2598246349005264,4.589814675182118,4.4833773904447325,4.07488313175195
-78.0,-1.3068885128164598,7.374027683707197,8.680916196523308,-3.0385345863029487,-5.017761092094319,8.044509824314447,2.824870594134436,-2.9800269581484535,1.0626591212519974,10.062926715213814,-2.0964044042349546,3.5649080513940046
-77.0,4.092682359626687,9.127606527280403,5.034924167653749,-6.614198138024506,-0.42680271766254485,7.025592415784917,-5.122417974100649,-1.888849456380271,-4.111536967114086,2.4471749612158264,-9.623240116946675,-3.5094650987554763
-76.0,-0.10233047645382531,-1.560828275722371,-1.4584977992683092,0.822916968400512,0.6313289444029122,-1.4802797676183257,0.5373637068710071,-2.5315268057531872,-4.69097332767156,-5.012242123155722,-7.859170074123909,-11.755691737036258
-75.0,-0.9146545096622041,-1.6318133524284382,-0.717158842765927,1.2550308331973785,-0.07810387635479699,-1.2187343994082287,0.24863449571229146,-1.1656871298444917,-0.18658296652598017,-5.704533735318763,0.11526255604973779,-4.096638537122951
-74.0,-0.7848607646926995,-4.603624215133075,-3.8187634504399828,2.7422702136497037,1.5297304758987929,-4.173149304173688,1.5154397622921698,1.7039665107417523,2.855347524119261,3.1433631660464316,12.369315062672793,7.624013194426696
-73.0,-3.7914232327272597,-4.73877600521822,-0.9473527724906279,4.221540231007966,-1.4120143344417702,-2.8811444167442515,0.7863963367470036,0.3846290806030206,2.3593800009646557,0.7830792471223889,4.497391995810554,7.4033818684476485
-72.0,-0.04240977699884879,-4.0978884498796635,-4.055478672880676,2.0947160245964644,2.019225381547889,-4.033095105894187,-3.6554805268160004,2.9687484966781743,1.4553394446450212,-1.1625991420695638,2.099092833192583,2.6017814781311808
-71.0,7.993675936918867,8.68022195293219,0.6865460160131329,-8.31912129690225,3.59464163138311,4.6524856189338895,-1.2165225952201881,-0.6051696264807065,-1.6667677649979975,1.5425913893447667,0.034005717384513634,-2.8232996711498486
-70.0,-0.9962767176858462,7.590335324003759,8.586612041689197,-3.2816469222834113,-4.761890561311795,8.142218967974255,-1.279105746040845,-3.2388929928710697,-3.254216414085678,-2.085188908131888,-6.435231317959762,-6.139182801799358
-69.0,-3.6615244102236977,-1.8970466090585623,1.7644778011646758,2.7169449417590203,-2.6733675432754227,-0.08447609281672452,0.7220215302524202,-1.7285222097739683,-1.4372628086099752,-1.0867274162940819,-8.47440438206974,-2.6138908590884697
-68.0,2.6336485559919995,3.526291391989018,0.8926428359967734,-3.0607274904143673,0.8397857822275263,2.1975586484917256,2.804675913825007,2.9895053029492455,1.979424668786938,0.8427866492180767,-0.440114210106751,0.25455196256543333
-67.0,3.210247429180127,4.684168595075569,1.4739211658953622,-3.9253013970449624,0.842844132812254,3.0713326021736123,-0.30328578665546724,2.4682412841632106,2.0683742558658844,0.5277703181761545,6.231594305851491,8.967479256796
-66.0,-1.4615058454755216,-6.506439585646712,-5.0449337401709435,4.006605838499193,1.7684942061269235,-5.782266814688233,2.1963973255988787,2.6339571649890146,1.2632604405663255,-2.7704864283639488,4.596175994752041,5.676518152524315
-65.0,-4.2062576547342605,-12.179107578251237,-7.972849923516604,8.134243853380141,1.9382969187503403,-10.084483689576036,1.818016594126809,-0.39092798253460004,1.3138075155887066,4.020204476314639,7.5684890551183965,-2.235053681109857
-64.0,-0.7046264575985166,-7.870202197660333,-7.1655757400615006,4.302266370053159,3.204761205686139,-7.530452162301061,-0.6528988960848506,-0.43129224908573016,2.8878934777229035,4.0797711194731345,-8.65337010709711,-8.745698549016343
-63.0,-0.5507691295480667,-3.6508264615377044,-3.1000573319895013,2.1081428373198174,1.3254102520160953,-3.31409048122134,-0.3568481935191208,-3.723724650288852,-3.566999742997658,1.2628853604005001,-10.215518880187,-9.664954410294934
-62.0,-2.210841233186105,7.71031024597087,9.921151479157023,-2.74985522417686,-6.095884307804446,8.79387461544393,-1.8442477058553022,-7.003566681047705,-6.301126893300971,-4.835511005511809,2.2930044431779555,-2.150842359671005
-61.0,2.7503054225426586,13.314109809147567,10.56380438660485,-8.037171624540633,-3.9379735312311888,11.913513151792365,-4.85228568450775,0.8153054296472635,-3.9543730728544815,-5.633289538126493,7.509856510630812,7.032075623459958
-60.0,-1.5797165105780584,11.846480747534759,13.42619725811257,-5.138193106204896,-7.4562031894815215,12.686661790526461,-0.2494898861211856,1.6690760987327926,3.5708074777511936,1.4865517297664137,-0.44694114214805625,10.38825817005577
-59.0,6.986175604963654,4.34748342229193,-2.6386921826720435,-5.665046652211826,4.7803140914569155,0.8228154400395891,-0.2910885655385156,2.58730304119062,1.2526456036923994,0.664739249236913,-3.1744191930493466,2.560398767352119
-58.0,1.464477479377479,-9.643514509118328,-11.107991988496035,4.104277963886423,6.254924175951132,-10.411513076137553,3.449949837933044,9.425434469234746,6.910327475316852,2.439608223465682,6.90993438023086,2.4348010147229964
-57.0,0.6283298004609021,-15.032874190786663,-15.661203991247643,7.234596240726912,8.194274490402657,-15.30979629751386,5.701612311846933,3.378181644098647,5.642932081457623,4.920377919262012,-2.3161114442637736,-2.1090071035703115
-56.0,-6.97163311001773,-5.678018221019862,1.2936148889980092,6.297291940042791,-4.158522934355503,-2.1622715374094437,0.5462525338000965,-6.087557573628481,-4.085102088518907,-2.997132498821771,-2.176074512570921,-7.443182060179061
-55.0,-2.0312438329544276,4.837516702921178,6.868760535875848,-1.4143864309477054,-4.393150516029714,5.796022607306,-5.11451949686594,-9.236173285347093,-8.4569826717731,-5.3141241605336225,-9.125074160276732,-7.804147434529603
-54.0,0.9559821750465392,4.397076213629333,3.441094038583058,-2.6776300267677504,-1.2610655724899367,3.932499852340666,-2.0849845090979158,-2.110256264760195,-3.6327456614676015,-0.556815182193537,5.254969960589861,-1.729308144542813
-53.0,1.846090324425701,4.481708713297849,2.6356183888723086,-3.1630958698250335,-0.4119836133835646,3.5652565190820558,-0.04766140640070837,1.6751709260069911,4.0965607849968135,1.6279833435139923,7.52748543140959,8.246562647933317
-52.0,0.05948076871560848,-4.675032432216477,-4.734513200932102,2.302139240786818,2.37799213748774,-4.702365720833645,4.503707363563945,4.028023486286605,3.093420855287738,0.5487304216348466,7.054025772433579,5.308264802435422
-51.0,0.3683195220383171,-2.909550800928992,-3.277870322967506,1.25212947505427,1.7993892847169455,-3.092091312084894,-0.8051604302282056,5.261465724872602,2.7987615697571906,7.072201173606229,0.3847382024796011,4.370209304420748
-50.0,2.604655539537289,4.779701704436519,2.175046164899057,-3.647726807124929,0.2636721521187988,3.481604156050261,-1.1890973996122653,0.17383948457414355,-1.2998469754837467,-0.7961615344756463,-15.914932623160638,-8.357803740602897
-49.0,2.568942065109752,6.788811331299339,4.219869266189423,-4.727916105757024,-0.8607316391206776,5.513789806962712,-2.719107844131249,-3.4513117092095316,-2.9834464446406894,-0.6289459022080566,-11.028805575819707,-7.051746199879518
-48.0,-9.243166446755106,-2.3832822196216,6.859884227133397,5.832787972453092,-8.010378361661393,2.2542700434854184,-1.144998791855309,-3.120437995058677,-2.0052294459388684,-1.753969243876497,2.042452551796443,3.8022319705264773
-47.0,-1.506288181260241,4.278045983284302,5.784334164544431,-1.3698516005918755,-3.680803775927025,4.974897980598394,1.2033427407551183,-2.0654160527177057,2.05351996084,-3.117831828667953,12.901713895505141,5.306152173223314
-46.0,3.229398289596248,-6.38171543658129,-9.61111372617752,1.5951563941666578,6.470046979669477,-7.9683526123488475,5.101040986706861,2.751309634862002,4.891002062524531,-3.038463524507697,12.428041339921553,5.38053314308799
-45.0,2.9419467014715006,-9.919659749729623,-12.86160645120101,3.5151378779365503,7.882267605459648,-11.436748777174424,0.023660674991844655,4.40430693619974,-1.7467579278402954,-3.6071252086025773,-6.9623378877574815,-6.77553670954709
-44.0,0.7587103277485658,-2.090603281578983,-2.8493136093274245,0.6215593424971309,1.7943173207253227,-2.4334217710614903,-0.4333909140159046,-1.889146504717429,-7.243670982286463,-3.793712586846218,-3.6082325391215306,-2.8627881229202354
-43.0,6.964389530551971,5.994614398191573,-0.9697751323603412,-6.5185635060140905,3.964764867133686,2.5525363222489075,-4.016751807644646,1.8706793466242733,2.597027753570282,8.073654983761827,2.120956870302967,0.6092776596291709
-42.0,-1.8748572955263387,2.5753915629943265,4.450248858520654,-0.3103275977403781,-3.16210441760576,3.4772770108289786,4.077886429365671,-0.965418747934714,3.951299073136728,10.917623107532279,1.3078699087329677,-1.2889589367470453
-41.0,-8.707655567796186,-0.08665065072224465,8.621004917073865,4.3531609667539275,-8.666607584693958,4.3121876300204045,-3.2552437023531655,-3.8069215928858893,-0.7958216991118243,5.621461253092228,-10.006734006916455,-1.1859606559899025
-40.0,-1.4666676458660004,8.132547537666278,9.599215183532207,-3.30726736223623,-5.542767613820089,8.831637036788479,-1.7164014314351181,-2.7405936645509428,1.029651981158033,-1.6404703512828078,-5.2743849931353015,4.088367829861878
-39.0,-3.817347301907094,0.4124201139059003,4.229767415812992,1.717827934326031,-4.043755201277022,2.283504267989937,0.3047386256109786,1.747687831247779,0.609621966499762,-8.045142435836343,7.546195100926456,3.298007612653679
-38.0,2.603352747955265,-3.3059385061588387,-5.909291254114068,0.3579451883674253,4.304368178025344,-4.572073442174946,2.145419591926029,5.81291034508157,1.8960576551214987,-9.197869939012286,4.760860059380608,3.344209463075172
-37.0,3.0118064631921833,-3.6134842673800436,-6.625290730572231,0.3024718266592441,4.779702613792438,-5.168718901778487,-0.27022355353191396,-0.533741597820474,-3.3250022299915134,-5.130142562867639,0.7527486500108482,0.33713288988601275
-36.0,2.121638451165048,-1.8900944972132603,-4.011732948378244,-0.11451682073607905,3.102301750891926,-2.9256924579206034,-0.5469781593679793,-4.547383709313645,-7.796842158154273,4.150175894802601,4.8115757970419315,-9.070911591332047
-35.0,8.1802839329778,-1.5407895690206916,-9.721073501998461,-3.3143777101079164,8.985897571016814,-5.605900125997526,1.0589009380382104,0.99320693468839,-2.5146096177702995,2.919535340188231,-4.907949120985208,-8.770890932036936
-34.0,5.684960702241595,4.18258518833127,-1.502375513910314,-4.999463548622837,3.552324650083678,1.3696660336907742,0.570054523560703,3.2702000931156876,7.849009191023148,1.213942948297305,-3.2009959191829322,6.335807653662371
-33.0,-6.954152744945202,-1.327461989982111,5.626690754963115,4.163773014920411,-6.329026911093457,2.1084789931716936,-0.2560079970708755,-1.2759679868249783,4.385808458234809,0.5996356620478767,-5.427671915272658,4.923095211702751
-32.0,-15.205600095226046,-4.9194567676227665,10.286143327603295,10.095941540703246,-12.704391789745689,2.729676600788873,4.264335624152272,0.16378278101785004,4.431491308926761,9.318560218425914,0.9099193366328775,3.3356226569094454
-31.0,-10.022743178329755,1.8931858573266869,11.91592903565639,4.107198586699104,-11.007930648903354,6.877976871955426,-1.6242469044089285,-9.02753479952064,-5.643126901764283,0.001973472697456735,4.794869293364431,0.6831739917041051
-30.0,11.916385946174277,1.8120995695970625,-10.104286376577313,-6.895112025056205,11.046168826443793,-4.172635274103658,-4.5252983662579656,9.09800641649371,-3.2752557853742523,-3.3497548986557844,1.3617169042257005,-1.5563743691617655
-29.0,9.423749219801614,-2.611245956958808,-12.034995176760491,-3.4368939319490703,10.758357143181444,-7.356560450703875,-0.4562007128109249,6.298117451410686,2.929636481047841,-3.043981698914919,4.243346937379814,-5.336689862782453
-28.0,0.07509033322093295,0.3299589767403165,0.2548686435193792,-0.23874168040249621,-0.14796600370465107,0.32501603545243407,-0.09812331589525636,0.20527187082447806,3.0847128617811794,-2.227518970296104,-0.89931947370151,-3.347944984858079
-27.0,0.19713503408566302,15.28261461471626,15.085479580630695,-7.7077619639988715,-7.431840598699464,15.201177974964839,0.48451831967690195,-9.815241121557449,-3.464540558494459,-2.096132192517553,-0.6663066668955481,3.7559412597471025
-26.0,6.480870428273077,1.9593082530257306,-4.521562175247192,-4.200967983117131,5.5067553786865755,-1.2782406690095107,-4.393017380800623,-7.413596830723312,-6.3400305380506286,1.4170983290051524,-2.385706235522014,6.799018755570782
-25.0,-7.354672006278911,-4.179455081310558,3.1752169249685274,5.773502298508024,-5.263245543144626,-0.5084750509303001,3.438717081090655,4.8908545390291565,5.2913330958353395,3.7847979624452526,-5.7200309584089535,6.1088566145271805
-24.0,-7.255217711667669,-11.855380458227907,-4.600162746560121,9.552033290904465,-1.3258660434301988,-8.23576103795114,6.052276795795513,1.5370733060688822,-2.476904502532816,-3.0652449663564854,-2.8777312165111075,-7.27358017036652
-23.0,0.7217822645044825,-12.120309615202988,-12.842091879707525,5.691158442545612,6.787372110401303,-12.482360731731642,2.292009880848366,6.029018527322897,-1.6229575308691473,-3.765999007388166,-3.5556686216598545,-14.44060636848194
-22.0,5.0221560030267804,8.491784758299492,3.4696287552725353,-6.764170908608606,0.7884106297048732,5.993746172802171,-4.445138815890617,1.7586098647209072,1.996742181195066,1.4020489862321748,8.640542765692352,0.1321054861635469
-21.0,1.6553325842775837,4.717626267562876,3.06229368328499,-3.1871451580509205,-0.6831550141241358,3.92173011287581,-3.3279717622042764,0.4382660051540621,2.4425736522863213,3.2150695509834075,12.002746592429602,8.535337952073949
-20.0,-7.835831255960864,2.586064427426753,10.421895683387365,2.6353975155658103,-9.179182775963621,6.476300171661544,1.3761169036169458,-4.750955294757327,-0.334226990658796,-1.5886378371500944,1.7138524402236985,3.184232098380157
-19.0,0.5613023470083975,-0.5050431953022905,-1.0663455423107067,-0.0034644273514383706,0.7704642798294379,-0.797612235013224,4.184366233072327,1.0646959627422015,7.503212008145617,3.5784384218556067,-0.5855114730413247,4.473352748330186
-18.0,7.678830122827755,-8.599269341822483,-16.278099464650126,0.42115977837483154,12.01928183381117,-12.44154511373652,-0.02349272664279667,0.8602314715625938,2.3166209713730765,5.881636708565591,-12.25841952817238,3.817807083214732
-17.0,0.47175745339892483,11.62308158112332,11.151324127724703,-6.0727600071082355,-5.295028454762001,11.385294538863645,-6.289554357286071,-3.494110986675959,-2.8234376498402667,5.184268060517026,-3.8130355030742544,-1.745421963499031
-16.0,-1.4933910101195988,15.473392269602966,16.96678327972277,-6.926102105696809,-9.26166489712789,16.21166838498673,-6.4818968955668534,-5.122954829730584,-11.118716689731507,-3.027639639300335,3.062199350814661,-1.386528955714162
-15.0,-3.44526706901483,-4.49691241980314,-1.0516453507880419,3.962102229690208,-1.1491644414352273,-2.7943520754697033,0.22195713521285665,0.5865883819495681,-7.191975712869445,-11.567108961209689,0.8419076340257052,-8.245089240950719
-14.0,-0.9504050546373325,-14.759181491197758,-13.808776436560082,7.846430429441953,6.395976614330239,-14.238951804581339,6.505756876884086,7.307884048119774,8.569904482204514,-7.31511365564271,-4.02727852322795,-7.5484714947267
-13.0,7.45285744883424,-16.138109368090685,-23.590966816924166,4.330071635933527,15.483755671052089,-19.8322028311621,6.764255130657009,4.277630704683326,6.486913264064143,-5.197788074541001,-7.364629919308494,-8.511301019951743
-12.0,-5.487001311289328,-13.549124420422155,-8.062123109132418,9.498092563036323,1.3210821030488864,-10.861802741712967,9.743061473214718,0.2670173117304375,0.2666334677679769,-1.365427868880778,-0.07416892477968196,0.2498041335698058
-11.0,-8.759038312757239,9.119125153743035,17.878163466499874,-0.2081380056022799,-13.37115123908213,13.515070771407633,3.225394592217317,-10.203419093458896,-11.35673803039272,0.10337171786772714,8.258542428860034,11.852961792063388
-10.0,-2.257949252457582,17.067440315161956,19.32538956761781,-7.360228192827893,-10.770477904590862,18.20993201134604,-11.092077915931032,-4.063820999304854,-3.3641547772633054,13.344467608754924,15.522351055141625,13.922368655550098
-9.0,9.77067341273267,35.9820790605479,26.211405647813017,-22.83418816773985,-8.199620547083878,31.109623093934783,-16.473178788781794,-0.7802905628603853,4.787433757480402,23.571473134450315,19.760342822170045,22.484609495897256
-8.0,14.139628293196434,3.2497904124301513,-10.889837880767903,-8.729702907565098,12.540437097717511,-3.885235551193057,-10.094860602856235,11.57871851291107,10.882730259634682,11.60412314819672,-5.38104462591016,0.8936053196917122
-7.0,6.669767395403873,-11.476812059831563,-18.14657945523598,2.450927532147379,12.443061752762402,-14.796799571647417,4.2956467519642585,8.859569513242459,5.968713682254357,-16.03526633826641,-21.42371477512148,-18.16499584348346
-6.0,-17.613366758267365,-14.492486695489989,3.1208800627787507,16.024281977255203,-10.40049593699233,-5.668982113317426,5.610713272955918,-12.887974630290202,-11.540614518812573,-27.605120341905977,-18.302534980425822,-21.30300165965439
-5.0,-3.472218367788738,-18.50401711524403,-15.031798747452806,10.958274801807773,5.754694176148978,-16.748525772019853,7.040744722391673,-4.526145832812147,-6.90565261670198,-9.550574842061948,-4.391877232061905,-6.78175919226876
-4.0,-1.0282399177500752,-26.150019976663646,-25.121780058910723,13.552629864475332,12.025121602518418,-25.61340178811046,18.113110411455896,11.778781690013068,8.730335315254251,2.1406020004677604,-6.348076191352112,-12.487134954127296
-3.0,3.1804297339808705,-13.897808394809022,-17.078238128788293,5.389378556700876,10.10569620591904,-15.54098226886818,11.90628823952292,18.82940134782369,22.72313129159761,10.237642141709033,-2.828999755353833,-6.4216690593569385
-2.0,-4.915349259939751,17.363804042917135,22.279153302857345,-6.207489917785287,-13.547986705360795,19.850217447345134,-4.707588112530791,-8.851500636522072,-0.46343739292118435,11.171052208785788,21.49618743562165,13.39157768679868
-1.0,-8.792823826598685,35.776873397138374,44.56969722373615,-13.48805680311239,-26.717489719101003,40.12549720793801,-18.644638227185773,-28.04611226927709,-19.553421691376204,6.79207451592031,23.891582131825853,28.652971908823325
0.0,4.773192628610482,35.501833648220185,30.728641019608048,-20.14167582719255,-12.939863725078366,33.14762113393269,-13.166263892309761,-16.909743498234377,-19.693710834501484,9.545706056638304,24.13997934951295,26.171707936699576
1.0,-1.3326044261213683,1.0624154917801913,2.395019917899507,0.12976461866491107,-1.826834952293901,1.7618786958418458,-7.77294982644702,-4.605162104422327,-15.942934286581835,-5.210798970526491,-7.357585464413196,-0.962670415312493
2.0,6.0739556680538955,-26.21808434834723,-32.2920400164031,10.073108079808367,19.143845031524954,-29.300325990594462,4.188627554929008,23.340385125632857,4.7269556736630225,-14.880827585504344,-30.860013000610568,-19.24892589362844
3.0,14.430378277960227,-13.14599371807498,-27.576371996036368,-0.6285563975567285,21.047071919776556,-20.327738575734188,5.859474039754124,29.18961953936338,22.706518219215788,-9.322751027946758,-14.05688527453772,-9.26442770453479
4.0,2.605962889547423,-1.402619728168613,-4.0085826177159305,-0.5721302663710457,3.2750379241687426,-2.751350593588011,6.011844141129075,1.4672205039868604,18.779462340508633,-7.942048031757116,-6.233150215846672,-0.6336812740212245
5.0,-0.663428751556542,-7.662194219032807,-6.998765467474911,4.129083799338303,3.1348266960347546,-7.298408208484448,3.505015371515693,-4.527673180763372,5.210589778144291,0.6991167529808169,-1.114774749500003,-14.099030357446582
6.0,4.642244382620012,-5.062366213707957,-9.704610596325754,0.187845540830339,7.136095847859576,-7.352874726132683,1.0930533912651974,-0.5022199711168769,-2.9192587176722884,4.893169693514031,-4.942050475843972,-20.03891138873821
7.0,0.38197385579997434,3.63957117469956,3.257597318901629,-2.0278204332695084,-1.403278229952397,3.3985631142110337,1.7188842946041227,-0.9113936241791869,-1.4676150940563106,23.39000277485835,15.73600855469037,5.2019248305768
8.0,-16.373387504305093,4.557636143762709,20.931023648068994,5.967760861064317,-18.624199204137042,12.771121750418585,-5.515965940453789,-24.40841021604468,-22.23680036771851,5.653526639168826,14.766351829060483,14.358756110760261
9.0,-24.494321773351317,-6.789880910701527,17.704440862649818,15.61553778918456,-21.074783207122564,5.404034136514985,8.253390311527468,-13.109651385457441,-9.43895603252956,-3.364581397031553,7.940853954637696,23.108480068859286
10.0,-9.8237506248512,-5.1708856537524746,4.652864971097426,7.45955634131071,-7.291169972109532,-0.23327984195357843,4.139211448105986,4.877844029841156,1.3861268560112459,-7.562188839680678,-3.953273685982346,1.4619952050585603
11.0,8.582257361150262,7.555546382301417,-1.0267109788503201,-8.03968478768663,4.8361390403743965,3.292510456823097,-4.841684142430017,5.4976991144417235,-0.17917085188393145,-17.744554052846468,-12.717420362582029,-10.487513549050984
12.0,25.45676803213684,20.176765487133437,-5.280002545004964,-22.797247429629582,15.408385926806009,7.480910049901303,-13.111012751520873,16.19711757441278,14.915508441780938,2.7662142735770914,6.050933448942004,-0.23291631449715222
13.0,23.048708379295498,22.026352171496306,-1.0223562078003177,-22.523959518073557,12.004892858740162,10.46138177733614,-10.309408960956645,18.158311672775067,27.23302420626023,13.35504632888811,-0.920154121573594,3.85816112328126
14.0,3.4982225128899813,-10.624183898884066,-14.12240641177467,3.5747645524867266,8.78495720571074,-12.408601786642482,7.821389398847699,6.4165724622952265,11.390883654876502,4.241779241861539,-1.317412475520558,-9.471938269016373
15.0,-11.241868089452115,-7.076256468676734,4.165611620776211,9.093843732979078,-7.727928994028112,-1.408331005139786,10.752868686508918,-20.780786766763235,-22.085125435311962,-1.0785555924704182,-4.178943441171279,1.7541587341564213
16.0,-29.236751478183226,-26.08939889727474,3.147352580910388,27.68078604952793,-16.21865625880976,-11.501938072401984,9.317339752162944,-24.25035432300223,-43.07985229226818,-14.691016152103401,-14.41456334288057,0.8530721368508773
17.0,-5.618254233171079,-8.249317317771444,-2.6310630845984777,6.957068161962988,-1.4454670507514438,-5.394345752338819,-2.990070566650414,-6.651999426900629,-10.997686711921979,0.4784677305870195,7.357795582852473,9.683324223031955
18.0,7.323250411876959,-5.473852947485017,-12.797103359361271,-0.9739469150412106,10.10504162296158,-9.172482461484234,-7.003681596627869,10.989339040090476,16.073154393735397,1.9389328071132594,13.190020568148292,-8.326464263284956
19.0,12.101852524624803,11.572620304481111,-0.529232220144279,-11.801414510417406,6.280689579766982,5.479888762473024,-10.679473099215896,9.753832097885528,15.963825406047219,-2.5767371820299827,5.666628752854917,-9.230676841464305
20.0,1.7727992961729697,11.153028198009988,9.380228901835757,-6.421264644034521,-3.758409690358724,10.299735266574991,-5.02270670645629,5.444029287388469,10.031601834831102,-2.406298838138451,2.84660345409395,-3.2847421977648645
21.0,3.1889476101488663,7.757765039841994,4.568817429692002,-5.5058960006893,-0.7207991026935852,6.194817471241814,13.727534893412797,4.8856378729924534,11.134991314006173,5.690660635687684,-13.366975268580862,-1.7580446473506195
22.0,1.369691434391138,6.040631158835773,4.670939724444331,-3.735216836732947,-1.679395052488804,5.388316255076012,9.05501294560813,7.673055815176871,5.593924036021868,11.872115649117172,-15.841234383587109,8.71367644160049
23.0,-1.96814678726836,0.8022445051226579,2.7703912923916656,0.6315724959643566,-2.397597877549027,1.742848424664167,0.029406333447459687,-1.7678157215206773,-5.253504358538113,13.231353912396315,0.9045662865726047,11.454146102402083
24.0,-3.338409784777705,-6.8768007453031705,-3.538390960524934,5.075067379091648,0.14909075792685655,-5.248214171263488,-2.841526730739475,-6.483862927861866,-7.922390234014108,-4.629136799019712,14.435621259923687,3.732884300240621
25.0,-0.3166953298696331,-1.87483608707661,-1.5581407572065924,1.0595418147328015,0.5888358135903117,-1.6771232348569622,-5.322581016080575,-8.069696415818324,-11.17325954226947,-14.385364269754568,3.28031629271569,-6.2392362648562045
26.0,-5.26287894895094,-8.646722285369648,-3.3838433364188147,6.994050079074605,-0.8946054197695069,-5.9773739967385024,-3.963734598618738,-8.128602723237963,-7.455691513307485,-12.918504624545552,5.157915316384329,-6.556548463081697
27.0,-2.4954115201809177,-1.5821494860110388,0.9132620341695974,2.076962588855169,-1.7390138794810404,-0.3793832736574503,-3.1635461407054506,-4.18722694910867,-1.158719152006368,-0.5350307516583239,8.371795723996975,-2.7957052337098336
28.0,-2.0774188979466457,-0.6927402117313051,1.3846786862151872,1.34695843492461,-1.6867491068212748,0.2955909050496974,2.119096803160441,4.507768462896873,4.659504389876624,2.9219588033804693,-4.115029042662868,0.11688738567727608
29.0,9.502611122224842,1.1945181443004325,-8.308092977924636,-5.380371637050556,8.871234024834662,-3.5329416263747646,5.058382517803008,10.156388155522622,7.016782064758639,7.199163590345166,-10.607144831738784,9.711573752930814
30.0,3.5438361885971856,2.8949578491102583,-0.6488783394868729,-3.1630572143771563,2.1399639873727594,1.145682805728433,4.142956119597187,5.093552385580021,2.372428848811251,3.726038303882399,-9.198331210671629,6.3762104431290245
31.0,-0.5785334189926186,-1.4773849745761929,-0.8988515555835176,1.016177999724662,0.12138086193019104,-1.161855312499732,0.36051894511557325,-0.06691831482242261,-2.2855182556933205,-0.8258897207339055,-8.275474302236166,-15.336024996081125
32.0,-3.003247060818138,9.952072367694672,12.95531942851286,-3.476925252152985,-8.024639224898747,11.488179699011225,-2.5407437165514057,-2.8393325458496235,2.9976364962633326,2.4630764715808504,4.010302762696091,-5.145872768504098
33.0,-1.0765181708817724,4.273358848000771,5.3498770188827605,-1.5957641459175287,-3.1883981809713133,4.778185117334556,-7.305062926591784,-4.178812775729952,-1.9059154604100577,-3.822364331817159,7.794422918473362,-2.727179344681497
34.0,-5.0819840397029825,-4.738919494159701,0.34306454554329946,4.912086074380622,-2.696407704284081,-2.2208564510228235,3.5282304640758557,-0.1702153798610384,3.265312608473395,0.7593848912518708,14.263913418258582,5.4353632760748365
35.0,1.7990790570132096,-7.722533180242685,-9.521612237256019,2.9554921845053563,5.669864984871712,-8.63746998117883,2.632271535232065,1.923713029269698,2.0721781230843836,1.6341949805640559,8.254785339138738,13.255014769828138
36.0,11.214097871524242,-2.6736543141631817,-13.88775218568762,-4.289900514317873,12.557491395851281,-8.292858889919689,-0.521111666547242,0.3464348723529568,-5.027431719132936,-4.375301582892212,-13.164880869442554,2.7145527831382976
37.0,-8.30204039610188,-5.003612456689244,3.298427939412213,6.617271873655705,-5.792555065501232,-0.8654997580515715,-1.9108444525877766,-1.8576532329587185,-6.5727192105767935,-1.2195657204972825,-13.33239308353343,-7.373544551706036
38.0,-1.825739660406557,7.022054453365019,8.847794113771219,-2.5690093947024177,-5.324588360095738,7.997417327018892,2.6496132134664796,-2.8195299934791542,2.145515547391688,2.83218336759401,-5.660218724920573,-8.001727548656866
39.0,0.5157454316239916,6.09450689138472,5.578761459760847,-3.284137677380549,-2.591464321675601,5.815977420046615,-2.0711600360217566,0.7665252529158043,-1.7820089770348697,-1.4594707600988914,1.869931370005557,0.48784312906885496
40.0,8.227301782028139,9.853295665777296,1.6259938837497439,-9.019150996287681,3.3269706263369283,5.793185919275891,-1.4755882469511425,1.5432896297301253,4.302162496744779,2.3235049093401328,17.206842166264952,7.961802277533701
41.0,-1.4291228087332426,-3.60907598668998,-2.179953177956008,2.5486114297648155,0.3306825355566698,-2.9243871767052103,0.3064638592216664,1.9620457432576424,5.174786359586984,2.7209901069227187,13.59923595807242,4.587866521718951
42.0,-10.424320159309262,-7.783441898611972,2.6408782606979644,9.06859602349935,-6.4909967048365065,-2.6063189127185673,4.3242839181455395,2.4893178111062304,1.9512108845931584,1.7075351836801054,-2.8974347850361983,-5.788447871241953
43.0,-0.08415691353706567,-4.778324299558971,-4.694167386021676,2.41136957788603,2.3538364886835357,-4.777085289981268,-0.8337157135041344,-1.6054179603427516,-5.750207605133551,-7.587218770822208,-11.472845480002313,-8.193873742981818
44.0,1.2894425439149013,-8.446278015323928,-9.73572055923945,3.5712604516310456,5.48898846864513,-9.059018138974876,3.0694633336508796,-0.5231510711481719,-2.907194316406998,-1.4116538977193969,-9.230849870411886,-1.34168310164566
45.0,3.767558543938094,-6.533403625951396,-10.300962169890395,1.3829046755104595,7.015243943891948,-8.390280425366178,-1.6381555979271132,0.8967597926418971,-0.27797593242297003,2.5182367721934864,-8.176191962913112,3.743832971652747
46.0,3.885636774729757,8.483940705818123,4.598303931087571,-6.184141084203597,-0.3732787567606435,6.56467526767268,-5.384071747106671,0.35931672720391594,-1.2837317456824602,-1.1555797174569935,-6.393923948216362,3.410504537370193
47.0,-6.14329318983896,13.550268204895279,19.693561394734004,-3.707654085910427,-12.93601313386289,16.64417597794869,-2.4109847459530935,-3.453853005496909,5.521879029258083,4.370857856260797,11.338812072501183,7.783896816071044
48.0,0.48586819242433066,6.722735130360711,6.236866937936842,-3.6165633809244113,-2.8171589069873395,6.4238903036956225,0.5926455246962461,-3.6924770356393677,-0.4066513785281751,-1.7821901232491926,12.58727356412593,0.7727668182555956
49.0,8.927297406387286,6.12313814137735,-2.804159265009412,-7.467673704725407,5.841387461279874,1.6057524812946196,1.884879365089049,1.4360717011057211,-0.02846272696377017,0.9074916420079061,10.886101154843828,-4.033874153939734
50.0,0.14158163924356026,1.9900110784978469,1.8484294392544722,-1.0949981165403355,-0.8815887490057577,1.948013591386239,4.016808264169468,0.21076847763808781,-1.068755406486498,-1.6404770924967738,-8.30358198110422,-13.989591698430683
51.0,-1.2787143812922421,-8.11847593620275,-6.839761554910661,4.741833247314191,2.828333113100078,-7.4447208456093685,-1.0086875847543508,2.017674677630803,-1.4729377510146968,-1.9181584211989906,-6.738255095204727,-4.3737345207219285
52.0,-6.621753186655472,-23.763300350857342,-17.141547164202297,15.152218096048053,5.227606637767496,-20.410637303582618,4.836991075534194,6.919352375794131,4.493980809548036,2.4055357496904772,-1.175397602118986,13.09765866943838
53.0,-3.364914996379197,-5.281136554691285,-1.9162215583125501,4.278910710055428,-0.6780898045552366,-3.627163680183193,-4.012624100731622,-1.0705954834329812,-5.664300690211066,1.7676612324837437,5.440569583049804,11.595274587956235
54.0,-6.83236925766082,-0.9480590921494731,5.8843101655113825,3.9217378918512127,-6.390676557130039,2.4479333511877734,-0.5372535632864819,-2.936176991773529,-0.08058159769578999,7.740820995765642,-3.2602507282017115,1.5383050438415031
55.0,-2.6282743399443325,4.966308089228827,7.594582429173673,-1.139728125631328,-5.144211736308794,6.267000471768011,1.6414874956271421,-0.11306002515383362,9.888249375855338,-2.3883324003054556,-0.6172646212620014,-9.675492125922394
56.0,22.511888087663372,18.63296445218476,-3.8789236354778884,-20.62275046404801,13.239545176131454,7.367877191241316,-7.48145358776849,-1.5331657730940753,-6.496999630983939,-16.424366666972944,-7.753156811221128,-8.172812035442705
57.0,0.8020607263086355,10.591018750852749,9.788958024544714,-5.667185118967563,-4.53166498041139,10.182454482824603,-1.1378212157358019,-6.138081194312558,-3.70263443120069,-0.6478625879672659,-1.7401838443833078,-1.7083030242658372
58.0,-4.414504338466997,8.755465944767366,13.169970283234745,-2.1384292472983484,-8.757113330292823,11.033046790803793,5.119034574238496,0.9544172470518766,2.1338378807001477,6.802195734880333,1.8183070345324577,3.3125591646831283
59.0,-6.487042290776083,-7.73056493624304,-1.2435226454671167,7.065947521228484,-2.5936010045433675,-4.4985672625357775,0.6947048849122761,2.067752179116148,-4.7757920320678355,5.075596999652435,8.581675518679859,3.2145655093687058
60.0,-0.8472875012715235,-21.35878549439733,-20.511497993126426,11.142835511430482,9.773485143970385,-20.95175859767415,2.4723552127880715,5.858503336968407,2.856798340192573,3.4256424215382033,6.325904152072325,6.494914726451908
61.0,-0.7322581115001583,-6.09306914004708,-5.360811028547888,3.376513167979902,2.3261188010799785,-5.750287699481264,1.4611674445001077,2.566104349612519,3.879811072540255,-2.7907997981256463,-1.6248704303649792,-4.161788312368987
62.0,6.601577256019634,-4.477501899193967,-11.079079155214401,-1.0973322802858654,8.844788827057998,-7.809222506263856,-2.4154118347345133,-2.5358389696908468,2.0968219191294084,-3.3828070948030655,-3.372102309988458,-1.4385745503253027
63.0,-7.443269640366519,1.6153225831910447,9.058592223557401,2.956048920367413,-8.251560293824568,5.377608698525472,-0.0819532363012081,-2.3438280489605283,2.5669741786433287,3.876809096134003,-0.1556714947997775,3.4329746988485583
64.0,0.9408702880400976,17.401657924195078,16.460787636155594,-9.132597012465368,-7.7621330773680235,16.966560372424894,-1.3652824503723173,-3.24022481967049,-2.0487085989939584,-1.1193754834395915,0.7201344170081088,-0.06948856210135634
65.0,7.953050524818408,4.844078281316465,-3.1089722435008422,-6.443563712177463,5.5315046433486295,0.821770534944374,-1.4682400226076726,-0.22276143276164406,-7.8651347661314075,-6.184149822390012,-13.82787975245497,-11.63419891396604
66.0,1.4103491326164277,1.8489388679622358,0.43858973534681,-1.601598723865556,0.4929628530763105,1.1776794050070447,-0.2603053369913356,6.348567751544352,3.2506765317619273,4.282988566364952,3.9564905603500433,-0.27418286383542867
67.0,-9.151192891694738,-5.19992241279202,3.9512704789030035,7.1192814694275,-6.535007021259357,-0.6653044006358297,-1.9624299852987126,-2.5885484174846645,-1.7032511954424405,-0.9136730306885454,2.458251411707691,8.654593743675896
68.0,-4.8940104046805315,0.5992007733824236,5.493211178062458,2.165531838135844,-5.167887983450401,3.089737544140752,2.2584478921807047,-1.9554288708751357,-1.9353724638206318,-2.1526258081155167,1.2347092665970165,4.0507189224556726
69.0,5.4524176328316365,-5.877335717551043,-11.329753350383514,0.2284815436561125,8.345535551719195,-8.632404041915132,5.5052142434581075,-1.9448454279598992,3.8355872688121777,0.36211088063274843,10.779257933939181,3.171892630370622
70.0,6.139335034892787,-0.9344456572353694,-7.073780692128978,-2.5857414088627775,6.56473112232403,-4.02732269989774,-3.93235779492859,1.5259714656788506,1.9887520716617784,5.729433394422506,5.463716552309933,1.9381122833316897
71.0,-8.09764814475749,-6.694981066502556,1.4026670782545034,7.416240579579705,-4.713716239557854,-2.5867512845285754,5.882802060803326,2.3056558705433776,7.056356087519146,4.750893695516407,-8.199511266931058,-6.246054822493852
72.0,5.31939977062075,5.1125116258264836,-0.2068881447943559,-5.270023208422462,2.7958645103670863,2.434873601892699,-6.149742421654183,0.2806964102158449,-5.085667692674863,-3.0134949904602175,-9.281823541344465,-9.5414730353316
73.0,3.662224348014922,4.408855996944721,0.7466316489299223,-4.005968452179603,1.4068009162905828,2.558615947789866,-5.579129398620387,-0.4406910228589102,-7.8696482847909035,-5.177345421429832,-3.4436417913367015,-2.9416305964741647
74.0,-1.2128943246803898,-2.78733942595923,-1.5744451012785126,1.9546629578370793,0.2046585663246685,-2.2033112040854936,3.6236208234123133,-0.06531651338821126,-1.6178975427619382,-3.780765734405217,-1.2415842341601966,1.063415862799913
75.0,-5.435122254925548,3.5042599833745207,8.93938223830048,1.0004467493599238,-7.164173073222432,6.27384267988034,3.643032137293488,0.2180787407251631,2.2162816006591193,-2.7740029164564417,3.4754102319851103,10.728199388642858
76.0,0.2708378176496411,2.0712766437131593,1.8004388260639876,-1.1365963211862011,-0.817181021485526,1.9052080066114714,0.5802906889922348,1.1435611326752966,4.748499674657381,2.297919773923483,4.868606430855149,5.733873652805256
77.0,3.0093733599316055,-1.8491878592074458,-4.858561219138715,-0.6269394971021341,3.9674609029008296,-3.3867773304272815,-1.5805623259446344,-2.414872938930279,2.2046657317818332,1.8565078811517692,2.3234327852572347,-6.443863066899702
78.0,-1.8114109220984904,3.763119552475362,5.574530474573962,-0.9477387049670771,-3.6500828091601374,4.714746813693332,-1.4622547238979755,0.38148312075764634,0.7844423081228573,2.232104106336608,-1.3035874410290722,-6.185463065314999
79.0,-5.925917490374286,-6.147511282654006,-0.22159379227983647,5.982284706952111,-2.878845786299877,-3.136528944551525,0.9850755626098733,-2.9762813954414216,-3.337673775764383,7.9474482177460635,5.395913859604308,2.9142575283129153
80.0,3.812171159793817,-5.91251528916393,-9.724686448958057,1.0721630203257795,6.748051022327476,-7.8464157866389215,0.9028278367838944,0.9710834975957202,2.564214804650524,7.018773549546223,6.1546906745140495,4.302817826110244
81.0,3.3684830699217,1.3053024148476917,-2.0631806550744862,-2.314460501180253,2.6969562615606693,-0.40462785483269625,-2.1341785562485507,4.061219069502848,-2.131142070130868,-8.701420701602764,-6.974762607784163,2.258089146206086
82.0,2.691531699873426,-1.525476297357585,-4.217007997231513,-0.5567567699449842,3.431515694454356,-2.8967329408331906,3.0223351552763433,1.50858753129141,0.3018000090817232,-12.292399311120441,-4.097586771186137,-3.3251587700616563
83.0,-5.772728023215298,-2.4248113575195798,3.347916665695392,4.053160832793066,-4.512751140663207,0.43426651433989516,1.3490705386399267,-2.2992847090364874,-8.594338142598826,-3.432952207761625,-10.829049633401818,-0.9842606118227164
84.0,-0.512509327085914,9.067771617447162,9.58028094453311,-4.2358588897743905,-5.010034522991916,9.372715671437795,-3.4093951181199946,-3.885676070287325,1.76062221085453,4.90955944619926,-0.4128903198824321,-1.9606897265915901
85.0,10.194209876732785,18.905492669607952,8.711282792875572,-14.578156734643704,0.6870834967243487,13.85479934138251,-1.7812080383284599,0.897878561539224,6.135490489766782,5.383470922274449,4.832303152407507,-2.3790643824778703
86.0,3.6971495429494396,5.530639191910452,1.8334896489614891,-4.635074365509412,0.9451717071126707,3.649073704059134,0.4688823607086441,4.103354103724426,4.878223838037162,5.52309740120367,3.1131261710086298,5.341912781540657
87.0,-23.11719525160988,-28.28895176172444,-5.1717565101143785,25.68643120660493,-8.968181867063942,-16.76209988687849,-4.834669623863214,-6.482066822064358,-5.732569698846577,-5.5597731488253235,-0.26210899754016914,-8.321541103060156
88.0,6.236047781562418,-6.228707136874538,-12.464754918437123,0.05996922729738685,9.349114232722238,-9.29718935012027,6.999208482425319,4.732064558493191,-0.06481789899817558,2.4972909592536894,7.406491628894831,6.925598424541114
89.0,9.054437012731798,5.70333054583862,-3.3511064668935564,-7.395471711692988,6.198931989257902,1.149588946312404,-0.6898894697330995,1.2221749201306276,2.6539593816859,-2.256831183696762,6.197511751717465,5.298391398973774
90.0,-0.27030533480903474,1.2779531030541813,1.5482584378629358,-0.5247331065621545,-0.912521024452519,1.3881939721705072,3.083471513023626,1.267273465963191,-1.7719902342063103,-1.0301765937907557,-3.25868527574742,-1.4500161195159356
91.0,-1.1900740815850814,-7.300443258449693,-6.11036917686449,4.296216809501003,2.4601775240948562,-6.651906574243844,0.0380670959010434,-2.513083206747976,-3.688262105835102,-6.682951326052625,-16.134413856551966,-7.222761179898959
92.0,-9.31239379695953,4.796095373650635,14.108489170610568,2.221486089812264,-11.70528362406002,9.424514686190793,1.3106618324295507,-2.930285249167587,2.543448268744544,2.527505918664705,5.577701497346367,3.2488582718252026
93.0,2.064232793442174,2.5242916113410834,0.460058817899208,-2.34069721685291,0.813172767646007,1.4601901870332474,-0.8366262819517126,1.6989947937532306,3.196697998319667,7.744099308463509,2.9604717026942526,-0.8373271813940362
94.0,3.353425149609249,3.6596238339480838,0.30619868433887776,-3.4832645037784484,1.5402912215796056,2.0249393494244523,-2.1785115358920404,2.272896985213121,2.437110018252193,7.429131357680315,2.9116900696795955,-1.2120306353802541
95.0,9.314780520095814,6.570968764768678,-2.7438117553272083,-7.926174339397384,5.971549346865732,1.8730520276299851,-5.7971027246932865,-0.2541916042559318,-4.672212564326595,-3.82790893010568,-4.789408438958887,2.341069759391268
96.0,0.83083109432406,2.077442300535597,1.2466112062113246,-1.4402157635082151,-0.1842614135182501,1.698670110245662,-1.620379146588398,0.27779183121062356,-1.5223384752468287,-2.652624191991224,-3.4007113448554436,-0.9838785848863105
97.0,-6.08373314197488,-1.2671405421313633,4.816592599843267,3.6905764085528174,-5.425403756397971,1.8127039000408676,0.6287798989278892,-3.178204108780828,-2.0405615497483045,-9.201713658882817,2.0208238264588445,4.884306699328347
98.0,-8.961854377882634,-5.919177990145183,3.042676387737301,7.459913509690399,-6.05589954181123,-1.4748461935634363,5.407324077930339,-1.9114198901748605,-3.1668630163334655,-2.826510124648474,5.729029502009558,2.2166069213228434
99.0,0.9853720257402188,-6.205186323929065,-7.190558349669254,2.5561780822993505,4.113556558110481,-6.728105629146507,3.8052380102999184,1.7088119349659632,4.91441996039213,-1.256442403490063,-2.19585024634523,-15.17904985286264
100.0,7.962670302956786,2.2833593053418983,-5.679310997614822,-5.171382614371447,6.847820044275895,-1.7205689913792446,-3.744391510838021,0.26394169364384334,2.480711443756601,5.512935981952874,0.5429343980411117,-0.572545973151307
101.0,0.43885849925611353,-1.539252206699402,-1.978110705955697,0.5846693621965224,1.237419788673975,-1.6945660561013767,0.703456225007225,1.4734881875413515,0.37228344538305924,6.043953143893091,-2.8160078865689493,5.7402453116566985
102.0,-1.1654223958019934,-4.010353102649158,-2.84493070684737,2.624859231762539,0.7924996384074743,-3.435052921190255,2.013611899839006,4.94671782486865,2.693344434540883,7.432795616206551,0.25019429685974504,9.713005477789114
103.0,-2.1579105642042387,-1.7777233863817152,0.3801871778226219,2.0057442669618513,-1.3138988691687168,-0.7009263526266282,1.6812452212697906,1.2264182649804367,2.2626389920989607,-1.7209492719002983,3.243973289642609,4.092018367687334
104.0,-1.4633971900560083,7.472204675757172,8.935601865813556,-3.045677845240247,-5.163791829423619,8.203738249647044,-0.24552533311344105,-3.8651379093468194,-2.055910225034418,-3.5227340313750517,5.002774157700849,-1.8989208966788047
105.0,4.104670552922932,9.214462912435874,5.109792359513273,-6.702431088794411,-0.46579240885981577,7.159764497617286,-6.194113177264568,-4.817980993641076,-5.735025720617137,-5.3276669840693,-3.695713862785512,-7.024864395891643
106.0,-0.8291557163589514,10.277166299486233,11.106322015845391,-4.690215378637573,-6.0094236861862305,10.682919049268422,-7.482795014474083,-6.05411700551536,-8.431843012902085,-7.290825291019887,-7.509786312728563,-10.594123306343288
107.0,-5.856461767076408,-14.867369060841396,-9.010907293765145,10.315392164202846,1.6137118039741951,-11.957601015531345,7.265807565273996,5.213119667244326,3.136855052834677,-0.10057854561291091,-3.2371561401109585,0.7498964546079421
108.0,-0.07842180975488411,-10.162737592850256,-10.08431578309588,5.152845167786371,4.958951929834807,-10.152697303684697,7.51096170144282,6.303225211400448,10.259839429811487,9.856621040503853,6.701173192968263,8.870063746872011
109.0,3.376805361425528,-1.3017810512808499,-4.678586412706994,-1.003134586483069,4.0591916113338105,-2.949911131065254,-4.212387467642699,0.19400246389574693,1.443423147736329,2.5786617754696985,3.8083792896269153,1.3500309248699498
110.0,7.593354587374928,9.224082621310016,1.6307280339348256,-8.370731061929737,3.0077865418746343,5.461664338930024,-5.674119525038494,-2.2416721883984994,-3.664114222149423,-1.863825290934332,0.473146244614985,0.07921943683851662
111.0,3.2067212572401416,2.4560585177550145,-0.750662739484997,-2.8685231575174512,1.9197780228408248,0.88478664036242,3.3574952533848057,-1.1752361088141483,-3.9816852067996704,-2.675832690463256,-2.3748140927780512,-2.6250424157046783
112.0,-6.731112828586781,-5.202634350900104,1.528478477687183,5.931800377515943,-4.117464271449394,-1.8829778299901903,5.464275036859547,3.726975167082821,5.051122237331398,1.623723724973389,-2.1342963769755516,1.3104427523805646
113.0,-4.449093749330784,-6.475880222295231,-2.0267864729641176,5.427220501773383,-1.2058225401817615,-4.2953005508570055,1.1682900602108133,-1.234018512640896,0.9739495062494994,1.2558757526901632,-3.9044198709005093,-0.47261578461277026
114.0,-0.8058473883481563,6.612826488387903,7.418673876736318,-2.861657206341361,-4.111698214119578,7.051982603243362,-4.868341289393896,-5.236836052028557,-6.086844898299472,-4.930430017717766,-2.3101135813417906,-2.0837479727955666
115.0,0.6428066512182701,4.557131665637957,3.91432501441984,-2.6379998183594315,-1.6361689041702163,4.193347836864902,-3.573808629175931,1.6385308580300508,0.49804805868973556,-2.347333999127888,4.045424908369547,0.7502343824491282
116.0,-2.9723952080762817,5.1244868076485455,8.096882015724805,-1.0337288078778168,-5.531396886007574,6.646018844740457,1.1674270090858783,0.2464806490563517,1.9944950884714503,4.664757744469661,11.541549784976008,4.724855978146486
117.0,-3.9459131771018487,-2.2183272148070072,1.7275859622946985,3.1298652662329114,-2.8255504168399526,-0.2114938589771752,1.8713246609566574,-1.2894598225466953,-0.8980260042610242,1.289400692550646,4.953049696296717,0.9311626854023212
118.0,5.912369500570195,-2.8567852085779406,-8.769154709148333,-1.5502567725197707,7.3626990914334876,-5.858904676786925,-0.11660409034758379,1.9149501360345473,3.2507295139283245,2.0282783619919145,-2.3145715171742314,1.4670650266397973
119.0,9.094654912520229,-1.5714174908877752,-10.666072403408098,-3.774914223866712,9.834688755615677,-6.086110360793645,-3.0440390142581233,1.6095534205485131,-0.7630994283081118,-1.5973502132741193,-7.184516266607218,-8.083988905291342
120.0,3.413541011933844,-10.369894495157046,-13.783435507091056,3.471325988303606,8.640562215543623,-12.122072992684192,4.596356395143915,2.452784234666705,0.022951858872700813,-0.038047311203563416,-17.875786078148288,-7.036763442330256
121.0,-3.224945816695268,4.203179280941144,7.428125097636267,-0.4951915243532834,-5.3582402063853145,5.85018418222966,1.605783807928323,-0.5495771064523102,-0.9634903988481184,-0.414781988607954,-2.9288455651251786,5.690092366730187
122.0,-5.365108107277873,5.842034848402835,11.207142955680542,-0.2508724410506048,-8.317496653136937,8.560164758195056,-2.8219749973056896,-4.687835522507604,-1.2891487038860412,-3.251875239995348,8.680024482373229,9.18971121709618
123.0,0.6854653845934884,8.0906483085153,7.405182923921798,-4.4133532054887725,-3.315925812926504,7.705074193238878,-2.3446608729194818,-0.10321149810761288,-2.099865865106805,-1.3029238346017165,9.137222997325019,1.0867290014334028
124.0,-3.3995557718043203,-9.297968319040631,-5.898412547236202,6.385097440939197,1.2093669437562529,-7.64158258564508,1.0443120742600214,-0.42593457506841625,-0.8997212277190821,0.7596022372831,4.237405301484753,-10.316757442964352
125.0,-8.274873198466375,-7.930240789191054,0.34463240927566485,8.120834869533613,-4.275762270137752,-3.758459666283258,4.312673985338318,2.312516753756748,3.978350932358465,4.226019514523659,3.572549824859813,-2.5354390747467344
126.0,1.6659757241764037,2.2571873253127035,0.5912116011367691,-1.9590064046441502,0.5690636045042894,1.45797534912111,-1.4254090155775296,3.200867633681231,5.749540237017408,1.7519138981306501,1.4233944124750297,3.6565302266221544
127.0,7.758027007159944,7.513801798602233,-0.24422520855744945,-7.644122966376957,3.954857460271489,3.59069173441158,-0.11115319279434455,-0.5768761965711118,1.1330533686889046,-0.05257482890280518,-7.496259291118262,1.7377775580621444
128.0,6.965812046947931,1.7091225578423148,-5.256689489105377,-4.350011859839006,6.147087397673372,-1.7361607957072451,-0.2581923532600872,-0.8883633744798691,-5.014568415137029,-2.559123867486825,-2.5818797743317194,3.2484149900266304
129.0,-3.245208468678971,0.6701490753190336,3.915357543997976,1.2776145698822545,-3.6187915339088232,2.2566935650989413,-5.740670434597486,-5.225768598742605,-9.817563527578715,-9.618194532336592,-3.7755653364011454,6.391438431580539
130.0,-2.2495057704494354,-1.4537569789519416,0.7957487914970628,1.8509395983674053,-1.4787806358999582,-0.2798077753449929,-0.03191009319099325,-2.982613550856411,0.7850711893478461,2.5089013081305147,-2.013813688363164,-3.1042930617297806
131.0,4.295109638879519,0.7247575182227814,-3.570352120657315,-2.4960066476025067,3.899099675058306,-1.4455228931561925,1.5860579286358583,6.624090149862784,7.460097377500931,14.393286231607966,10.745685339141557,-6.420669956789452
132.0,-4.838675062040102,-5.979808006867829,-1.1411329448282417,5.441191455894177,-1.8841856884675208,-3.5772507895684225,8.257825059195087,3.1081212166120937,4.459888784602672,2.313427530330946,-2.576896471693927,-5.578553965364955
133.0,-0.5415693429835047,5.572384002290028,6.113953345273609,-2.543399672649028,-3.2890072696335935,5.83052690618938,-6.304220138801661,-0.9111097943062227,-4.306238442987569,-6.884157903936188,-8.598486102736445,-1.205043512059869
134.0,-3.1689069593254215,3.1033708713484573,6.272277830674416,0.021518519280740223,-4.688178074105201,4.677046915947319,-0.9338642108852503,-4.988831349424629,-2.22286093999662,-10.290460806136764,-8.050659056876501,2.299315440422829
135.0,2.0088363825718596,-3.479033299090437,-5.4878696816616355,0.7360023306462882,3.695308597104753,-4.41600108457873,1.5981991887839664,1.0276883724748096,2.689395458972788,1.1709682249343025,5.858950862412637,10.663613350288173
136.0,-0.5379803412582158,-14.501064799674015,-13.963084458415274,7.526297173031958,6.732480597683904,-14.246276699547172,4.883180925897386,3.3424174868323835,1.1455658237133903,3.0017901103229407,13.771628625517268,-0.5802262218552556
137.0,0.021750238941958155,-5.886222955137393,-5.907973194079199,2.9380301189250586,2.9808618894650354,-5.916571142847591,1.8348133153367998,4.306467211356208,0.9803705580668011,6.095470721751701,9.390252286867547,0.11456703945053492
138.0,4.2051948169890325,11.551715322325173,7.3465205053358105,-7.8798898191037825,-1.5563281486094651,9.422152643957023,-3.8537327381008457,-2.0240235420634516,-0.26937052672924233,0.7236710768750134,4.503280248463613,-1.2509184740527097
139.0,-2.959161641300796,11.748009305525908,14.707170946826157,-4.407715714688392,-8.897043138094595,13.2701756883874,-6.159269528737122,-6.429073544993021,-3.2493704099186758,-2.3028460392420467,-13.166446843269233,-8.190498383177271
140.0,1.8440405593332052,9.325871108129213,7.4818305487956405,-5.612445512099724,-2.8017123612223798,8.357752147920817,-4.2972904475142055,-4.5654661855505925,-6.219083834091699,-4.298073083743713,-16.459091245738904,-4.957393307756169
141.0,2.549411602185872,3.7066954484352124,1.157283846249225,-3.090899083108531,0.7165828321374093,2.455237286863541,1.3731783496159948,2.581826139532099,0.45467187827026523,-2.038036136406312,4.104155506275726,7.876858604577164
142.0,-2.690448855045238,-8.31449401131118,-5.624045156265751,5.527594385391949,1.4906495381854394,-6.953675494776686,3.190018226351979,2.60183426228955,5.818051978282992,2.745978782561526,1.0653751306758181,4.1820343885314415
143.0,-2.1973669241339633,-16.046691971447615,-13.849325047313414,9.138303729344976,5.851995888714435,-14.937467578891892,6.535266876464685,2.78924003857318,2.2142153220093426,1.5654504704692382,-0.775126282847399,-1.2777698810729823
144.0,1.1424520557180113,-10.304451661273252,-11.446903716991303,4.51305700049608,6.242080528874321,-10.867230690146272,4.366696562528705,2.6804727455222515,1.928955613667311,4.1530993407623935,5.243474399744862,-0.7065275768168431
145.0,-0.9190001315773286,4.717972421848242,5.6369725534253785,-1.89115491190582,-3.3324683387064873,5.1080204141330805,-1.4923554272556556,1.486744801278921,0.5414355368749333,3.0236222681165605,3.662428767956089,4.000940408857207
146.0,-1.3548018734720892,7.823947402123032,9.178749275594958,-3.226315995600703,-5.245256880480772,8.514241048100546,-4.392849484783053,-2.211477241375516,-2.572665623300992,-2.647072347454812,-4.125289367283385,-2.464646321801853
147.0,-2.8111500617081733,10.549764018516521,13.360914080224834,-3.8593209226914595,-8.06622275799592,11.97419283720403,-6.688796015838643,-4.826090410393221,-1.58305446447481,-6.217461569631895,-1.4654321150225997,-1.6152047799229132
148.0,4.018720353607982,-4.585205457441221,-8.603925811048711,0.2961375175306351,6.332122641687896,-6.568151936542738,-0.3146076039395558,0.04679322722621304,-3.0866942890749947,-5.693106360882633,-4.357866554890569,-5.148003292742949
149.0,9.57271921230753,1.84086353737585,-7.731855674931202,-5.6904891221387075,8.677159277708268,-2.911260367885653,3.7269407375921952,-2.8110935747866566,2.062484873549593,3.7484071561753356,7.192432112078049,-0.39552361319894924
150.0,-1.0864223704111757,0.7577890993234314,1.8442114697347263,0.10515385625198226,-1.4345921833432338,1.2628530216667737,0.8819481703385514,4.139601904097926,-0.4181105096454636,4.004615803504781,15.187232056408543,2.0610062413985784
151.0,-7.909077807211544,-5.995304277546182,1.9137735296652034,6.974609573387193,-4.95425846761182,-2.075488714827782,2.57791756141215,1.3789828757173446,-2.1425004838453585,-1.9002870318654161,5.996237542596298,1.8009367969625019
152.0,-7.096827936578703,-1.9116876872219044,5.185140249356407,4.529171546391734,-6.181611202065684,1.601901638404005,2.7577622472223937,0.2828282292737523,2.1534523544596382,1.277932861125345,-14.722224025232125,4.466832399925135
153.0,-1.0945189984904937,-1.32705160485355,-0.23253260636344542,1.1596241599335282,-0.47335232156430607,-0.7389122601279319,-1.1936234524908613,0.8416906539174747,1.874408733098215,2.7017868435557335,-16.08173263581002,2.299865609478026
154.0,9.746365873902636,8.830516450470197,-0.9158494234326043,-9.257334164472839,5.3627587750966335,3.9936157849676652,-7.149903527632184,-0.33135925433900704,6.845253635878858,2.24437472457207,-11.423311957228123,-1.25062907049952
155.0,4.702961561838774,5.0311873894799755,0.3282258276411829,-4.83112448626993,2.2135156304625934,2.7113721518353,-2.2011488469986324,-4.311858028482448,-8.15197560265491,0.3414914233653312,10.602831700883497,-0.3306370451807794
156.0,-0.24808874140546644,-5.056154367002966,-4.808065625597482,2.615540701944519,2.302144275897112,-4.982650748193478,3.502084290346071,-1.0079143646695148,-0.30428530760599326,-0.6774478672632018,8.777526086059957,-7.385586075729768
157.0,-7.096342525803451,-16.531631339113805,-9.43528881331039,11.784556909731846,1.1902412313912096,-13.035558161232936,4.583758919193717,4.248944000893102,1.3448053558934265,-3.841511167239192,0.6946575845052347,-6.96399549708585
158.0,-0.26382733212322185,-6.033521282377945,-5.7696939502548785,3.2052432701970504,2.7743886989472903,-5.8742035702150055,4.625473484027932,4.89232871670546,1.874198818713039,-3.5448559100332115,9.32078797872993,4.194643859827469
159.0,5.355819521327562,14.06191941927774,8.706099897950082,-9.724734932523472,-1.7312809844449852,11.414536751393257,-5.605019085345543,-2.290683291129116,-2.720977335727766,-3.488795288756616,1.5523048929260232,9.044776987240962
160.0,-1.2768397700148855,14.885684494313713,16.162524264328784,-6.815915313859257,-8.775751302348127,15.559636989421055,-4.658852295937533,-5.145712364308263,-3.8990021847329674,1.0974674283291643,-3.593343832787888,5.3417331680981714
161.0,-3.153573384505316,7.079731711789394,10.233305096295298,-1.9729015352665393,-6.672260832399722,8.619050094682185,3.266120973096892,-1.3039868551717992,4.141095621715749,4.508736793381658,-7.612136935604845,-3.641484775923799
162.0,-4.499622266600361,-4.849458628499155,-0.3498363618982343,4.663358307178832,-2.055982886516027,-2.632163453913328,-3.138402628022044,-1.6456962973442442,1.3935668575820037,2.8470609421190565,-4.974142382536698,-6.326223637461431
163.0,-2.3525048472963443,-12.906281914582284,-10.553777067285893,7.69274152652308,4.118028116674101,-11.681052641541703,0.9925441568707538,1.751912363352634,-1.680770375689281,0.9577356379441655,-2.2149132359238006,-6.4163063111657745
164.0,3.9547474953247566,-9.536758816341809,-13.491506311666846,2.7691827059267076,8.741022771920994,-11.544148784701346,0.6172797634889916,4.446963643808327,-0.655984405865857,2.785399577687412,9.152892955523146,7.539601118599818
165.0,13.021912390537357,-5.703196107716373,-18.72510849825426,-3.688663567576823,15.89427853700509,-12.247306385538623,3.0635454915034246,3.673868253888961,-0.07336459455179578,-1.8838335605005407,3.5248959991245896,3.8538408000699595
166.0,-3.227269581963742,-1.7370627685097089,1.4902068134538657,2.4459017801435814,-2.4120917943237403,-0.08303380240654601,5.853146639166818,2.3895301979059385,4.770285649096386,-2.810923037377613,1.0330478037330093,-3.2289724147894714
167.0,-6.200331058309567,13.089195286027012,19.28952634433667,-3.40659302251221,-12.714172410233434,16.223664730068432,-1.8331303879662624,-4.825188757500278,-1.7941493934367085,-6.596031150751873,-5.363043417055538,-1.6494823477393772
168.0,1.4331145012400945,16.39204666724759,14.958932166007802,-8.875614802514473,-6.805528952327497,15.625140506349135,-5.624292081326441,-6.86770054527714,1.888436640995597,4.606323760845983,1.2322692228316128,1.5657718763706252
169.0,1.00308046800011,8.635578352121444,7.632497884121648,-4.8577049650802895,-3.3519449929085017,8.157437829829764,-5.4728156281140565,-1.7710447956867794,-4.327558093518527,1.2102036126890003,-3.140197707401159,0.1410262519582385
170.0,-5.551525694122967,-8.35311863911222,-2.801592944989081,6.999602785131421,-1.3275313804659485,-5.557705376941091,-1.2064920029324386,2.430280148297715,-4.6360385459564,1.6603973245485304,-1.659560379166957,2.5959537341109438
171.0,1.7957394058138654,-15.453678896153084,-17.24941830196698,6.806012820611874,9.576858279775617,-16.413001987160072,4.1459798972246915,4.50153606618895,3.8014107418727896,-0.3623824335023167,0.8580746879473402,0.4916834948398109
172.0,-0.21977488857628136,-5.3173084671159465,-5.097533578539851,2.7533653881844415,2.4217248449190407,-5.191013026109442,3.4184655586004724,0.7341143683030067,2.6594946497892185,-0.6985264374362011,-1.3968259401844696,-4.864027362503701
173.0,-0.571734363113663,-2.399022504039494,-1.8272881409261474,1.4752968626897258,0.6169302006209691,-2.0961940896809743,1.6450163921740448,-1.0183814439819836,-2.408162944947022,-5.687041011337762,2.8400573515162235,-4.217737147803645
174.0,-0.0803264579670604,0.3015501792859894,0.3818766372529061,-0.11923750620943468,-0.23865080841954844,0.3604046770814764,1.4259001162501794,2.8440855374612175,2.414024722673293,5.131183875005771,5.341083991612429,4.092575121230932
175.0,3.372393271525415,4.726105425535936,1.3537121540104429,-4.05987739607553,1.000482059772835,3.0609132685264977,1.809848908082672,-0.2680520441530375,2.851034952406666,4.636677304212972,7.916431683778255,9.260809318185148
176.0,3.9840244277133934,-0.8211208589838472,-4.80514528669721,-1.5178375421508408,4.379455760112102,-2.868735752300564,-2.215826380196558,-0.11722649599299428,0.04165432854000484,-3.777791414717031,-6.804788283458484,-6.655743435292591
177.0,-4.004061930919972,9.101655438395788,13.105717369315977,-2.5698142674607327,-8.580050739064838,11.12828941045326,-2.832395852855286,-4.445970995952948,-2.132128540070914,-1.1720763136065524,-8.38164586028823,-3.0788472646943337
178.0,1.918977503197806,16.553917554419844,14.634940051222141,-9.263887938448953,-6.315796134363627,15.541117970474074,-10.712225259554407,-5.957427976094734,-8.28879473905087,-1.230177312592048,-4.4683115263622435,-0.936134948967231
179.0,-2.4799345244555546,-1.9503095915888808,0.5296249328666498,2.259852203601942,-1.4726649558724634,-0.6840422421535166,3.3154819547740484,2.405773563401225,0.15195108154285686,-1.5681157158960526,-0.5109502747816079,0.15316881185345754
180.0,-0.30950698620234207,-10.568762605208873,-10.259255619006813,5.398465766795148,4.921544122258893,-10.386033883726855,5.470491224643334,5.759131944396241,4.586239942748002,1.1494775430580804,5.719261054944847,3.3821869520018115
181.0,-5.741513860850187,-11.534038852256103,-5.7925249914061485,8.669211207021073,0.04831425698628866,-8.63247927148847,4.795251881706049,-0.16718030907672388,3.7266526154425508,6.629699378212356,5.814326052555961,2.858147422729607
182.0,3.1087633994555643,-5.571301738766411,-8.680065138222098,1.1776002309588325,5.917928815658177,-7.170110254368839,0.4795489604923602,-0.5563736445607141,2.092288861475306,2.7660004227603507,3.020972374833372,-1.0174328842510094
183.0,1.9033594117512842,-10.155091197384706,-12.058450609135784,4.145419811049252,7.0066031099577035,-11.069322684182735,2.37863197514574,5.01534532903807,-1.2717351405227655,-4.3868494529177475,-2.539548451617413,-2.165365233647495
184.0,2.02172787708551,2.9885465792791557,0.9668187021940264,-2.489729119735776,0.4759770328433315,1.9379862188946317,-4.0598093377887965,3.421680390784663,-1.5896224233687735,-8.014964276896563,-1.875660784733749,2.4322376195898467
185.0,3.2042795278000136,17.000415220295135,13.796135692495367,-10.089485482167067,-5.347824613342007,15.35815663442133,-4.856712745492877,-5.995987607403475,1.0606542788414455,-2.866707904452468,-3.9063403206576996,-3.6923743336345014
186.0,-4.5956650064629,9.875270355798248,14.470935362261095,-2.628228852274334,-9.508926368745222,12.20970113844402,1.1285944899892835,-9.60145495636043,-3.7558984250675014,-0.4513754783820556,2.683350210952764,-1.2701977592001
187.0,2.46493260661403,6.453317474930277,3.9883848683158423,-4.448342323785928,-0.740733414828294,5.254935605930757,-0.6456650362706075,2.7909141276886613,-1.7302505711036529,3.974737081865715,-3.661272395468908,-0.7719033426303423
188.0,-2.189942352202824,1.2618822144333086,3.4518245666357967,0.3950792616386637,-2.802525360607574,2.3104484295807324,-0.8379334772052489,3.335007120945399,2.92974574483606,9.395059582779863,-0.48086062129966733,4.660858956757824
189.0,0.1694866421652017,-7.699741712945591,-7.869228355110788,3.7736764534269787,4.037065700884102,-7.752330580359661,0.6227376964231096,-4.49396498626972,-5.938553776595151,8.0588021814369,-0.7717507418770725,-0.23398922325567106
190.0,-3.6719403043411054,-15.217750082889317,-11.545809778547927,9.452611800051011,3.9563044066046,-13.348292879200935,3.367976051007667,4.579166609719224,3.889023798713893,-3.29179704042214,1.6556241311776896,-1.1097353434024915
191.0,-1.381695637144674,-7.933117399697303,-6.551421762552106,4.666050678211638,2.528996931720898,-7.285418604728358,2.6599535202928566,4.764180679745232,7.800785530640633,-4.366183170437987,8.21409085258513,1.0319324635645861
192.0,3.102360471194581,4.629079224398406,1.5267187532043485,-3.85361044853667,0.7366028761243473,3.0365801400869055,-4.246806667081475,-2.8644376279435955,-3.3299011566655423,-9.283358416085926,0.6256334349580999,-3.585223107864768
193.0,-0.1717002717726861,4.386714711907285,4.55841498368016,-2.0893390656773057,-2.332294035528952,4.510609666624877,0.9427463284973818,1.3881751062876144,-0.33213003154775333,-4.717180169714145,-2.3537070852685256,2.8492165811741046
194.0,6.400620111987123,-3.615497667099821,-10.016117779087264,-1.3668415768645161,8.246551592839266,-6.778885224953428,2.5129797001246605,3.176948306396259,0.7290622036246286,-5.311842636525799,-5.724786056311547,-1.0592220404342996
195.0,2.718351480231537,5.735158752063477,3.016807271831304,-4.272509079832133,-0.10601363644746964,4.331256521414842,-1.2526694416148985,-1.8676188098161675,-1.4074166185108334,1.5987724807461103,-4.308786676215359,-0.625627809476164
196.0,-2.3362609507922234,6.5117067957313335,8.847967746522924,-2.1280536385307514,-5.623943958322441,7.7095969518418475,-1.2283296690815035,-2.335008327047759,0.40169502401552437,18.387482633873265,9.742089378375972,4.536908148020011
197.0,-7.895362472121215,0.4692735439570037,8.364636016077823,3.7544469709446657,-8.160451057082748,4.363150877386103,0.7955921424385044,-6.998283483386816,-4.584618150821697,1.821483401952623,-2.234206436108111,-2.8861457492055216
198.0,-3.1122278470152867,8.702743001902356,11.81497084891759,-2.831364293071039,-7.495439979625797,10.279509928578467,-3.875589801784479,-0.7371935723025147,-1.4514319929761301,3.5330907501333586,-2.3806995354777714,5.197128819671149
199.0,0.6637693375519937,-3.2396483238369296,-3.903417661388639,1.3317054394264063,2.3269389318122427,-3.5536464939181753,-3.6162393391438545,1.2254919357507683,1.4841388936193063,0.22425440769438706,-0.01778223227201925,-2.783309808458899
