Time(ms),I,II,III,aVR,aVL,aVF,V1,V2,V3,V4,V5,V6
-200.0,9.111022138021161,-7.3247678516213774,-16.435789989642547,-0.8827727745940436,12.738704432420317,-11.904975330048597,3.67884347504116,0.715088210784791,0.7116078711798683,2.1679980723664665,1.2637364490696044,-2.5589109107283465
-199.0,-3.1269210520221358,-0.7418831761151559,2.3850378759069484,1.956360182535978,-2.785753261807086,0.7959018350002092,10.085262349324367,4.069350770713706,5.032633900292799,7.950135961854314,5.38784030534926,2.040815730255436
-198.0,-16.75322804670439,-8.362768644032723,8.390459402671574,12.51356662228336,-12.515800559244738,-0.014054663622457775,2.11912054273515,-1.3359383767530597,0.037447286425623894,-2.587234082100214,1.4979386021247367,-0.715171051778136
-197.0,-13.532155031781816,-8.810595351894387,4.721559679887451,11.217239415297387,-9.142180745660806,-2.076211493916531,-2.121036605014783,-6.701458786908345,-3.725499419781659,-5.977287009974967,-1.0468733358740394,0.9346897405493008
-196.0,11.281189007362487,15.200438199401187,3.9192491920388353,-13.264419085137467,3.6712837071544344,9.601955298015667,-4.853921817595854,3.528266061885178,2.653249727238396,2.4715831589878214,0.6657928300070276,5.428701784035726
-195.0,8.753398061377563,6.682013534075319,-2.0713845273020066,-7.735316423733782,5.4049008788203725,2.3421565008336627,-1.8039132581274062,-0.4245183353512763,-0.04066912886531088,-0.6664786534634202,-3.59680145199116,-2.555836933092836
-194.0,4.093560912373396,1.568309551050378,-2.5252513613228844,-2.8462450942817226,3.2998575956010257,-0.446527193096401,-2.467544822265676,-0.11548149639127459,-1.479922486586057,2.1757522823746185,-0.9961795706567724,-3.3111040221999892
-193.0,-3.432900410463447,0.7011464269891139,4.13404683745263,1.4280927939374957,-3.7990536155225048,2.3665758584923378,1.6675818678665413,1.3141779176128752,-0.48958062027635996,0.09873298657540083,1.7345881060219963,0.1554068436208773
-192.0,-4.962351507285028,6.011438137731427,10.973789645016478,-0.5452729857292216,-7.913713957523229,8.438182089264245,4.202690552774269,2.0877963235318293,3.8422688392212825,7.1847417964417595,8.136675029450448,8.23121433173682
-191.0,6.201603573248763,0.7055256697136079,-5.496077903535133,-3.4807066963338373,5.81449571978964,-2.3733090485416253,-1.0039594015649689,-4.222943119852846,-2.4043288505585867,-3.834938076417925,-1.3938885391268223,-3.3322209257900215
-190.0,9.686046154016514,-10.443426370967215,-20.12947252498385,0.4225720340574668,14.942678496538155,-15.265343615753695,-4.0980113390717445,0.2743870914656077,-0.49489214254956193,-7.8365939369833155,-7.052895814174133,-6.070829394208538
-189.0,8.796874521175816,-4.87133712837175,-13.668211649547775,-2.005570919423199,11.180926548864964,-9.247790051593448,-3.513772558550264,4.571283308030997,-1.3458444831520053,0.268951020283132,-2.1872011923899706,-3.2400659248736394
-188.0,-25.550731342745454,-16.62410006455904,8.926631278186177,21.116552530983984,-17.216898213350614,-3.824479697271145,8.808995510738841,-3.177734071034698,-2.180889514283538,-1.3016942460443794,-2.438438617169715,0.9622416828151008
-187.0,-10.288817466184149,1.2845384385728016,11.573355904756738,4.448259737960168,-10.911974570583928,6.377101382909663,2.873540734584139,-0.01768567444480884,2.2720567206512112,2.6987185022686195,3.741407318467771,6.236467426366431
-186.0,-1.4135699782472804,12.901543801674844,14.31511377992205,-5.7196883565426315,-7.845361637064335,13.636992399940194,-0.42772870992721823,0.9832161283127955,2.7215409192458804,1.0816329983040296,1.6036101017834161,-0.6275057488016453
-185.0,-4.345681523073578,12.086383918232217,16.43206544130586,-3.84256700199343,-10.446549921801221,14.209125413049893,3.054969557667069,-0.3937039199181884,4.557768392511153,8.80406741216863,7.435084727640383,6.119337952345859
-184.0,23.11997116119269,12.708750918998998,-10.41122024219352,-17.879888001007785,16.790750630808382,1.1756302945485722,-9.92928774489347,-2.98722967786235,-1.6134076940718063,-0.4063206264099657,-1.0308994911920148,0.595892442321377
-183.0,10.486369869612211,-13.01617258225914,-23.502542451871125,1.2284327125071126,16.94687701007148,-18.23508287982026,-4.426941587678474,2.1968089928841645,-8.127217879899014,-7.603001997958792,-8.916787956320992,-10.54130883000508
-182.0,3.248431817414401,-4.600229692298569,-7.848661509712775,0.645598541541349,5.587607503781891,-6.28071511496585,-0.5195942095938393,-0.971993801206362,-8.029450092834717,-9.991177677464378,-2.321630659339511,-2.6535581136953614
-181.0,-9.942159651272462,-1.2210195119489349,8.721140139323612,5.6320686013757975,-9.283301036886819,3.7731694764208505,4.021002824976217,-3.256297932443078,9.144015508352084,5.577084885775005,1.1073966373522328,-0.03233942691134062
-180.0,-3.0241413504634176,-8.152676535801191,-5.128535185337716,5.556710990193439,1.0312876542885219,-6.613450176313944,6.844988553440576,10.512337799012844,9.695336173822703,6.1873159739227095,3.9177964629517055,2.428136145768326
-179.0,-2.4550745787522947,-4.012430162578935,-1.5573555838266455,3.1935749297574887,-0.4618572635659479,-2.7503656430377617,3.092786133175144,0.1387209304623469,-0.24927012721195219,3.491273890169473,5.425856468757107,4.986580296304452
-178.0,-14.000927650300886,-0.8854945678274473,13.115433082473402,7.470335240986194,-13.566628940327691,6.080248203997084,-0.1612905975889798,-5.317482053126705,-3.1274726811509392,1.032691200538004,-0.26193776595233054,2.331680800775485
-177.0,-10.742026129072421,4.463919800266591,15.205945929338897,3.1548900990511424,-12.982281256476949,9.810029387931278,-1.2983764375047167,-4.001085486333411,-6.874079960076911,-5.568170823591013,-6.13664823434609,-3.67076661066747
-176.0,14.782425330514707,19.626045717448054,4.843620386933069,-17.196351460179034,4.9570520102031645,12.218342104337317,-10.271441297044017,-4.482243573877545,-4.460143534738254,-3.6041074850035746,-1.4855107769192002,1.0449879125026442
-175.0,16.766971828654718,5.596497475340611,-11.170474353314532,-11.176229853922493,13.949448046448348,-2.7975935126027096,-3.249007338680106,7.649580176274288,3.5356026900208644,-1.393631830470392,-0.5708233749360239,0.3606142446903251
-174.0,18.906031822901017,4.0281299409937175,-14.877901881907633,-11.4576653804863,16.943558488159738,-5.353858823845963,-0.41629345633455617,4.196809258623461,12.57685904579712,7.436994853033983,8.861438863426546,6.512877899912892
-173.0,-9.96275887889009,-19.070837153724998,-9.108078274834874,14.456779598760598,-0.38288450522026984,-14.097413148308584,7.702680981014499,-2.7521041574352783,-3.493884074081344,1.173202820961249,1.7743910966629532,-2.8875766999576777
-172.0,-14.399770333041914,-13.62302014550501,0.7767501875372602,14.042674663665727,-7.627969997841551,-6.4344136269811045,5.906649637841845,-0.5964538237156138,-6.000665817984307,-4.6106571674709595,-5.584283844757279,-9.869422507500916
-171.0,-14.611252418188052,2.429216284871674,17.040468703060192,6.135122201552672,-15.869042675069377,9.717370163715328,-0.6237633238101692,-1.4533348444575447,-1.6658016515334804,1.2037375563788562,-3.748393181127622,0.9764364331812985
-170.0,-4.331536639687584,-5.576970617847986,-1.2454339781600048,4.92958384879221,-1.509173009939385,-3.4370699937263547,-0.8130442330039305,-0.8865520878389321,-4.646625883112861,-6.730429486795028,-7.777588359050707,-8.030979680997076
-169.0,1.1288523214406925,0.6435154768477407,-0.4853368445927275,-0.9063181428303542,0.7621268918016293,0.12262823208632279,-0.6430988309043044,-2.783442402415544,5.296578043394488,4.655808409357654,4.066981802696679,4.884885347846748
-168.0,8.507388912061371,15.403803915616992,6.896415003555538,-11.977997667629818,0.8405947590486592,11.106249737703937,-2.005977262119519,2.847123765329111,5.17439166931922,0.8505528477731072,1.8452191461007392,5.072503685442535
-167.0,14.00877845776591,11.201997694601344,-2.8067807631647907,-12.557798128052784,8.445251322566808,4.226090669421255,-3.855898762528748,5.0659246649341885,-1.9238052521652802,1.7965840697456443,5.77226920046477,8.056251978395519
-166.0,13.120917337305936,-2.1238597462533564,-15.244777083559628,-5.542978727339591,14.14415979787701,-8.659086512881675,-0.8683076462428336,3.550209164611942,-0.29852687496642644,-1.2665161788049957,3.182228169530266,1.34998093904432
-165.0,-13.035871828008226,-17.442797441770765,-4.406925613762677,15.25892554328859,-4.272755231802937,-10.899713857116225,8.522569705652696,-1.0368511969464194,3.1178202835654423,0.43134803878582106,0.33022257652045583,-4.796255464392232
-164.0,-3.0499963522563514,5.581438007757168,8.63143436001354,-1.258804590286985,-5.878111509873012,7.055165736570621,-3.1799020368810256,-4.311406219206828,4.588926475742825,6.772239490602352,5.304142890803579,4.810795014211533
-163.0,-4.539952356232809,5.921051086771303,10.461003443004126,-0.6913658327007326,-7.540697266970543,8.143485590853892,-1.0542382098723437,-7.400195200415578,-8.956731941919593,0.2398860586540309,-4.5821573576204555,-4.131999713358992
-162.0,-7.153227583125188,-2.0445610521927526,5.1086665309324655,4.596909227168681,-6.097142564952605,1.5675741085679151,-8.814916348793677,-6.914384872916131,-5.215597828609594,-8.178382771911952,-13.059276961923437,-13.089078919751792
-161.0,-1.7609947660617316,0.22744653803851955,1.9884413041002236,0.7701140508899984,-1.8460889903703037,1.1478945426966185,0.012126305183154162,5.891064057480094,-5.787738700887169,-10.109644149347137,-2.9514182564437785,2.4045458595444966
-160.0,2.877604082100045,0.904307778828255,-1.9732963032719533,-1.8775316323926732,2.371535815901901,-0.5690643724880697,7.045848248939095,5.118049935475757,3.0438796069920073,2.2166557650603576,2.7375426645669876,6.579946917097456
-159.0,6.156303497515474,-0.4233941101080311,-6.579697607623717,-2.841101621354278,6.391937860881077,-3.4537207647241113,7.255443047628351,6.689535064919417,10.209756953378868,8.837370546927632,7.838221541845485,3.2246773768781245
-158.0,0.39170516297358127,-10.612129471990047,-11.003834634963788,5.067344699120394,5.724311661792962,-10.836270641916997,9.955439307522767,3.9446044797153434,9.474057241080851,8.823399553486707,4.316229556305886,-1.5274712588487862
-157.0,2.85226954146477,-12.706993756257162,-15.559263297721895,4.891030402235132,9.237873592264814,-14.159982986153814,-2.503011632822041,0.8058148927588173,-2.9585797618695446,-4.305749486647552,-5.987597517564188,-7.4584440191812735
-156.0,1.4709575095457597,7.3464078604626355,5.875450350917029,-4.364935072038793,-2.241809954647491,6.584608836594755,-15.500670840737591,-3.926346539638871,-8.246581327952825,-5.16416952930581,0.39354980200471934,4.424111521005065
-155.0,0.4747503788348836,16.927133688743552,16.452383309908832,-8.73947524874196,-8.021475697807636,16.742588762150685,-16.415943635252876,-12.425846921002687,-0.5831850319249776,-2.1171376823787664,2.803689529473454,4.345604176191782
-154.0,-0.24222702035946675,16.58707732171618,16.829304342075837,-8.139099995136023,-8.562904993206091,16.68337227560177,3.5415529296674233,-3.2371221455056887,1.1428785175139344,6.154228297748174,6.78286331450957,6.492269993745687
-153.0,-3.4030581684266608,3.1160905770056386,6.519148745432419,0.1684973369566678,-4.905757563387369,4.873736219710695,10.009385694221816,-1.6785817591208665,-5.157072882177581,-4.995789683996961,-3.780711810562636,0.11081260357927136
-152.0,-8.829392081996172,-29.685113386437127,-20.85572130444095,19.27429704511533,5.9918885211623545,-25.290113782302264,15.191997255119944,13.765227123702507,-1.4080484664748796,-1.2488500517314516,-7.177758411540189,-10.43914991505226
-151.0,0.17500216406933777,-8.52261841331,-8.697620577379425,4.10579781019935,4.494528870415874,-8.6269677816785,4.211945165608359,2.0038691151678023,-4.0063870800477215,-2.9243349459900982,-6.967014620849058,-8.43202712687695
-150.0,0.34826347507956434,-1.471736446410592,-1.8199999214902682,0.5687822573916756,1.0628510319433846,-1.6607460872674693,-6.9867825010261635,-4.265951664424489,5.033598503238657,3.579476933036708,3.2393825534116107,3.564221687717964
-149.0,6.984238904036485,10.72827248067361,3.744033576637057,-8.849609965440886,1.5962114179824565,7.222170612994875,-9.211454458438656,-1.7583527091142577,13.96529976551128,9.728656267986572,7.85862186027778,7.278085082461872
-148.0,10.028269791423094,13.437778689704693,3.409508898281489,-11.723143278241883,3.280803955983306,8.410024063159353,-7.645575840199046,7.496798380222244,1.88877489267154,-5.019103177479565,-5.727644813832292,-5.966559855943868
-147.0,5.721704164368834,7.016635078948159,1.2949309145789671,-6.3526568438231505,2.2571703462253474,4.221671355789639,0.9095735244095877,0.8991552081661636,-5.459325563235701,-6.2959033835285325,0.5408851444732661,4.610672795690338
-146.0,-12.830806942722084,-12.8532882434965,-0.02248130077466337,12.867627798538386,-6.446167731458728,-6.448897322574102,10.006827657262324,-1.5616663535512085,-4.068499873260606,-0.500113681101821,0.6358559134558617,1.2541575157803244
-145.0,-10.929794071170141,-15.60394718796125,-4.674153116791329,13.22369394395883,-3.0973101310096123,-10.147135251123174,5.848000361128047,-4.491651867991175,0.1609598570181321,5.6798855001035236,2.2939116775061743,-1.5611999450977323
-144.0,-3.023814339974372,1.6680835566412737,4.6918978966157665,0.6440087004188157,-3.831436715467686,3.175142002612449,-0.5468056859579384,-1.9505695554865947,3.0643439594898587,11.769975551227315,16.265197214287078,8.1534806116359
-143.0,13.684166395710637,22.81670391698159,9.132537521271182,-18.198099031434907,2.2222846250074095,15.972150677420931,-9.950917684966566,-2.812971047671451,-5.225552007387861,3.287125742545279,7.101579420373561,6.368150321096183
-142.0,-3.489032282637373,0.09140276268357894,3.5804350453213996,1.677390613385164,-3.507929301209799,1.8339313234992174,-2.499619230884391,-7.276956850517493,-14.006494862790495,-20.10991996279492,-15.305802368353515,-5.789177808060735
-141.0,-7.686495456803388,-8.015024846264804,-0.3285293894609819,7.83184100887463,-3.6487629404515034,-4.175662746212064,-0.7076637152114653,-3.7000438886726954,-4.8617460424150485,-14.204083746511035,-14.34494430668492,-3.278173294149445
-140.0,-0.39459352216968757,-12.318014211805535,-11.923420689635444,6.41640925880951,5.719606474992226,-12.128647524214973,5.73926731604946,6.425601737870362,2.352453197607649,-7.351641869402318,-15.599535486120125,-14.552139367811165
-139.0,3.930650886838785,-5.667524781216809,-9.598175668055259,0.8481472435091968,6.8007591338988185,-7.646156383104808,2.695450178360739,5.3028455307191,11.65500181330915,12.71480978526044,1.527247268814805,-5.875760192987415
-138.0,27.388067938086337,12.974809450611776,-14.413258487474776,-20.204997011194234,20.85816093905526,-0.6594514362414214,-2.052017397118023,19.308468277171787,18.51391403284309,20.088815103724745,10.70858165871621,4.224078813480139
-137.0,1.3951341394773227,5.29340442876469,3.898270289287105,-3.372372865498572,-1.2182206537152114,4.571763355540501,8.37592714424886,14.391498572402929,19.311021210368693,11.279770902786714,7.4455592221795825,-2.5878652496252785
-136.0,-22.055968085867438,-7.885756528052786,14.170211557814243,15.016146559778871,-18.163481856608385,3.1141129462604527,4.463212030973342,-11.67494849188628,0.6144247990440741,0.8150443759843871,9.458696613098354,6.391154219234267
-135.0,-15.329035530185253,9.901468158512808,25.230503688697848,2.753430751147371,-20.257019466440884,17.613774637407385,-8.782619280716247,-21.409747224597606,-24.639022682750415,-12.18657419591947,2.048049893849229,17.660825362192924
-134.0,-7.188204648021706,-2.0232598423423247,5.164944805678825,4.561290454680661,-6.158400810356271,1.5382262114515095,-5.195493681970852,-8.466410807622148,-22.754277076083106,-15.04442971026067,-5.751260140084522,2.633568127880473
-133.0,3.435567906331607,10.400868054909305,6.965300148577333,-6.967074276878107,-1.749069050461363,8.650058480590195,-16.296276612926253,-19.93073303671556,-17.342566439028033,2.132996160227604,17.512045348941623,17.521636863552885
-132.0,17.36899492643863,-5.732993122721096,-23.10198804915972,-5.790913557604823,20.251376386941367,-14.370785631899313,4.3988139436768074,12.128024799255442,8.010212684230071,5.859312329802568,-2.000049914400032,-14.27976777529943
-131.0,14.228207811901033,-22.93316286862993,-37.16137068053089,4.378922139382198,25.633868852925374,-30.07687873285396,11.314226748090675,27.861543408649897,25.064142962303727,-0.5466462190902968,-19.243335442884874,-29.20512857533273
-130.0,-2.553009652928486,-11.15033736412295,-8.597327711194305,6.879713627680393,3.0427210948339223,-9.821096366737967,10.856064688391903,5.048710557716509,4.253440898590583,-10.247939099026437,-20.16595960286523,-14.766040570210285
-129.0,-4.516303061081805,4.4109208822749055,8.927223943357156,0.005166665659633196,-6.698703833646678,6.647037062599565,-0.12922901547783638,-4.109292454023013,-2.976889369762443,-7.757985682877461,-9.374871896219679,3.6145078984275028
-128.0,9.025363133992094,26.797882939676832,17.772519805685263,-17.876872530090044,-4.427655826787968,22.266374264176722,-11.31432939420333,-7.346639046983563,-5.735849157733114,2.263962941436,10.304538717953736,22.176907058741087
-127.0,-9.036817029700757,13.13318881975403,22.170005849454967,-2.089706240752059,-15.578250540048028,17.634063477351237,1.5504544430547145,1.140286640635468,10.264880484788709,21.448582308539976,25.802016672925433,15.505881082785407
-126.0,-13.423014121505421,12.94466152412613,26.36767564563138,0.27689564700434544,-19.87083623334265,19.716048713921722,-0.07165424295993272,-4.825089921502406,11.065885115400295,23.413355464097982,24.48081641141445,11.069189039317259
-125.0,-10.38552241412586,-7.105855819668898,3.2796665944567405,8.703080084529908,-6.809905877898518,-1.9359027604938914,-4.813924937457214,-12.035497422396567,-13.438234363927453,-1.6058884001688707,0.8951576229220954,1.4811284194139658
-124.0,-6.245320591512646,-32.401121057829705,-26.155800466317185,19.35660754571665,9.8960684324128,-29.306913890080025,6.9624064592563375,6.465096158161449,-5.770568088512571,-16.929947806345908,-21.52170045432694,-21.915551823975328
-123.0,11.306579391064819,-19.976243394705058,-31.282822785769707,4.2871369792181815,21.309797503362013,-25.66369303453358,7.7128058316182155,16.272629231555467,-1.6454606333532027,-18.619582770657296,-25.62458238087994,-25.118857880272575
-122.0,16.44770093436161,1.7993929754344293,-14.64830795892663,-9.092677012663046,15.557437148581105,-6.383702089022247,-0.6874954171008036,0.4412228612551985,-2.657065554795295,-14.470392523167929,-7.973339617546156,-4.099027446181367
-121.0,-2.2254436713055643,16.79087770449954,19.016321375805692,-7.2487538882829465,-10.617684103570273,17.94385555710445,-3.8106664599466034,-11.151572851354137,-2.6844439311102404,4.264165450637856,6.05987300155351,14.95981182075738
-120.0,0.064395349164458,16.91323927751769,16.84884392835342,-8.527265964162723,-8.394799957867288,16.84563473814743,-10.735382043279614,-8.303775713519983,2.6639504696008522,13.294344034785334,18.506492069226546,17.972890618922953
-119.0,7.158240065760513,5.855542649792945,-1.3026974159678772,-6.458347731316614,4.223912968313785,2.325198311977667,-4.534186420939035,4.052581732133517,6.7743108822501155,11.758490531094536,7.726048414601557,3.489033595553952
-118.0,11.456449070323872,-4.44389376749503,-15.900342837819638,-3.52858136546491,13.671079918784692,-10.196631260209468,-0.5716099939588803,3.243412472957305,-4.349725893422725,-0.6411034806308749,-3.910482950852643,-8.740735765447846
-117.0,-8.65950069692918,-3.537805525827114,5.121695171101359,6.081589463259949,-6.894261892609144,0.7705002360335936,8.79666629451995,5.2469649732435135,5.846162270969075,-0.7570143406993664,-1.4041224298984654,-2.0301710071732835
-116.0,-13.262467900527508,-8.211960885278998,5.0505070152482325,10.721230514882938,-9.151554166004315,-1.6029485204142415,8.080811229968926,9.133117526551104,4.041153467599635,-1.2367801507326743,2.3324980772653,0.4843655172325507
-115.0,-8.933781064174791,-2.3645701782212685,6.5692108859539005,5.630022662710282,-7.733551621548462,2.075638485884214,-1.1526983024103332,-9.862258904049718,-13.370323003470688,-9.974205048042009,-7.675218003441413,-1.5276949358857774
-114.0,-7.350809510025523,7.157919132083848,14.508728642110164,0.14994527073492048,-10.896155371897484,10.878906644197615,3.4192774460733997,-4.897049915058161,5.590626037209147,2.2324945385036314,-1.2366920098864695,3.52897989404579
-113.0,6.747992364809225,-6.386364986365132,-13.13435735117363,-0.2129065487159969,9.911675174589542,-9.720935819111874,0.0395184851917334,-0.3054142019630879,4.523801486717967,1.2798910370417325,-3.825236697486151,-8.113544695461252
-112.0,5.1055041252255355,-5.048722706683214,-10.15422683190836,0.01292299360455118,7.613088977676239,-7.644607568411681,-9.735068479776217,-1.638272169367074,-1.0965365810468612,0.8652392455002069,0.3400349068816153,-2.757021675885182
-111.0,6.04039214535964,-0.8573995513951971,-6.89779169675489,-2.631156746439779,6.459983459925461,-3.8424785972351225,-4.557908629939615,3.7670648990146725,2.191356030624338,5.396540901905642,7.336807788004383,3.1976789563484656
-110.0,12.11034070304308,17.479691684517057,5.369350981473593,-14.754404619814425,3.3632774075092353,11.383415414478545,3.3725876882412527,5.926605844981703,-3.2752837576770224,4.329052029954053,12.461023642721257,12.862275627013936
-109.0,-10.046220580428798,4.660571776702716,14.706792357131,2.6595629819434228,-12.386796904684477,9.725666512757233,5.554718030026222,-4.783492125077603,-6.100171020720918,-4.703646758976408,-5.361630012478054,1.2152482014402288
-108.0,-14.95272223529563,-8.959905042198027,5.992817193097171,11.930081517256628,-10.410461030275522,-1.5157516818571493,1.347484421976091,-3.6222469665121935,-0.22966441840884944,-2.250168909687426,-6.038540895580709,-2.1193860647544414
-107.0,6.597415794801831,-8.534249764244336,-15.13166555904639,1.0284005208587699,10.841069496288618,-11.86181904919316,-7.431383122474057,-4.590223129346217,-2.1795536607777173,-10.858128571463448,-10.01811169633345,-9.76816586719145
-106.0,11.358989830245594,3.5992285526129324,-7.7597612776326335,-7.491884096589651,9.52981878314107,-2.0291444485833257,-1.5041316219487464,7.095077788534362,3.7150083859945413,1.3669901022315463,1.6153062556536,-4.248844763392677
-105.0,0.6897999774315371,-1.0976384370206018,-1.7874384144519193,0.19392015493268822,1.2837357681668455,-1.4713219051018989,4.032053871645847,3.7669112801176365,3.092218763348404,11.676735180893349,7.376496886796925,1.4150353552172295
-104.0,-5.994428026025468,0.07514043081742239,6.069568456843133,2.948055233797279,-6.0674453183883195,3.1190392314638418,2.798028966068526,1.166158603692101,1.9949762976477095,2.1523638693354368,3.4294404906423455,7.041659576182073
-103.0,8.923304107282275,10.426499034017995,1.5031949267359384,-9.692625694946848,3.7534480348958574,5.928041885810234,-1.832669027392964,0.9501169478277753,6.4197378528409414,-3.5360661969518956,-0.1984897891755466,3.4435355622299326
-102.0,-0.9305514831727328,4.227466863420428,5.158018346593224,-1.597167066683814,-3.0782672745204698,4.6506912591110865,2.461589193179388,-2.690560736336037,-0.2679269527101826,-6.9567780333044,-9.093025127597421,-7.129246136492124
-101.0,-11.324527263233355,-7.591234046789148,3.7332932164441863,9.419021038554252,-7.560740461669424,-1.8969844349616287,-0.1454857562126796,-4.953129600648264,-4.7189097156111925,2.2713832143148265,1.051850294975099,0.46974502448908617
-100.0,-0.6635365695430968,-7.959720502954305,-7.296183933411337,4.341000494964152,3.366010325017726,-7.599352791920493,-3.2154233247208848,2.645256466297688,-2.5109054473386587,6.36687771941157,6.7697148018161855,3.700954706842024
-99.0,-3.6474910592610836,-8.084157424145726,-4.436666364884809,5.809445467557346,0.3690359530623215,-6.2336727402446535,0.14790900365705717,-1.9725916082091612,-7.459342402584113,0.8684071186637436,2.624998998192989,2.094465212063363
-98.0,-9.699215043297315,1.5062362341313487,11.205451277428477,4.117474047786056,-10.473507220283802,6.303022634853872,1.5151175570796651,-2.953910519779355,-3.290639197109879,-4.029877678242266,-3.541781859329985,-4.354922163891951
-97.0,7.964502520051809,4.135145006032342,-3.8293575140195752,-6.0237239535867,5.959479269845108,0.17821375175561016,0.42072031480926625,4.195127126137059,8.511798883193498,0.5453447933952189,-3.3841932905227,-4.690891006624801
-96.0,9.282083682441051,0.1466584753062934,-9.135425207134702,-4.677477222077121,9.19722974463308,-4.548936934421684,2.768750031796014,2.599377789732002,1.72706217795447,-6.610423006034084,-3.0297727910256254,-1.6768491383003559
-95.0,10.887163611311761,13.630275237235487,2.743111625923989,-12.286658602329315,4.063474729173945,8.209020364934807,-3.919336614800672,-1.386643938671708,-2.34251058236676,-0.24857552228060453,0.47586925602281593,2.5090781757599223
-94.0,-2.4622936356352243,7.8084208385119185,10.270714474147486,-2.6876249709846567,-6.3752213700381954,9.059515929717032,-2.19987313998468,0.1194412734496949,5.241902021163506,3.479528828818836,0.4388830131946905,5.885668015027213
-93.0,-2.6091782032100195,-10.712832217645586,-8.103654014435353,6.655616006732325,2.7343944760925227,-9.390779233642423,-1.0380626126083983,-1.2027366913696915,-0.3036046139987616,2.7228269335525344,5.6854481137203505,6.4760482458497
-92.0,-7.737423991040977,-8.918138394027263,-1.1807144029863041,8.324816870209052,-3.299014462233741,-5.034275514043127,2.9059027297448132,-0.9559668117113483,-2.4686263291600947,2.9365596737721216,4.970632788352804,-1.3691817218517879
-91.0,-2.583051536718621,2.343949691318352,4.927001228036801,0.11156269611847414,-3.707040899361624,3.5698337240189844,-0.8280311357777768,-0.8124486026917698,2.085744773108242,0.677421861149468,-1.240712768475462,-4.1596756535215516
-90.0,1.9946500530467794,7.150109594828456,5.155459541781498,-4.591620038375817,-1.6214467698939372,6.164195544952534,1.7592576335314778,4.363848408554065,-3.272619181611363,-0.6490793448737538,-3.1725834858120736,-4.743593587943739
-89.0,8.39903666871323,5.896588727880299,-2.5024479408329836,-7.103143112412423,5.48014979950837,1.7072982782108086,-3.024370652032048,-0.12208700780565707,2.833316740205352,-1.6859368486564326,-1.9776022718938866,-2.1658258978958096
-88.0,-5.655734864264892,-17.78930841260885,-12.133573548343922,11.751993402269438,3.2635231092033994,-14.951712019535293,2.8373345272245665,1.456196915249327,-0.20529811347385538,-6.613975676294865,-6.814013583235251,-0.7688486843309545
-87.0,-10.758837040518598,-12.845158410401865,-2.086321369883135,11.740174793853278,-4.391240987716223,-7.455876497808086,7.4236272193014115,-5.18819873699881,-5.71698127599051,1.124542343900043,-0.9966587208189743,-0.725474246030996
-86.0,-5.505660775346194,1.0918456795828413,6.597506454929141,2.216171987751729,-6.0253451750633875,3.854935115473184,-3.6903770497697934,-1.9283600135711507,-4.121534577104869,0.6494030593251141,1.600271372086542,4.18296359872676
-85.0,13.109760392787212,23.822902698656783,10.713142305869631,-18.45870654484185,1.2287755318014009,17.27844556731175,-9.05090163062076,-2.4528571731294875,4.097164318411517,6.101134318721373,10.411831794272844,8.084017743011774
-84.0,11.66137513031363,13.417694484683908,1.7563193543703015,-12.527618433941694,4.908248753363242,7.518441990922138,1.0971905099276693,9.14309520522521,11.251687335831326,5.966605973985138,6.962709715104282,2.9203146127062034
-83.0,0.15598978345962244,-9.589159187105968,-9.745148970565573,4.7374083038161485,4.987017834519223,-9.657062449675564,2.243320751893812,1.7730264216574234,-1.6203908248553303,-8.912173203359519,-8.15215737622683,-10.11173782285587
-82.0,-2.3522294544724787,-9.807657206151191,-7.455427751678773,6.033261902799666,2.508230953007811,-8.620130726302156,3.6944926774535154,0.040426425939878774,-6.22154135894733,-7.539382214427667,-10.688930675560368,-7.438311275364066
-81.0,-2.7889322151134297,-5.853001666037752,-3.064069450924369,4.363911940321044,0.16902020492846348,-4.4429008497088125,2.4208161581601595,-5.635182300636904,-1.5980358258129495,0.10211264213951221,-1.3433642567771926,2.006481979422028
-80.0,-1.9466903906224946,16.708610842934046,18.655301233556553,-7.408707012001339,-10.353686560556325,17.70564598232857,-3.251819542429495,-2.2131507702507935,5.659986349579621,11.153389820327336,12.882796751999056,11.147270603246273
-79.0,-4.100551441765142,-7.977024415631259,-3.876472973866105,6.0147108249207735,-0.09066530146367313,-5.970190079277134,-4.180284332534118,1.3225044317737296,-3.6804262825524066,0.8934226256693378,0.5401866649542137,0.5612364841703052
-78.0,-14.052098335453858,-18.737006173766186,-4.684907838312329,16.448190075159445,-4.664092556196179,-11.662107444107916,-1.6530836640435773,-3.6717546134312182,-7.444232664931087,-7.503265862330404,-7.40255620181363,-6.754490656542415
-77.0,-0.1509317967537993,2.970212320793528,3.121144117547345,-1.4395203285875668,-1.6144430821846154,3.028597049067831,4.402538089821581,2.1218691220180563,0.5551579699198452,-1.3575559436488591,-1.7286706706045325,-2.5648101203014413
-76.0,7.387052418549081,11.208307261091743,3.821254842542658,-9.334101880959256,1.8102082930894619,7.5069371870455655,4.018554146644485,5.660019330411959,5.796676680093172,3.0498908369202775,2.943659123178136,1.4206768030489125
-75.0,15.64793170724552,7.91385201308207,-7.734079694163491,-11.74450683996964,11.64720774272818,0.08557169917409224,-2.413447058396412,1.7188571029380801,5.317106203818911,4.619712778476944,3.9034565610368204,0.484152314287444
-74.0,12.349235582943288,0.6194603872794255,-11.729775195663965,-6.451243236199684,12.002984153902009,-5.562250440401362,-0.5672759849852458,2.771415292398078,7.289096608748839,5.438912132847306,1.081473080291238,3.6570334080400935
-73.0,-2.284393794820362,-0.055323822512616694,2.229069972307629,1.1246863679961692,-2.209521369843431,1.071941033216186,-0.3061919466191413,-3.769586886049304,-4.51919920625399,-1.416790848933705,-0.4938318396256198,-0.4589364660480715
-72.0,-8.870318709968748,4.815126163605406,13.685444873574127,2.065162389591161,-11.30761601643074,9.225220666410348,-5.437633434780198,-8.12628082788083,-8.151014030766802,-6.50459848706881,-0.7650506827893047,2.9842563165137035
-71.0,-7.425944388073143,-0.3884080130846268,7.037536374988582,3.872019681561221,-7.262550342260479,3.369177934306875,-1.9147401529844703,-0.9740368213285837,-8.846448471939427,-8.253795000822981,-2.548874949607748,1.032435791486263
-70.0,-17.66854341048827,-14.553563404887775,3.114980005600669,16.16048193513557,-10.346699928100211,-5.679956377625768,9.67704101864114,3.489923471669666,2.43200054111981,-2.7026894210427685,-2.070749877841651,-5.939580261321638
-69.0,-8.956316877492938,-12.934117583901875,-3.9778007064088072,10.9192813739765,-2.4476725612534103,-8.495736206561162,6.526996487298335,2.6240749095884883,7.9157520285705285,3.038213246728278,-2.7613857951086405,-5.010160502415343
-68.0,9.20183287840458,-4.052078723053242,-13.253911601457812,-2.601400847454429,11.187423305286439,-8.610263157553263,-0.9223615721157805,2.374252312836337,4.618282111906009,3.5192606293003177,-1.9603716681193526,-1.6793808046776526
-67.0,18.852932452735843,13.300217000432674,-5.552715452303283,-16.107932502769845,12.238291789560739,3.8433874058907835,-10.098989908091148,-0.6656523385745015,-2.9696459991806288,3.4411497614271465,1.7587480954841666,1.7639969662891766
-66.0,15.384626347563554,21.38804415494416,6.003417807380432,-18.347013576333627,4.644993083760735,13.670274585734331,-9.098406502463547,-4.85119348995349,-2.8978920058303586,7.7501186345391915,8.432061464424246,7.412080393723122
-65.0,1.6852159996834608,-4.5486699034505005,-6.233885903134104,1.4615514331155062,3.912404211961733,-5.414581659896805,4.390175160937555,5.474464686072236,1.6313424506032368,0.5915835849790656,6.3516253765810475,2.535180815752994
-64.0,-11.023902686825792,-4.123895298222762,6.900007388603036,7.594709908990705,-8.930432509246048,1.442179830458329,6.3738059910342635,-0.45867463173143597,-4.136933367453416,-4.424287350457797,-2.0653969936425596,-0.4936198637699625
-63.0,-10.332821245147757,-2.7533299776680433,7.579491267479893,6.4781059740447375,-8.922590013653453,2.3842909665873426,5.002711937523809,-1.3359985492834838,2.3210589077482746,-3.956420664135666,-8.38208040686683,-5.2419105721028565
-62.0,-13.921362573122513,-10.759890444371157,3.161472128751619,12.350303765467821,-8.503637173825533,-3.754636297125234,0.2421910511892129,-3.3686782288032173,1.9217846769029707,-4.220485306055464,-6.0999966200459035,-2.1827466689143695
-61.0,12.521992436222806,8.050352890470183,-4.471639545752383,-10.2772036589933,8.461252863609118,1.7506267088827725,-1.0914621839532312,1.0409291582865194,4.899945501630945,4.2710760244833885,5.027422669889277,7.36132341352298
-60.0,16.007592014428894,9.37182194894946,-6.6357700654793295,-12.677989187869768,11.290907640381484,1.3275325726946083,-2.7903449866804135,4.350779926242318,0.5117489395406234,0.3345105472037818,4.516142011488528,0.8630891634042217
-59.0,-9.10532900345803,-4.4636790533206385,4.641649950137343,6.802091189700064,-6.823264242374054,0.12957831575967949,-10.680591189774697,-4.636309255056105,-7.056885697199302,-4.649163717039353,-5.4826728099303175,-5.822986638421927
-58.0,-13.75170089358027,-7.0375319153322735,6.714168978247834,10.341737407465375,-10.262920249948788,-0.11449920876570352,-0.1570953833625044,-1.1287033688588668,-6.247777860280473,-0.6704479045283145,0.10606101363684228,-2.997110871656095
-57.0,-6.493029671298702,-3.881138253805245,2.6118914174932604,5.2226784162213145,-4.587401266671097,-0.6566393154462836,10.65128143561851,4.244043783186578,1.162723330411704,2.9239409979280166,6.542204112285286,2.9440795225009437
-56.0,10.712132825725853,0.1497197569140878,-10.56241306881196,-5.464045884699917,10.67434571134496,-5.218384697879452,4.193614235244172,-1.3984967580142413,3.1611847129018105,2.072482549750116,-0.7679401112535693,1.2071058160587806
-55.0,12.596380717950126,-0.8966974161216124,-13.493078134071826,-5.795063234422732,12.997248632438026,-7.199574677822868,1.488427079072605,2.9963414838408955,6.77634684862313,5.493072451236486,-0.3723058444525833,-0.459336164543628
-54.0,4.970831784299607,4.128275126350984,-0.8425566579485899,-4.5664488838245845,2.9357918593512604,1.6403142197538718,-3.538476297789497,-1.2958739030951882,-1.0313882071541736,-0.09296084187867493,-4.053935235204515,0.006947574914419885
-53.0,-0.8246224969377018,4.575986870283993,5.400609367221783,-1.8885486067943913,-3.0805583920125112,4.9814135214952175,0.22201171899321537,-0.1256250728046786,1.7677040857672495,0.1335455623891722,-1.3777157076708422,-0.877307670041904
-52.0,-6.370902827142892,5.24927703034037,11.620179857483345,0.548444611106858,-8.955927982426543,8.417460093468613,-3.248522691783955,-2.9469589375712446,-3.835281166737391,-8.755922554558667,0.26005158741750756,-1.4682978202817933
-51.0,-10.187659457287147,1.6436590891485665,11.831318546435792,4.256826512817713,-11.039062233666975,6.784555217094804,-11.512912305921109,-3.3949627467948496,-5.705057707293792,-4.687423707794573,-2.138311461318555,0.39409851998007983
-50.0,2.3222640430854256,-5.334773301274255,-7.65703734435967,1.5646549298724932,4.967934099395366,-6.543027905170042,4.745268593284023,2.2833290805085618,-3.182108094152726,-2.731137570686873,-0.9273634315079852,-1.6175712991046751
-49.0,1.0623589472503752,-3.416943091549304,-4.479302038799707,1.1507931828338687,2.7519240602837836,-3.929784649792126,5.6943417365285836,6.035964369724158,11.839186025403208,12.204364193025851,9.979505158932026,8.424291274079744
-48.0,-2.7039189874340175,-7.033188620665911,-4.329269633231969,4.8364464320014084,0.7899483600452055,-5.671544710521049,4.64886776277846,-0.2596813537981877,-0.3895938815855531,1.5462733039977108,0.14081963569283307,0.32975951851053753
-47.0,-4.890092019875901,-0.30195751328371223,4.588134506592116,2.6388875666627296,-4.692722252723632,2.149898987272495,-0.21869927076709272,-5.0007882624758215,-1.3175537205519658,1.421699811017666,-0.24060272729240678,-0.3265625612048374
-46.0,9.497385344635921,14.159622637402464,4.66223729276647,-11.86558984728402,2.3726874220349172,9.420185059779055,-1.2885001943517982,2.201458802570936,-0.9776593756676195,1.700688915703911,3.7990425255547606,2.723519874416997
-45.0,8.495022741440737,4.093434464477269,-4.401588276963549,-6.251218067532394,6.470688864396347,-0.1388721307784011,-0.6873512232030139,1.9125760164512884,1.6792371677206377,1.7972094555393112,-3.723180978683436,-2.537626405767078
-44.0,-3.457165362524043,-13.681860225386108,-10.224694862862085,8.536735760905987,3.3992840733191816,-12.00982871577733,2.776276465547499,-1.3421754358883966,-3.4277480781128973,-5.837743697167297,-7.910031224043166,-13.215936254488199
-43.0,-0.22823900106761408,-11.617820103721323,-11.389581102653606,5.97191802331546,5.595894614037177,-11.475688042512605,-5.870135036365944,-3.5779624875497698,-6.057585507110889,-12.049848240864026,-8.505423205965789,-7.6964775815126165
-42.0,-3.9266607444508486,3.842335950256593,7.768996694707658,0.013233697528268529,-5.826643733647095,5.758255197389959,-3.5627589961123407,0.8982479893436655,2.317041391659431,-1.4777540569895322,3.9802975628836843,7.171706717595605
-41.0,-1.279471428283292,14.062567651293929,15.342039079577411,-6.4230719380712715,-8.35849013362669,14.73429867024775,2.8416119927719947,4.212459866592857,6.049932821849043,6.7774096270554915,6.995651168571415,9.414387230871238
-40.0,-2.0465137798554602,7.300342580262182,9.346856360117698,-2.5863379936042756,-5.65549403024849,8.354263357212282,0.4612168524724729,-3.304396750394798,1.3790691547586245,5.653481767784545,4.50540050852947,9.483655489131035
-39.0,4.559985333519181,-2.4044997029264588,-6.964485036445656,-1.1258116880415414,5.731866374236213,-4.656049712692945,-1.7298507399194751,-1.5289791063852838,-1.8530041912439188,3.0418190890572108,1.895478398581874,-0.21327104568379252
-38.0,-2.257432974928699,-4.13944979557122,-1.8820168206426868,3.217967974659196,-0.21581631792060874,-3.0629489215607433,4.529698492126169,0.4665562958966236,-2.678257139825125,0.184721110285488,-0.8798793381538201,-7.321395004338645
-37.0,-0.6556630392835834,-1.0048964637908075,-0.34923342450753747,0.8399532387490218,-0.18394616421340482,-0.7296621135541894,2.198905877592686,2.9209555527904896,0.7160907115378936,-1.2480970463451542,-3.831337369712634,-2.534061789766918
-36.0,-1.649185922766486,-8.471112559441352,-6.821926636675144,5.0635704035408,2.6286778324469506,-7.618105475955911,2.398432510862393,0.677849627033957,-1.9259653375419195,-4.018843798706698,-2.8862559643509176,-2.429329018982718
-35.0,0.8377240218473656,-1.6424621070843637,-2.480186128931913,0.4044135517084759,1.695055841893848,-2.0273577277993744,-4.537925904555245,0.18766367572020326,1.907545045839623,-0.5184355338695936,0.9973024495560212,0.45851412691403315
-34.0,0.6383014002823031,0.7012462803490926,0.06294488006678689,-0.6643879746297057,0.3193134511557085,0.42455791430522627,-1.0500811760398578,0.6686280545638056,8.970509992069216,2.866477442961272,3.884801319633853,0.5148479236304561
-33.0,4.801230301586354,5.3715096742625414,0.5702793726763195,-5.074412718636861,2.06676567336004,2.9444565168048387,-2.35034770628899,1.3163026974885081,-0.7310852064281446,0.4278334810896126,-1.8138894142465758,1.308359529303059
-32.0,-3.6070421029005426,-5.53039544460853,-1.923353341707808,4.588257719322424,-0.889343328500366,-3.744558592599196,-3.5397368884951206,-7.371404165369916,-10.540872147801963,-3.911120980887987,-6.194052117739839,-5.424620970946044
-31.0,4.3106702390440645,1.3507903442182787,-2.959879894825628,-2.88340097490922,3.6696468302476974,-0.8169628107888107,1.0471112715788085,-1.745210422921041,-9.199867971273427,-4.875857818592413,-0.45484355625065076,1.9714193707248335
-30.0,-5.746914296241808,15.485657924598893,21.23257222084082,-4.917597810101553,-13.45164346581366,18.347110958939457,5.498869615597143,2.2575835019588593,8.282949133112444,6.204097065042849,8.390905813764176,8.132433821243856
-29.0,-0.6952659778946666,8.195073801194178,8.890339779088958,-3.7167646770097047,-4.83051182379293,8.526440922502527,7.052360682102735,4.953871736619879,9.22309957375754,7.788780798457008,5.630658203414323,5.771560758085322
-28.0,-1.1446582700645842,-10.918908958965847,-9.774250688901182,6.066901253866726,4.3568019030068985,-10.291474159864489,0.7202974895981713,-0.05581258713560633,-0.9905265428707581,-2.6483685476602066,-2.8316872383445166,-4.158970191039849
-27.0,-0.8827408943767314,-18.40184690894482,-17.519106014568063,9.680003857120623,8.279801555152803,-17.992357614536488,-8.330226189997166,-2.705606737760906,-7.573067927949609,-10.401177309257507,-11.225939167723567,-14.55632995619218
-26.0,11.27983952625265,0.2753944468002949,-11.004445079452367,-5.814921114169024,11.099773082998828,-5.324631055280717,-3.0338834183222736,1.8856418667640922,1.8997826348554199,0.3799818907568726,0.3393425523720106,1.6876054603420796
-25.0,2.0032760104183494,8.268147576746816,6.264871566328427,-5.168579223568656,-2.099615078925166,7.2232851643795195,-3.115331899904551,1.2833447571160448,5.6511546622773245,4.439756126920861,3.866851805248725,6.558903837833512
-24.0,-2.421940076757303,9.31536672780129,11.737306804558568,-3.396818187629096,-7.053214221002107,10.560389681300094,-2.095126871225141,-1.9245629400265045,-3.762173935815893,4.330873187197744,4.39055103162517,1.6145612626157622
-23.0,-7.127684894206292,-2.902978934300137,4.224705959906183,4.988799505953385,-5.652659642861192,0.6168845275385841,3.384450897990854,-2.6479578218352167,-1.912774181651728,1.992924956489602,0.9823105720851366,1.70644248415356
-22.0,-6.802381869076638,-10.159232531323937,-3.356850662247263,8.45399816079115,-1.7781812208885892,-6.721773847397573,7.42024095049286,3.636002621135233,0.7858297760425987,-1.1044393565787778,-1.6802972436097214,-1.8541042544432316
-21.0,1.9979732103011858,-2.694534741417789,-4.692507951718974,0.397096582311385,3.3709436978669736,-3.6566519940787385,4.307783909833876,1.8820683271769818,2.7686893898823373,-5.476412444848194,-5.649431401014511,-3.9058058776130506
-20.0,-1.6405170095663557,8.18145242043002,9.821969429996283,-3.3058946871177834,-5.701373394793906,8.958169747839815,-2.960436498429484,-6.9112596286812815,-3.919915117373583,-4.714218906807169,-1.1525078542608012,-0.4530833064981179
-19.0,-0.5289149465588525,-0.671804819460355,-0.14288987290160415,0.6369140192820146,-0.23697079765236395,-0.4552849301215822,-1.0716613691956989,-3.5298530761252374,-1.6460012974935125,-0.4063135676075196,1.3886519763507825,2.163294896709528
-18.0,7.171933986822827,-2.060982088296922,-9.232916075119844,-2.6042481008239693,8.163214608798606,-5.622500130402635,-3.0110451567920813,6.056018201473343,1.7651024749829225,2.2200334226418335,2.1593018564224424,1.889819815600182
-17.0,7.120646769467822,8.522948783562974,1.4023020140951248,-7.796655747051106,2.902655530804556,4.980606735419483,-0.7964439986883951,4.585899105181269,6.858986497320396,9.303249498833006,9.230581992507986,3.4942285734707483
-16.0,6.108938656491564,2.4564491016578334,-3.6524895548336866,-4.259363254089027,4.926930448789438,-0.5842961651516102,2.075441815385493,3.566958039703266,-0.1466655664100469,5.345164205367751,-0.13032016363118348,-0.8758345804847226
-15.0,-11.442924915246472,-1.8184728843321443,9.624452030914401,6.57716732695771,-10.56506250223173,3.9166129386031168,1.3979325362285173,-7.779465799988383,-7.969346281135813,-4.534826364414882,-2.086739528238696,0.1399220975207084
-14.0,-6.0567147813566455,1.7585684903136318,7.815283271670355,2.179681218601435,-6.968143762584647,4.72680496518984,-5.624034181252558,-1.1727551086843766,1.1981254345012005,-2.2763895408821453,-4.676123873344273,1.1158282575726386
-13.0,10.292738189882659,-7.424608191353721,-17.717346381236368,-1.395720040123611,14.048783661113276,-12.54255776159176,-5.975811383778315,4.397744504236692,2.259759942115923,-6.2208742730632105,-4.360852977597319,-8.77967014739393
-12.0,-3.3118374485353472,-7.047506216076166,-3.7356687675408757,5.147419367503103,0.17223561159890277,-5.350142243196875,2.44017890683517,1.0803021855333044,1.834386388298948,-4.144380882654405,-4.172688235605795,-2.7188569561084144
-11.0,-13.50433093985176,-13.19960550546405,0.30472543438758626,13.326057305044163,-6.871087208985147,-6.470946092492518,1.8854842268182006,-7.292137521111828,-8.799008372021213,-9.052794203638971,-9.937047858484775,-9.128441661740286
-10.0,8.69714949097655,8.528814460768452,-0.16833503020816365,-8.557444453125871,4.382137852650567,4.1685106024767595,2.196227797884926,-3.4853180048507912,-4.441385162212733,3.339209759570258,0.9174997902851465,4.326700328188458
-9.0,9.388803169518368,14.482233127052792,5.093429957534478,-11.960432421002265,2.1722481820453603,9.783484557714955,7.490148494386236,-1.0880554759802337,0.8616836500843501,7.775944831280163,12.241983103078244,9.747236045803675
-8.0,-2.083659363849394,8.336427227545208,10.420086591394686,-3.1566560003429514,-6.22820371746667,9.37562622669569,2.97163945454535,5.356404253986405,11.723123673864166,14.631436161373049,18.828380546073866,13.073474966687902
-7.0,-8.807972088584426,0.3531640854675695,9.16113617405208,4.1903194059164655,-8.958905716946186,4.750735859446168,3.049517043677631,4.371001615603447,11.683063189248363,8.110425416626125,9.527599784995285,8.332477845146538
-6.0,-4.064714349503273,5.268809232864039,9.333523582367318,-0.5656443931435251,-6.7480689156547475,7.286937199760372,1.0700816010840684,10.28526609983727,17.381471206206058,8.127766707778397,8.806464585686633,10.696823605147827
-5.0,3.934079830000143,-7.662324948206743,-11.596404778206995,1.8994678937502354,7.800125936237274,-9.574442163494957,4.826437222574464,7.639635614618075,0.39545991919225676,-3.822744844662951,-7.534428737382216,-7.59524746896342
-4.0,7.088847687701342,-8.090137164848798,-15.178984852550311,0.5402591620051145,11.094859515284863,-11.667416877372297,-10.281180317068237,-1.1080881540786127,-17.686915964118825,-12.961780876067568,-21.988502032951178,-17.61866246066463
-3.0,2.046960425386231,-23.88141761502722,-25.928378040413662,10.886697919524948,13.952450895129456,-24.865557111279657,-26.315723840978738,-17.947838629816673,-42.139645876177596,-33.70452135874744,-42.292189406397235,-42.97528505262237
-2.0,-2.25459915430201,-35.71367482238471,-33.45907566808285,18.963805710154848,15.648548712585256,-34.628674592971414,-46.31044086715888,-33.20941941565344,-64.22669280904086,-48.40667330510029,-57.953194351164214,-55.67652880406299
-1.0,3.5553068859422456,43.12241323101021,39.56710634506793,-23.350786092215753,-17.95763184674421,41.30365849909738,40.17378096295947,-16.210378175663223,38.71136272544926,25.91446432308552,59.44009221862768,59.71468847319818
0.0,-6.5554446602352,50.87706681592479,57.43251147616007,-22.1689027307863,-32.02315343225693,54.197375857469275,40.84273138732757,53.144759227528716,90.60253849845967,71.62916670985476,83.04869583023091,75.18002204651508
1.0,-1.1486287874599403,3.4624134679104976,4.611042255370588,-1.167025988526115,-2.9084434015753775,4.08680943543807,23.402816518536646,17.812094569291183,29.08397131100768,20.425309556094103,23.06137318291453,24.400071125448164
2.0,-7.200643187567954,-19.710291932165248,-12.509648744597113,13.516559532801347,2.625447998157129,-16.130562060632503,-5.397442237345032,1.7546199149085489,-17.264397768175968,-5.853335708542513,-29.35328206669525,-24.50519628939156
3.0,-5.005673919882985,-13.212188385030982,-8.206514465147858,9.080068255564857,1.648332278939526,-10.723653946419839,-11.82263245526601,-6.581568666976051,-27.806672640276773,-13.442991713604625,-32.72390180919059,-29.276092047967943
4.0,6.512730634621213,-10.164096643124337,-16.67682727774544,1.7845853168824526,11.639255409080663,-13.432257796503155,-16.59551930404182,-12.51760837514272,-29.410251697925624,-25.447280089064908,-21.270529586229447,-22.99471074572494
5.0,15.788245137022917,-15.007134120801963,-30.795379257824795,-0.3633204474971885,23.25219081312142,-22.915138159020493,-20.770411193356523,-10.72377938245436,-24.42653757321056,-22.714135141230845,-8.910791818141284,-12.11561553102253
6.0,12.768126359748848,-16.380577788497952,-29.14870414824675,1.8272319403475086,20.911518608303542,-22.78441529095318,-14.580456817577776,-13.682613208539696,-10.951128126676197,-17.81348239163434,-7.482418911060963,-10.156665937267132
7.0,-6.065009388583885,19.359929071149793,25.42493845973364,-6.627185457107818,-15.72184511924035,22.443854288288538,10.08729516331232,6.764080080162675,21.269677635864852,19.406553388360358,15.089170539499815,9.363137399760312
8.0,-22.868030052115504,20.096962021010196,42.96499207312561,1.3317620145705922,-32.902528157744854,31.49714847307616,14.975561803068326,7.765280462759289,30.08894143968417,22.69347721786407,16.806914507564834,17.81777501094516
9.0,3.3459045327276833,25.089172040390437,21.74326750766257,-14.183769985748599,-9.19294312903697,23.457999677175685,17.544627972756963,13.727938547656173,26.862325043676282,15.429387281542148,19.316524612532792,24.982530936009873
10.0,-9.969769285597824,-5.995605863076358,3.974163422521247,7.948341815538815,-6.972370384396939,-1.0463882199014716,1.2512650391979268,5.50633669326453,-5.122835443768508,5.178269046914373,-0.8637927266594136,5.370866569411042
11.0,6.681398212390135,-25.773379398158408,-32.45477761054861,9.60028277411166,19.564390588783823,-29.065711960333125,-11.025411157300761,-3.2662132135276556,-21.103629635732236,-9.627038173438683,-14.275816041208312,-13.417453891190457
12.0,5.106912598845652,-16.54184438224616,-21.64875698109165,5.699783174393366,13.373865551394474,-19.118234502541974,4.774162234645474,-6.898503885519139,-19.00816421635031,-16.072788894955462,-9.860548567849662,-9.849552441304777
13.0,13.308920471232726,18.209130125464526,4.900209654232087,-15.774606481610371,4.202793816216031,11.538822189432265,-3.166317321872245,-10.383857985541521,-4.334960258597626,-6.329074231524144,2.0376018935101694,-0.342030295139125
14.0,-1.3976397167948544,5.15764416137973,6.555283878174784,-1.8984609977808473,-3.973641455704117,5.844908008346472,-8.18038271744174,-8.247156939916696,-0.026993396947456283,-4.379402217623244,-0.43173083128680956,-6.917771565751237
15.0,-8.627059061386666,0.816497513350626,9.443556574737409,3.880022510942153,-9.02702312830189,5.118311182133764,-5.5917182096476,-0.8035918423892294,2.527978711778668,-0.008419054545075522,-0.6228359933668748,-5.215987712472253
16.0,-3.482701525578426,-2.4060935529496694,1.0766079726287492,2.9891936949374207,-2.2657172365606995,-0.6028807720491662,1.4997472857105016,11.028045013380162,15.376969585320536,9.2626164229924,0.5053203436102369,3.977364449010023
17.0,-4.196111345346976,-8.63792900799627,-4.441817662649386,6.453431393625312,0.06315848778539301,-6.566431435902804,12.017080549861191,18.006648773054703,10.649742263331028,13.37089212594168,-0.5705954602943546,3.3407798438336247
18.0,1.3307108456129537,-0.8487910506486536,-2.1795018962617263,-0.28978743956586084,1.7782865178777656,-1.5534956607583787,4.805424073235477,3.7831664534200646,1.547526015668037,5.621717985130105,-0.8341426320192831,5.387428908078025
19.0,-1.5788009036952677,3.7721557582938914,5.350956661989029,-1.0708008146466066,-3.4388046892930992,4.586986885435202,-1.5207269219492172,-3.6183879398683985,0.13651083312642298,1.589893020918499,13.334685221980642,12.056804596967023
20.0,-3.54501207737575,-10.992449388816725,-7.4474373114410435,7.2926342127819055,1.9788020707296776,-9.20753616509489,6.671042193012606,-10.978601014808193,-16.23696506174982,-18.618964162941253,-4.328986095499028,-5.668243311568268
21.0,23.335077976721372,18.832121742665052,-4.5029562340562945,-21.139104965437244,13.867894710801508,7.166788109049875,-25.037102700666452,-16.32365508444656,-9.94929387540567,-8.949410901104324,-4.434419027498158,-8.19204638698551
22.0,2.4937204535659445,7.379333772117755,4.885613318551936,-4.91313670123203,-1.1696592539312607,6.128568161814782,-3.7499769400005345,1.3079249273157725,4.556009319739671,3.1968408621334667,2.8818229378812283,0.14389745794059472
23.0,-3.903059655568432,-2.2914846230209776,1.6115750325476355,3.042998347364808,-2.811994259490086,-0.3453628488515985,10.576287964850346,1.526165489760602,5.4817133620776985,5.404965038888501,-0.4636457710880979,-7.258943361113121
24.0,-7.3768088721516065,-10.190364375549558,-2.813555503397763,8.810785871433236,-2.259717130890995,-6.504433777818914,6.832851478129884,13.253131395164027,0.6600923320641341,2.2914177669075517,-9.517112074520485,-1.1371137997062744
25.0,-7.389953382334852,1.6634599759699782,9.053413358304958,2.895510854933864,-8.200853799472387,5.362649582307131,2.0703392475760305,5.150648752840709,3.3572770336488205,8.593210809776833,5.835639884345659,9.446171393982896
26.0,-6.488986380355243,-7.240135169449513,-0.7511487890942519,6.9042668786666255,-2.8474226078109086,-3.9820066423454517,-0.5846219640362404,2.257789185645085,-7.439545748530307,-1.9803388043245649,3.378565408994883,4.392951520884248
27.0,-7.354421675491564,1.7577137016720794,9.11213537716354,2.768175280835365,-8.209376799049195,5.380746580876703,-0.7720115576673621,-10.571633559902509,1.494433652732972,-6.97858347355192,-0.14359965391060037,-2.332990498128371
28.0,15.224871228784306,16.393562478909445,1.1686912501249769,-15.830748455261899,6.976839626611584,8.816782746928208,-4.193142327260437,0.07268371440947341,10.291043838270767,-0.1618188269859182,5.833953230363167,5.328306536022767
29.0,6.088948027771419,-3.6953961755614593,-9.784344203332966,-1.2114667119830962,7.889580825512672,-6.694467844340305,-1.3498852492228268,1.8744639320783483,3.682045399032993,1.3655796398166915,-4.485888161795953,-0.9369903776104398
30.0,-6.715764728682066,-21.943398218433593,-15.227633489751506,14.319075482402141,4.292169062403397,-18.61194176443902,5.746683434102401,-2.6350921690076916,-11.641628191060665,-6.268672744865079,-14.959718462400001,-13.10324692411681
31.0,-5.649913103280923,-12.648035558910832,-6.998122455629761,9.140087611304692,0.7154651786036164,-9.84659289481544,2.714079787533332,-0.4560798006481397,-7.505142958289513,-4.184374269438617,-1.7589598734817362,-5.674903242345511
32.0,18.274844875624268,19.03285499774153,0.7580101221174848,-18.584249784112295,8.727025301466709,9.870356641158615,-2.790967034113719,4.2678855553241215,8.773430167979608,11.25628366213766,8.910075448576375,3.070367039206307
33.0,-1.2257546059543998,10.587121977511691,11.81287658346626,-4.691290853216928,-6.543915495014467,11.248163761354071,-2.922555904852338,-2.9485007869108126,2.726460207492548,4.754873082742307,13.3839820475467,7.759600798350382
34.0,4.950052580259525,12.548186770308742,7.5981341900492225,-8.762077746156276,-1.2630274522965887,10.03454549042321,-7.490296093243668,-0.9751142012781722,2.5973577036106548,7.142331951272235,6.925799324171357,11.371686971859074
35.0,0.06696003836442754,3.7293426895113546,3.662382651146805,-1.9144096977538447,-1.8098382270280844,3.727359393452062,-4.952089979312317,-0.871601259388908,-7.716071156690358,-9.49206797605689,-9.132924449089774,-3.056215731071779
36.0,-17.579965092630705,-11.446216982333352,6.133748110297083,14.492503044133358,-11.86616542879404,-2.6321160765335962,5.676887941396183,2.980247587725887,-4.380836706391618,-10.334977634531565,-11.649906887407337,-4.789183490776443
37.0,-20.68805027552969,-10.254146378001542,10.433903897527987,15.52411883640805,-15.571374152062498,0.030542576898487717,11.752995532705294,1.8761420695972861,8.463684614369809,3.9560303307292886,0.6751462685499758,-2.392531342369892
38.0,4.440804513885915,-8.457035675762144,-12.897840189648056,1.9770387225230994,8.653866938151086,-10.659305906621466,2.3691814184196716,-2.128334634086053,-2.4857595163287023,-3.5417102216319356,-5.531382515259857,-7.797905681677188
39.0,16.846377374666808,-0.4250465395982168,-17.27142391426479,-8.246467670108515,17.03567493316641,-8.827923621683139,-1.4475080809481562,-5.275964861260234,-5.8064038509531715,-1.2952683913058554,3.1749441310665083,-2.1552676001037483
40.0,11.944523112306463,-1.7263554546340005,-13.670878566940258,-5.069530923824573,12.855015142508817,-7.673267228627326,2.793200742058732,5.889713600483902,6.155906355990382,9.733284296493823,6.459993369196577,5.419425948092942
41.0,-1.5220370044262008,4.253868399901261,5.775905404327531,-1.3282211659985297,-3.686593546274354,4.9683267906774535,-3.288239313272623,5.398281646731247,8.075305446645151,7.100243777420603,12.586210016775517,12.398340143629897
42.0,-7.093868310450389,3.8459028321922313,10.939771142642561,1.582085353117976,-8.978203878387278,7.353685104661545,-9.496678222911516,-3.247175742603163,2.6389035257119207,1.003617925723642,1.0423484563051648,4.813635183879556
43.0,17.065915488543613,21.54160435851283,4.4756888699690816,-19.267843008931788,6.335002181784864,13.055041332954278,-5.020673133968083,-2.052887620023352,-2.4217011403033286,-2.4445587230043615,-4.209896400672593,-3.4556809990026074
44.0,-4.089835847210839,4.150610554823881,8.240446402034557,-0.07544035135779037,-6.200474649634836,6.247072035229119,1.0941112999248666,3.8383264274274103,-9.012970627107867,-7.250954505295264,-13.478613752963835,-10.142530967780178
45.0,-14.07863697242332,-8.100633473208791,5.9780034992144255,11.119210697447008,-10.060423634112624,-1.0858510035170004,2.954389632577712,-10.563886805519571,-13.636826673489058,-12.169408722505285,-10.415446919434716,-9.829423655571084
46.0,-11.645270359189617,-21.14094513042763,-9.49567477123799,16.338319216104388,-1.027712871500409,-15.343051790919377,1.996833552466582,-4.5510335762102505,-1.3812270038888608,-5.458582518640778,-2.699302159232195,-4.067490395299151
47.0,-3.575783486565742,-7.732321056763912,-4.156537570198023,5.672329742419379,0.2549925995687955,-5.971874427578885,5.71692736996169,3.8744714476823066,8.282447353867534,6.17775795010958,9.281397080875571,6.796861414936492
48.0,0.6308690534887089,7.217385375572837,6.5865163220842735,-3.9097047247830288,-3.0207034805366626,6.870568114550395,6.954609714697511,5.908290585892697,16.430710055268154,14.213417544013447,11.802515566105917,7.896229704857248
49.0,19.18468030882774,5.519005981751665,-13.665674327076001,-12.337918567406192,16.451817113871137,-4.029441207983573,-0.6893842857318551,7.600489375218734,2.753717448599061,8.960132917171588,8.33878469947392,6.308737691498055
50.0,12.298022130584423,6.147103316148379,-6.150918814436071,-9.20536361714571,9.243053597753189,0.040194601915140904,-14.42460235819993,1.604703040444249,-4.307993370155271,-2.8584708070194793,0.27679170102616046,2.3011561252034527
51.0,-3.7261257072386282,-0.9059148806464083,2.8202108265920196,2.33934053422632,-3.258876883732073,0.999065517277979,1.1513677472793233,-2.4120376949051754,-2.5867162956087486,-3.91604057197479,-6.898295518919751,-3.994282937349925
52.0,-13.641870835151607,0.022674832277657764,13.664545667429014,6.7613013344066655,-13.638211621097694,6.806724635554365,3.662313264895548,-7.603594481337735,-3.3288838825428106,-0.04556919185413566,-5.204197329068446,1.5288264576864394
53.0,-11.307834221815224,-7.589454993487306,3.7183792283278443,9.406608822255297,-7.492946817096451,-1.9743960073068427,11.69046070260633,5.401381206009271,-0.7217422789079837,-2.4191697644952255,0.9085889736302732,-2.0091699033214874
54.0,4.193381084016417,-1.0343261115483404,-5.227707195564639,-1.5385716309021333,4.659636510859659,-3.175114193281823,-8.397047927311164,-10.44356171531092,-6.373487837122509,-9.554221467569302,-1.8016913514381736,-6.273880017046401
55.0,11.137484537037261,11.55152491853502,0.4140403814979573,-11.380213396938313,5.318566795808583,6.00922604000936,-12.354154429516969,-2.3924938267654086,-0.8348276397465528,0.7364569409826363,-4.356247081635907,-6.95558984219044
56.0,6.908640655007852,2.6465767483332745,-4.262063906674429,-4.734084337298144,5.626711499291405,-0.7904959674925182,0.40899970250414164,2.845871201474339,2.327452623723211,0.9763689028381206,-4.677394567654266,-0.23651015594352343
57.0,-3.59419975826705,-9.664487822029736,-6.070288063762612,6.672394772971448,1.2820293505252742,-7.857477439066025,8.150948669488136,9.154840568047346,6.58081129873875,3.8316592623632966,8.987294753687387,6.431194819718175
58.0,-6.806705594624892,2.3384724393576746,9.145178033982612,2.197300174468224,-8.01138216657133,5.748794508716978,4.675817555082188,0.3204765744907405,1.0857266138420423,-1.1032616270717206,1.0161012424765605,2.5262415434232066
59.0,-0.7875991812866685,0.4633412415509035,1.2509404228375858,0.12353355479730688,-1.0580232410797406,0.8668735069316373,0.14736188494282487,1.6896392349010347,-3.7119734006520364,-3.700598027951594,-4.948567181609642,1.939186903089774
60.0,0.7582512212997208,3.5469839959544416,2.788732774654708,-2.1149236502893034,-0.9799650328367242,3.1858246896578946,-0.0783665476361537,-1.826378988141291,-0.8920144684067935,4.787931498906122,5.359869280113942,5.475215953155751
61.0,9.596285999546408,4.041880916075102,-5.554405083471334,-6.862987834029488,7.605937876137254,-0.8048170828851913,-1.8418189483409892,-2.5416942887032112,2.561237321574818,8.037072174721853,5.646408306655374,1.3344333696330857
62.0,-5.509975972036886,-11.537211491843859,-6.027235519806995,8.55585716606954,0.2070884668165034,-8.816627542538157,-7.826219620842894,-5.458110921494112,0.5086777242223312,1.0007615979184101,0.27994778053196834,-8.225696739162856
63.0,-15.6008712309631,-5.951710879575262,9.649160351387849,10.807027051148681,-12.599124470462396,1.9070636979877955,-0.32607522509085163,-3.102741860967238,-4.1380415151224605,-4.199289345379519,-3.9647809725414063,-6.408084849317886
64.0,-1.4623798205969476,-2.7325704374485027,-1.2701906168515018,2.04960351907449,-0.06930446194042528,-2.009760135743399,10.296629348642117,9.398270047315055,6.487869949565775,1.8560069130461887,1.8857703476059227,0.9630808469302972
65.0,7.383941944324295,1.4100946245186097,-5.973847319805604,-4.364092143348456,6.6296631998724695,-2.2816884978751517,3.9283474363959576,5.632868021631598,-0.3406936044390192,-4.729405566160104,-5.6230319022334765,4.561007945912389
66.0,9.277365104196692,1.8606555481452194,-7.416709556051399,-5.611081670432764,8.380407230029883,-2.773938541834358,-4.324701954425969,-2.355661284710946,-2.2582366540740426,-7.541074316331666,-4.76038145526916,2.3521593266133207
67.0,0.06792779699217633,3.2756548612767205,3.207727064284587,-1.630268495138683,-1.6110905393962476,3.2442502389386267,-1.4710645757372303,-5.47953917660116,-5.4368291390692765,-4.446033168528978,-2.3630444081383226,-3.07748947424441
68.0,1.8864522013903169,18.840249558321297,16.95379735693097,-10.395624110790685,-7.492299903849709,17.892566721446503,-5.751523368957681,-8.43010699919789,-2.583518299599038,3.2433942944008036,-0.07279572836378295,-1.6889166702663059
69.0,14.952184989545476,14.37420098257533,-0.5779840069702065,-14.612912272396038,7.7305173745683105,6.8820359911396345,-4.474271998508443,2.30585778552095,3.762552633795166,6.8919933208431665,5.705717742357317,1.8523607036396803
70.0,-10.380761875015917,-9.944805744562164,0.4359561304537135,10.135641846174234,-5.36296567496861,-4.784868652642984,4.204874789238035,10.495894353473858,8.711333376545452,10.670811221808776,11.990575894081624,5.320827191871613
71.0,-6.788386557078782,-7.893305594388842,-1.1049190373100455,7.31150603804146,-2.8760412199120102,-4.465478760769173,1.465132220776065,5.473955133722171,2.86098842523271,4.054723295612387,8.08511476157007,8.546707862331049
72.0,-12.911766686690513,-26.82083295097311,-13.909066264282542,19.909587460583538,0.5396092077832053,-20.343877594853904,0.2767724783067238,-10.240242181236837,-15.497641287625427,-14.43130323356215,-14.605280129888769,-10.943287587134364
73.0,-9.391792125698935,-8.266666042967383,1.1251260827315885,8.78419819426409,-5.302146855136592,-3.558451014274409,7.79329595289498,-2.839427462386461,-0.0900180522649281,-6.006657414072636,-10.6284445171313,-8.330299752002162
74.0,5.893276261389069,6.322228692078605,0.4289524306895196,-6.085725767804997,2.7598293272885868,3.3836072372486976,4.42713102492643,3.533295528627216,7.721767268037793,4.9985211391981474,1.917516428645306,0.563485153848637
75.0,19.325944454149642,10.895208415620836,-8.430736038528906,-15.100477567236592,13.820177879963765,1.1613745299052,-2.2074421532781754,3.5722414025371374,5.226396571420489,3.965958665730423,5.915920644634703,4.457270656995686
76.0,6.114727828610805,16.47582369361276,10.361095865001822,-11.29529287717507,-2.106967184694515,13.42961496464475,-11.99094254277496,-3.139396875679006,-3.4748279594201863,-2.1070335184916673,1.5270504688715048,4.908223840902981
77.0,-9.80910883672821,-2.091024659856595,7.718084176871486,5.943557792591656,-8.74683274800957,2.830407906309773,-2.183557186702725,-3.5762411728323316,-4.610823270407332,-1.4823735880851205,-2.2667243066304756,-5.304626924335948
78.0,2.304364614439545,-0.9982099872745049,-3.302574601714087,-0.661173931131853,2.8267441660876607,-2.12634843268612,0.561639853751041,0.8825209786187178,-2.0733568183730107,-3.6118717614134224,-3.783211668955994,-2.436530277945005
79.0,-1.7466856088506002,-3.163145156802656,-1.4164595479519162,2.450673301691112,-0.13019836540137886,-2.258259425966029,5.362606662926959,5.963314439940498,5.663187495104337,2.917457358726653,1.8069721345440353,1.337125505852233
80.0,-5.810148592514455,-0.8342892364849055,4.97585935602975,3.3269078678494823,-5.422796492588114,2.0303493877428456,5.876004192462932,0.5648350528250807,1.6650330638196158,3.2628100536008318,1.5751399879036363,4.787980798126749
81.0,7.322619039464321,2.579373994305277,-4.743245045158901,-4.933652972293656,6.015779422294944,-1.1169754948004749,-4.0729473937005,-2.986477869910267,-1.0705224398538826,0.09786953769871887,1.293104503524341,0.6395746015718149
82.0,-8.137412061007504,0.9316884368032348,9.06910049781074,3.6343631475213867,-8.612743818690433,4.969442239699892,-2.094770638009104,-5.917932645450408,-3.8507507490028585,1.7036092279004944,4.3419110483238565,7.6910578330382435
83.0,-0.6761950053710448,-5.573093791392622,-4.8968987860216675,3.090411897837911,2.1014491245734117,-5.183751159998759,-1.2557601734768802,3.9416533376811476,-1.5024273747590635,2.612247970379195,3.530590597725865,-0.8438374710334653
84.0,1.9972791933090186,-8.776399110640051,-10.773678303949152,3.36484878020934,6.37009377262334,-9.720286715359176,0.7347723779747302,1.1053989763716299,-1.805827541809799,-4.926478593234872,-4.705777616414398,-12.157812387744952
85.0,-1.0824554526526746,0.35422787618765694,1.4366833288402803,0.3440738650428812,-1.2077339276262893,0.8751396910344003,3.339445949008315,-0.3197463392885922,4.138900961585396,-2.723192832047309,-3.773689585889788,-7.886684532132237
86.0,11.742793471972012,8.980099362246753,-2.7626941097253153,-10.302927470752968,7.212553033486371,3.091607384598359,-0.9919456903053041,1.125230855748483,2.9866916994485995,-1.44480389168895,-3.0446426431511675,2.0318088003089843
87.0,5.287527552100512,3.551228597239496,-1.736298954861063,-4.443499840281241,3.539037172025861,0.8921535644507075,-4.393330748793049,-2.859990252309476,-3.5306013691833362,-4.3026964519444615,-6.419488954360364,2.284528595589805
88.0,-0.4277585862859232,-3.2944349661087218,-2.8666763798228483,1.831180113693966,1.2399426435887035,-3.0961710865246825,1.526510806006627,0.7729397233019785,1.947070105766289,5.998353729688631,4.611084040926933,6.885494692583668
89.0,-12.203437074676343,2.5313904858207925,14.734827560497134,4.87893919909067,-13.527554850710077,8.615193834790258,-0.22050996034880666,0.3914184202613386,4.5759648321436845,7.794818464491259,11.523536990494991,7.056280120536894
90.0,-11.216847452946219,2.4534774267694113,13.670324879715679,4.419820720604696,-12.41679098926575,8.11918818122748,1.4994627487073116,4.264315301271599,3.1669528424178273,5.130910961030391,4.941117120276694,4.775450290039442
91.0,-12.345536084398812,-10.866033988188352,1.4795020962105765,11.562065331725943,-6.874004519558053,-4.718607726067716,8.153791030629348,3.6262518011939413,-1.9644113704655461,-4.496635917659651,-2.6835270796474893,-1.2906514196314438
92.0,0.5175014913801701,-5.0723527136817275,-5.5898542050617275,2.232232880215297,3.0278561829577435,-5.2813294565018225,1.2601970701765703,-2.7603261892558955,-8.511343294094424,-11.584126364021625,-13.595943239349387,-12.76478596851297
93.0,16.864240779086764,6.5533793790189225,-10.31086140006768,-11.675405366263576,13.57569705476018,-1.9110550262977855,-7.938014789989534,-8.100287874089377,-8.78319709874812,-6.000977544103394,-7.0779807968782595,-4.668594004920811
94.0,31.331015110594038,11.361542642508986,-19.969472468084962,-21.3120690683489,25.648961076691833,-4.339556714539621,-9.699629093840063,-5.604842646762594,-1.3379766778509605,-1.7509943782264532,-1.6159194804129373,-3.08417464808011
95.0,4.736288991676409,-4.126898764015262,-8.863187755691651,-0.3478515696795963,6.803593166946502,-6.455181538540008,1.436921578160005,0.5062882419286625,0.4074602738318418,4.039543251029337,3.9997692804882483,-5.131305590466639
96.0,-17.38502618050953,-4.7180238972902675,12.667002283219148,11.08865692264202,-15.023130662111152,3.932683893268072,9.54759300255309,9.35793161491496,14.949820282189046,14.664043287559048,16.370451929602424,15.070289579534322
97.0,-11.785390538199591,1.82055624625814,13.605946784457517,4.942063881573311,-12.699098622358951,7.748510831719188,0.37072490940917735,7.598358589685224,9.83524427129488,9.40980704773267,15.16937458400428,7.500878930062486
98.0,-2.1521647963981216,4.597165534715462,6.749330331113331,-1.1834279346903136,-4.463906804464974,5.630242782125784,-6.9194607397673025,-2.2781617985897453,-0.011247755460024322,-0.41873956698636405,-6.869915609124041,0.4877649930672687
99.0,-14.482836924325877,-0.7507392259149412,13.732097698410739,7.577111105032563,-14.131269359661005,6.529568381873354,3.071798180210922,-1.803814997534118,-1.9480539159878465,-7.554195326656037,-11.26089744941476,-3.9114331971829253
100.0,-22.162890493907597,-14.538131872337056,7.624758621570503,18.389107074494223,-14.848130971492203,-3.4123997238037953,5.270011027685832,-4.595441725626246,-11.632239859791598,-11.473813333805577,-9.618858630690156,-3.5255747043338896
101.0,11.713376132482395,1.11744448724252,-10.595931645239716,-6.456075726176016,11.193850911852739,-4.767422070829692,4.14676398220206,1.3484350738533721,-2.986186442676213,-1.5638274190273167,1.5992595414849493,2.9415961512985866
102.0,33.08343230256448,10.968127857940727,-22.115304444623497,-21.987678223405755,27.556157223768228,-5.596495916353025,-5.014294094053186,-2.0967724603754476,-5.724451312280534,-3.7083378175805173,-2.146181822176174,-3.3065035248916654
103.0,26.19624740787932,5.957866237540013,-20.238381170339153,-16.116671193345105,23.251069496226812,-7.160607633488725,-10.06465933191628,-12.602815802897059,-6.1889943189042,-7.457451584863298,-6.7603918563690915,-8.658382508217663
104.0,4.650582233393061,3.7890277582241136,-0.8615544751690223,-4.178419578880623,2.7098921118527812,1.4423489843853146,-4.468255122648247,4.575803452810989,5.103395408618237,7.303516405518191,1.8796110674961837,-3.934308992512123
105.0,-15.926360767311042,-9.977219940063321,5.949140827247489,12.917642167404885,-10.985295754697043,-1.9612138342828378,5.086454292479036,12.661627135515864,11.619920552983293,9.081766386360911,6.761712512419713,7.058284094104289
106.0,-17.05851480099487,-10.365802522412087,6.692712278582555,13.760221789620081,-11.845921814062121,-1.790955486973333,5.62129838512997,3.677411030130643,6.573683113390602,6.441888303426442,6.345708091448889,2.274995396007307
107.0,-25.081588820710387,-8.772163493361354,16.309425327348944,16.898873455451298,-20.666907002773044,3.7266680590082757,11.89814909079783,3.4824871942646993,7.18050138264629,7.036869093212988,10.695325503605417,8.630462899836086
108.0,-23.07882306561747,-1.053018392347143,22.025804673270333,12.038848311394371,-22.524007952402492,10.435347901821244,5.010702007580451,-0.24276412195795888,-3.4349495097041602,2.0231312957562317,10.676674742133496,5.267607138450288
109.0,8.60505183483142,27.968596726125483,19.363544891294158,-18.236506058082263,-5.350801489661188,23.685814880717572,-8.11272458574426,-9.096920749455826,-5.389841435501429,-1.90102402016784,-2.1935701233959266,7.8070129144842255
110.0,18.997719468869516,12.110488290563929,-6.88723117830543,-15.58600435746823,12.891708742347225,2.625886062238739,-11.217729465083035,-5.568930777367533,-9.069817755559177,-8.831427360633185,-22.222825018574216,-17.009338075093016
111.0,26.912301695974158,-12.99210448013981,-39.90440617611375,-6.996655573267663,33.35547986173411,-26.43610581729607,-4.818025377605597,-3.4839483147438903,-5.626149840018936,-13.61478030397112,-13.52472703824192,-9.3694429573938
112.0,18.198064422272818,-5.2282239210412405,-23.426288343313853,-6.44717829530041,20.833991430118033,-14.313795181430857,-2.4319605025355306,2.8785902802861223,2.0862080888421377,-3.0184372259780554,1.1387026766956199,4.193639521641345
113.0,9.084280389491006,-3.29372625337517,-12.378006642866092,-2.860413356584843,10.747660846688722,-7.818591291832737,-2.319945952297851,-1.6890065186514551,-2.069540407999874,-4.357757914825219,-0.8666225338336406,-4.1635226664624865
114.0,-9.920828191112374,1.1083489282478638,11.029177119360167,4.361868641235999,-10.463620363618915,6.0121078359746845,5.906209087568115,2.020576278478414,-0.4951446593612481,1.6764640646849793,1.5921965437221113,-6.394855711149555
115.0,-38.40027005857765,-13.380477869800059,25.019792188777433,25.926646511416486,-31.702211733221603,5.846177751437918,13.985127884998851,5.209468935205175,6.637925019283832,11.657088550469165,12.185970785680915,2.0034634751737648
116.0,-3.8390680505504555,0.8529857877506863,4.6920538383010175,1.4540527517342081,-4.258862462093553,2.7236244186419043,0.5021934863142024,6.209204330469131,8.444647410878378,12.447491788392009,9.979840207461482,10.845120478387273
117.0,8.579058711603068,6.806170126619311,-1.772888584983905,-7.6489628348674,5.184174196797784,2.5489362148197383,-2.402721829696799,2.8280616414476216,4.272822875328526,5.627447888692729,2.7165972699632555,8.843848289035629
118.0,-12.207034163604996,0.05006170690386025,12.257095870508726,6.046539528961677,-12.298777977830586,6.188231388234561,0.6959669814754976,-2.4153830404737104,0.5797079074305806,-0.9847249921163927,1.2204173427075962,6.930985498206863
119.0,-9.930201105165711,15.25942928008415,25.189630385249774,-2.6948324560836445,-17.542140353961788,20.183574873502128,-1.7333584090144196,-5.93735187957421,-3.943175906415165,-2.5120636535887653,0.17340908173447023,5.65445544404285
120.0,8.896923345950091,8.90505146337923,0.008128117429128334,-8.852200246674954,4.469388765336761,4.498747686871978,-5.799563830179324,-7.867794268018958,-7.464630799625435,-11.303995116936118,-10.31850943955953,-8.274392196085001
121.0,25.276221271099555,-20.29998197709435,-45.57620324819383,-2.5188084232410493,35.45939423330792,-32.96932681281093,-1.6135973176989689,2.4964206969250125,-3.3460659072640544,-6.854124260037831,-12.580588296933453,-19.469323139262737
122.0,12.73255618453999,-22.55706534545335,-35.2896215299933,4.959353357070737,23.973969261936013,-28.949064726673846,1.8746085082155974,3.4136880080430636,-4.945609379972895,-8.309426084562723,-6.138838475203268,-16.223792495673116
123.0,8.384716385857633,12.237019117979974,3.8523027321222365,-10.343022303662986,2.2368838160222193,8.102108782495442,-3.291754749751375,-2.470391519353938,-3.645572593519578,0.011541742857158255,1.0951252907270623,1.1523877152870279
124.0,-0.7100953037247185,21.293315429103064,22.00341073282755,-10.323360632800107,-11.301085170618437,21.62900633791199,-2.585980744159335,-3.278768390466503,0.8042427886676992,6.091664461388507,7.778009052475157,13.338167274888011
125.0,-28.104282132730653,8.311517799494563,36.415799932224964,9.944789511295141,-32.27910184898538,22.342606451302522,0.25355419497565745,5.134334226553494,14.138067031193243,15.446840780770298,13.465068377012056,24.208840717491306
126.0,-21.817776165064068,-12.022839249586877,9.794936915477034,16.892058784531113,-15.82387823258868,-1.062127138824314,8.693331088296771,6.3436851025168295,11.814325097509723,9.582470337745896,6.001844972065205,3.2942121278409413
127.0,-2.7105537575771574,-14.69645874516269,-11.98590498758564,8.75606679115851,4.6193958575943395,-13.37765398521869,7.0979525280085,8.12648962930017,3.5094553766680336,-3.5958607600335606,-3.406695977200309,-12.067726820819171
128.0,8.978376154994544,4.841980761858183,-4.136395393136395,-6.93526831763562,6.615342197380449,0.3048666943249492,0.9035398108889856,-6.286049720954681,-8.164197989420131,-6.0481115065810505,-2.6896791588771074,-3.6012973999621565
129.0,9.401614905094046,-2.0812905111976647,-11.482905416291743,-3.6858448702261417,10.417886331959288,-6.761816891237849,-2.6570889335254453,-8.816123605355957,-15.06843512201706,-8.527263487202294,-6.427808625608365,-9.182494883931291
130.0,22.10057708877963,2.897063470041067,-19.203513618738462,-12.526912631214298,20.623635380709374,-8.139453872710515,-10.477215225204496,-7.977583521482218,-8.18887984718641,-5.939560615520847,-6.694126225256932,-0.4713118695458318
131.0,9.5656370989041,-2.5479788864235626,-12.113615985327547,-3.461775725100229,10.885860128178994,-7.317204145555457,-4.635403204125521,2.9758494938822366,2.2413639957931952,-3.9030819352256465,-3.046061884064388,1.1656073716911095
132.0,-9.517807399832588,6.948723310534508,16.46653071036733,1.2491254224738975,-13.028745434428892,11.727823566113909,2.3948521191098733,5.542673080822941,9.101018020732143,9.5056292157456,11.202200442739889,9.633368125611897
133.0,-13.687350297465233,4.256844724059537,17.944195021524948,4.75571365004626,-15.777723814225979,11.132318843767283,0.5059587674653065,-0.16393179020022774,4.908973157810759,3.664440231903553,2.7800203366634673,1.2572585398306728
134.0,-18.26414188887956,-4.6838655726443985,13.58027631623517,11.512791945968637,-15.967322670480327,4.414393983626576,3.162326958912308,2.682870324920467,2.3223086562565634,0.14038842568062648,-5.983631170328545,-3.7876165161574216
135.0,-3.9352280801841513,-9.070164426585674,-5.134936346401572,6.461910180168278,0.6286279287457184,-7.12550146512198,7.709652687553181,5.771828093138673,1.3168310045904281,1.1184300119286148,-1.8331410497647562,-6.680966575385886
136.0,17.297508266658838,-0.40787186616743387,-17.70538013282636,-8.486264953286685,17.52498234703566,-9.073638072634257,-1.1213441060657212,-3.8336289994004535,-9.427147194012585,-2.3411375107545895,-1.6257866711840567,-6.178007609128644
137.0,16.11985687807528,7.615216779471284,-8.504640098603971,-11.83118214957301,12.251876700496624,-0.46115672929727136,-8.196333550561,-3.948292555374695,-5.125583947564083,-4.3888446828909045,-0.10478334345745316,2.774477981360306
138.0,-7.668172437625142,10.673927246866798,18.342099684492073,-1.5463745552990762,-12.99100494673555,14.488516593830113,3.70096409037599,-1.1751075460516094,7.335766382894901,6.568172748104015,6.952435448195713,14.825355452632383
139.0,-0.08079293738753546,7.2205790737493665,7.301372011137098,-3.5352705665076636,-3.6792324197603317,7.316522603394355,5.2011601483077925,6.2031420200968785,13.209358759285381,9.668686151040593,13.59170632183208,11.770752969376115
140.0,-4.883409368585477,-9.322875709266384,-4.439466340680669,7.13827395656703,-0.20952680258469525,-6.827295821989724,0.5931300200824896,-3.8151391411709987,1.1802701171651635,-2.6807506050056853,-0.9768974562428769,-1.370262946682268
141.0,-19.460217007251376,-13.66957241123362,5.790644596017852,16.52315768475206,-12.60914716105409,-3.962773295914455,-3.2554650999610373,4.210997480448014,-6.335315885406677,-3.0922978792637092,-1.349715618561192,-4.555243096660169
142.0,19.390497129808686,-13.430765298165301,-32.82126242797396,-2.9400081562795286,26.050094986745084,-23.14513945627504,-10.36906914443247,-5.059148243701228,-14.67720506973001,-16.65429838736636,-21.495511103832836,-23.21176068267236
143.0,20.767365391933097,4.724540265926661,-16.042825126006477,-12.781942236016038,18.43644885826852,-5.673318955212847,-4.521281028860771,-9.194416589371071,-13.672276495961906,-10.297396050495314,-19.394670339042573,-19.880539832833257
144.0,-20.95129724406112,4.847772994301871,25.79907023836298,8.01768717081282,-23.335345370353682,15.312910853239345,9.745758194919302,1.6509153510297976,7.818373224079709,11.319139369975957,12.150065484168477,10.368188326905088
145.0,-8.258725410700652,10.24417806498306,18.502903475683745,-0.9479858193684785,-13.412820977808096,14.3640351876749,7.509135592364725,7.777598778429956,12.476271793487635,12.409136716636857,17.850061275295005,22.587236545583757
146.0,-5.638585130924235,12.250655392295009,17.889240523219307,-3.263576519003699,-11.791857612499012,15.05838706164003,0.6447220139971419,4.635071589348382,8.197003878919471,5.717005912888624,8.659843865027451,15.811138633734505
147.0,19.619555312560628,9.050421093125381,-10.569134219435131,-14.375956440951416,15.067143898804892,-0.6969622924910528,-8.086374109638449,-0.6408022178219364,1.643419468575872,-5.393109894792502,-3.3634800112191456,-1.0330100839836298
148.0,14.30273369838208,-13.04795242799132,-27.350686126373255,-0.6749312824542479,20.876057750045106,-20.22266809480156,-1.1922038854307533,0.3813294475385691,0.6201156641011967,1.2779305169228916,-2.3328435613765914,-8.925426383189132
149.0,-14.65078421566916,-17.95526003053407,-3.304475814864709,16.326839562986642,-5.628031862462068,-10.583215027265856,9.334032815517357,-0.0020923047245706705,-2.3643225987081764,0.3413659672217544,-2.1099931058829977,-8.784297144061782
150.0,-23.48308033313863,-10.494402934863851,12.988677398274888,17.00578271777195,-18.274699518945894,1.2049970184356376,8.449777841777584,-0.8423304075187659,-5.901199328147287,-1.192537190581763,-2.727877705629452,-5.545184403341003
151.0,4.417168323077819,11.794332093538522,7.37716377046059,-8.093548601586997,-1.5240278641205443,9.533180667683318,-17.975691154224027,-5.4818225238892095,-6.240809920421696,-4.461573167421417,-1.3404213254916089,-1.393719387863352
152.0,24.19856564999025,6.0269762707197,-18.17158937927088,-15.102727804514956,21.215377045229843,-6.055246867864385,-12.435249100820243,-2.4083363023922177,-3.0060348591221837,-3.729599489821441,-1.3084682903043339,1.7989990970106393
153.0,-2.066214501984499,-2.274162025199206,-0.20794752321495125,2.1807772996378745,-0.9018317063113512,-1.2295434531407603,8.112593663797533,-1.04834352969182,-0.11309591979370937,-4.737064149072933,-3.4473728926366234,1.6638659338480741
154.0,-8.68962649564862,14.041526769407437,22.731153265056086,-2.7413071511326184,-15.76309243469673,18.397957597626696,9.93160196342651,2.52016685284063,2.951924634339689,2.1134879186902316,-0.723031772197074,5.220226611828352
155.0,-0.36155031061323806,12.280595742617221,12.642146053230654,-5.9415612845317565,-6.475489795736371,12.479658575006836,3.700719856074225,5.230698978873276,11.79183209268614,12.651029564709068,14.50506048136136,10.722891335981583
156.0,-6.365239832234509,-18.6590409433011,-12.29380111106641,12.536146728577293,2.9917639117086026,-15.44579679185085,3.525135888476132,1.537445031105067,-1.0178551921685504,1.9802907540354289,2.1095496807607326,-1.6857331581974178
157.0,-0.14750083782081802,-14.43833416083645,-14.290833323015612,7.2455057308814546,7.099941887351955,-14.397322196643604,-3.0124843048670247,-2.7226142291955933,-2.413171175504234,-0.4986879141347864,-6.0694786217981616,-5.568112583223692
158.0,11.12403672122848,-7.829258611573821,-18.953295332802465,-1.6079009111806188,14.98759135068159,-13.409101007088843,-8.37779377985716,3.0194201251128963,-0.28327519599058193,-3.9777740378228628,-4.239065258734294,-4.449670365594233
159.0,15.121731195670858,12.402056291869702,-2.719674903801373,-13.714543433009384,8.86728288922109,4.834536264501261,-6.3996053319624355,-2.8655184268721228,-4.116200154473366,-8.375344163494319,-6.883375949541604,-9.348787306074467
160.0,-9.77483669967777,8.880923534237766,18.655760233915377,0.42137430188714564,-14.193344506564461,13.767077062091586,2.590379876397515,-2.7024616955843506,-3.391320253123892,-5.942417824352326,-7.3781206546202664,-9.265330182245346
161.0,-38.209180873805636,8.973477779473555,47.18265865327916,14.594119698534438,-42.67685721213821,28.0760447938056,9.79178654171154,-1.4033920425956639,3.1123189617077553,4.872672141374522,6.005433169875003,11.259411563196018
162.0,12.575836922192238,-17.322065845556068,-29.897902767748278,2.346002525809689,21.25498810180678,-23.617810221560866,2.4671592216344003,5.31331159306747,3.905223808506816,13.594807722527621,17.069561543291623,18.601751567502223
163.0,17.88661875514558,6.843053569081352,-11.043565186064205,-12.32168004227417,14.48467888536912,-2.0382113420454866,-6.203941605746042,-2.720564225712704,-5.552075909876509,-4.553310924500851,-3.4720286862698053,-3.494335639642701
164.0,8.750856853315772,-0.8943244589350366,-9.64518131225076,-3.9756857645111356,9.220521668939563,-5.296271660676602,-0.3175226831586304,1.3907305455866517,3.227905000132599,1.9060171950180183,4.1274910218293694,-1.7490698546642103
165.0,18.772417909436296,5.705184253919075,-13.067233655517175,-12.219647968159773,15.865924586237677,-3.7164507372682762,-2.6782444163905375,-1.8161769047337668,1.285915047853329,-2.0045064274461764,-5.973432570840718,-3.0795303511022656
166.0,-8.667379256047802,-11.192539126374438,-2.525159870326539,9.939927207594888,-3.0465181498854896,-6.822199342198838,2.033656339941049,1.1658077343783821,1.0833610730546974,-3.0843314671439934,-2.4950661207554097,0.08090305112141838
167.0,-33.30926165479863,-4.391660819418376,28.917600835380377,18.856876801740853,-31.171345981810106,12.217177682303541,2.450919982609914,0.1961502053636055,2.0034163172542447,0.06995764276718175,0.8969936319536567,0.4852921551163343
168.0,-20.0208801685732,7.679637008598336,27.700517177171648,6.180197832124944,-23.846196744838394,17.722422334489767,-2.1257216808667585,-3.178094868469068,-6.943575490456311,-2.4577355980940174,-3.7123983594321297,-6.154274059231476
169.0,26.614490882016145,8.26422316126428,-18.350267720751837,-17.42073298565918,22.490550822312315,-5.008821611070406,-6.136475256578139,-0.10040088352429821,-2.0482601489702392,2.191923951646452,0.8843420465452965,-3.0736276394182465
170.0,18.374617785775307,1.0831715705569995,-17.291446215218297,-9.77652887257399,17.838159407203207,-8.14559408951614,2.8707323600851473,1.8338968952633392,-1.3090054827248991,-2.193689588377392,-4.140568475396256,-2.947964427877713
171.0,-10.831961421942687,-1.9537037647777367,8.87825765716497,6.436636218822894,-9.847099827255164,3.5024208588659222,9.788717393704523,0.981638732891075,3.2071671780731,-0.060396866378509106,-2.254312925861295,4.2212678712804665
172.0,-8.351471664663633,-0.1897896285744738,8.16168203608914,4.245557085610387,-8.23893975844313,3.948812702942291,2.9550159000858853,5.21888148007211,10.754100221578057,8.195999690244232,6.800786717314773,7.282757924399054
173.0,-2.620571504503176,-13.742888282794043,-11.122316778290918,8.161861042064537,4.283356544271342,-12.46988478238061,-1.4671955978157705,2.5407679857524235,-0.44865768970073194,-4.30036892491767,3.4692446406651003,4.722372004915687
174.0,5.3881984371900025,-13.328306441776203,-18.716504878966305,3.9505253806163503,12.022658477669134,-15.981877981039995,-4.256261254852372,-3.0126169090520167,-5.444243890816185,-2.1499227925240816,-2.532399017075948,-5.402563485785588
175.0,15.179348727341957,11.203178933189523,-3.9761697941524474,-13.135200247820409,9.562078863054003,3.5750820947459463,-8.616905794317493,-9.849981672601745,-4.513455474176587,1.7578362453031147,5.174732091947066,-1.3311569150495337
176.0,14.551612076002884,15.458191793787407,0.9065797177845956,-15.031958693631358,6.814738176230269,8.224679740018594,-7.330339711617423,-3.4853021377839584,-2.6686509413598993,2.37436046851985,0.7441552237678783,-0.8696929873654566
177.0,-6.0417890582302975,11.800119591708876,17.84190864993938,-2.909539995535985,-11.949379791159936,14.867926241716837,5.777554847954361,4.021877033523412,0.6917019325584084,-0.40719915323964695,-3.618602461687229,0.48902791760701936
178.0,-9.181078742757496,-2.3610456928656083,6.820033049892107,5.818521008660714,-8.01453078440911,2.2040810048079447,1.4434974413427977,1.234385395729229,-1.9511184842187888,-7.63559616761078,-10.517198449632298,-4.9206206224673945
179.0,-24.073686720827652,-18.792267988725236,5.281418732102535,21.481821312053516,-14.701647812887373,-6.774453881774807,8.644461578916406,7.228782389050985,6.851063152031864,-0.42796503393388674,-0.12341058640809344,2.112702061363925
180.0,-25.197663554943276,-11.469399856781163,13.728263698162046,18.30584747214746,-19.418293857819503,1.11477749290108,13.50722628662678,5.898739907823327,8.55191205661265,7.943992182507179,11.087055227828772,9.37674072660646
181.0,-0.8123574754663716,1.6113675385750756,2.4237250140412723,-0.42619531461121074,-1.5801636495347333,2.004122906496338,1.147809874536832,-1.4891299977870838,-1.0691428313293585,5.14842368403772,8.559642142042952,1.7318240686887445
182.0,30.851128959002565,17.155980018432977,-13.695148940569775,-24.03200424553776,22.308565555514217,1.7152705028331905,-16.693071331866424,-10.04858748384941,-7.903478270849903,-5.21096702126245,-6.364049019958347,-6.257964008711162
183.0,45.96430549273612,14.009796582730306,-31.954508910005973,-30.020109726800122,38.917009535555174,-8.912089049564486,-16.53614193256057,-4.158903770064548,-4.062822887543999,-4.464006419617889,-6.984040585535422,-7.1343337273789045
184.0,11.386549496299164,-0.2742006332019242,-11.660750129501185,-5.516503877320101,11.48328424836356,-5.989121386807339,-2.0746000805907956,-0.4944462606747657,-0.7719463613743138,2.3180209335033313,-2.320916074087014,1.163896108344805
185.0,-38.39526303147116,-13.70920980344656,24.686053228024576,26.0867053303607,-31.58018388716244,5.4652203827937775,13.16456544686628,-1.1312842076805574,1.4678677742635253,-1.344714792874411,0.9437409727552496,-2.691107827352826
186.0,-30.709064599473848,-19.68284129760698,11.02622330186694,25.22794936535753,-20.830121171535243,-4.272206407037408,11.350262699761737,7.182378738611218,2.0835078691984554,-2.1318186764075087,1.5417515925804481,-0.35344996855683375
187.0,10.311966266610678,2.441111984648094,-7.870854281962446,-6.422286679481807,9.124525165663705,-2.735438329958115,2.2052965962096485,10.838517197484133,5.584000084015943,1.3192981730276776,4.766399933979197,11.90923082800481
188.0,10.51486489207164,5.14409672047459,-5.370768171596921,-7.8713584904128595,7.969469460518724,-0.13168712696166152,-5.1967963451495685,-5.032414220629622,-7.3422527158927,-4.0701875128602945,-10.071438022257126,-2.9367942303404
189.0,-6.075439952351457,8.684027379409269,14.759467331760751,-1.2623278661916517,-10.47708346366298,11.704124063304041,-4.887493460797208,-10.01745093518332,-5.694154258751508,0.78635536939414,-3.664026477863323,-8.445850546294235
190.0,-4.234130060481428,10.839508778339637,15.073638838820965,-3.2564889203367064,-9.642318625168395,13.01573674961678,-0.6649080406540966,1.4127790145428687,10.90715681434903,9.354848646158933,6.093796599717968,4.557331371453067
191.0,6.036338236310675,-2.1518397653823307,-8.188178001693203,-1.9732947800756575,7.117305069437233,-5.194515303272735,2.29663298952719,3.135746727537331,3.6760126800254165,2.0701197811476293,4.498554889049951,3.2520184308395588
192.0,6.212042298576736,-4.39237404728674,-10.604416345863672,-0.9431030840792585,8.408813577670616,-7.52983616633489,-1.4212720794418285,3.547716376707336,4.07484013457823,3.409293000248477,15.148857714306493,7.924736810028098
193.0,16.43285286994678,4.127760888629799,-12.305091981317101,-10.319160509608713,14.367997654206132,-4.127024483692783,-2.863600500717289,1.3301437157265465,-1.9795638624510468,0.9453437867610279,8.33589834589128,4.290252655925386
194.0,-3.8697491391151804,-9.282762516080425,-5.4130133769653135,6.6089218917562755,0.7724883340872575,-7.311883914469281,4.9850483843007405,0.7686528890727891,-5.185009385048405,-6.5603867350080804,-6.634632344163625,-3.949780840280882
195.0,-18.034613762809087,-9.937838466524353,8.096775296284797,14.012420407014606,-13.059639533303702,-0.8844156570206025,3.4444656112501884,-5.841476900364381,-10.868439705911614,-7.01446834068131,-14.170449939461013,-7.167464553195888
196.0,-10.485618601091698,-3.1906767438126633,7.294941857279236,6.860703591047913,-8.876233157726372,2.0932661886198036,-6.490828720714851,-9.231355851714376,-7.260167340545622,-14.601034680051274,-27.48337549931016,-21.49797852706804
197.0,10.489504975045755,4.158802685949829,-6.330702289095693,-7.3014591472772015,8.355131090479816,-1.1151954749369617,-5.877064588329587,-0.9646482606662121,1.799832652848691,1.4514357721956213,-0.28213468955456733,-6.212170368313662
198.0,-8.552835073305218,2.519509319226572,11.072344392531946,2.964173598989075,-9.778729617261833,6.775429292497906,9.575419375519443,5.881458545291678,8.55391056422509,9.414823839070305,13.128044399280265,12.257940261547756
199.0,10.531982675739728,15.135850569785081,4.603867894045383,-12.880616726716072,3.0068225898232264,9.85532164601017,4.920801620243629,7.076053951800301,11.277151792024426,10.836694521827432,11.339321256247676,23.788712573275074
