Time(ms),I,II,III,aVR,aVL,aVF,V1,V2,V3,V4,V5,V6
-200.0,5.866337444510064,11.96205295567728,6.095715511167154,-8.960570356433216,-0.06773185700453865,9.008778255477681,0.6977854301018676,4.171342172967871,-2.3404687751479267,-8.764196257406585,-21.7609076576959,-0.5508335008760046
-199.0,9.69639091308309,-2.8484107393476004,-12.544801652430763,-3.3950214261118083,11.096863733236857,-7.715160337781015,-8.265836095446456,3.94971244656881,6.175332013843013,4.9599328394410716,-0.914637088355688,7.28736940044748
-198.0,3.0595823282821883,3.6954509562222837,0.6358686279400461,-3.350480670246884,1.1978916965878055,2.146383389348115,-5.159816138657822,3.5152168792080225,9.793639557282765,13.757261010360379,16.64068950001178,10.524614793043154
-197.0,18.807010138959953,-3.011311437056474,-21.818321576016444,-7.949953031951871,20.30786927376859,-12.356846919994101,-11.216917682107184,2.7649383913553214,11.493134272505376,28.350901282525992,37.50209173732979,9.65976890409808
-196.0,-3.486924063598007,-11.701053127495227,-8.21412906389719,7.621426331153833,2.364830590492822,-9.979633556707094,0.8357307684454796,-7.295282993994786,1.323997427917484,19.45583941384184,27.800464906854906,6.768812997234322
-195.0,-13.10139689661056,-11.010292479271023,2.0911044173396194,12.005969981630502,-7.594008695325184,-4.403832216610141,12.542020985317826,-6.138508099006087,-12.370347858993787,-22.92454033551359,-22.99804763516577,-9.38145195702802
-194.0,-15.549412813196533,-3.9611218396800685,11.588290973516566,9.785659287267373,-13.571148044668405,3.7892060272535435,2.944910949687869,0.32834138419698267,-8.343056221707133,-29.075998140880913,-36.86278428522425,-29.42020373290552
-193.0,1.256738779166204,5.782933713712865,4.526194934546728,-3.4884675204983875,-1.6460960613596978,5.1274616326653115,3.5868078902708755,3.9692040839092577,-3.813416984690031,-11.865762488464892,-17.097832716043968,-13.784568010418171
-192.0,-0.9344450981175402,11.588689160098092,12.523134258215663,-5.295998071802398,-6.751414228822702,12.024636222545642,-2.4644465185024425,-1.4619043738975765,3.075279991683564,13.639761391775748,13.37286643975245,4.624453501564
-191.0,12.749321242749978,25.90928661426202,13.15996537151205,-19.378923667643935,-0.15962019828492502,19.49887657700455,-14.009202360520378,-13.447304007860954,-3.4374455607179195,16.810292470843805,26.946275845523953,20.270831503308166
-190.0,-9.267651005880131,-12.00454403035546,-2.736893024475359,10.582789691438137,-3.3052734156217984,-7.330446183009877,2.228836486024111,0.9474403577357571,-2.4063859189031302,-4.285436785966537,1.391051708328197,10.08342228056924
-189.0,2.611732551375861,-8.454580492102778,-11.066313043478717,2.942417030620131,6.876150937777864,-9.7193387070759,8.536848380623896,17.02409220300248,13.697430362022507,-10.060140049256205,-17.8780513641386,4.6416938117262365
-188.0,22.29051541240042,1.7641808013098474,-20.52633461109069,-12.009969486826236,21.448720191201325,-9.335231234467493,6.064095316669256,17.257431895447173,12.207229977142624,1.8704439841324128,-5.142189754537753,5.9445677688108045
-187.0,-1.7775479709939042,-3.331211490581878,-1.5536635195880883,2.5704846257499296,-0.14425572993792635,-2.4684049340861662,3.2505317374490406,-1.2703701436788677,0.49911354479926384,11.920499603215461,15.047980951777914,3.834414668439273
-186.0,-5.089919330988336,-8.363221937928385,-3.273302606940125,6.744290105742739,-0.9343954450294658,-5.838269741107851,-15.53830079385383,-18.741583726104025,-9.511081820105984,9.658470832210243,3.6368301422225917,-11.82449965143186
-185.0,-12.261292317839635,-8.156692759040954,4.104599558798666,10.230365979486507,-8.205492317064607,-2.044276600582856,-7.337360495725026,-9.708537930254085,-8.40921433098119,-7.331773903261882,-9.277058292695187,-14.668836264117886
-184.0,-5.365494491219633,2.558094935679345,7.923589426898997,1.350056935335699,-6.589165694176088,5.218530088374795,3.4637112859317023,-0.03768062143314577,-7.297762229280693,-10.485217260736357,-0.9326688207423723,-3.353820443561146
-183.0,1.0521183088483905,15.257699306587561,14.205580997739176,-8.128178431013376,-6.605405189072552,14.700102214354807,4.527686223818302,-1.1123998534875155,-4.3478188720348045,-14.58663910524034,-2.6218521406078983,0.48893146146414956
-182.0,-11.785803849995222,-2.1087292741183905,9.677074575876798,6.893361161828045,-10.768491632824592,3.819868515105213,10.263372060279577,1.2484379057098938,-0.3525280220171355,-6.877027850765009,-4.535557992749918,-1.3964749391826827
-181.0,2.366098991871423,-3.540424149911682,-5.906523141783201,0.6066643352894565,4.168904021276625,-4.697830959591978,-0.49546840071034115,9.86089737570492,17.094008055638803,17.433588097411896,4.986433730777005,-2.0397649652588115
-180.0,27.845531934777007,8.36744082721446,-19.478091107562705,-18.094274387163782,23.687072950724854,-5.535224070355662,0.9145357634808673,12.089264489959568,19.420915458143902,30.681697478270202,15.32505719210575,6.100694800990279
-179.0,9.480385809121197,-2.862090150724846,-12.342475959846205,-3.303793345522349,10.932978566704652,-7.582069200898767,-3.63585057316985,-1.8861269311244566,-5.384524109374832,-2.479715727270854,0.5885302028845798,14.114607476120572
-178.0,-10.686704391713878,-4.112262068108211,6.574442323605528,7.400790691921113,-8.687166032714694,1.1772779900063268,-8.921234513923018,-10.450861197643512,-19.454026310762117,-22.457153834680163,-18.21042604041304,-0.32480564280727187
-177.0,-13.130894790595333,0.7379346580737853,13.868829448669032,6.198151803297989,-13.473242649898296,7.335085041594342,-0.6362368829175313,-6.040751759880214,-11.668721877929878,-14.251343366573845,-1.8065374249798154,4.392246096650507
-176.0,-9.061159676269,0.5877054435173066,9.648865119786276,4.243570439444595,-9.400205218014861,5.077141758781908,-0.036507921155457534,-3.0571497810991577,3.9008714663748734,5.961900013058941,8.382629364116358,-2.641027080204559
-175.0,17.585331352450783,5.371620133708207,-12.213711218742569,-11.462457678117353,14.94055265808941,-3.3804438075814423,2.1296465929423802,9.738039105072607,25.48856281424395,29.369661325595136,29.647770345244,10.24042983561299
-174.0,1.212599851695515,2.819817955205704,1.607218103510207,-2.0673965596173804,-0.15043341995729564,2.1750235261328053,3.2157356600915903,1.55119966698763,3.1446416751959436,2.4520047132227383,-4.713521113756169,-7.8736593250778615
-173.0,-15.186245001535877,-5.287090318097777,9.899154683438114,10.276237431955598,-12.572322971732039,2.2651228862443635,4.400353834615327,-6.46650694877725,-18.358805788147595,-31.25869099783481,-41.83161685987613,-30.417836925933464
-172.0,-2.6495535484092043,-17.54813970081731,-14.898586152408102,10.07046870298373,6.0923860378516554,-16.187641006720106,12.536799556808587,5.624183024339649,-17.827128017901046,-30.193433799140042,-33.58532329795005,-14.650810378514942
-171.0,-9.079699068243634,-12.020581308768355,-2.9408822405247452,10.530217028794358,-3.108609295800704,-7.44449771389207,-4.239754785896784,-0.048160540423285436,-7.90960549711709,-5.846418477133277,4.3367482963610815,15.620292258329375
-170.0,20.6156086840049,19.575337607493893,-1.0402710765110512,-20.03112512163883,10.857537646854322,9.308078328651836,-14.400463423188986,-5.942632746584108,9.953699895809565,31.93191327348601,42.49399309719102,20.232034913747842
-169.0,10.760304460108774,22.92121117656966,12.160906716460865,-16.85270900436222,-0.6809125394495146,17.51041031489169,-9.251733624008237,5.46693470871805,30.53368428822661,42.31122867171038,44.62698566875932,19.604664178577057
-168.0,6.1404037187617915,-6.394039442622846,-12.534443161384614,0.11449503484473667,9.348878907574097,-9.486023532484579,-1.1567372048165856,1.0147066137349516,15.90553402481899,15.409442205086105,5.265658806976713,-7.592047038999487
-167.0,-2.7142330886835224,-6.164262405458017,-3.450029316774463,4.424412245063268,0.3751552654371769,-4.82106283447848,-0.6868847494692158,-1.6696541191078285,-3.198841993763902,-6.4127983292329835,-14.45471179125722,-9.753363467942217
-166.0,-6.873543959825075,2.1250071903728607,8.998551150197958,2.3559139275417236,-7.929320926267943,5.553102256853251,12.035768938175883,2.122264346919251,-13.773785460658164,-21.934274002102388,-25.80632150113518,-9.239882396994204
-165.0,-23.802421500688663,-8.477654920427078,15.324766580261619,16.11850310056588,-19.555060853322473,3.417106942224283,13.483389828404588,-0.484014044191416,-25.86264104453031,-37.351793952553884,-33.12133501106642,-6.919317279622379
-164.0,-1.644942598897842,4.959972058287797,6.6049146571857005,-1.6021581027331866,-4.192812692516592,5.77588225175441,1.4442013558626998,-7.1717447086676165,-14.95220713770299,-23.77388781453192,-13.336749013639373,8.100891957659432
-163.0,-0.6538095482881714,-5.4056109074785095,-4.751801359190251,3.0845296987697246,2.0612981505591934,-5.007947037816361,-9.37636550079907,-11.072696851248166,-5.732402597063586,-3.7012647483702708,4.921641190133149,1.37581744195342
-162.0,21.794646663110296,-1.8407649128760843,-23.635411575986296,-10.00126592351022,22.727344919722814,-12.748218378772608,-9.186104223684747,5.473253665904731,17.89585185612911,26.975380212930826,30.34958696824878,8.250980238615975
-161.0,4.252877598659211,1.6462965259075126,-2.606581072751613,-2.975958841728093,3.4409640681773634,-0.4932774071295922,4.823366831073157,18.641872562815077,34.37567891278598,50.75640243391106,38.58520337990603,12.474426867808738
-160.0,-4.899227495873433,-5.630957170545949,-0.731729674672422,5.233725306358724,-2.0739304938075325,-3.199024776942853,6.283960283629715,8.243178453449545,9.81715549114286,7.494648886755918,-9.108241985062431,-9.510132622951545
-159.0,6.819087731096947,7.150491170363669,0.33140343926681726,-7.023897300060555,3.252656041922724,3.7166044691669455,-6.568532953428624,-3.378292312126452,-6.567067904636046,-10.8013562937884,-13.593039567283,-8.708815214193816
-158.0,-6.069628448062696,9.786536403806707,15.856164851869481,-1.8273890197860487,-10.954131772603546,12.867081451604065,-6.728928449998665,-5.836953380961281,-9.013052872807688,-11.141969137670465,-2.8527351202240165,-4.1123814335583395
-157.0,-4.83963079091005,-13.941895490066623,-9.102264699156542,9.415239722972249,2.062654297027417,-11.564799322852254,1.9297559256804206,-16.878429528803643,-29.566603763691678,-33.267954940536704,-16.17272077737127,-14.994025361712621
-156.0,-4.022560506176798,-2.1330037643368223,1.8895567418399808,3.1000255187395482,-2.9428681751601147,-0.09472401490177051,-0.20758507682891558,-8.672523878383055,-9.385997155928825,-13.492544245042637,-8.512030988282149,-8.02315502593306
-155.0,-3.395594950663594,16.31956123839189,19.715156189055467,-6.436915907052609,-11.536989509882845,18.037928150536736,10.909372667009409,9.981014996579798,14.246905481402745,14.38617132098578,1.8457546564548828,14.633864398859265
-154.0,3.0083677016835257,5.358200852680286,2.3498331509967074,-4.230458000833299,0.35482349330192875,3.7936181652998173,-0.33931188640303667,5.242723393142064,10.469375400006404,10.237651152714516,-3.383267131219269,12.772117431159202
-153.0,8.912147277901063,0.12710517646419586,-8.78504210143697,-4.480745296263784,8.882451504126916,-4.307870533232457,-2.7246573215107315,5.944231688586046,5.797311984107715,1.832810803405435,3.8904452770178346,17.40155188147064
-152.0,2.151126246775398,-11.804606621209276,-13.955732867984793,4.791780756722085,8.016491934142937,-12.851874115602852,-6.522757285731945,0.7010361419446793,-0.7277751770906882,10.149652186085216,22.99591018071643,14.396661686628097
-151.0,-3.562310745172606,-10.720519886735541,-7.158209141563054,7.106799489079492,1.7670784499172951,-8.901333895863601,-1.6716329304109254,4.066235397985701,6.074905510514542,20.874970942456844,26.262963116310857,-6.438300282851421
-150.0,4.968406306851753,-2.5699231757148855,-7.538329482566715,-1.1596022415075278,6.225770561424845,-5.085542586441534,8.673314876241852,6.285763238061301,6.723323066981546,7.734007421547652,9.997673075563988,-13.516918411492618
-149.0,-6.819571791338136,-14.975732611915287,-8.156160820577124,10.850933749882326,0.7200322722922841,-11.591648861122296,2.0149033738767574,-13.822563327710276,-14.228501970110262,-25.10253076274803,-30.450621209551183,-32.6133658956988
-148.0,-5.161312236757098,24.898079371921042,30.059391608678226,-9.844051255524288,-17.638557565658,27.452918519170748,-3.09365320396029,-6.231526554656217,1.870962668171182,-7.177667089224036,-16.621798866517675,3.3844204385660213
-147.0,-5.877037645060205,17.015630896722648,22.892668541782932,-5.549649790993122,-14.336173792936291,20.000657761327336,-1.5501593630250219,-1.3205201924179617,-9.524143897692188,-20.104492112953924,-27.025617827477454,-5.6910161852466485
-146.0,2.03469964661456,-7.462779210833039,-9.497478857447557,2.7339759601924216,5.734189429761022,-8.52362780340178,0.8811964679612792,-2.622063086936803,-21.452948100565138,-30.41057037206851,-27.16988777017672,-0.9254000281210786
-145.0,12.760132009301868,-5.353472182843837,-18.113604192145736,-3.6780415894840996,15.481997510307735,-11.711417042974949,2.3032012635529493,5.497471630135697,-2.6941887537059355,1.6100908578882525,7.755732264829437,11.444431780736227
-144.0,-1.4591737979255042,-1.506088538327921,-0.04691474040249766,1.4378728129521396,-0.7417035021089742,-0.7658684786720222,-2.66867549439302,6.3356075158565925,23.034026028525695,41.77250193110595,41.70696083043375,18.21322577628247
-143.0,-4.817438968237331,-10.614034996992892,-5.796596028755625,7.6803106809622745,0.4515702866999156,-8.20148161230602,-3.888529068829579,7.685719520960095,28.09970336798493,42.84947853443622,47.04789174618463,16.235319122799645
-142.0,11.362913741088192,16.035131340752745,4.672217599664504,-13.648398755025351,3.383467792323167,10.357168606627342,-6.876742561331315,-2.4620788082208014,10.040395729688328,13.82210946490354,21.834621194822095,15.389169340634892
-141.0,-4.17712510364528,-2.5411328924887577,1.6359922111564797,3.334538754765335,-2.949085764935442,-0.4428441258843354,3.4003526071518317,-8.48825381771515,-12.090969467494,-18.833043098337207,-21.917525727690283,-10.905090212241236
-140.0,0.059270853430053894,-8.396735206935013,-8.456006060365073,4.143501033636573,4.293848953369826,-8.484067996471758,12.793962391179983,1.8846551539907987,-17.034879315008773,-34.095965182269396,-45.81916401773596,-34.381965560633354
-139.0,-4.747847523579935,2.7280351334017636,7.475882656981719,1.0594201205223452,-6.072995913884853,5.136759411634138,1.2948654481569335,-1.3419139971641918,-12.81764360982484,-16.736155918023805,-21.631217366274623,-10.784861460120236
-138.0,-13.319120147201112,1.3146476856073777,14.633767832808577,5.967230745215669,-14.01108695455952,8.021886285089588,-3.7758389594680515,-1.0675061035860458,-5.809660719487001,-3.27550742947151,-0.2159852319581148,-6.35427019074708
-137.0,5.917633770088428,2.5938502456625057,-3.323783524425803,-4.217729907883679,4.592794723177456,-0.3872235030106097,-6.706866660497063,-1.1871803806576018,-1.1727751075265052,7.352031262892661,15.030061459217603,4.043410063941591
-136.0,2.9416834059271597,-14.922333018202828,-17.8640164241299,5.945363626850462,10.4601297464168,-16.41293036943781,3.0162596590977957,-0.644567574178356,3.111725652794603,-0.07068766278372429,5.145398711329667,10.644427841373162
-135.0,8.977982301668701,-13.831732439493937,-22.809714741162576,2.4587508585742373,15.876649677876886,-18.344803095831004,2.3629220539449323,2.629037998671774,12.876279884168849,3.7571649397748867,0.4927098443643487,7.206352927402753
-134.0,14.06547839721341,24.787456279120313,10.721977881906993,-19.394158188641867,1.6553019073379245,17.7210642289785,-3.363083619711576,2.3554414717681107,19.10256531375088,25.699363262984264,24.921274474675823,24.215598297835715
-133.0,-14.475176444940232,34.35601851167087,48.8311949566112,-9.984654823343462,-31.67269356809349,41.62709951421695,-1.860828358384588,-0.5617774865028005,-0.7061669599394964,7.2796328479591,2.6546705126898775,8.832817549139888
-132.0,-16.1230315030089,4.810400405504559,20.93343190851355,5.615206717354692,-18.553675224506975,12.895431441940694,-1.532922293895941,-2.2895835829526137,-15.838650288510511,-15.41017540592897,-11.971649321459676,-13.162396047838692
-131.0,-10.091384302503482,-27.175725321694422,-17.084341019190866,18.67441161583365,3.5427890506024244,-22.112234903068053,8.327066369976771,3.8766366619569443,-4.734038825049363,-3.779848352385688,-8.334969030559805,-21.132680877326493
-130.0,17.295937266769652,-22.88099804854107,-40.17693531531063,2.8360338800554477,28.77666403263364,-31.512030341682834,-0.32841741664001,7.559437637970744,2.878019871499384,-8.651090452811026,-9.836936383737331,-13.636546182552989
-129.0,17.626486581786917,-12.621203384632278,-30.247689966419053,-2.5363009373107546,23.89480867980115,-21.41501366452718,-7.563757907348125,-13.04858905833,-12.092772618719872,-19.130569636329437,-19.31023063283442,-6.170599387881907
-128.0,-7.649605362780337,-5.863134364331047,1.7864709984493796,6.722944510220558,-4.6824643046113685,-2.094446068381533,5.55326284448745,-4.214670139095823,4.898788817579418,5.594470790662816,6.870062174772723,10.078139385834348
-127.0,-6.121157478343341,5.952383124792419,12.07354060313579,0.128604587597545,-9.138731412993712,8.958372334474678,-0.029388893244756797,5.0600196338322005,6.21689762510659,20.418105155079306,22.600861385681895,21.216658091462655
-126.0,5.858163734569862,19.097133231608403,13.238969497038502,-12.51423626019607,-3.7277727673650016,16.19109220350656,-0.017836368932844543,7.094681120619555,15.476879924135698,27.279834886908333,30.205440030277508,10.796464256181965
-125.0,1.1957920516300424,30.204907361400657,29.009115309770486,-15.660483046699637,-13.859559588994799,29.62702020510414,-2.943111333332448,-1.4385166940419287,-2.1360621769591646,0.34512802852199265,1.6296398998603134,-8.252557987091453
-124.0,-4.358400302002198,10.927314232894801,15.28571453489688,-3.3250505113685875,-9.84689730794237,13.123387998487061,-0.17935215822118122,-4.0541433885124345,-10.911484626249111,-20.752893020831774,-14.319165650185408,-11.737821751658714
-123.0,-4.012713769763408,-19.512644456189484,-15.499930686426147,11.80041110678058,5.804388566532669,-17.490800531062526,4.948870205067644,2.1910364575970913,-9.398263502225868,-25.03149879803707,-35.370496483615874,-10.977455170262003
-122.0,-1.0039846071165095,-16.448769425919455,-15.444784818802903,8.686572472293172,7.207794296498633,-15.929849382972225,-2.8390166162913832,-1.6271656160852426,0.7282163532533605,-7.572548871941107,-10.277683004607546,7.974772661002346
-121.0,-1.097039169494459,-8.510723356632495,-7.4136841871379175,4.84552480358974,3.147759238331087,-8.01969368648302,-3.731454579108192,-2.945457615183417,7.046463163612829,13.271083545211505,15.964152538363432,11.355863965625458
-120.0,-12.319812934003362,3.0637280636429782,15.383540997646477,4.594415098810639,-13.864865760213402,9.251443307959818,-2.9175257130105092,-4.940586860554772,1.071921566715714,16.830659606768577,19.124846604809676,10.979755166715288
-119.0,2.8979680477395044,2.3455505299539787,-0.5524175177854234,-2.573509866066393,1.7046162694244753,0.8534273983245693,4.253344083611464,0.4810483516768609,-4.695940760939562,-3.131533196523641,-2.6175479000438937,-12.420250343774185
-118.0,17.604951066602894,0.17718119196372406,-17.427769874639058,-8.920044284769423,17.48516199596692,-8.581582507279366,4.728819763763361,7.346868867821141,2.272736268673849,1.6796018274275353,-4.27980179778108,-15.581963346576014
-117.0,11.848394189355535,-3.3145379916785673,-15.162932181034067,-4.296913626163828,13.542161464593729,-9.266287905976391,3.5756879875444625,10.332470862642088,7.179782158531567,-0.9635243083204337,-4.482547322639659,-5.057306217048228
-116.0,-2.774337198038788,-3.818798874076041,-1.0444616760372667,3.341616457461053,-0.836826510301369,-2.37452774930932,4.322621514738695,4.847339117419759,-1.5406540316556114,-6.798265432558331,-2.6618138142198484,0.2883161302258843
-115.0,-8.223417098945168,7.981561128810903,16.20497822775598,0.08157589684175759,-12.189574139086668,12.074963266870371,-11.977331342696822,-9.786485037400235,-2.4565506539575837,-2.301379692059408,2.061989312717798,15.613237458681622
-114.0,-5.849307712914452,0.7217790493199621,6.571086762234298,2.5971928638862347,-6.262323353478212,3.628183567238345,-5.236897352474586,-9.300960310189591,1.831380998585376,7.405900292290358,7.219503796676417,11.070028732353158
-113.0,-1.7458371000680835,6.89989595746851,8.645733057536491,-2.6265977803784173,-5.162819348599136,7.751308298394858,-1.8306335129389395,-5.461619649539613,-3.579392656525764,3.331231810514168,1.7374508901212078,-1.2704443458762107
-112.0,-5.117293486862463,5.810497293256816,10.927790780119203,-0.3181054194752355,-8.060003452597453,8.34197718365553,5.452251926392499,1.625753851396393,-2.3334809744747105,-5.986992836477758,-4.437749968045708,-7.593184532931421
-111.0,-3.136744400889718,5.338728197421913,8.475472598311656,-1.0686670670474674,-5.757255708151598,6.952272289723585,5.145607848210139,4.941815073374596,-0.9640876992478371,2.0676880267868265,5.781903172472694,-1.90868944630202
-110.0,5.923296215435185,-11.14152978859256,-17.06482600402762,2.5705882964837508,11.468703806338914,-14.063385396671192,4.3846691204641495,6.231746543777366,2.546868179802697,3.595791856195391,5.692337652165264,-2.9341911503821896
-109.0,9.416944109961372,-8.314396052538207,-17.73134016249942,-0.5010146605547572,13.549167941474607,-13.06493876481051,-3.5478764433093337,-0.8641621345408348,4.28928385104955,2.004720965378766,-0.25476600163841834,3.596844000438452
-108.0,-0.015776889982239695,-10.837488891034454,-10.821712001052134,5.407376380154674,5.374492710922281,-10.793425000906096,-4.3180449769028675,-1.0135939769932631,2.737510476503074,-0.5359330683122168,-2.8728742045715663,6.802681781274533
-107.0,3.3464263191186405,1.6944019005222684,-1.6520244185963922,-2.5342860269116065,2.5435488381648357,-0.019709911092289367,-3.464453550601892,0.4431877570401623,-4.9101441826218695,-8.881320687761033,-20.944078034693966,-8.072479141410636
-106.0,-0.4927040408742378,16.254973590866573,16.747677631740693,-7.89555616428833,-8.582367188815816,16.463459697666174,3.1018661818356117,-1.7339921286466955,-5.285608114417275,-10.341241511909482,-12.086826630366222,-10.053624550081045
-105.0,-11.929181099890563,7.133469562041346,19.06265066193174,2.3766230514356446,-15.542306070368763,13.142438673304259,1.5546347044659283,-0.005702559609721103,-0.742510878192435,2.0092771208151197,4.906342456813682,-2.050433918599909
-104.0,-3.887515493499744,-8.796809240807626,-4.909293747308025,6.388230606694801,0.5396104065076983,-6.805573514927735,0.7822256896241888,0.558956965807801,-1.331309580926463,1.5634932018557564,11.576021278365754,3.0623983246604634
-103.0,-2.7197682506881304,-11.296247458734634,-8.576479208046605,6.96232472961011,2.9552923719037802,-9.965732616104312,3.4203758900810683,0.0579754711533762,3.609588318298318,2.6760368820136993,11.738718545244708,8.684573000192923
-102.0,5.8682600082717595,-1.1290736897933757,-6.99733369806517,-2.3475215774753715,6.380756191648787,-4.092488935683916,1.67076429563358,-0.21911291291559054,5.643395651330627,7.996618005339693,10.026370685992823,9.509380236420157
-101.0,12.490365063284553,5.17967095225421,-7.310694111030323,-8.819041180927105,9.84970080074299,-1.0967468460956735,-2.2485135125181865,-0.69745363571069,4.142035167397046,9.09678261925868,2.861707042868356,2.3201199145514515
-100.0,7.679784896536325,12.569253686364366,4.889468789828106,-10.108406247453836,1.4259837924055363,8.773185907263809,-10.917491452444292,-3.478416449628623,4.415335610950162,10.225194724028158,-3.2744547743027614,-5.244173633992993
-99.0,-2.1893271247751787,10.123697087365231,12.313024212140503,-3.94527730848876,-7.215452657972653,11.257387602547734,-4.386466299027387,0.5560345116303007,-4.554247676876984,1.5870349641030963,-1.3042528652562115,-4.016333649130175
-98.0,-8.67070433580793,-2.2288565227025194,6.441847813105497,5.402267560105941,-7.513941129113724,2.061529756306528,5.9034832000792585,2.6919827298050367,-9.524591343603047,-17.769413676186236,-14.712815529776453,-4.5634330366142475
-97.0,-22.47097890694522,-23.31185228058167,-0.8408733736363683,22.853951962491013,-10.84440027016105,-12.047757510484717,11.43227392132491,4.799375888744068,-7.52863614799952,-22.400477697954223,-18.48128286416452,-5.698999441613256
-96.0,-1.092379388146826,-10.4348863044165,-9.34250691626963,5.813121094358772,4.101215051397649,-9.943572426638159,7.9794731738368965,1.9441712040510006,1.3118831275204732,-5.8197019746700285,2.9120289791962577,0.2841693582459417
-95.0,7.283244553068073,7.476658656364679,0.19341410329659237,-7.40454633786479,3.522971136687891,3.8549733296164908,-3.1866280849482838,-6.271110812506718,5.8928182650220915,8.420458643629162,14.139393413585982,9.377760998286707
-94.0,18.874240633937124,14.432661320569963,-4.441579313367228,-16.59874259952852,11.711878444851436,5.012612845883509,-12.83432483080811,-4.946605006296517,5.131353911493679,17.427097584125708,13.554455696279721,1.7544420291123988
-93.0,12.921541311640713,0.1778405518923334,-12.74370075974846,-6.57678090957861,12.800552654979038,-6.26758749722502,-8.442707527447105,0.404528453563211,0.8372122969620026,6.786822707302191,-3.8668155706208314,-6.984518632017523
-92.0,2.5600708652458817,2.4015635639412927,-0.15850730130463164,-2.5130752062675956,1.3172624546611011,1.1360425441079391,0.7270852307483615,4.935742751849861,3.246904115508028,7.0896660609036655,0.9664821769179626,2.6083635582321683
-91.0,-13.747642931062328,-3.843728182309876,9.903914748752456,8.75829916864452,-11.7989110764839,2.9655238307572107,3.2375658380841736,-2.5646012905208533,-5.3362098907094175,-5.779153866777508,-1.3073391296689842,3.4136582024773925
-90.0,-16.520631147058715,-1.060500987617457,15.460130159441299,8.8290507432713,-15.970404901957897,7.213848984671183,5.515266487766232,0.5171374693986135,-3.578665050259616,-11.985756843038335,-4.427787360024035,1.038654919679821
-89.0,-14.79325265171008,-6.7741745379622005,8.01907811374791,10.82290941246061,-11.388200720991783,0.6365104061315225,14.83928443924822,7.84902819474099,1.1249829057084701,-12.035335865127205,-11.96942924721715,-8.865839166554029
-88.0,1.6397917455405162,2.6159927220791364,0.9762009765386281,-2.0847155112864098,0.3528986174105597,1.8105794766031271,3.273877501565451,3.698432119433922,6.665282293242933,5.477022899200733,5.499698837362861,4.832157430420802
-87.0,13.240799104662617,12.048072765974968,-1.1927263386876725,-12.674833202184795,7.165995251692018,5.443257680356174,-13.621255065231129,-10.948936769129078,-4.122672568097672,10.578008318850246,8.848085249485473,8.873277776298835
-86.0,18.886764272406445,-4.447170844786512,-23.33393511719301,-7.2468082999244094,21.146521033948854,-13.951786753900912,-8.574913381956392,-5.111836290100027,-2.4020497309408935,4.142819522239697,-2.7816965834256857,-3.4855805289351847
-85.0,11.43002821757751,-5.927296816461938,-17.357325034039544,-2.7792663443201144,14.358146629193204,-11.622086865284679,-5.536494377447739,3.619812334216488,-1.4720210257052322,0.45822702378746616,3.7960089677590196,-5.954695538067562
-84.0,-6.529430093503935,-1.276850331387733,5.252579762116088,3.8693002256878786,-5.922211165281395,2.0112698668041284,-0.879176859310606,0.02860460428438838,1.504253449206864,-2.1123204109842426,2.1753476118752184,-0.7559677873887325
-83.0,-13.303830600707508,-2.8896422785135605,10.41418832219389,8.131930033412987,-11.810186923110853,3.788755050620274,11.79936554804602,3.3324551385951677,0.5336450597044147,-5.9614904643762605,-4.653692371032316,-5.460830976951308
-82.0,-9.463530955351985,0.88295153669529,10.346482492047306,4.314645986020098,-9.935946686783623,5.564657353666495,6.118872973201036,-1.6457259033031968,-1.0783504042989123,-10.412546032580414,-7.270442853706118,-2.366352827315002
-81.0,-11.602124328622896,-5.027238818458303,6.574885510164698,8.329884958977502,-9.042776831634717,0.8031705262696693,1.0501195724221235,-1.65866219898395,0.6088843900188593,-2.6567281052348943,-8.594759590182766,5.155675615521725
-80.0,9.217806073444049,5.6240888246818095,-3.5937172487621103,-7.411360973237454,6.370601248718683,0.9646213484439845,-2.5581403296576037,4.503576233878704,4.691454898179245,6.256867475802984,0.3707408559781049,7.552725061989147
-79.0,12.558184588675713,10.14044071985927,-2.417743868816381,-11.341358156612786,7.529730065195256,3.8868777131407297,-4.927367509676498,1.537223782321969,0.49223079885543086,20.794214139889075,21.383662490298367,5.290834698808004
-78.0,4.970000413988328,5.553146453103066,0.5831460391147267,-5.330687503526655,2.1546275083468363,3.090329604341831,-2.602395021399168,-1.0821733518870866,0.8511164982062984,12.542763149327454,17.56095145170111,5.245987752715723
-77.0,-6.523135505071343,-3.6910396529000575,2.832095852171215,5.120602058946912,-4.640128248633871,-0.410343283521287,-0.06301714288367855,-1.897462361289943,-5.760539256810437,-16.048489931113657,-14.1562028791199,-11.150854693529576
-76.0,0.16232408265346843,-4.495865776690367,-4.6581898593439295,2.185396484773048,2.3654048935676877,-4.638554047368084,1.4327736923100858,0.11135689838817164,-3.228506549585111,-15.946483175892958,-17.159477646826417,-9.951498223532012
-75.0,-1.7980438010965385,-5.168567026404355,-3.3705232253078576,3.507701727526026,0.8156001656642538,-4.2525149684864205,4.673947935627739,0.353244799745836,6.534161280809887,-2.2996312156031173,-0.027023255992206785,2.25847464738497
-74.0,2.065169354083642,-4.339952405165603,-6.4051217592492184,1.0892084300520395,4.18130429730524,-5.353818296722638,-0.5400775515805867,-4.00410338419162,-2.795724194567615,-1.3989400650466526,-2.2153941686314695,-1.113503162850281
-73.0,-3.5140992739471506,-7.9238593860812365,-4.409760112134009,5.755967522297473,0.4700229370553717,-6.1448059934962425,0.19478140332730598,0.3243157729662802,-2.6000577196947106,-0.0402914537070439,-4.592138470540928,-0.9897962583297046
-72.0,-2.5964094280695518,9.586674098477538,12.183083526547167,-3.5304560180617393,-7.366910863875166,10.832281765640964,-5.19828869506656,-2.551304306217388,-3.620344866722001,7.901666939361139,7.887910563171011,7.215520296708909
-71.0,4.496390189153307,18.24241035226602,13.746020163112735,-11.319976737023726,-4.597159585725533,16.02437210086086,-4.963703956566229,1.8072960908840703,6.555992128922604,14.889461986787186,18.137127427346265,15.633234203307207
-70.0,4.061914623514459,-0.43801078373694935,-4.499925407251418,-1.836440332840409,4.238309407410203,-2.435925098820208,-1.6232374356482657,7.21541925024445,6.462405397261312,-0.028974759037636133,6.099110323719228,0.12189364998253982
-69.0,-2.7798234062539895,-15.156839622925975,-12.377016216672002,8.946665411537854,4.845072013238012,-13.811442275524447,7.497766983189125,-2.309898723420787,-2.4988683456397793,-9.481958092352869,-12.907209363609946,-15.630611415716796
-68.0,-10.96133842021902,-11.829049540938612,-0.867711120719612,11.452373396596398,-5.069407101791422,-6.39331576952066,13.21879768069965,2.3329609676909766,1.122703225589323,-6.212834530464313,-14.367349875047152,-11.657115406774341
-67.0,9.924933236047973,-0.6151613202917314,-10.540094556339712,-4.679280850526999,10.216672957371259,-5.5451283579240265,1.0613200239170677,2.0037613070543667,-4.9800335908196605,-6.213153893642529,-9.770392741095382,-3.8195113868545167
-66.0,4.059921378352438,7.595239946691455,3.5353185683390214,-5.857065716146649,0.24910986075806463,5.596557702226367,-6.048053426174663,-3.5351260350472495,-3.83036165600535,3.3577523083521994,3.1369118567279433,5.399143763724298
-65.0,-2.3086788531168962,12.275302368816082,14.583981221932987,-5.018560287115397,-8.460647071488541,13.460504008067156,-8.97110703255088,-4.641171721479049,2.2428637878197875,7.738314753200541,16.5785961888473,12.499358254696473
-64.0,-5.982215340708365,5.097060282619136,11.079275623327517,0.4818298016963163,-8.548417223365089,8.04077275822344,-6.873478548401834,-2.6638679481206378,-2.6761190077450863,-0.47485738429733093,3.6226682048923182,5.065359510473089
-63.0,-2.284374897503791,3.053533244098098,5.337908141601912,-0.3460635024855575,-3.753765685222893,4.22811035752475,4.169828519580294,0.8708121638437092,0.9767388860784326,-1.3206679094134954,1.7619152348290195,1.8745736889336446
-62.0,2.4571236914157684,-8.934691164498577,-11.391814855914308,3.202230264380696,6.978988331054842,-10.208394581456055,1.5771901086542557,2.151628407613935,4.622895815724924,5.718169518906388,6.247462475190103,-0.8703091163450736
-61.0,7.569258590458708,-5.50267074567554,-13.071929336134213,-0.9837252579870719,10.294305002376506,-9.330974999484958,-3.363335322976728,1.1835807693886111,4.941200922935438,5.799040008727773,1.1664277260463796,-4.86315143381789
-60.0,9.2233086505657,-4.016650119495247,-13.239958770060912,-2.6236528947547617,11.203090909466766,-8.591053323960594,4.474965668636396,-0.19989685628336495,3.169381353493133,0.21142508628110357,-7.920397638242686,-4.19322953664278
-59.0,-7.801590720802087,-2.5410394063541974,5.260551314447937,5.158463200835087,-6.563062287193203,1.4002438428632846,7.094752214575799,3.174922628663416,-9.185949542957909,-14.507678380372989,-16.880053022912595,-7.41364994796008
-58.0,-12.73614160653056,-8.374543100182354,4.3615985063482725,10.546179934676532,-8.585584238845522,-1.9620563110038527,7.2791161732277985,3.1685256982289736,-9.918223786603166,-18.093489407378545,-15.595211426893034,-6.563916861440235
-57.0,-3.7351708061279867,6.151480345308531,9.886651151436592,-1.2183471101384455,-6.77379070069966,7.988114402389314,-3.5687389621085277,-1.1760480922539225,-0.37758735077314487,-0.8709166250773546,1.8033012628262695,8.32943597701719
-56.0,9.688834489200257,18.500859446352607,8.812024957152406,-14.109873554934781,0.4720578653481793,13.62681487919265,-7.722091883569023,-3.016942299611387,8.045022199133994,19.06179109464998,24.462021695523973,12.633122364976636
-55.0,0.2549106012196587,8.090231082711846,7.8353204814922,-4.193873307519271,-3.757386944215613,7.93164077962218,-6.762956299813671,-3.887658422645952,13.168324363590227,22.055992240160542,22.135206064372426,8.2315612868517
-54.0,2.3543401577510092,-4.111102480512981,-6.465442638263996,0.9308470800742521,4.3657415331409855,-5.32304445915459,-5.352878370359677,-3.1225390841920095,1.6001046006341078,4.075855520015178,0.7507670482375612,-4.847499641940599
-53.0,-1.6280823101151056,-18.866259196436957,-17.238176886321867,10.29777242347921,7.842822912967379,-18.011949071943647,7.3381746869758,1.9076397493022617,-12.018880674875724,-17.450256385965112,-20.506086083399868,-13.615425997465126
-52.0,3.220657447869631,-10.756397570483223,-13.97705501835286,3.7410135957919772,8.560698227534882,-12.327813617945282,8.431664108828485,5.676736126837321,-7.851816529885612,-15.353030550773843,-14.654534610086321,-9.17024604639025
-51.0,1.2657701579954317,2.33534562804871,1.0695754700532714,-1.8247185510562818,0.0610573606664242,1.7438955684751916,0.7059689888059637,1.3223597935662377,-2.4307569029832763,-6.333581013131246,-2.9009988275083405,-0.03464311371432238
-50.0,-4.649973827373867,15.53077039533442,20.180744222708274,-5.463169491066973,-12.374473908517793,17.82470038486319,-1.2484092493315302,0.7004803107346791,5.731464248051743,8.858958547616712,8.183554759153143,9.439234458378923
-49.0,-5.211188753888398,8.996568908499277,14.207757662387603,-1.8390780359808532,-9.749171573202545,11.579447992443422,-0.8295515719056225,-3.774551150566406,6.577063237893412,11.114530912174093,13.652323093564336,9.335041747779613
-48.0,2.604078985309177,-1.2308046356386102,-3.8348836209478723,-0.7190165486666354,3.2572905323834735,-2.547394855669406,-6.290891434466108,-4.621988015197691,1.149134660847405,2.328191643012631,0.9683332147118096,3.141291389439556
-47.0,8.733085183962825,-1.9781174279465699,-10.711202611909453,-3.4211956171788493,9.76076182067678,-6.353060290940168,-1.2153925546621767,2.4698995399369705,1.1375399397947275,-0.9073651872155639,-2.1521031363509144,2.386595746529415
-46.0,1.0279295996206854,-6.614102856649286,-7.642032456269981,2.815288668219523,4.298352984280621,-7.13316299240219,-0.5820548859860593,2.7515631922623363,-0.5722641287444636,1.9647606624092273,1.0266309615378206,2.851596923157098
-45.0,-2.464514496864208,-4.738133164415128,-2.2736186675508883,3.612788910832895,-0.12630958242771584,-3.5104252422297417,-0.7768520260600948,1.782720313188427,-3.61482316145778,-8.811381988539877,-9.342233582855032,-12.681742738331401
-44.0,-7.365542694104187,-1.5557055668869428,5.809837127217313,4.466805603855175,-6.533114600835952,2.1994995103279438,10.017871920421559,1.6586207439266452,-2.7788520655009226,-4.921776559775659,-8.862901933687388,-13.07652549115113
-43.0,-7.742956439944405,-5.024218929467293,2.7187375104771863,6.391755122803557,-5.249237442816236,-1.162902971529446,10.132925005664466,-0.6715087562973547,-3.1255661741008884,-3.5914056988213927,-4.814593636993383,-10.986832745191597
-42.0,3.1247612044300275,3.7525677062842253,0.6278065018542374,-3.4217601616387276,1.2331755745989559,2.1739671846211177,-8.468992837475959,-7.177867645176895,-1.995287690937538,2.9139392018185495,6.272096466641565,4.106815080066987
-41.0,3.8395389861231086,6.235996809571427,2.3964578234483027,-5.008187503577368,0.7053512029774414,4.291603414517656,-7.4067475796306095,-2.459293729305943,4.749656178433214,9.439526901146781,15.345486130761813,19.827933792528285
-40.0,8.62291237554036,12.555252008850971,3.9323396333105753,-10.625816746099968,2.402563777988483,8.208855846174263,-7.468279969149807,4.673480176221254,9.62552284646961,11.890618994166179,18.399821789072522,20.492612611330692
-39.0,4.614452544402115,0.511707914268233,-4.102744630133946,-2.59167056341584,4.32803429431208,-1.7626329101763836,3.3807891480321532,4.88808420549964,4.227791074362099,2.5708883956646886,-5.0503005018044105,-0.05466833851808417
-38.0,-5.1279564339098975,-10.957715442990198,-5.829759009080351,8.015660493249511,0.3089539393777696,-8.370436688382334,1.6185061652241324,-1.2602998883531935,-12.643325657486916,-22.936208905397553,-25.233594020427873,-22.346653681427295
-37.0,-5.0167621175057295,-4.786657615264778,0.23010450224092827,4.947977386149708,-2.598165682205441,-2.2612389409086036,4.187717382212718,-4.721293191186186,-10.528792114699662,-15.135504529764626,-13.273370216581954,-14.563128060486587
-36.0,-1.178663738418769,1.0654081532033648,2.2440718916221507,0.014429017043196879,-1.6955636933025646,1.5914603755891787,3.9501298111482335,2.0455231421468434,7.080905664205252,13.792676392685786,11.076027766332967,3.4840763466305518
-35.0,1.210871584147124,0.3767069833133184,-0.8341646008337631,-0.7677404584673364,1.0325982223310626,-0.2097875762443775,0.642088000193505,2.5174860546049382,11.739690780820657,22.431834022032454,19.462820257422138,15.964285932002953
-34.0,1.0106397582868132,-1.2332609997961932,-2.243900758082974,0.12960510490929744,1.6360206604700065,-1.7119729102307741,-2.990486914827284,-3.087252062526395,-3.055790167232696,-8.197700089707766,-8.15090152421344,5.188698882391498
-33.0,3.1517135746508873,4.298428614556032,1.1467150399051476,-3.7095907003766087,1.0139314357030578,2.7591359184587443,-4.115371228738911,2.2419614488640374,-2.6734337297289597,-9.255344567619511,-7.974794117005715,-5.024444003467753
-32.0,-6.83401830900261,-4.762056397390377,2.0719619116121906,5.815849052860249,-4.514622433208315,-1.377492633245164,2.720242693857244,2.4757118660177797,-3.598676854250865,-3.8264733285359167,-1.9622930447599563,-5.502958375583339
-31.0,-5.382635204697537,-4.870464965740447,0.5121702389570015,5.071475476022521,-2.9226582926476006,-2.204377578109284,1.0674762711555958,-3.441751176368729,-2.1566554587921543,2.8809946329135814,4.170408316734421,-3.345236294640286
-30.0,6.579249114076043,3.5643239211838997,-3.0149251928922123,-5.041312079687293,4.751875913134572,0.25287280961706365,0.8042777567479369,1.0817141188545671,6.195342640321594,7.960354774192812,11.920357880174477,2.8666778097050396
-29.0,9.080920473121271,8.57684817166916,-0.5040723014521467,-8.871929472789791,4.835412911575247,4.014289950935489,-0.6113961978685338,0.8154132223162125,5.175175796355932,2.1320408563233317,0.7344482279025915,-3.623747376364858
-28.0,-5.307593538801474,0.7663387455739765,6.07393228437545,2.3084490944663356,-5.6386882768410995,3.4740969160158675,-2.4449099294027374,-3.484661160475544,-7.032399245323069,-7.265750932619934,-11.029909423749757,-2.8471110916416213
-27.0,-3.917229653564475,3.9030266871562875,7.820256340720752,-0.035023248940610485,-5.8878060856092365,5.912048299614591,-3.4950724986296153,-5.794360346451289,-8.020766192601474,-6.807308167018816,-6.2895038055918695,7.074924624954292
-26.0,0.43927428574693694,6.160640095993289,5.72136581024631,-3.266814540759801,-2.6557140198653677,5.909301782545549,-0.9194144606121009,0.48245480419502607,1.8533592517596094,2.7225411690161994,5.899471018574083,6.62065061814765
-25.0,5.252176477953627,-1.8992814597658596,-7.151457937719556,-1.647286310307486,6.186981793694905,-4.559945427905314,0.5858460782449514,6.528256970492743,6.446210510071401,8.197135110332843,1.6497919493655044,3.8177024776997786
-24.0,-0.8106745108126537,-13.948882983250673,-13.138208472438096,7.32767136519292,6.143955123279703,-13.501948457797987,7.091477720742287,5.005347767218163,3.6075369505679085,-2.0437127485565463,-1.3235677926955778,-5.580148959312005
-23.0,-3.9067884849289864,-16.538803093485523,-12.63201460855661,10.249988119004236,4.334209024395869,-14.624958682273746,-0.9021020510889839,-1.6425406547815071,0.3616026668186234,-2.936461741510268,0.5568739285600207,-6.349332325841305
-22.0,1.600150863904291,-0.3454436748681404,-1.9455945387724944,-0.6744753268526074,1.8132752863546184,-1.1869944783588995,4.454092834185852,3.9690205442918964,3.1823459832914582,6.1022788176252,5.756212356577307,3.50112620246229
-21.0,0.870354577508871,3.932826176019196,3.062471598510307,-2.361957171075386,-1.0645523857055297,3.534052864306047,2.137141458702538,-1.1228738682573782,-1.0276635213242606,4.963837504671742,4.600595174143748,-0.7623616509754517
-20.0,-1.7328689346138137,11.414092856417792,13.14696179103164,-4.791035912562461,-7.414724532139326,12.317465824381378,-4.802818131723779,-6.708608391467461,-8.587645981024918,-5.020534716603486,-2.2510145941689785,1.634325295924452
-19.0,-0.02756738476760441,7.546804024004327,7.574371408772034,-3.7796407385286876,-3.858097489078653,7.599023601291435,-10.551857597900536,-8.32963124778677,-10.449324867714447,-14.547891889217125,-16.182517128111215,-9.882979337702785
-18.0,0.6366856993983515,10.924294192045107,10.287608492647,-5.79520145484725,-4.805647238677709,10.566754694838256,-2.047948838154414,2.507764548015029,5.203536660622873,1.3370703022665484,-0.011849060164357716,-1.110403646261707
-17.0,0.2023800549230188,3.325473544650633,3.1230934897278795,-1.7793512875958526,-1.4419839352398658,3.184137335148863,2.835481282595671,5.878706938665659,9.49663650441289,7.2320831384692905,3.954887021618545,6.558427652863591
-16.0,-1.703689432935193,-6.2730425484185615,-4.5693531154832705,3.965972654901994,1.3704064472714697,-5.386700939690687,9.397152463854132,1.777813605246855,1.2224821879010417,-3.6518149370460398,-2.477472022314669,4.249799346947985
-15.0,-2.304625377759667,-14.74639249276826,-12.441767115008737,8.4920027143322,5.082212780375267,-13.645331521594873,5.643472769119509,2.6425981952571407,-3.1081894967349015,-0.6794582870513,2.9083949335898356,3.7273121991658162
-14.0,-0.6051698178778457,-10.976902890443055,-10.371733072565522,5.824862405387368,4.894518219108382,-10.654955080307815,-0.621396143132305,-1.7886387729624071,0.4104624674786723,7.496818119079254,10.03767030039635,0.285248743401175
-13.0,3.0085364311533396,-7.131154569305649,-10.139691000459418,2.087524781557141,6.584562564069786,-8.622661467333401,-2.8325994026978556,1.294484618462612,3.625775159225207,5.998072390357479,1.3321222682368195,-6.1921449829799124
-12.0,2.9469152212271776,6.312230858185217,3.3653156369577832,-4.604442907453548,-0.19689169405289286,4.849040504740455,-8.711858647439447,-1.7911437598456674,-2.8998390568508134,0.5916316143754873,-3.353927731958837,-3.372452467261272
-11.0,0.449691407686289,11.234501044312097,10.784809636625775,-5.811298981364335,-5.150601758285127,11.023017770570101,-5.60796777335159,-5.131743548792606,-0.7388303162738779,2.2006697005846734,4.527020101391689,1.1703579427294857
-10.0,12.326753034530936,22.935129882562254,10.608376848031586,-17.668731955417485,0.8039371370894566,16.793640772922487,-2.2267793358148036,0.48963512351560023,2.131379315857601,-2.6505497379057017,3.540472649302802,6.852648373791803
-9.0,-4.210586930371139,2.6727440826312403,6.883331013002776,0.7421093692096186,-5.516665709738901,4.7334240127641465,4.544446757534393,-0.5753999693596287,-3.2484792458165406,-13.87093127356148,-12.4604201345915,3.1941714294559898
-8.0,-20.099416498723514,-26.066770827056345,-5.967354328332505,23.064525294238862,-7.0305055277476765,-16.048337896167162,15.567115074029527,5.769233431566936,-5.546610792963032,-13.493918753247618,-11.45991763703679,-5.484743537377241
-7.0,-0.3302058385884248,-3.4594461343046365,-3.1292402957159924,1.8796169370213054,1.3586181972204412,-3.2352058566058313,3.2725159017078482,-2.3799576957278212,-3.6195078105682548,3.5220854941421686,0.9400542675505141,-5.932614655821262
-6.0,3.5121000698611406,5.46708838148439,1.9549883116232625,-4.4278356770273914,0.7367347983914492,3.699187918572308,-8.168003151380475,0.5241910471932418,7.489480332764064,17.82382348821313,9.827628461301874,0.7641970302889924
-5.0,10.239626154963617,5.630172652391602,-4.609453502572183,-7.957493581900019,7.458187612492702,0.5011154751405911,-4.790089313396809,11.161968221549799,22.169807322040732,18.86001034125421,9.524037939419888,1.1149559317622737
-4.0,-3.322302733969292,-8.26647575367688,-4.944173019707865,5.764495030829263,0.8408196452078789,-6.617191910379345,-1.9112722456040956,-8.143454705537756,-7.863350281221328,-7.249955042477525,-6.08268798163088,-1.633879667001802
-3.0,3.6678330357064954,-5.2462397578212325,-8.914072793527962,0.831148373211062,6.240054001682248,-7.098788954112474,1.8837011735558762,-5.377411289625055,-13.70824687322198,-16.234260823586357,-6.601855366684397,-0.11173186503371824
-2.0,-0.5790412415609536,-10.282427027623289,-9.703385786062624,5.467591013493369,4.5914624272015985,-9.941751694479652,0.2774118990761293,-3.0233755567150524,-13.332415385969156,-11.727134596717173,-4.536214785600104,-4.991027503767066
-1.0,-1.7215000963644793,10.235416440751573,11.95691653711592,-4.301577211073198,-6.80438944661422,11.059660640466966,-0.3204144827269739,2.699486457230731,5.873696232371804,7.441843028096751,13.437401077105413,10.013368725361884
0.0,-0.951878692731429,24.529478638575526,25.481357331307038,-11.833996971098877,-13.25173761738588,25.040739917136154,0.6819046443506526,0.8168102533177466,10.081238424302605,12.8521390790434,13.34999710686278,13.153576601670007
1.0,-10.507208994819003,13.562121254346104,24.069330249165105,-1.4929744024605478,-17.31338020743702,18.76850208009743,-0.07765466592607417,-2.0510201905955276,0.3461169518055405,0.7356429871974708,-7.558820467432283,0.9982745640364605
2.0,5.72982873116447,-10.756809775131753,-16.48663850629616,2.5495945819825208,11.170256304848472,-13.590765783716563,0.4228542578383998,3.4527916573504633,0.8830930556463263,-3.328344231702882,-14.372222090375237,-8.672945311158015
3.0,-2.9547893958331217,-21.749032195901936,-18.794242800068684,12.31070302139971,7.906990474430817,-20.2389143996867,3.808115300900778,-2.474103414478555,-4.911561968706822,-11.857852957351092,-12.138914630182166,-13.420981767817
4.0,6.167770861250688,-28.00030097906697,-34.16807184031736,10.954209338237757,20.15296411882662,-31.12766726903785,0.16961786580600435,2.845432907561357,-1.5941974570215236,-11.087649631627325,-12.664283227421137,-18.339954638226835
5.0,7.8828477350308575,-2.4980629300129262,-10.38091066504347,-2.7344652029046355,9.108390400047327,-6.402490269526048,-4.110069852464688,8.126949833325307,2.3610739679253423,6.830818900614521,12.907719063377243,0.9207605350678882
6.0,4.946436998863106,28.539058777044318,23.59262177818126,-16.70917072386593,-9.359462348631718,26.02405226056535,-2.0333883668110313,1.7953292361011948,11.856055114323514,24.40748165790734,33.31693210662989,24.701277217211906
7.0,5.598520956528199,35.25516786905246,29.656646912523875,-20.47648991505483,-12.000298673135479,32.41252205633911,-9.307431612976728,-12.432906578238162,1.8712743922035684,17.402706335160122,22.155332844785264,22.04515105981553
8.0,4.553620495364637,1.3956770873607294,-3.1579434080044777,-2.950373320556375,3.8743009096129093,-0.8476251801813532,0.10011195285075614,-3.9440530814469676,-5.122287239674329,-5.195535562423703,-10.745352188279051,0.32858237005571134
9.0,-13.978119982717056,-13.23038168557255,0.7477382971439805,13.624611466133958,-7.348201443967873,-6.208142518406257,7.5848642100527615,2.8276893244179595,-10.271165171335182,-20.06227984984634,-22.488040756832405,-7.757216253726962
10.0,-35.67454656806701,-34.32841404484839,1.3461325232183006,35.0199632542587,-18.49207818886933,-16.45538354574815,18.857016806110813,4.177501369895676,-9.428716277472796,-24.35886000495959,-28.84539793842869,-21.914635983319457
11.0,-13.264772048212434,-9.867516571067899,3.397255477144599,11.506704523261607,-8.303541607778392,-3.2723221542154803,1.757651362962,-2.1763377241967987,2.035808571795992,-2.963167881535936,-7.9194619321505915,-11.707335924587301
12.0,10.681755602747835,16.8217034417092,6.139947838961627,-13.72878845160811,2.2310960455690947,11.451814626952606,-8.926152623818513,2.9204672365740345,14.243586151209307,16.23535235603312,17.44004302883052,10.17976827714547
13.0,26.32169304567187,13.957711372863653,-12.363981672807915,-20.110767854707106,19.31304461303159,0.7767672355029092,-12.464817256447706,0.3944711464501376,8.085313420232396,14.357520426564736,21.208812115436416,10.645475550607571
14.0,21.425292938844393,1.6571703058238754,-19.76812263302014,-11.583581545640493,20.572965658907886,-8.989156645615097,-0.49458498945402596,3.7571614050437114,-3.950376156739935,3.7556248419729723,6.1461699869953055,4.442825717277705
15.0,-0.924631398638887,-2.0268530242178713,-1.1022216255785438,1.5198884342602916,0.06663093582163881,-1.5724777754552175,6.611463255291753,1.3145691311478078,-9.636233518235462,-7.118629774428774,-10.607134646594336,-7.899830179424217
16.0,13.634050449491095,-0.6180867642718932,-14.252137213762602,-6.535824209023646,13.998019648937147,-7.443266650336869,-4.618501582208825,-5.9816544294361425,-1.8600923514086625,-1.8879670240246598,-0.6679103683312236,-6.013822085391335
17.0,-0.36304909066449653,-2.009069844678955,-1.646020754014284,1.1629389500625753,0.6934281351459264,-1.8413047896809678,-6.240550618553609,-12.7135347336039,-4.616993672198796,1.2658594940928238,1.3827465324095056,0.5647323803378834
18.0,-24.64967155995368,-6.0238517890131416,18.625819770940343,15.394489043893198,-21.667445854658126,6.276805805596796,4.681895549113298,3.3166714655972207,5.443841865736306,-10.134207471001217,-7.693000833730376,4.066721139296459
19.0,-31.27738905695149,-2.5310980378792394,28.746291019071677,16.88275367488246,-30.04406648255636,13.148921485977557,6.384663992576711,9.883016483682496,1.5579120214528532,-9.441844616519402,-12.12752825052207,2.940807226958709
20.0,-1.312984940196916,8.319338296414895,9.632323236611025,-3.5269401826952684,-5.429034814529913,8.925397177588255,1.4439374626669874,2.8466275139840844,5.7314886427012475,8.054340314647057,4.095641337100744,4.378663802974964
21.0,20.790454017811637,0.031194392334421117,-20.759259625478116,-10.437317643765034,20.73532897780922,-10.345127101078665,-3.6036469976401055,-4.301604870757857,-0.6682569484843679,13.603565230614963,12.70378120525371,2.9755881781796436
22.0,18.65080587911202,-1.9905550701108654,-20.641360949223515,-8.279467247514688,19.67871670677676,-11.300243558312216,-2.760686869008683,-2.4716550584217982,-2.6631079263686024,10.570091354720798,15.220300289695636,4.414639655906976
23.0,-8.927207833312725,-1.0717638922163792,7.855443941096434,4.972172652547959,-8.44591110049492,3.411543872393924,5.097217248210804,2.7947113234178196,3.7246394483431287,2.4950929375096083,0.4141132170253661,-4.768528856745925
24.0,1.667785105923599,5.311927159841044,3.6441420539181024,-3.434938233642964,-0.9728602238380821,4.5077789233633165,-1.4923687494115456,6.444011643553728,7.199210236518733,-1.907901919718355,-0.5512643344503727,-7.443360374792285
25.0,-3.7903399327154688,1.4610694620058098,5.251409394722227,1.1461517199288003,-4.512431254880494,3.3204280452447987,1.5493854500856328,0.27096521841798404,-3.768155903278397,-13.870239738583866,-10.650454876142756,-7.501790924131445
26.0,-8.553159645697809,-2.183129174406254,6.370030471292352,5.355173161071192,-7.455628992357555,2.070317241490504,1.4072341254527232,-6.347953151332652,-15.05007792150928,-21.50996693218043,-21.26455481339524,-6.657941899879083
27.0,-5.425305017563826,-9.043443914330851,-3.618138896766623,7.225224704508898,-0.8941056420810369,-6.344975466869992,6.108232650204972,-2.5138873776242474,-12.178031466918165,-15.04979310450577,-15.921071246944395,-6.4267183226308084
28.0,0.12117383148122851,-1.1342831620478746,-1.2554569935292026,0.49831891047188304,0.7073677340017575,-1.205676096487755,-0.0037325518381702283,-1.8220032737965952,0.6395568906481377,10.642655950395124,3.6477982703810934,5.214702304935616
29.0,13.261459679056538,5.741844317658199,-7.519615361398951,-9.511999473267867,10.344846261616414,-0.8233390012545343,-8.946376326857246,3.1538863420020125,18.008790464144933,25.539889470533968,24.421753159132482,19.060969648462855
30.0,15.468633715035637,10.994680060265527,-4.473953654770793,-13.246251044638875,10.01980777777631,3.2401218874384883,-12.298632417772454,-3.4181718316282033,11.600857536197047,21.958446844414574,28.778394465773157,20.441978739507277
31.0,4.0813145070291,-1.1452476681940462,-5.226562175223834,-1.4089381002565808,4.637051062996321,-3.215894304608829,-7.202862629789108,-3.6378997365240044,5.070495831033079,6.580000714675185,10.609372654918678,3.4348032798895627
32.0,-4.000389672214152,-1.7246110509358452,2.2757786212779916,2.8379748559835645,-3.1468810305504693,0.3140890365330615,5.119263844931543,4.5520238871388585,-2.312326068789504,-8.84796762988332,-9.590786210685021,-8.724291103380837
33.0,-12.738841452396215,-17.001273925622492,-4.262432473226321,14.919798187760005,-4.246005263050993,-10.680822858465877,17.681952557955178,11.81299979101426,-8.57294411818902,-23.96910619203824,-29.699429367327703,-23.303400581651907
34.0,-18.53872187195852,-4.812154636311607,13.726567235647195,11.641788154160057,-16.146507164472794,4.481268170265284,14.057191244472913,4.644618345663036,-9.059680175531895,-18.536809610533695,-26.184897808897347,-19.61898527585217
35.0,-0.614272863734767,4.255810473719134,4.870083337454372,-1.8599151278627755,-2.7672843611569125,4.584874810215915,-4.867880759626159,-9.078984857897458,-10.968884009663164,-3.38983194132755,-0.7212293648783117,1.3481177031737914
36.0,10.50885978991154,6.456507136847536,-4.0523526530634415,-8.449547658718478,7.320873923222901,1.2249918993473137,-10.127948535290441,-9.833739958778843,1.7832856629332525,11.321054950970495,18.07377231941357,14.884047763263135
37.0,4.909913358399377,11.172739567841608,6.262826209442627,-8.093494402887758,-0.6485337663476312,8.664743862590976,-11.051053473292075,-2.576301295167477,9.750387964691216,17.550718490117763,23.941991281192433,12.861622133099946
38.0,-2.9163779401108947,11.963269961903288,14.879647902014268,-4.501809140557879,-8.879117365711155,13.45014305072161,0.11080508626562313,0.572158421279314,7.211580588111089,11.114323504946503,12.920161164154427,6.759201725676284
39.0,0.806055153638316,-1.8174924038831008,-2.6235475575216105,0.5257701016667364,1.6501532761828028,-2.268759921384947,7.409192792313402,7.696752508639753,6.786964638868647,-2.834041580688785,-7.814011015804006,-5.1382614373725595
40.0,7.566354108626595,-8.529317946629845,-16.09567205525671,0.5041783719698631,11.844210089580923,-12.28189185053225,5.3928716999914394,4.867405846086594,-0.04553060486286942,-6.961841314151327,-14.86275070099487,-6.273898770233401
41.0,4.298316413160098,-11.967082787646639,-16.26539920080684,3.8633349285849103,10.296919098786466,-14.087058950816905,-1.153915805222121,1.1662983605600563,-8.773758017446767,-10.465666848516396,-14.811937362233335,-3.5798745125848264
42.0,-2.445055406434971,-10.599199629706002,-8.154144223270979,6.480175482538062,2.8728876323826475,-9.428391664799104,-1.4447074928592267,-3.1952149808379717,-7.157156283728898,-5.2613627837756605,0.337004915769171,1.674331134550961
43.0,-3.299834705970567,1.0231808861687943,4.323015592139322,1.10317566165563,-3.868291692326463,2.6982209309955683,-5.756765091888748,-2.9500719954012844,-0.961888419398373,4.65277071677246,7.5597538016566626,3.8721623081478036
44.0,-6.342849734413367,1.9800820933507732,8.322931827763982,2.2285568368936484,-7.307924685985122,5.175764669651376,1.0312226248556702,-2.912006324423791,0.9849933540005091,1.4882220614253294,4.677874952249006,0.8218976674537857
45.0,-8.182050296343135,8.722176581844549,16.9042268781876,-0.30218021420754115,-12.515774239930234,12.7592206151271,-1.9046032539446456,-4.625298050908812,4.403899916377328,5.311828063945484,6.892266470074196,0.5542070599824362
46.0,8.530840991511731,14.616691434245816,6.085850442734145,-11.60987419000595,1.1729326597073975,10.377637056609249,-0.4719685307873853,5.7965644522707205,7.676343266100279,9.22775772243184,5.823813450348759,-0.7394901081695522
47.0,8.585468984247035,-1.6301622532450732,-10.215631237491978,-3.4406188958745094,9.431171344407522,-5.8947360014804495,7.0168617662113855,6.118003713634929,-1.4651146405864592,-7.420734286124478,-10.675492913349922,-11.864139937010767
48.0,-4.143512773288028,-12.0120632994891,-7.868550526201127,8.109781475766537,1.8942211314128627,-9.911364106102592,3.814439693947618,0.9099613572711274,-8.690132339846246,-13.607165059490747,-16.993573951144118,-9.203837805233604
49.0,-0.6174570447154364,-4.742730156048727,-4.12527311133344,2.709278521353061,1.7073984507790572,-4.48501571524695,-0.7793028663842632,-3.037658498951151,-0.46231903002277663,2.970900884916471,3.9292312203824267,13.583169968124084
50.0,-3.6984088009651903,2.245870485689875,5.944279286654889,0.6767842115924645,-4.789407537863513,4.040784220734968,-0.7996473262300308,-1.062210797254238,4.68166336828609,6.435710154948703,13.294727380915054,15.288026983947711
51.0,-0.1506396163071062,4.277829282914931,4.428468899221926,-2.110436533515147,-2.3376857534775333,4.3734357391267515,-6.171881512799548,-3.4391540000633327,3.609336483068096,8.001103596203237,8.345102844324753,1.1981357956781844
52.0,-0.2543155241080045,10.271380158736145,10.525695682844265,-4.972401570679631,-5.361573063527606,10.415861172771796,0.2153961493876997,-0.8233059072810911,1.2599385711613444,5.374729254932887,6.480631713304922,-2.7893848356724247
53.0,1.2841318475292722,3.4657564644936407,2.181624616964645,-2.3343603785730136,-0.4228855820011906,2.8413277856309165,-3.4615632105150613,-4.289478276505231,-7.072889181640045,-6.204174604557842,-6.777449408864896,-8.983181696627161
54.0,4.391748001466053,-14.435280207585757,-18.82702820905157,4.986757314649982,11.554205336114538,-16.609002368297418,0.6731758180045996,5.231846933219103,-6.846783341423858,-16.51049723950278,-18.268715564367607,-3.825382168181113
55.0,0.20087963060811354,-10.90732991062617,-11.108209541234185,5.397378628201996,5.676703520669365,-10.977723541298307,5.208458430816043,6.963916734065854,3.297977339892315,-1.3135184190882736,-5.4654839553595345,-3.530842690155782
56.0,-0.48954839912295334,-1.5693019273725772,-1.0797535282496717,0.99156871141619,0.3170599700022194,-1.364246725770136,1.5223902257695805,1.198055907026221,7.9970443348495115,8.604518541795194,5.975030776425609,1.5947671440835594
57.0,-3.7163548370381325,7.143358950182738,10.859713787220716,-1.7581956182856942,-7.265159828392251,8.969152570316266,-0.8641963498427001,-4.182026904682617,4.4793737832219716,9.889369826855642,7.163663442093792,5.091390144724357
58.0,-3.2822968304973186,8.578776363248375,11.861073193745511,-2.6232501482555155,-7.625948542489297,10.191238269462799,-0.5400608584941595,-3.418240854369661,-3.6922934778258516,-2.122934429803446,2.1335496659231126,3.9771929456000947
59.0,-0.3502678275777753,1.1620593759061535,1.5123272034837871,-0.389884493188013,-0.9050004493084458,1.3868251478477065,0.19098668633504634,-2.8190148714352428,-13.755024347898841,-15.069480057182382,-3.8280327323113754,-5.649330450134914
60.0,8.912721315226335,11.892364212742669,2.979642897516244,-10.392862902605728,2.915796469967749,7.403296783203465,-0.22153798344424813,6.961530661449906,7.764555259173241,6.073551931836098,4.70505542306454,-2.7569777768558295
61.0,7.415770464322182,-9.404784509777048,-16.82055497409922,1.0024729470712188,12.147728636384093,-13.0715906229773,-3.7382624748356257,-0.6058429552581976,6.313920972438176,10.02868881736256,6.457842805722869,6.102400484186587
62.0,-6.527250575585912,-13.695400442429888,-7.168149866843935,10.123034473119647,0.35140601457587906,-10.395252622002062,1.7046462424333177,-1.0439531158272157,1.0792678253403483,1.5367650622621718,-2.5227933491235257,5.719627272808221
63.0,-13.389268676585907,-5.468101531161907,7.9211671454241,9.370451816612512,-10.62328348543656,1.1814124259563537,6.6905381066513865,-0.5324024099463033,-4.124047761338342,-4.908699580552788,-7.260630659715916,-3.847109882166821
64.0,-3.6754737820337944,0.5114251687249984,4.18689895075888,1.6150131372677325,-3.977920877581071,2.3034414653140227,-0.3857110452906851,-1.5177084347606873,-2.185615058016692,-3.025710169903826,-2.539645808697248,-2.43766299397045
65.0,4.389681779608195,10.132942689487782,5.743260909879677,-7.293034711972249,-0.7247495803426289,7.972975873633899,-8.526897104704599,-2.3910529161095724,-1.5002653266477182,-2.5764127359885562,0.9069559787340129,-1.879555701719223
66.0,11.893831522468792,18.72384564735838,6.830014124889661,-15.248736461306041,2.560221792415212,12.815890199917675,-4.111437957102509,2.136551867057272,1.0277699070777162,-1.1795698879005516,0.6408303107305797,-0.25381331026301357
67.0,2.7191421073669098,-0.3801092370492025,-3.0992513444160674,-1.1787238621216432,2.9344234262199214,-1.7737039928202893,0.5394003560670897,-0.508872749477165,-0.3410061405589013,-0.8176177945424501,-2.056038908115223,-1.5816365259239498
68.0,-2.796319784517158,-6.369487749349548,-3.573167964832381,4.577180348447449,0.41095634960316874,-4.998842273492271,8.893580430851841,2.3962506629940465,2.269348356875442,2.931340152698439,2.10387497636929,3.295899318195007
69.0,-1.0952293419196886,-14.211451368224536,-13.116222026304879,7.643872721660269,5.9529762985372585,-13.606579555920874,3.7680005137666432,2.5973816103757636,1.4331032651887121,1.8219111800231493,0.634235771004322,-0.950211499355341
70.0,0.6246773248727937,-12.353287077781964,-12.977964402654816,5.844319281598619,6.823375379202436,-12.682929449847244,-2.5943993155885328,0.25922054297427766,-1.707619004807344,4.087036038355338,5.9215517842060095,-0.6662086363281405
71.0,-2.8444045910161675,1.5019466589042834,4.346351249920371,0.6363823036316436,-3.5700286882193235,2.907996297330306,-1.0020129077505637,1.0136953849091737,3.6444564797428436,6.52402295628147,7.483764732047525,1.4893029651500425
72.0,-4.360118021871693,8.93579810897173,13.295916130843327,-2.2592102362652615,-8.875759539630907,11.097037595846235,-0.1677444678168003,-4.397925073353459,-0.4437974479495237,-1.4467985543428827,-2.229987104131242,5.214509658411115
73.0,-3.181118415614117,9.571452716468643,12.75257113208267,-3.177967100778025,-7.928398798573077,11.215344716249785,-3.838492871889131,-5.497379518381942,-4.327665702926777,-10.606362898188989,-15.323492550736102,-3.8509784548052712
74.0,-3.122560311194955,0.20096790693455624,3.3235282181294377,1.4735326459566078,-3.255164863183542,1.7269776303287738,0.5752341573632083,-1.284362129682819,-3.472773898276336,-11.065539871173868,-11.085497078256283,-2.466653150813427
75.0,7.213939428694043,1.189146948162478,-6.024792480531595,-4.185438786457532,6.673559398554243,-2.3859913195494036,-0.7204600202750749,4.783719245020157,-2.2225670201448473,-2.888138896827014,1.0257326971705156,-4.91533405438946
76.0,9.537298988277758,-0.07573831648043661,-9.61303730475816,-4.705143417147168,9.55613670888507,-4.902624493476127,-0.31228229521975154,6.267052831681902,5.031056307320945,9.731547489393524,13.418993310155619,-2.0869760046792676
77.0,1.8866871128362277,3.5033641431356424,1.616677030299483,-2.7359290268688925,0.1184158317233015,2.572025655094148,2.8003199891259,4.038536501867438,8.997927947897935,17.01200854602931,15.389131058847653,9.607509920233731
78.0,-2.2705389356638777,3.861085182610516,6.131624118274476,-0.8252078373704603,-4.2185294235384045,5.004916542249689,1.3705995773628157,-3.968997227636303,-0.5878823083228557,1.028692607479627,0.17813720776066422,8.91899077535863
79.0,-11.909099195437832,-9.350114027517744,2.5589851679201097,10.606491922903048,-7.254836045932799,-3.384125420442609,-1.1391824520249998,-6.290852786857847,-5.353251537011055,-4.5760119422676215,-5.630514024926365,-3.4909293638866377
80.0,-1.0650006043136928,-5.799495697314483,-4.734495093000863,3.489529265301349,1.8884702422329886,-5.2467698751240945,-0.7060498109209659,-4.725995924413575,-5.582784694019653,-8.316265465853267,-9.098859591888731,-10.776506441871264
81.0,7.103617080990793,-8.599130497678068,-15.70274757866895,0.7236377869191855,11.37477840872525,-12.11825204777807,-0.9641926915457816,2.1233427550014863,1.9803931315120327,-4.144739028396494,-7.02440608733075,-1.6022838008065143
82.0,2.0122123354699113,-6.430068135326834,-8.442280470796824,2.179964664093291,5.276233512965545,-7.469568806207283,0.1842224799836839,0.5419082463350199,-1.2775743799442036,-4.51450833347123,-1.4591273900564854,1.8585636846437699
83.0,-1.7238052853732388,7.8832063403355495,9.607011625708807,-3.0346312294982933,-5.694370629903018,8.72109971718601,3.815614938368821,10.702996440587292,8.122016035626055,8.302536540861587,12.597269969663518,7.028780390567471
84.0,-3.9953167302296064,12.008264067006625,16.003580797236346,-3.9643781822453086,-10.026295847821238,13.985833429172928,1.040421285425624,1.7842129218985727,0.4194484636755642,6.439622792660363,3.5237796329836693,0.5316009543777476
85.0,2.505694366678556,11.983164712546168,9.477470345867772,-7.281909298842946,-3.43195410602533,10.708624127160881,-6.320358538180937,-10.45647135800192,-9.322351180115938,-3.536532843579006,-7.801131710840378,-6.5011452376805074
86.0,-0.20088668689833122,0.7769283709367176,0.9778150578351568,-0.32490996021931684,-0.6135555912770232,0.9292522281107214,-1.1304742761432416,-3.664369905475074,-1.4422774901067328,-5.202870832482206,-5.234981162949371,-2.4430338904235374
87.0,2.6790702191435174,-3.5213900341596913,-6.200460253303193,0.46368709808566966,4.414045500864085,-4.89354051570551,-1.4977790339299195,3.4544850653644557,2.724593873387127,0.17499666558699056,2.4062816542902867,0.6316432813523147
88.0,-1.3490790009733529,-8.750067698180647,-7.400988697207315,5.012793805832577,2.9968215246367333,-8.03298780629302,3.7414329488472435,2.996347486692204,7.372637663722027,2.3468889574862155,4.599997612885362,7.769627710271422
89.0,-3.9139411226247236,-12.931620894186215,-9.017679771561504,8.462194208750141,2.597228705235784,-10.932171601669666,5.947665124894872,2.9130452702781144,0.5677714083626286,1.51090624930879,-0.3557941701128695,-3.5648681402948044
90.0,2.152135195307702,-5.662785277418876,-7.814920472726605,1.7113885778813716,5.025173776392364,-6.771930356950726,-1.8068212292833183,-1.9490156707509414,-0.7045757898224266,4.16301057957624,9.068933135061677,3.37270377130986
91.0,4.385153740379414,7.490067199363326,3.1049134589838787,-5.90876374497538,0.6009559687617128,5.269438998938334,0.1732425239154603,-0.1764957503780925,-1.6162236925929618,1.6999359429334073,5.279192038810443,3.195571037031998
92.0,-0.14789589243833934,7.498475367380947,7.6463712598192455,-3.6525718032284455,-3.9362807044764767,7.549641109480234,-2.7767096513881464,-1.8010365409773377,-7.1111810273213605,-9.309312132849445,-13.993779460255922,-7.392736704545404
93.0,-0.6932023220767024,1.689787951246866,2.382990273323541,-0.5591757476634602,-1.4967502208467374,2.0182002417855127,3.0303281114680276,-0.2378269922032732,-0.48517630986149074,-4.28266047573237,-12.583588668291686,-3.6094825283880825
94.0,-7.6862094903218185,12.621908657088467,20.30811814741027,-2.4522461032915492,-13.953315698290425,16.529482469016575,-5.2490261908269416,-0.8945788648520007,3.4413467195704888,3.2083418240010744,-1.1396527152532032,2.332373066593137
95.0,4.502314778566402,4.578602645046384,0.07628786647996577,-4.523765126759759,2.1801386221767682,2.3169179400533855,-5.644946799566988,-3.3984477675817586,3.9444577454874254,7.976691003193909,10.02273785032988,0.16435894562762743
96.0,0.8939640316571462,-8.743716950411951,-9.637680982069101,3.945870823449114,5.233507189915663,-9.197165005023994,0.20428352385097104,3.649655079827285,-2.110820351252493,2.5385401143995985,10.922435301474025,-0.07608247300574322
97.0,0.2174228316714244,-13.613330664447941,-13.830753496119378,6.7252987028665165,6.990593722798483,-13.724195003123342,6.376652605982373,-0.017379498380366787,-1.1903480761105572,-3.1600896347196943,1.1307220765633774,2.5299678081927226
98.0,0.021431099897356143,-11.901055653275437,-11.922486753172812,5.894964247186705,6.0148837621481785,-11.91004324004902,4.43554546461816,4.842306889477176,2.3217055389026955,-3.0845706167255407,-3.590082331249293,0.91394948555147
99.0,-2.1532232956691417,4.630086844177831,6.783310139846931,-1.2783325741035902,-4.427726908614831,5.710750474240276,3.3545446446455593,-0.46861647100759796,2.7769246982532625,-4.170306435843837,-4.953585568732551,2.7850156567288127
100.0,-3.192593008845434,10.364933175455205,13.557526184300583,-3.5450621442811063,-8.414706067772691,11.964859909290663,-1.4385281620233055,-0.4697994712167556,-5.471793112914717,-6.491297067096404,-5.621500449112779,-1.1719485001793715
101.0,7.719258972856945,7.728472038923029,0.009213066066038778,-7.76196470806622,3.89409131251982,3.8685163229084036,-4.340213237297192,-3.8590741667576314,-1.5778883232033596,2.712812643852091,0.6865449433077515,-3.030219511405465
102.0,2.7526504932202807,0.9468020909291992,-1.8058484022911152,-1.8114379777629859,2.240752924638935,-0.4372926493179117,-3.2105398038180226,-0.703686164633825,-0.38179473063558,7.9322041191153705,3.0466413464806448,-3.491868769788975
103.0,-1.0717972507117366,-2.0334920305728703,-0.9616947798611497,1.5877920820013167,-0.09175476110336832,-1.5151603012205355,-3.3910544226464925,-0.7548009806060612,4.931877454787946,9.925184177713776,4.9988396661093955,-1.411944128187835
104.0,-5.732893006717104,-1.9014195315961682,3.8314734751209345,3.7706149436946386,-4.738540094697729,0.9374107613373287,1.501799594985712,0.7943192780877768,2.9907725028051635,-2.55487630859653,-5.142689529932731,3.8387760118178043
105.0,-2.937784352777733,-7.7280529609533435,-4.790268608175616,5.363066595194874,0.9704248439695775,-6.215809728847678,6.136757173415575,3.0035772730519907,-2.032275271719488,-8.2122663544976,-4.929332159787801,1.5862157698011685
106.0,-2.6848061564134946,-1.5433616902256762,1.1414444661878012,2.0647911483756207,-1.9490202206268594,-0.16103209842212518,3.4886306278278605,4.535251167252271,-2.474014258234759,-3.2744562335404632,3.421943654795211,-2.530271002939815
107.0,10.068246124460643,2.2138214037442934,-7.854424720716375,-6.110427058042925,8.921710898178434,-2.8573014613347802,-4.056921566327597,-3.1045215852967933,-2.518083905325765,2.089326656017785,8.497814427790104,7.711990153935503
108.0,0.0641532195797212,9.296624051224416,9.232470831644669,-4.725130948534013,-4.551108522524529,9.233949433878163,-7.117930221395834,-8.116554973166629,-2.215905361954344,1.1911958639923574,3.8845074998447293,2.1374991544612207
109.0,-1.4599107062290433,1.5048843783981853,2.9647950846272106,0.017230962561907148,-2.18686985930127,2.291904870028385,1.2003517926268326,1.3180238528139778,2.358464907155132,1.0872414146235505,4.1407149017806795,-2.9250732155435584
110.0,-1.8584448000340803,-5.3659062450915265,-3.507461445057448,3.6592438396631906,0.7637644337130061,-4.449841639916318,7.147144228553702,5.852139888084922,4.709328263402082,1.1188096731956112,-10.690494562183604,-12.811105817440609
111.0,-0.9184687538233876,-0.6876806760564775,0.23078807776691534,0.7788613349448037,-0.5620622065397878,-0.23639108693426647,0.20409179708040925,1.6902971302143333,3.263210995645661,1.9750903782977662,-7.6221932703523825,-0.04379473848177451
112.0,-0.28510683722963237,-3.96469292988699,-3.679586092657351,2.1062464651371906,1.7081149924079853,-3.830275325254964,-1.1285702617059383,-2.180414130826669,-0.7387662221835951,-0.2287404745032795,-0.4687178194147128,6.352726138152141
113.0,0.1622827646806456,-4.963722022227041,-5.126004786907687,2.3839314014930615,2.6578659488543552,-5.059145662248359,0.276436213639468,-4.553447895612589,-8.605319888726685,-5.1130977619703595,-1.6613941389076836,0.9860026734718019
114.0,1.488580815914432,-2.0799576866324543,-3.5685385025468936,0.27627293145468323,2.549035956031688,-2.8493922477753197,-5.123530821845824,-3.418717868109592,-7.339047718663271,-11.577590188430321,-6.556966448690821,-7.036224745898244
115.0,-3.646299164715874,15.587093726042166,19.233392890758026,-5.917637065281335,-11.41072733024961,17.45095155401957,-1.1920771832621821,4.902308444244902,4.3296048305084085,0.8716356808898649,7.452629446313787,9.518331636225998
116.0,2.3497234468086514,5.521707390995101,3.1719839441864375,-3.970509253210041,-0.45294076537156114,4.375889348258458,3.197349628362952,6.315398987984702,9.213363609637561,8.121189109940687,7.031280265469142,6.191290337605784
117.0,8.590611201483815,-0.05138015591820588,-8.641991357402036,-4.234342583070074,8.579217482300045,-4.403984761049509,6.274311346395242,9.114019241099397,10.933164540978016,15.072247486716368,8.9435512727138,2.1308100634669693
118.0,-1.4048641625928147,-6.776120446151644,-5.371256283558866,4.040783980457943,1.9468994156039825,-6.054178988447825,-3.0401997422228586,-7.715830528651618,-0.559291977094837,10.197650218148212,10.644035204865048,-1.570087883641515
119.0,-7.861519263734467,-11.38940833402102,-3.527889070286592,9.652444897319935,-2.126656033292802,-7.43553905310957,-4.982710765756781,-12.358683523091802,-11.291972589292824,-9.010171542326642,-7.977264460845826,-12.79878710156073
120.0,-4.376407413117977,-4.412714082678578,-0.03630666956062756,4.4243184728735585,-2.1333009635771756,-2.1940009129843965,-0.5939026126638831,-5.446299846640056,-12.403844494543108,-16.710470068283794,-17.25961296026348,-11.449204576450494
121.0,2.799611138900548,9.49709840418792,6.697487265287388,-6.190311424798397,-1.9147051155644466,8.05743793397234,3.415306377221148,7.146207775028355,-0.9927718073528009,-6.807801063222435,-4.78431970928167,10.539121463019276
122.0,-1.6452394335953695,7.502510454985626,9.14774988858106,-2.8822190367379563,-5.441464785128318,8.29172028481625,1.4331074908516295,8.073100530974365,4.7848224983712075,-0.39471320885524896,5.040190954308971,12.994867046605469
123.0,6.75396087644808,-3.9574798553010266,-10.711440731749049,-1.4206239697208582,8.689376634021212,-7.286626909877125,0.27937719433967845,0.7403501520328,7.995679460737771,8.360853467108411,2.2395368849440747,-0.8172890311787828
124.0,0.2272271205778571,-9.464894950171402,-9.692122070749253,4.604593719863364,4.997960888648817,-9.611299967087419,-0.15095447043380777,-3.6793993016264213,4.516567995334604,2.6619452858952446,-2.4155931116099287,-6.472124457557735
125.0,0.8463200562246722,3.805311097935266,2.9589910417105694,-2.33506044176054,-1.0153598897778782,3.344352833205612,-0.8528574171462037,-0.23601085525498877,-0.42959084247496415,-2.0752097548955364,-3.9746235800266696,-9.003472301181763
126.0,0.011535050732107102,12.885574194905173,12.874039144173054,-6.4561672592617905,-6.46795574528745,12.914922309133804,-0.8103875163934713,3.3327962456240003,2.7342692564565416,10.496291762052673,7.0224196685837486,-2.344993130568908
127.0,1.219131218796339,3.451742058777683,2.2326108399813585,-2.344026156136949,-0.545063885884332,2.872986145540799,-1.36159366157232,-1.8217776378132013,-4.538380464696738,3.5655753615389227,9.082797358749277,4.859430451335246
128.0,-6.716878406135797,-7.920625698720658,-1.203747292584842,7.386492027324848,-2.720774669966007,-4.532737528447029,-2.4291638074371864,-0.9730974918861108,-6.901407491926532,-9.957132743797679,-1.0923741115891787,7.979911062637699
129.0,-3.053266204135131,0.15898766015274735,3.2122538642878657,1.4332064681080792,-3.104024955209112,1.6378666705175018,2.1213423520176407,-5.169301694979961,-1.9198006728465447,-2.6295308331567595,1.1445942974567986,8.518476789229311
130.0,2.900621080455383,-5.2096585357207505,-8.110279616176166,1.1375240798524386,5.447361517833315,-6.62578347571933,-1.6496061844651841,-0.3117413043831676,-0.05257468152378664,1.56098703713503,3.1705136150872404,4.348952974099473
131.0,1.831950103226477,-8.378869099407124,-10.210819202633648,3.2531094826549305,6.034827763470074,-9.3362916083654,4.058956152902656,3.675986545267401,5.591622133227898,1.2066944901407481,-3.118648719233756,-4.27496248557694
132.0,2.2665584698809376,-6.705932122062403,-8.97249059194337,2.1953111358992397,5.628458138291454,-7.878925515995839,3.627737737923614,4.1041645986762605,3.369617292139334,-5.209274399780494,-13.495673594443016,-10.811281416141878
133.0,0.8338884250749592,10.880461099903872,10.04657267482892,-5.807849389782809,-4.597938568106054,10.502470482687823,2.822926106562801,1.0239450314631844,-4.473588447807141,-8.333494776338858,-12.742503485030936,-12.334965069918928
134.0,0.3060759714640524,7.102540243854633,6.796464272390615,-3.661280581261491,-3.2331047526769043,6.986920191501903,-4.933430782998919,-0.741413766474428,1.3604803659647335,4.423787423703347,0.9768139816759618,-3.597643096886145
135.0,-1.4226854065587256,2.3617138259257207,3.7843992324845086,-0.5127764452485133,-2.5844673170054477,3.0294332860968956,-1.9412706598273521,-1.761959438625426,4.240278817957836,12.311218432925035,17.336751018271606,8.199293638813467
136.0,-2.609188890693379,5.8095339814147415,8.418722872108198,-1.6517504390302582,-5.565086418731633,7.146793425217682,-1.8751294799698057,-4.096206234015437,-4.754437004469726,3.890532459378938,11.52169849118324,10.927316190862523
137.0,-3.0929465139608396,-1.2687601238086539,1.8241863901522433,2.200055638512055,-2.422756231004152,0.30807018996424196,-4.722063690708314,-0.31553601360645267,-1.250890615369458,0.010807141638861761,0.21651289660727713,2.2605144392114394
138.0,5.05250188408079,-1.0786438183675684,-6.131145702448313,-1.9737073079192626,5.555308084602853,-3.655188032640621,1.1859614877237419,0.6958343946868549,0.6821313336283581,-3.598803848844781,0.4034376628449279,3.829542303567005
139.0,0.526498326771472,-14.409902881865728,-14.936401208637196,6.952540693183787,7.699041777619071,-14.724439412118613,3.423698983263546,-0.8121216040555437,-0.20635453751175542,-5.626086760230271,-11.309205455959322,-6.77212995526484
140.0,1.7902979777457155,0.39454386795635266,-1.3957541097894381,-1.0795048348152658,1.641368313487649,-0.47239126068858894,2.6954443440681173,2.5180334840376104,1.866483940535254,-3.3532411277291723,-7.439257352249021,-7.651347701440866
141.0,0.30791532127779997,5.934052882457273,5.626137561179352,-3.101852895323479,-2.61036539151591,5.811630549211494,2.171043597670575,4.375395738663272,3.044794690165453,0.09156426062557133,-0.26936518461313685,1.21330297318078
142.0,-3.6532309572890562,-1.630201506549446,2.0230294507394846,2.5910169181419724,-2.868969230120232,0.23399024474122898,1.1656761187761986,2.8099359660518113,0.08720281362206372,1.99279323480714,8.163863216504666,9.646952424788704
143.0,-1.4448044748188904,3.899758446494963,5.344562921313788,-1.1897997873016175,-3.4274964723723746,4.588720013517834,-4.107439147549566,-5.57888825524564,-8.839658803583085,-3.356987386120683,0.11182599809638694,-2.4068114946721737
144.0,-3.594558559741419,-5.239780169855006,-1.645221610113583,4.384592055157638,-0.9317230318574476,-3.468654679630145,-0.7512036432619524,-3.1743677960917864,-3.8775937582214213,0.6029554418572916,-4.932060490404945,-6.951536067748346
145.0,4.69257454246263,-1.5924300730360015,-6.285004615498564,-1.5764036764038005,5.449504543153404,-3.8818633790854427,2.5635204117448724,-1.1436051798530373,5.6979148765790395,7.81332040617806,4.387298580822987,1.6141676280839472
146.0,0.8597827709357575,4.767200573128589,3.90741780219294,-2.757299914830283,-1.5660038819335602,4.314597849963137,-0.8968394087577277,-0.6172319817697915,3.5029110056220354,3.503242663816065,3.570108918601271,2.7938693855326178
147.0,0.8983114728260295,4.238767312709649,3.3404558398837354,-2.589343977779899,-1.1855511137508188,3.760433319554093,-1.4321219766360889,3.989916209085549,5.079253973190388,-1.440261551752635,-0.7279219658272893,0.41870713970623985
148.0,0.6246701843911688,-4.7639211106112205,-5.388591295002312,2.0492458313965276,3.0437632228787574,-5.116159937759157,-3.20602676195855,1.2728217642447206,3.7934317019239443,-2.3833820543240023,-2.6645275167739704,-0.9989711967623607
149.0,1.1506891745428423,4.153820627966585,3.003131453423756,-2.5942738024107763,-0.8851811806637074,3.605484675511282,1.7545043312158435,1.3327398975796203,-4.184735035208439,-3.8876008021967374,-1.0697829654617586,-1.040413192756227
150.0,-3.817813457231191,1.2302933228723338,5.048106780103481,1.2719170420355483,-4.466107742245396,3.1571457201970845,2.450949161649585,-0.0226232048503201,-9.08670915193366,-3.8619175354161617,-2.4854203377204587,-1.558777834022874
151.0,3.343174442357143,-0.43688758796108595,-3.7800620303182857,-1.47694967226602,3.5314016482897714,-2.0936599166862324,-4.468404629412655,-4.884355500080704,-5.21694524744418,-1.2394668587516726,0.03583015884634677,-2.0401381814721744
152.0,2.30780981099089,2.846807181168964,0.5389973701779966,-2.6042818400058394,0.8536673696698361,1.7116666323304823,2.109296806259079,2.0906012190932994,8.453706439490322,11.040778383985737,7.618433808392781,8.335120185510672
153.0,-4.998360812704924,-7.99737834246194,-2.9990175297571007,6.545068942041773,-0.9560399182029775,-5.469748517271508,3.00735778236366,-1.231658592019725,1.234243451010141,-0.5897561558924709,2.217937790243371,0.5364489280619273
154.0,-3.2202082543749553,-8.779834571410547,-5.559626317035636,6.041253355525089,1.1276609572299234,-7.207891684735658,1.4845495558937594,-0.4088088285357831,0.39330698075293613,-3.423399435807377,-6.710808442043418,-1.7153367527908934
155.0,0.2720251849291153,-3.422273672748404,-3.6942988576774796,1.5305829848543198,2.012937176641021,-3.585726853813621,-1.979532824294616,0.13492886429372844,-1.91058773428766,-2.1389812502536607,-4.999942277791734,-5.03920227165886
156.0,1.1638196991530316,7.217203320776414,6.053383621623487,-4.242354097244587,-2.4190895266855694,6.614188234598371,2.708353500256969,5.445825508508535,4.325477554004769,0.8593615938895618,3.085310542059728,4.122267534135059
157.0,0.8698386701646343,2.737106829377355,1.8672681592127907,-1.7828910395619348,-0.5509372471844024,2.281920759749148,0.6633652407339791,-0.03422068776870657,-1.9479767894053122,-3.292383172300674,-2.7280391916555615,-1.6594933467437274
158.0,1.271010119694745,4.007420448867517,2.7364103291727466,-2.6225535861777773,-0.6999106617434624,3.426510322206579,-2.0263320329989307,-1.7036084315650117,-1.668795697372479,0.1766847030532534,1.8654763343521896,-3.501030389168787
159.0,2.6134865722005274,12.098284241008377,9.48479766880778,-7.339763812480578,-3.3925379844331793,10.839445455873314,-4.022003380245466,-4.963140736211326,-1.9757394201290261,0.9529690049706103,1.5272215637694073,-6.022437668007283
160.0,-0.24892856059891844,-0.1413444136664337,0.10758414693244855,0.21400612678633912,-0.2024178482403497,-0.05506528384946785,-2.1056846347640428,2.020496971652853,0.9457027846353114,4.835488521239697,3.389635232395548,8.206862873584367
161.0,1.3345641374388757,-4.733013092015577,-6.067577229454461,1.7228349733064825,3.6859325982312194,-5.444710889826549,-4.562116830531935,-2.5603715746841136,-0.23442524376101032,1.5942459293862952,3.9945547162425417,11.423640196285744
162.0,-4.760095817335785,-3.097123408023532,1.6629724093122569,3.878226686525162,-3.223128378940336,-0.6867027656617166,4.5441724864936575,-3.222441689845459,-2.488004910884396,-2.4717056900374397,-0.9133479025518285,-3.430526724742953
163.0,-0.889358778871006,-7.621728998593382,-6.732370219722357,4.208214516296524,2.906581507633401,-7.14779247015237,3.134517455263187,6.953223148123856,7.65844380537831,1.7188482571455164,-3.578889089877566,-5.194472918146937
164.0,1.291808014943038,-9.053796388197652,-10.345604403140694,3.913127970967806,5.79428881124924,-9.747422986390387,4.446973683146062,4.387924984707756,1.5004709237388365,1.869726013658203,-1.3904700811886248,-6.393693064991702
165.0,2.69402744502234,-5.054024861632689,-7.748052306655061,1.2111874251944557,5.262193674941402,-6.365799838100857,0.9905549500544679,-0.3953590585418483,-0.4200332040061697,-3.5433758659796877,-2.5191057551657767,1.9864572152157436
166.0,1.133279302774389,9.70483658518197,8.571557282407527,-5.467652610252233,-3.6915509665481423,9.100497751708215,-1.0683181471417798,-1.5212005711158598,-2.325508134103331,0.10188867256948031,2.060549111385347,0.9891838795206213
167.0,-1.2064525578332181,14.65825683318057,15.864709391013783,-6.695226142283248,-8.518905580237453,15.308829536938479,0.08293935840331201,-1.2536003919420042,-4.633593742071759,-6.421759783310643,-3.3780592428446665,-3.103756544877978
168.0,-4.361159189999934,3.1745417534794864,7.535700943479535,0.6269786371024706,-6.01673644906233,5.329240374479083,-3.982508249292228,-4.7477970102842795,-5.357234075328553,-2.2459372594358324,-2.366828561858433,5.040933619832128
169.0,-6.367235294584085,-9.156335372351148,-2.7891000777668893,7.721915622932219,-1.7794346177050144,-5.995074007970536,0.8315999157770024,1.2549793811801506,2.460842714646936,-1.8239621633056058,0.14960279327206372,3.988692389758002
170.0,5.43641915768192,-4.330489247770085,-9.76690840545192,-0.5080272057311737,7.615402629595583,-6.991760962041868,-1.0239865014660376,1.9322431998955831,5.437495759173346,7.439139193863344,7.757474810311831,2.545097435366354
171.0,4.751457565936667,3.058474200796005,-1.692983365140658,-3.9338018157533936,3.243401905258312,0.6579890849169683,-4.808106078981945,-1.651001663986296,-0.28304991979192806,7.308056063824518,4.101862343769373,-2.1199525215893313
172.0,2.1800673164558515,-4.646043393097721,-6.826110709553671,1.2063587103245421,4.532706857401179,-5.767078484715147,1.2980508710968763,-0.15613600740770384,3.0400486186673557,0.06329525629348964,-2.067461860819096,-8.293419140740427
173.0,3.0501848056239904,6.774615190976122,3.7244303853520178,-4.940375470925209,-0.3793548231337729,5.288741024394373,0.9448384122087692,2.6711149029442107,1.8622989563325154,-0.11034815102947115,-1.119548817017973,-3.4415618554257863
174.0,-1.9959147256784044,1.0342686572720894,3.030183382950431,0.5270372023217041,-2.551844858786078,1.98364806195805,5.944334306421925,1.7162463816785114,0.044200324138499725,0.5733990045772541,-0.2898299349304474,0.4179871185591142
175.0,-0.5827367363332088,0.21947338127660299,0.8022101176098309,0.2212516120466106,-0.6531920552894452,0.5336141055456656,3.1328015013972683,1.2965269989891355,-2.5805378745369794,-2.7516631580941593,0.4047725451459403,11.086231989925182
176.0,-4.010230888074127,-1.7370535917421739,2.2731772963320163,2.8273962388550613,-3.185129061317671,0.2870512944929798,-5.7678246121376056,-4.2368472113898985,-5.600783186036896,-4.727238061879851,-1.9415965039812875,1.4188448183042617
177.0,-10.656940320592385,-0.027003803936154203,10.629936516656297,5.368280327618246,-10.61349716822808,5.32146428859117,-3.3983821754643224,-7.66314412466119,-6.154238458835175,-6.679037897780971,-3.820641771660882,1.3785767525473647
178.0,0.054664992327714046,-1.71358624619927,-1.7682512385269291,0.772933414148631,0.9366198163399484,-1.7938706246374136,2.80860319140431,5.737378844119385,5.330441838269004,-5.259408558535085,-9.51957500417586,-6.069822429408761
179.0,4.8153713314054265,-10.006029599283186,-14.821400930688561,2.6164115830418146,9.840736934710007,-12.378526016845791,4.812484229404255,6.632185030342863,3.407607036792549,0.6653939019524413,-6.830738588751114,-11.18462642626015
180.0,12.51879251017306,4.049582733700259,-8.469209776472775,-8.261001307405827,10.437019675484976,-2.2425170323639874,-3.7378753845064883,0.6456750330985455,3.45879518281736,11.258797021180527,14.507701507001121,2.273845449000131
181.0,5.237178809039249,5.588397300004948,0.35121849096570124,-5.384697955756822,2.465662482963908,3.0255908213300127,-0.6405438761118951,-3.1509882062810304,3.854633240241632,16.38242622095136,20.69763374411351,7.3711938606275105
182.0,-0.7564038808591294,4.26177064439673,5.018174525255816,-1.7968366260649375,-2.863410692610264,4.623154882662178,-5.945355025954811,-5.567249686673995,-2.2938428189447104,3.6543687369015485,8.832225930819991,6.781297207403873
183.0,-11.366160772443205,-7.060623758126847,4.3055370143162905,9.254501641100799,-7.890309948689283,-1.393481948171786,3.4380412895128756,1.3919161320061484,-4.046850542057612,-11.211455547524778,-14.132874706439225,0.6940846185625889
184.0,-5.679317338450458,3.8496052821887075,9.528922620639076,0.8823659027743198,-7.58063298701625,6.668625607694317,4.56858680409904,2.3242229900711218,-5.5200487113555985,-12.134500306025814,-17.49621185117569,-3.415283535256986
185.0,-4.176576680867584,4.384713113699382,8.561289794566896,-0.13331716172909047,-6.347036236781608,6.443386950502262,5.280025261594577,6.038037710056951,6.122500064534006,-2.5311494933045378,-4.874407808358519,-2.4483778280622026
186.0,3.5175151144676917,2.5458529611996172,-0.9716621532680931,-3.0591309527592707,2.1864900418609556,0.8255407638164215,-5.939032347786192,-6.570469523314959,-2.6885035285949215,-2.1553265778468598,0.04061837792718759,-6.752618489584349
187.0,8.436431520902275,-2.9265290575029996,-11.362960578405234,-2.7021809974942714,9.920823691277244,-7.11575886383281,-7.494141718568658,-5.665368699386298,-0.5596684211235865,4.262288399791312,7.053633288967547,-0.24926765196509182
188.0,3.442726586288785,-11.08427392930425,-14.527000515592977,3.8756263726539384,9.009162352212424,-12.782557416249839,0.6733147677875082,3.235013652863364,0.9159776824657513,4.503309852024035,6.370636018608835,4.186910060054161
189.0,-1.098871109938424,-3.4037728858722467,-2.304901775933782,2.2302336441061543,0.6331593204242996,-2.911309661222634,3.9858670709980064,2.974064542840355,2.0315714975212935,1.8485597401823313,4.3120598557573295,4.5116246165474365
190.0,-2.6306305264373355,6.8617781212217555,9.492408647659099,-2.1339431467518484,-6.102839418043625,8.2018719619544,6.6989632450796925,7.356944985505122,4.174381974789386,4.658951695863393,-1.5822368375509015,2.145000529612257
191.0,-0.8562094511949978,2.9546241380982905,3.810833589293275,-1.066117408830523,-2.289454631206743,3.334738113270191,-1.2497908882304456,-4.101818488074029,-1.2313167910816611,-2.197973346868992,-2.406022461398434,-1.5914817087090238
192.0,-2.50876574951558,0.17109607165506047,2.6798618211706184,1.1514185536441846,-2.6251154874225544,1.4632805846633246,-2.9859853959742235,-4.096118842290497,-5.763779055039331,-1.4981648101402842,-2.309524612167941,-2.837245619479807
193.0,-2.181462140722896,3.1462927683802264,5.327754909103133,-0.502048727125149,-3.7854425438988235,4.280782292339845,-2.5076871782341232,-3.9170731028700874,-0.32470715156489227,-5.812463875324125,-4.094885174617187,-8.592258897095556
194.0,0.7149473385823832,1.2001702067781828,0.48522286819583904,-0.9012866059811327,0.08047508858346197,0.8105729219464373,1.5682585782750786,3.0033430779308836,-0.9317129700837198,-0.705558195903822,-1.1235125533410173,-0.38372038988545887
195.0,7.133802930848686,-2.627801360641311,-9.761604291489975,-2.277679853133568,8.48682547293585,-6.228418587014929,-2.338796314972191,1.1006519593717963,2.605611806970545,3.5099131416589286,6.770702689575775,9.225993126705118
196.0,-2.131699100959927,0.24211834705653246,2.373817448016468,0.9980304638733699,-2.2181120805466454,1.3467298469472992,-1.274467216303397,1.6157571911123552,4.088385557418901,4.530061957561715,4.713170159442453,6.877770266141617
197.0,-0.48932145497041835,0.1996274093544479,0.6889488643248411,0.1196814756733579,-0.5562164037737497,0.3945588171251979,0.6116324463241095,1.2700485555386958,-0.8814777273948939,-0.3347911737803808,-2.475289778082608,0.84168436197429
198.0,0.04130099311843244,-7.557693923040404,-7.59899491615891,3.7335853291927923,3.7760887233385043,-7.560085203985167,3.5415252816738527,-0.7529800383410679,-3.44758004960799,-9.48823097161019,-11.266934984835125,-8.857072338275351
199.0,-4.198179866181856,-5.197619078272961,-0.9994392120912228,4.672837601754898,-1.6387464218981738,-3.089050506797708,4.458138941019071,1.3098615061642231,0.23581494796642288,-1.9735691393128092,0.3986286517553852,-2.0485712452470084
