Time(ms),I,II,III,aVR,aVL,aVF,V1,V2,V3,V4,V5,V6
-200.0,8.538901956861329,3.832569682133093,-4.706332274728241,-6.20026199641168,6.5970564743421685,-0.4262581249763109,-3.7747263255194246,1.0950591337682152,-2.097962285030559,-2.9915163413136296,-4.643531636613784,-5.298659885933888
-199.0,8.04215727381797,0.7928934744674545,-7.2492637993505245,-4.350473062259117,7.697064998270642,-3.2184273730154542,-2.495688784331315,-0.41908218421607674,-2.7319231831816864,-5.911359758996578,-7.381993263169973,-5.347189545004822
-198.0,-0.59798596019083,-1.0486710599075906,-0.4506850997167795,0.8124182613931574,-0.10220321531734422,-0.7356735460107118,-0.4564643072433934,-1.172643216812874,0.5520138391734295,-1.6644693207949004,-1.1695934828547712,-1.9755391444461092
-197.0,-4.342094298859364,9.127275541422346,13.469369840281681,-2.405109248401074,-8.855140589093121,11.242379698150096,-0.21393929694181424,-0.3404928557484056,1.4988677380199684,3.3450230555352034,4.266323570129571,3.932726784172153
-196.0,-1.5109722462787634,3.0739205108989665,4.5848927571776885,-0.7980486006097427,-3.0742110734306918,3.8638142851563746,0.5423173196735678,-0.18026129653001222,0.7589655666575612,0.10022872950801798,3.047811470247389,2.235468075440849
-195.0,-4.556175420317828,-11.480054932604572,-6.923879512286792,7.995437439299845,1.160183433011957,-9.155825456335194,1.6691289380283982,1.8720495559744548,-0.5768467380381208,2.8566482218412483,-0.2543320280569761,1.645717262019438
-194.0,-3.024768106148415,-1.6585217851874123,1.3662463209609776,2.390414286664128,-2.2167805271089747,-0.16985401981394022,3.1541310818511947,0.45158860897269315,-0.5306677920452376,0.5047796045940109,0.3846969881108271,2.742338332768292
-193.0,-2.603430932915109,0.8845662335675932,3.4879971664827094,0.8219947366890037,-2.9867391863261834,2.166189059171552,2.0643943563994447,-3.0975636899529073,0.42267000926827025,0.10481224426550861,1.1545523874579025,-0.879706512894125
-192.0,3.9861562978585483,4.629761418721474,0.6436051208629618,-4.273377928038498,1.6518926596810184,2.6139706650035484,-5.244564507487674,-0.588878046389248,-1.7834771228173278,-3.0704279713786446,-1.0514564364577714,0.25161756757267106
-191.0,8.131186475999119,1.229280579563553,-6.901905896435512,-4.651179658698419,7.496694955126019,-2.8668944493629365,-3.700928531882602,1.8612195961422584,0.42936115167735556,-0.6311465130597969,0.5653144562921151,-3.5085453937480358
-190.0,3.6747333841081034,1.1532133519646832,-2.5215200321433953,-2.4678524998107334,3.0774792365199204,-0.6463623940898291,1.3278097628550545,-0.3121884363924956,2.307468637480047,1.0959879211116506,-1.7476831661737313,-6.261213709322286
-189.0,-6.325031513705021,-3.0813980277424493,3.243633485962562,4.725363358618564,-4.726812123259814,0.10956232393376597,3.2748870811446666,2.7457043964526116,3.7574221792447227,2.53727293077245,0.06418562039919107,5.8575681771455645
-188.0,-4.6081452300021,-4.668323360368266,-0.06017813036619146,4.580780046076211,-2.29536598639368,-2.34102400111357,2.0727312040702763,4.110941263833605,-1.974750739763785,2.7364690387421815,-5.805924702076543,4.978715494565974
-187.0,-0.47564772884911743,0.8928553460080964,1.3685030748572045,-0.18558938105486922,-0.9435418662317123,1.0757624216672648,-1.3942500065869667,-6.340016778900134,-6.356905762222178,-2.9416077696539915,8.53319308451395,-2.72665730380008
-186.0,2.694415206094067,4.977428873491517,2.2830136673974875,-3.8080504240678827,0.262034324294909,3.660425211923827,-2.4749487064659337,-5.168187885024045,1.728853772953992,-6.207470113258733,-3.078358244141682,-2.253903722699074
-185.0,3.1972136790213233,3.4661303700787425,0.26891669105749827,-3.2960078823848296,1.4387179238392105,1.8295014548232513,-1.574102977501397,0.5745190215980633,-1.169981256509343,-0.30944381869415105,0.5179233304546403,-1.435628315745555
-184.0,-2.6466846379792495,-6.920097740381344,-4.273413102402026,4.749652566376836,0.7819343711263155,-5.543985437040157,2.774627233869043,6.09815593609129,-0.04986036625644687,1.6445313157929016,-2.5262124921324287,-2.1536010436994313
-183.0,1.2247072488535875,-3.3195885361149418,-4.544295784968485,1.0221920788191903,2.9227660170070826,-3.947354972141228,-0.28278592464631,1.5703892840493219,4.111513396323183,3.0940162262713997,3.8403860051456338,4.628779297884515
-182.0,-1.5082911526134168,2.710447103811993,4.218738256425399,-0.5426922940354989,-2.914992817193103,3.4556483013830865,2.126013546731754,-1.1705721569046281,5.605756621062141,4.020458774820269,2.985445140387365,1.5979408401087754
-181.0,2.0711954945370388,1.3023162735847842,-0.7688792209523234,-1.7079521008360619,1.4365870249351327,0.258578139950262,-0.18083763562065258,0.9729384784686896,-2.5610233461024894,0.20905446625939383,-5.098956537488096,1.391574358919569
-180.0,-2.0635786850864872,3.3552502554338517,5.4188289405202505,-0.6741345033974037,-3.732394199125823,4.373985406059233,-2.2963357776804516,-3.581470008896597,-4.812583304257297,-0.6853189336229293,-2.1838676920555846,-2.0966261662291283
-179.0,-0.8168053762539496,-0.6814087142104106,0.135396662043477,0.7089590387438685,-0.46972341600760226,-0.2952293202899521,1.8098712931183734,-1.1773027675312353,-1.4579388741696109,-3.9147563001664194,3.351034947323604,-1.5494704294852168
-178.0,0.8559230328010173,-2.8826341037160708,-3.73855713651709,1.038782085605648,2.3075666306196525,-3.265023340807065,-2.2340081776417833,0.3525472343361068,-3.219135244232451,-2.122775543679866,-1.5704297240576623,-1.6666176305850766
-177.0,2.6360191995210487,5.678352306136903,3.042333106615897,-4.141932940560335,-0.1831751555556873,4.395828256836701,-0.9815193986907949,1.1337365120528218,4.717600029863551,-1.8331923229684277,0.23217411349275668,1.378608472300488
-176.0,-1.4041882176352416,-1.3094693289687775,0.09471888866652389,1.368636619950008,-0.7951965209596323,-0.6577900874891343,-2.0106578873498324,-1.5172971845705292,0.911440648805399,2.4233314548489626,0.09587385186658476,-0.6612464317788088
-175.0,-3.7640531584018078,-3.1534264533790966,0.6106267050227753,3.475542025425981,-2.1412908841291123,-1.2462024433832954,4.920505981092005,1.7864009713797495,2.067705707790629,3.3363389193723005,3.4944043072451687,2.9140838550439847
-174.0,0.07308908264888614,-4.277742632958718,-4.350831715607555,2.131547060206336,2.1889327334708364,-4.36690306685756,3.3861841681619405,2.5098162962695874,-0.20110674235451387,0.8857698881405183,-0.5159677486473807,-1.8987456581707503
-173.0,2.930414663467599,-0.10293251009446247,-3.0333471735620616,-1.4468655520069675,2.962749848556308,-1.5377821448162254,-1.7170747749281192,3.4756668267406248,-0.8140562075198909,1.3228059810847348,-0.044092415901701015,1.7713317100968422
-172.0,3.0554899067135577,1.995611953612953,-1.059877953100655,-2.5429481910484646,2.0359599082373805,0.5042850112529284,-4.326113998065818,-2.8153601708923133,0.06429030744750686,-3.4852504941287155,-5.038630973779756,-0.2319332563246122
-171.0,-0.31098737226530804,2.7319822307717225,3.042969603036942,-1.2171600605883182,-1.6278656332436015,2.8511622937432435,-0.15781446281347344,-5.095736626516516,-5.445754938627208,-3.588934892416403,-1.572638836870641,-3.473665599228739
-170.0,0.3448530136574384,3.185768092869899,2.84091507921237,-1.7688606923895591,-1.2882486088446274,3.059865467304687,0.26739326240208605,-5.039327081755031,1.268372918761714,0.2469141966053472,1.8405949443111382,0.4249191394470542
-169.0,-3.042637892682255,-3.3704808304379195,-0.32784293775571083,3.198173831311938,-1.3287904072040653,-1.8805013794041074,2.043208114244856,4.98420171907867,2.1377636876278534,4.2575166707630405,4.5764019479912115,0.14173471926285136
-168.0,-5.0417645623419425,0.9046352012537718,5.946399763595729,2.0491379097085196,-5.471683010376461,3.391842007653357,0.5106043221995655,1.5300438508691814,2.5237853553307663,0.38591024541540797,-1.3116829038093316,0.3680529259666273
-167.0,0.5674941138329994,0.15117235417054886,-0.4163217596623927,-0.3143467565692821,0.4350963255156073,-0.17033361949005554,0.1421908824998127,4.297495150092524,1.557621307832768,0.5092623919333652,3.660509970807174,5.868455204382561
-166.0,4.378856331408275,-0.33327091102835926,-4.712127242436575,-1.992486943294252,4.573252034631759,-2.485014532650876,-0.5774216958287239,0.5822355890801618,-2.6675071732711406,-0.4065080891428373,-1.4554772176900426,1.1722294521198753
-165.0,2.2049863058969272,-2.863383370650769,-5.0683696765476665,0.3466421017411532,3.6754809597803524,-3.9282485310764157,-1.2558364159814985,-3.090364138104685,0.18718726268869879,0.16142787788627966,-2.6671731540444106,-4.783704678339367
-164.0,-0.6244466405527898,-5.217343006352293,-4.592896365799507,2.8497305476691053,1.9581490139458535,-4.863116920163314,0.5935482961050156,0.19566099724747033,-1.3828848021523859,-2.2771054017124657,-4.007687598069897,-5.161948670533551
-163.0,0.4388862577986127,6.737688074256534,6.298801816457901,-3.586968053022881,-2.9424379753311154,6.489524557431636,0.12194319106179685,-3.2533568617466155,0.4617211379526375,-1.8418520662443507,1.356285452362926,1.7133638858309568
-162.0,0.20037213399528814,3.7004201292097445,3.500047995214439,-1.9512742432664283,-1.6519732935051679,3.5807676983951167,0.10964185238133822,-2.138595796621293,-4.548014041612506,-1.810670756369383,-1.338164474830319,-3.0776606790308576
-161.0,-3.6024061679623482,1.7179679168814552,5.320374084843799,0.9437252305926408,-4.458479903918629,3.5072340692252557,-1.6511296488886509,1.5768285419056638,2.5852096060316168,1.2172392072951732,2.002502559248842,2.7408355703189353
-160.0,-1.387875900785648,-1.5791862915190653,-0.19131039073341594,1.492224770380266,-0.5962500886162845,-0.8935524343972405,1.6299072823278116,3.481867921324948,3.4145164552357046,4.2851408681060255,3.783922307834773,6.714108194914061
-159.0,2.9784764374221915,-4.821615261296321,-7.800091698718506,0.941652917628313,5.385393135216389,-6.31995475911679,0.030960191909392365,1.197310746763293,-0.2552778368137456,3.949050654443339,2.017317239405208,1.6722375563728509
-158.0,-0.8651110131797282,-2.758410011106396,-1.8932989979266641,1.8456882162596644,0.5012782397169486,-2.3389991051522294,1.5353333574927972,1.0827899429667787,1.9001493353053494,-1.2442980312390934,0.9329595903979083,-0.9295763835342759
-157.0,3.1241360810338983,1.247927954792579,-1.8762081262413135,-2.2172505282900152,2.4779802936360427,-0.25356879639701946,-2.0055640283541645,-0.5092241779298319,-2.948004877595778,-0.13976530947536692,-1.8368133581118007,-4.481467428170358
-156.0,-0.43962544602869436,1.696824691246854,2.1364501372755655,-0.6493577199407561,-1.2390904178971978,1.8947434349254302,0.25332241349745854,-3.789417606055367,-0.9660735231086115,-7.886180328123242,-7.523000563549519,-5.6442728255641175
-155.0,-3.2749414208630947,2.540631164152905,5.8155725850160245,0.35155096619128157,-4.501008352692423,4.155246879085088,-0.7343977783415593,-1.3614992826784267,-0.090977576023477,0.21202491807843593,-0.6139416364001615,1.858009263178602
-154.0,-1.9740621456779688,2.12519096315175,4.099253108829747,-0.09207588786201615,-3.0731498232526313,3.1699827355309993,0.7656546071393552,-2.1226443947949853,2.961145386761772,2.1551128869114025,4.928700212393307,3.3658017186569364
-153.0,0.6797991383562544,-2.7920524673138614,-3.471851605670092,1.1121151067951764,2.0388600290119445,-3.1494545993719223,1.3511825759255713,2.728224480443905,-2.769648137445142,1.6774573343195947,0.45407282786562275,2.4854524062873793
-152.0,-1.3839326767348052,-1.9568422730874193,-0.5729095963526174,1.6377352662488365,-0.36402732940922966,-1.279160274331582,1.4237432697375412,4.326768509512931,0.5321013040090122,0.2670164079802835,0.9425186466933,1.6647274254839484
-151.0,5.691578137074417,-2.968877653150676,-8.6604557902251,-1.3267920622006635,7.137951349867502,-5.827705854179978,-2.813630259073663,0.9412331583205991,-1.660357235827885,0.028952166266020596,-3.955089006551519,-3.5115047702358657
-150.0,6.033993559580297,4.144055816311031,-1.889937743269269,-5.065885230567502,3.922975003691241,1.112542102159902,-3.1093977539163355,-0.011805913277933344,0.6038879252914031,1.6921582420186863,2.565110774043264,-0.5392127240262234
-149.0,1.516737909074417,1.382183156447436,-0.13455475262696837,-1.5149622413300305,0.8654968843635276,0.605602268249544,0.5161313488057302,-3.181234901010073,0.5841074316876633,-2.2158690650198345,-0.6789488532470462,-4.7191478732523375
-148.0,-6.15801092760726,1.4996431714672713,7.657654099074559,2.3352404756410747,-6.865766075620876,4.634723418744202,1.1422440511733385,-1.2376031881845333,2.8158580641933817,0.9798937307476046,2.694436006955556,1.2945337562023556
-147.0,-10.001490971232446,-1.4359578524198586,8.565533118812619,5.721335083028371,-9.315673575327835,3.5385312682622283,3.455228035888201,-1.8624918223450058,-0.7164552076821997,-1.8517348061933578,1.4296343912274296,4.57234939093623
-146.0,-5.260121840364024,-3.1580748943213255,2.102046946042712,4.212780147676793,-3.6288706087497493,-0.47712455631425965,3.047234840386838,-0.299926013446564,-1.1286508280324994,1.2796684935273281,-2.822499590392676,0.39481396065858676
-145.0,6.342093125256504,3.3314891548855767,-3.0106039703709326,-4.8274142918069725,4.6542539440700486,0.13310975352579757,-4.464988783159681,2.6561799366231424,1.2614340067573766,1.084821005800078,-0.11272603653823743,2.7374547256995254
-144.0,6.48177738924043,-1.7596311351368987,-8.241408524377352,-2.3422956632726546,7.340355826841196,-5.025860095462683,-0.8682711376741803,2.4670710956652018,-1.7378595642288914,0.9193270558034231,-0.8840042153058895,-1.2310584198405654
-143.0,6.076419694039924,-0.5429816046727897,-6.619401298712747,-2.736788484990515,6.322616622213444,-3.6041287648868328,-0.5484415871155801,0.36883478636506584,-2.3464081486616424,-3.0012117242708243,-1.534905514761555,0.30079754291120686
-142.0,-2.2173929917304926,-0.28691835961311996,1.9304746321173267,1.2137552343366682,-2.107673246612752,0.8793888593954091,0.14410764966713574,-2.0277824820830013,1.9568259779555326,0.8115211542635024,0.6546887584331581,-5.359727592728261
-141.0,0.021355690807487393,-2.5947888803516346,-2.6161445711591726,1.2558445289842923,1.3532408135165217,-2.6261736131654083,-0.22691288675184396,0.8986262806416865,0.70479882110847,-1.973139420070098,-0.7048775526133505,-2.3670542292761154
-140.0,-1.808692793454658,3.431075068405298,5.239767861859912,-0.8384592491355021,-3.499161585153825,4.313311925632439,-0.8033578687357752,-0.0649161138261567,0.16302477777644442,-0.3511852233013296,0.838280329157672,-2.066131582525165
-139.0,-4.227791124023716,0.1230801316925696,4.350871255716258,2.1038620681572926,-4.269882022442089,2.2902010665105648,1.8225313008770865,-4.019126644626403,-1.144150678647347,1.1386496665451347,0.8282101497741278,3.216189820060522
-138.0,-2.46193399435065,1.6286032911793156,4.090537285529953,0.38715833115778275,-3.257406481903524,2.8287792978548367,1.2533784127949852,1.3427917540385368,-0.6756600441317714,0.7280931755507131,3.167369847086528,5.814480927508559
-137.0,1.0058360830542268,3.466963867353711,2.4611277842994843,-2.1903015326785913,-0.7837769366618323,2.9267029096794994,-0.6503948097571427,1.453577723583392,2.7374484426415506,2.15074492999097,-0.7216451054836046,4.921963730152333
-136.0,-5.347877039727149,-2.158860472479411,3.189016567247736,3.7962789551018354,-4.239513388567273,0.549608430353975,1.8122512109957265,-0.9192713011079046,1.959863606321914,2.780666134659532,0.7367798603341515,0.548731163050046
-135.0,5.756777202369195,-4.6889912736820945,-10.445768476051304,-0.5728107012193991,8.058004624242582,-7.538860165002396,-2.724577580122328,1.1910367591214919,-2.0293325214274436,-1.1365726237359934,-2.524995914088719,-8.11413690932434
-134.0,6.907198688584109,-2.663554364818819,-9.570753053402957,-2.163743829907318,8.279367642484917,-6.171402684605397,1.4782789374517307,1.7387254614056793,-1.4769283449213932,-3.0344060626463127,-2.401444244557058,-5.167328985990347
-133.0,5.0991994628479205,0.11006208278601215,-4.989137380061949,-2.6490370804031222,5.0080991180627645,-2.416311138108253,-2.5088910908355095,1.6673385652831318,-0.18994695688646335,-5.100247039129665,-0.23370371394262546,1.4015828326542183
-132.0,-5.4031882119259915,4.289074185708205,9.692262397634144,0.5906036280103013,-7.505399022751629,7.015516174407022,0.34149254615943414,-2.5379300821606066,-0.5473994418688999,2.1476875811841416,-0.004312863030775285,1.8607993968080407
-131.0,-6.867021130193606,1.9840084556835134,8.85102958587707,2.4773468492035873,-7.897728316201091,5.367581044426318,0.6364603296984167,-3.3330881890948882,0.46151060095008517,3.1878154734767925,3.117747577646251,3.2796128849109643
-130.0,1.2083579039873662,1.8637169523696084,0.6553590483822189,-1.4940940134462122,0.31344150687300765,1.2934486123692013,-0.35498739185513484,0.47716201749947396,-1.0809231344386072,-0.1922316277962124,-0.6238795240016546,-0.2068211304591614
-129.0,0.6109357881724817,-1.7466057646914652,-2.3575415528639616,0.5402847889602223,1.4395991755529667,-2.0135493573437224,-1.1719336933254727,-0.8008003215191717,-0.19298205697171572,-0.48640591355986307,0.39879739715414897,0.18518997973613072
-128.0,1.9918009321567909,-2.0398760326404837,-4.03167696479726,0.006908008925363418,3.0440725125942674,-3.073450235813065,1.79746746315656,3.0847329862460655,2.7303799200292755,2.2164061647168074,1.6483683844734176,-2.2925578286462898
-127.0,-0.9104972545499885,-2.460817004206982,-1.5503197496569432,1.6775312095786132,0.3518087750122927,-2.0437052242799023,2.269871737203913,-0.9028022427949367,1.827076953711479,-1.7034195947688082,-2.7927444830012993,2.637834575531368
-126.0,-2.961843196147698,4.818217974107189,7.780061170254947,-0.9309048761616368,-5.417063056462746,6.336417200855699,-1.0091536885246344,2.6493876235169704,-0.421220044772905,-0.05955737564358121,0.27040516986054464,-1.0332031753991413
-125.0,-1.7706688606020853,-5.771365980941878,-4.000697120339748,3.76908470053787,1.1492433413657617,-4.932406345381272,1.2629119131019575,-0.5569335483451796,-2.9475409723034414,-1.6793557477336976,0.025950029083455006,-0.7660694914128654
-124.0,1.8176415231897445,-0.2669350853219279,-2.0845766085116595,-0.7807847402927395,1.9089131773120513,-1.1478511575422954,-1.7014982853898415,-0.18283034271053167,-0.06545344427171385,2.5261788384925525,-0.03771765112779207,0.46847413273570393
-123.0,4.148513605345382,3.8986972695780198,-0.2498163357673846,-4.0354262559643,2.1603386888063985,1.8501651754321085,-2.261979093668795,-1.2033446741621208,0.0047411997997415245,-2.46957481242883,0.5671391329323197,-0.1762260927968511
-122.0,6.94198418290652,3.3518281174479805,-3.590156065458599,-5.087469080309487,5.310953463937356,-0.09240878514574802,-2.314199669681413,-2.4216779442828007,-1.2008683957105803,1.0584872488878392,-1.2876288060943033,-2.2389543201397837
-121.0,-6.392152108971291,0.07396291905439512,6.466115028025616,3.1326671698049755,-6.3774640334423705,3.2219066496567628,2.009994475180113,0.10684762579259088,1.6332647057841525,1.693655196806562,2.628230455319162,3.2688155863467268
-120.0,-2.0139757925536435,-1.7329675858543296,0.2810082066992585,1.8410206011369328,-1.166573383008111,-0.690097063451464,5.665599190039568,0.1527347680712725,2.473381325140263,0.6208902258613407,0.8905982601878094,2.219928957002346
-119.0,-2.1172780530859727,-2.8251478268359085,-0.7078697737499462,2.5124489189441324,-0.7161352411557034,-1.804505475706836,-2.523610570943545,2.8384731158773064,0.6300365496854976,-2.850768537852349,-3.225772526860732,-2.29306154473252
-118.0,2.8202851596741185,-0.4988711954026708,-3.319156355076779,-1.1242591510778526,3.063585861764966,-1.9439627668948034,-2.2611752129815184,-0.6270013905920901,-4.573082020780972,-2.6123956595707223,-3.2328794078495497,-3.9585528936224095
-117.0,-1.5888503764704822,-3.3819241336496377,-1.7930737571791364,2.437875780194225,0.09732542453697335,-2.5431004529613803,0.4130534885833823,3.0791906510549243,2.1546204471000605,3.0630189967687182,2.525754504796537,0.2993047971526488
-116.0,-0.8285739750686484,-0.48643258507835085,0.3421413899903094,0.6042663133049928,-0.5931687139055927,-0.02940881537125206,0.5433477859063662,-1.6237058155720134,-0.17264979199714173,3.154407208118483,2.324640824167997,2.098580539235877
-115.0,2.8257464558393104,3.3476081173679892,0.5218616615286832,-3.0665537567823193,1.1377625774123086,1.8955635494851082,0.8920671655727013,-1.353973464960084,-1.8569205861839184,-2.666103876924267,-0.025969391788956964,-0.6703987602442052
-114.0,-3.778193098632015,6.1670538449404315,9.945246943572448,-1.1777874363758987,-6.883458329163979,8.013378295190215,0.2988603716765218,-2.6650978987115423,0.6153586815854648,0.5211957780752954,1.5462524712669503,5.059186307662721
-113.0,3.4291591646528383,4.536982687770922,1.107823523118086,-3.9664798691241603,1.211368812682861,2.855432755569979,-3.6323752752722407,-0.4834305635744538,1.220117069877223,-2.1530169954808214,-2.103148406327806,-1.3306231458839828
-112.0,2.482376112037513,-4.226591560004335,-6.708967672041849,0.8926591582858776,4.6430377797578135,-5.4362032148805755,1.5344861078845913,2.8413114710244702,0.8692213345601987,0.7430503923002801,-0.0023551885617978385,-1.192563648259289
-111.0,-2.2449394557299276,-3.7651018622049746,-1.5201624064750656,3.032759650562387,-0.3937639395606314,-2.689502678101475,1.3235159285282194,0.16236669097205358,-2.2597211100267858,1.6009508078843708,-0.8306462917033715,-2.9957010169566467
-110.0,-4.183763655973322,-3.783793694123194,0.3999699618500858,3.941341132265133,-2.3208564457676264,-1.6584872910006245,0.6396140692494384,0.3997577220459365,2.666666277087841,3.081610587757071,1.4932971364131589,0.9309732274534142
-109.0,-1.681776718487324,-4.094288193004198,-2.4125114745169345,2.853543809209184,0.33944957377647056,-3.2183649268455783,1.8726531639046131,-1.3095670029494615,-1.8323721774700645,-4.548996078620162,0.2980072765248104,1.5565909404962623
-108.0,5.918697477709179,1.5046527369312217,-4.414044740778016,-3.7401007350687214,5.221317896105156,-1.498123286669776,-3.433455008673849,-1.9354779224825585,-0.5946913621318285,-3.400970571958866,-3.2011708806838004,-1.784496396217134
-107.0,6.471636673352138,2.7496987076465818,-3.7219379657055955,-4.556295979819425,5.073085304729391,-0.531543407941146,-0.2155915352107216,4.06401848186671,1.1328373440727995,1.0045817849845198,-2.623832900608537,-1.2626032105370302
-106.0,-4.439992993907113,4.828837527510055,9.268830521417152,-0.21611485324819357,-6.880308350705113,7.077858841488899,-1.0587539801621273,2.233052817552201,2.624156603906006,3.795872785771314,-1.957845750490102,1.5834167419373422
-105.0,-1.0024546142249513,5.348716494426903,6.351171108651849,-2.114084167359695,-3.6280420827697006,5.873388425731731,0.2522801307265523,0.23127785423359404,-1.2392302133500495,2.113266087056871,12.185020147304696,1.7455765445614762
-104.0,-3.999385289678712,2.4603588569784716,6.459744146657179,0.7511324593156306,-5.264648726066569,4.47836763273804,1.1154932830226107,-4.189825380904357,-0.8318206886308278,1.850685576059257,0.8396781382241745,0.43277266494096867
-103.0,-0.47764605878123945,-5.032249337477396,-4.554603278696161,2.736494748677071,2.077070779230431,-4.85667661932667,-0.04425437462786219,-4.167306459583336,-1.0049107757854832,-2.636126386916251,-1.3412107189494147,-0.3308071992580245
-102.0,-0.6970163741763321,-10.992420397089298,-10.295404022912965,5.823740981908381,4.75501106254916,-10.627507866437012,2.6126374243417154,1.7038332153163327,-1.048553769967965,-1.6810631618554503,-6.648536766675386,0.24460460226403125
-101.0,-2.607951452656823,-6.1626690205579795,-3.5547175679011467,4.437405282247237,0.5058073986670939,-4.83720318062196,-0.5267526736157804,1.4894278395648082,-5.280727415142062,-8.040750489950092,-6.59955977060804,-5.1831668223591025
-100.0,4.8086489383050735,5.806772045646307,0.9981231073412586,-5.342956030768959,1.8592036298718246,3.432376488860738,-1.111872235068459,0.5401899601221662,3.606356747633812,0.7437952869709168,6.60953908207526,3.392977627325137
-99.0,4.763332136564299,6.299606509027158,1.5362743724628936,-5.576814350676043,1.6489830305475663,3.8787938476247232,-0.47341394472048914,2.7819954234288846,3.8855501700906063,6.321967305272988,4.388458863070543,3.278342244969859
-98.0,1.9166039226875347,6.651288886687139,4.734684963999633,-4.25985693570455,-1.3687774649341722,5.740596162917097,0.241341885984666,-0.09585536352230073,0.297619632106934,3.6979009350406296,-1.2719035394309262,-1.4375285164229843
-97.0,-4.951503486083346,0.9769025951561243,5.928406081239489,2.0052735400306574,-5.472517498440168,3.4251123289354957,1.422036401904943,-0.01467744502750408,5.538707832413065,3.454827710148977,-2.59665926028754,-1.5853297041505616
-96.0,-1.788806216642595,-3.1742225098368424,-1.3854162931942415,2.4981065672070413,-0.22833451402759675,-2.3096595090194256,-2.8173904306337834,-1.6156478594976107,1.4223336259884398,-0.697544077247477,-0.17040912345656578,-2.098601367148852
-95.0,1.0172061648274409,-0.5816089608996222,-1.598815125727073,-0.19794075168225111,1.2863859377496354,-1.1277489197645603,-2.574850101106711,-2.188874181564361,-6.097969217468094,-3.578902734800585,1.135243221525196,2.573424764798421
-94.0,0.6113180766017634,-7.465021683147744,-8.076339759749521,3.452878342669214,4.404602440293481,-7.74009433874599,1.0204209635432857,-0.11108008374504585,-8.062475888611825,-5.926578435822462,0.9747244405328278,-1.317930466334659
-93.0,2.271247686810482,-2.337092424507801,-4.608340111318298,-0.013318842107485462,3.4240389159501046,-3.452117695956753,1.381411482346686,0.6210792411178327,-0.45744959783301775,-1.2419302723435943,0.6982449194538052,-1.354345568306561
-92.0,-7.605553247554527,1.9726565082574228,9.57820975581193,2.7748531867476007,-8.606734895408515,5.78998573657717,4.775528406644963,3.301298009550377,2.7942604439128838,0.39134627436777847,-1.5110601174489457,2.2356145344051086
-91.0,3.4042759765269732,2.9888015204479474,-0.41547445607905464,-3.2359749701981553,1.8946666241775576,1.3009305543973673,0.6336865570199801,-0.5678005150660597,3.4342013436049728,4.874763397984203,-0.21105138037584836,2.8168016528850366
-90.0,0.459517853056597,1.7918398273802443,1.3323219743236216,-1.085658319747061,-0.374531630130006,1.5816398937482465,-1.2822473393862461,-1.3663135778847875,2.102708881504646,1.4959229429508927,-1.7312365446662994,0.2404311150185512
-89.0,-0.048342249848637,0.6029996868218486,0.6513419366704809,-0.23614999126820835,-0.3698067710139151,0.5770107477716886,-3.0884976200430714,-0.17748349119173973,0.14172284749648512,-1.1960529073970454,-1.646458251140224,-2.902825941375194
-88.0,-1.173301990039457,0.43755840107469834,1.6108603911141712,0.41214088169492313,-1.416444409031445,0.98424673164768,-0.8682992293671388,-1.0591980860124992,-1.5223063351042483,-1.3775923490870228,3.385064863397806,-0.2573490143209318
-87.0,3.9480889550411975,3.9226103732496886,-0.025478581791480298,-3.9646857253989904,1.9572964980140932,1.9963716998390875,-3.1773939447804223,-0.017497244208348695,1.653495143449661,2.4180682884573272,4.873137640413713,1.3817452075721408
-86.0,5.46111932282233,-1.9141345465249375,-7.375253869347245,-1.7969071967830783,6.462781894583291,-4.6693544655462285,-0.1814860688603286,1.1155267384217413,-0.4069633770733281,-0.21932022101788137,-1.773757691238775,-2.9022214506541166
-85.0,-1.7090178737765604,-1.6522972254530608,0.05672064832351431,1.6620173057713914,-0.9197184434635322,-0.7408257296968213,3.4819549189035,0.47797371936957933,-2.8501603487754448,-2.728898663486041,-4.310929955327147,-3.537881993344189
-84.0,-6.513218833873185,-4.959614208811851,1.5536046250613413,5.719833084644927,-3.990960888572959,-1.725275579876632,1.624003186701644,-0.5417503479758009,-0.7401405721975403,-0.26808898483524635,-2.270173850956434,3.634347325673353
-83.0,-5.065581550562635,-1.863835667956964,3.2017458826056746,3.525683515934444,-4.16577597126228,0.6434982167697598,4.018301901952351,1.7442395393461487,2.850159973360145,3.7336128582476538,3.4759126569905794,6.0805486754006735
-82.0,-0.06749249003554647,-1.486215260685915,-1.4187227706503736,0.7553149761772839,0.7292117519650843,-1.4826520740571143,1.8812426009531358,1.3778354617631565,-1.365779876188367,-1.7381496150871365,-1.577179765043778,-2.529643942518814
-81.0,1.9850173061516243,4.9783027480897415,2.993285441938102,-3.507913741961608,-0.5215842237253384,4.0295750374133545,-4.150109464013079,-3.650379381187448,0.5920256064624961,-0.8973843915476287,1.473364272823097,-2.5258984759226513
-80.0,6.215333425167699,2.5792884815557007,-3.636044943612017,-4.427203221401247,4.914100336025862,-0.48801197967152543,-5.084940799063056,-2.369339390355988,-0.17381624552757868,-1.044117132528854,-0.02261951243246807,2.0143960786505852
-79.0,4.0951883639320386,2.2705621456086793,-1.8246262183233786,-3.134867449187285,2.95011482776097,0.18352821780155948,-2.5941146405722297,2.1118898529116934,-0.16908956510359308,1.0080300920076302,3.0742020621915196,0.5051668528996561
-78.0,-3.7326201883836063,1.8310320414759234,5.5636522298595175,1.0014036421858727,-4.661194458382985,3.6595353095667917,2.445188659153856,0.14775487822932043,-0.8549943397850162,1.609895833334786,-0.04854455832795046,-2.4875235159501212
-77.0,-6.564247973489847,-6.137025460067461,0.42722251342238193,6.32776309689282,-3.516484357045784,-2.8099650592406857,2.693510138734627,-1.0335357446113522,1.0854754999707188,-1.2328552778536181,-2.7800689442314335,-3.5661647397990714
-76.0,3.9746619788445052,0.06359955150528407,-3.9110624273392176,-2.036054155157545,3.9907695730252146,-1.952096077571643,2.5086258656972262,4.1740367478352205,0.32339222595799955,-0.16406179046665678,-2.4291066307020124,1.083623649712817
-75.0,3.7969726052855526,0.9858732681274567,-2.811099337158084,-2.404016828370904,3.2632922478164863,-0.8566927186296598,-1.8838079694348893,0.9693669870505146,-0.9278257262686859,-0.8643504263844672,0.0015518272531762634,3.6800559190188182
-74.0,-1.9416907128694942,0.31057128874833706,2.2522620016178507,0.8040913816274639,-2.0665463834322186,1.2626116683037125,0.01994515796323601,-1.5898450851283012,0.7644156408096461,1.708883808642575,2.359755070468999,1.9426905844817035
-73.0,-4.083224902608288,-0.5305302808935486,3.5526946217147635,2.293123787131271,-3.7919346761788435,1.4934219703429927,0.8130210585921855,-2.187589999227684,2.170538749446294,0.618599752219003,0.059670083796435236,1.8793605579332389
-72.0,2.283177856243877,-0.2121091913901149,-2.495287047633969,-1.0538783770260391,2.4133423059681274,-1.3736856412541667,-2.4713567011856417,-2.6088990193272674,-3.4400890772130013,-2.4395796311905213,1.781787769888947,-3.9365552241529747
-71.0,-2.4420678420644015,-0.9299398587068822,1.5121279833575323,1.7412137332700077,-2.0328798026420083,0.26583686463431194,-0.004625081701099543,-0.29346064365704794,1.285869657867918,0.012820864227707562,-0.8114758351703897,-1.3307965121551983
-70.0,1.2546669778905528,2.629349727006311,1.3746827491157767,-1.8912665503855937,-0.039109432116604864,2.0488270523471903,-0.3361611237218642,3.1463499918231164,-1.8853657503674874,1.5396113424551574,-2.3856359684100368,0.354886535766755
-69.0,2.954239325185563,-1.4775151568221125,-4.431754482007661,-0.7697637056730318,3.6315559753190803,-2.9139472558183552,3.322958492142093,2.3388256455397354,1.272834392074989,1.1579388444251533,0.7830138027812681,-1.7655866415695936
-68.0,-0.45636246061922026,-3.310537154457365,-2.8541746938381363,1.8491599934108494,1.2121675352565506,-3.124251776865131,0.36144886548496247,0.6891024418434133,1.6825626131700215,-0.27718116160622486,0.09336736957871769,-0.8410858075663655
-67.0,-2.6654483615639295,1.2793874622200039,3.9448358237839285,0.6554970288657114,-3.294020722337277,2.569688315452603,0.9302145029647695,-1.7761243496736756,-1.2429163919445898,-1.7819179619098842,0.12196096182444335,1.663756044733855
-66.0,0.6549273720190827,1.2226237562135,0.5676963841944072,-0.9016465032145798,0.05705336097967839,0.9343828276113054,-2.8853903181345095,-2.247619992033263,-0.7183860673264314,-0.9498986100260631,-0.2939232501954526,0.5554178490449497
-65.0,-2.37627413637178,-0.1348713059751473,2.2414028303966242,1.2879166954773331,-2.2872606804901645,1.0980458786248737,-2.8112011284514162,-1.0782299342835113,0.5525731100507854,0.24872688783325503,3.118817138394431,4.2677529956051075
-64.0,4.533369677406166,6.532852824896636,1.9994831474904702,-5.584402165104659,1.301731167124944,4.238969359185635,-2.383669123107426,0.2911543643903788,-0.01597314363086249,2.8817408856954954,-0.23280086990190663,1.5694086866121308
-63.0,3.7932225248552984,-1.7406571585054231,-5.533879683360702,-1.0031399003083785,4.634966777122052,-3.6581927119661044,2.0686760048309427,4.20903659801439,1.7268098203897453,0.34384692037062603,-2.375920786740526,-3.590812986074263
-62.0,-0.4216621865725001,-3.2493516774092788,-2.827689490836746,1.855321893958367,1.1878624764037056,-3.0550831609834597,3.9928728236276854,-1.4818054524388895,-1.5914814600591,-1.8003886004110294,-2.2326279279236254,-2.984343677139443
-61.0,-7.577693961057443,-0.41778381619722005,7.159910144860261,4.015271009415088,-7.3762714626166765,3.3562368197521204,2.552543002518287,-0.7803543010534748,-2.3912657788365688,-2.1961286951529715,0.7188495685074632,0.6210753816004921
-60.0,-1.4391433673036191,-3.856720673692081,-2.417577306388437,2.5852950360012996,0.481623239096701,-3.0741094515747287,1.9273282868802346,1.0233368596603762,2.8167042378455833,-1.344838912155765,-1.9026599516831733,-1.0547501140681974
-59.0,1.3518469200173855,0.6933352986703571,-0.6585116213470146,-1.0071775161777734,0.9901431146919119,-0.0014109495376071202,-2.521330099241179,-0.7321297316264128,0.6842573750317326,2.773630362149435,5.659575593940893,0.14677525012213902
-58.0,4.199416935918512,5.160425368650806,0.9610084327322894,-4.664374244456331,1.592268948443943,3.036942379745922,-7.9212890137008705,-0.5968075585274011,-0.37814542040270793,3.1548419384774027,3.7286538831694074,3.6115350190503595
-57.0,0.08763693889462498,1.3158667868580065,1.2282298479633678,-0.684867394840543,-0.5306765139741021,1.3204381462416435,1.1127485496092482,-0.47145030638076146,0.517319791010576,2.0046941810068093,-2.00993555790617,-0.10016531023250685
-56.0,-1.7375447132250676,-6.389531774281242,-4.651987061056184,4.004630103158004,1.488238886162879,-5.559209805575639,1.0368545104262856,-1.7366674789313372,-2.615875264860918,-2.9536476465585917,-6.287632933867515,-2.6959925800191087
-55.0,1.164879466932336,-0.2936320018459113,-1.4585114687782554,-0.4110654787154692,1.3398956650319946,-0.8450153695205024,2.9025427474366987,2.591038174709124,-1.5236384472551188,-4.250760825992943,-3.401130829602632,-0.09144406103395297
-54.0,-1.7455161268710364,1.6963231819286009,3.4418393087996315,0.055190691490986,-2.6414196378817048,2.5118670762902697,4.079805009375628,0.40845829773887277,2.4930465953092433,-1.9362172239027535,1.4625859507503702,1.5708612051785893
-53.0,0.9721811834662275,3.62224437365322,2.6500631901869856,-2.26039965387531,-0.8016483054894163,3.149373941366507,-2.364264663598411,1.5970409373693137,1.8484386405241833,2.580139253236192,6.646213756563,1.0140818180069449
-52.0,1.9666796444580807,1.2754032683178682,-0.6912763761402143,-1.6581560687820096,1.2942755476607237,0.2999603887278022,-1.6927983332856549,-0.251567545446862,0.4270260957757921,3.1756293366477966,0.34857215841705935,-0.08289345564351458
-51.0,1.7454503264918453,-3.387295134988685,-5.132745461480527,0.7858477187544993,3.409079058111536,-4.253010214694526,-1.7153770284023846,-1.64986244242785,-1.8746881166030922,-0.03596967094740422,-1.5360791239475746,-2.293874335555242
-50.0,-4.673719486632364,-2.100023617784588,2.573695868847787,3.3505535321116335,-3.65228428520723,0.24777597909324767,0.34850995922048744,-0.17133165865629718,-0.7948055531435769,1.764983282335315,-0.8284136932413715,-0.7360036004829569
-49.0,-5.217617194969108,0.21210424908385161,5.4297214440529675,2.54131161951368,-5.27497064695567,2.8395170520237922,1.0611048535930228,0.41620368661323737,0.6624193940725029,0.7614652942569606,0.44737828558890147,-0.8387674927234706
-48.0,1.1819469552332609,2.964036266315652,1.7820893110823874,-2.0395133832202417,-0.25453981622472566,2.4007397416514524,1.8038613351371189,-4.308727004840326,-0.19215668236856917,-4.109595688410958,-0.16877084601489623,2.8825693255245097
-47.0,3.0839743911785473,2.8810677244610026,-0.2029066667175623,-2.9538273716292576,1.606643482208047,1.2957771395174946,-1.6281988531739335,0.870210391698043,0.10226806042829623,-1.5374389280189562,0.8290427364140557,2.2183993727633395
-46.0,8.556202323071824,-2.931375559895759,-11.487577882967612,-2.865975110228168,10.06065293865602,-7.24824226866049,-0.4620631974618321,4.583987345842989,0.28284798047240317,-1.3074766633688757,-0.6966313149197443,0.6103447172448789
-45.0,1.9604661073188394,-3.0252669617402064,-4.985733069059081,0.5557452381686496,3.4306313406606317,-4.043230123645197,-1.6389816738115777,1.3856141839225808,-0.6095159429965862,-1.0647254716667829,-4.651878192455453,-4.294760862869818
-44.0,-7.6360695692930625,-1.4250315240954896,6.211038045197546,4.4749946903091455,-6.96759900805544,2.4329770572660103,2.859204719281457,-1.8630037646119726,1.4829822744350372,5.4228673581586015,1.1764187385355853,0.06661637647510976
-43.0,-3.771127426395862,5.7698808161152995,9.541008242511154,-0.9747084356722173,-6.6216735089560075,7.694508799103952,-1.2112293348824905,-1.599193554724505,-2.6405734927210975,1.6944920562325967,2.0186341238414265,0.0005174703199644082
-42.0,-0.8137295491755956,2.2425811571948104,3.0563107063704162,-0.6868012961049637,-1.89919131758591,2.6894471934080633,-0.3248678710311101,0.11503204007200996,2.5220467215268245,1.5902750035144713,3.4541483040532306,0.8296303933660879
-41.0,2.6298450999447978,-5.366345312530301,-7.996190412475074,1.3999618689446212,5.273523928994598,-6.716962159957407,-0.16315426425004984,1.1683815957804966,1.4386318726243743,-3.050485174909312,0.7915483401479979,2.838256443223154
-40.0,-2.8986911637611175,-3.6861772132180057,-0.7874860494568776,3.2500139965134474,-1.0112581969207786,-2.2685749734419023,3.3520785894542104,-0.6953240652856985,-0.29297653426833037,-1.6956768702448715,-0.9409313518845495,-0.5954262973384239
-39.0,3.914186575708655,1.509135017924684,-2.4050515577839793,-2.7495927374807723,3.1309598153342493,-0.3980596560652392,-0.4863936586858211,0.20253100545211555,-3.7815906463857694,-2.99602371094033,-3.642304702809898,-3.9318072217148012
-38.0,-0.4616075334919869,0.31827335732008577,0.7798808908120511,0.11640075768390878,-0.6444506196917195,0.5204644893168746,1.3261834778842432,-1.2394575585038967,-1.8495129883671197,-0.8777681142672067,-2.0474630837562766,-2.3957257213485312
-37.0,1.9027712615630727,5.026290598395375,3.1235193368322838,-3.4953168627166042,-0.5526540981504531,4.043548737916398,-5.8993286680525925,-0.2651395568303003,4.26829676549127,4.956649637101955,3.0904058608559186,4.192669035098397
-36.0,0.9921140920148395,4.292999014646901,3.3008849226320462,-2.591970425708598,-1.1760680252776377,3.7611060372646845,-0.667009567922741,1.3408818213030465,0.15021231245871247,0.4409481997728535,-0.0530428481500691,1.5569055984687168
-35.0,3.2486196401892893,-6.518187828472552,-9.76680746866185,1.608651263127661,6.481807771513427,-8.103456844477492,1.3547036155847456,1.9903471477387047,-2.8299624789875044,-1.0508444927463603,-2.157671073239186,-3.2435767786779945
-34.0,-5.057161518096863,-0.751374233369928,4.305787284726932,2.8793756030338225,-4.714442244357713,1.8152967704776826,2.124179893137703,-2.8986942842333816,0.6053463345981774,1.0849117496847769,0.5201929513113992,1.8636903467358303
-33.0,-9.839710335822353,-2.9151008915893852,6.924609444232973,6.431315377132852,-8.34477112366541,2.0458911350446924,1.9478182222603302,-1.2490346967158663,4.233889787132445,2.4189827892151743,2.4255552489124748,2.4127709997370417
-32.0,6.155155459752091,1.3203441671813962,-4.834811292570683,-3.764166121108441,5.524376137609185,-1.7885855965282111,0.20183034927504928,1.9430609415176159,0.4124452737974127,-3.5924537722711083,2.1894858978034155,0.09418305097332252
-31.0,4.300918216696689,1.8407840076574384,-2.460134209039233,-3.1007351967304015,3.4036316457967293,-0.33384620441302226,-1.7093364574669825,0.9668286599588911,-0.8082390651798574,-1.2333512987721373,2.48278657450724,-1.1872505516507514
-30.0,3.451233560863221,2.99713847090318,-0.45409508996001846,-3.1805790053160505,1.892995562489047,1.2527164524886372,-2.7164493393754423,1.04512373640521,-2.761105402458227,2.543835982714948,-1.5433063434547307,-2.2809318684335835
-29.0,-1.6734443549454312,2.5209727348386104,4.194417089784066,-0.46542507315942605,-2.9166890319523704,3.340433910674833,-1.134474044500066,-1.3332263746666262,-2.5131190227770936,-2.748428905640315,-7.612710028288742,0.4686776078065835
-28.0,-0.13154878896594208,-1.478652015980571,-1.3471032270146053,0.8352862690883032,0.6250588617546823,-1.354245763213914,1.5425633856194172,-0.40849902241450087,-0.2354376240615652,-0.7237642996717976,-2.0818525404456376,-2.0170831213329743
-27.0,-6.722553895152651,-5.528244947940274,1.1943089472124016,6.149320324705669,-4.018158512502412,-2.19345755903893,3.595763298382303,0.17355704248836712,3.3213710081551038,1.8927121737892907,3.7465351985347475,1.2288949266184233
-26.0,-0.4743465606560626,-3.5385188371660674,-3.064172276509984,1.9469522538663475,1.3173924367472756,-3.3358318670495635,2.5757575216463087,-1.7125295201848474,0.460709726490379,-2.1715140823196473,3.665606030937121,0.8535499493883213
-25.0,3.0855073687165318,-0.8262300434548235,-3.911737412171342,-1.1126441983808237,3.5262344176755307,-2.3321629422215375,-3.7425647254126044,0.6023658905828947,-1.5116702614557205,-0.8818105433418466,-1.1887479638882401,1.4310383536009854
-24.0,-2.620156380854749,0.24259397319026627,2.86275035404501,1.2062672213078014,-2.707490376189892,1.584340805177275,0.1879154489481718,0.6808619325536978,1.6635776144881478,6.092252812667744,2.4230767400990674,-2.2565845702056615
-23.0,7.9689787190873,8.52993056460482,0.5609518455175063,-8.228854198549012,3.665746719631117,4.496256055853484,-1.6743294971282898,0.6724280333541909,2.4783176523982835,3.3507888844354117,-0.2327042215671703,3.5320880251093296
-22.0,0.930136576379927,5.002730923369514,4.072594346989574,-3.0196064101217637,-1.6042420954835366,4.567803640854578,-2.3927627003748193,-1.8196218041958545,-5.287192993403921,-4.323357709807429,-4.3079541340748175,-2.2419558024814026
-21.0,-4.262624184546285,1.699417741848528,5.9620419263947975,1.3127352657773552,-5.063943052335489,3.8629436888260678,-1.1842814968320525,0.37301026289214734,2.2740133359030454,-0.9983340203870239,0.6385569069650332,0.5237304826196383
-20.0,-2.906736927229015,-7.477629281646597,-4.570892354417593,5.227916720235194,0.8010474204433122,-6.06857077477363,2.495292546758426,1.0912680646796604,-1.8878348626821375,-3.8500919374854785,-0.1988801956287729,-0.7595239103034612
-19.0,-2.0104625825077687,-6.835857911085973,-4.825395328578216,4.382416853113144,1.451411091605177,-5.873331938095777,6.629175163216419,1.131941084906678,0.9507180583831409,0.45468060467937343,0.06941284085271718,-0.6110257248007748
-18.0,3.7003942868598867,-0.6837147748338257,-4.384109061693712,-1.5499414093882065,4.001826808383626,-2.496652495917659,-2.285569265184512,0.8436869420152605,2.5388013959651263,1.0229801191684071,2.6114832017799468,-1.2711602004803164
-17.0,2.972782774471268,4.313731168605086,1.3409483941338354,-3.6100651163039394,0.7701533848693529,2.7877654151418994,-2.815218465599704,-1.8826469406006696,-1.615366569688291,2.260791105179069,1.4495119235425102,3.3898338917070108
-16.0,-1.4294515809918624,3.5551449705757534,4.984596551567651,-1.0358754030273685,-3.1766417191964806,4.312891808732915,-0.6037273867772099,-0.678287824460085,0.8657651351423915,0.8201095618718663,-0.2932781029809849,1.7449642560635517
-15.0,-2.4919827670944823,-3.871587349130942,-1.379604582036428,3.201624323029023,-0.5237628680264852,-2.5763544261905396,2.59082106942976,-0.9398108075950833,0.5409440781174039,0.6553293423298351,-1.9860131283675098,-1.2332965792240638
-14.0,2.568605219959869,0.5665108057647321,-2.0020944141951276,-1.632962447676354,2.3249423939181186,-0.7396012127919773,-0.2916227604747564,1.013769658951171,-0.24011854594479173,-1.3495670062289586,-1.7922671281171874,-4.422603206043558
-13.0,3.6809582045022684,4.782331181143072,1.101372976640801,-4.22264743821567,1.2615409520393412,2.9271575144649393,-4.203085219746067,1.1050566923931688,-3.5178513427953364,-3.587176024224999,-1.6642352207369733,-2.508529721357609
-12.0,-8.032894387916777,-2.999207944211636,5.033686443705127,5.524066074219279,-6.549758609314531,1.006706887177017,1.4448412287551609,-1.1796968908540584,-1.5586404957502558,-0.5354867270032897,-3.584361250616026,2.7995227825806923
-11.0,-4.667151670614862,-2.787721295847052,1.879430374767793,3.7384214602916015,-3.280396455732441,-0.46505646412331086,0.8084434195423456,-0.3124791086518477,-3.7160377711118873,2.3906336941074127,10.184919133893837,6.153467784929
-10.0,2.6463019140280344,-1.1080343701051933,-3.7543362841332377,-0.7516199946545739,3.1976250583660577,-2.4470878582658853,3.542146460404735,-1.789933228283119,5.938917718817656,1.056515373572747,-1.7795411200014914,-1.2086068741412253
-9.0,8.978728196373371,4.459551887763279,-4.519176308610094,-6.692989234699409,6.744797560613085,-0.053863991883086104,-4.255973999164375,1.2710324505623338,6.706293008121046,0.27108840715630966,-4.085413676653099,-3.4762233029311016
-8.0,1.1539495116995653,2.3342131070078547,1.1802635953082967,-1.7880679271257374,-0.02376963862932202,1.8028880891349455,-1.8492820316213685,2.72062950357636,2.7417032255698595,4.501796390952207,4.570901242874349,-1.6702464972463877
-7.0,2.4479683113808086,2.9399745183952253,0.49200620701443565,-2.7314613092333335,0.9580952215366216,1.7536644036188869,2.742535705868277,3.1998780366519983,1.0591019202291294,3.3271986518715817,6.755277249756724,5.803857301473862
-6.0,-2.2722912377301943,-3.195320580585955,-0.9230293428557313,2.77811203541797,-0.6253127331427457,-2.0275697312974192,-0.5567504304134446,-1.6342563053377246,-10.62584726810705,-5.541946258354817,-6.774216525342774,1.9961438564066154
-5.0,-10.737879598763515,-7.7780829174512975,2.9597966813122536,9.222904576122362,-6.80743589872737,-2.46086594375746,3.471073313022582,-4.788948493529698,-5.978258108729827,-8.655675131761193,-6.008829615742262,-3.591741077091076
-4.0,0.5542962457384926,0.09932979934152852,-0.45496644639692985,-0.2866801858840873,0.4616803108213654,-0.23364315634786992,-1.0506752111715565,-0.10011599911090308,-1.9078034373945738,-4.896127719517237,-3.289299760209107,-7.83831345032275
-3.0,-0.589158220209092,-2.432162402826965,-1.8430041826178538,1.5457496285772563,0.6590255076883349,-2.118987974523244,2.130506918540182,0.3703957628291549,7.434410770278489,4.074077859745945,1.2009219131578746,-1.0728785344257048
-2.0,2.1147892152764873,1.5172313333435863,-0.5975578819329016,-1.8645283604267662,1.306962405209827,0.47400606018734354,-1.786348211507856,-1.5280918151080043,4.182489873333113,5.534141152451749,2.904472917343124,2.7410666927048
-1.0,3.7348832780165857,7.195716809087475,3.4608335310708758,-5.5167516214352865,0.08604678662820797,5.3387523106432235,-3.2116397382818405,2.1728254986521898,3.2140448191223707,7.499484117016635,6.017907367433084,5.33238143311568
0.0,1.167157290321926,3.3537147519028956,2.1865574615809376,-2.232631328863176,-0.4824772131548827,2.7786079805108077,-1.1068785903278295,1.812618858495516,-1.4272707304511543,2.3900610502694373,1.8200703279840176,4.836676083602185
1.0,5.075795881249715,1.2159771623633304,-3.859818718886423,-3.1133118439944623,4.496454774111502,-1.3132530235775113,-0.7302932976349656,1.3225917460751668,-3.6709414662321764,-2.79340774322422,-1.0610423330643821,-0.08731489001012172
2.0,-3.289662328703792,-4.0698377935082615,-0.7801754648045018,3.7209477981941728,-1.2224925127605883,-2.4140885419665357,1.2631815728100013,0.03592252525732753,-2.6890537440413547,-5.368445658944424,-2.122232821088717,-2.824518967296367
3.0,-1.8653592427406154,0.1826722848380613,2.048031527578658,0.814416314571389,-1.9196898195802417,1.0511781331551804,-0.1903575576034715,-4.178104660466177,-1.5393088420096384,-5.893525207770622,-1.0835776150763898,-2.632286068079204
4.0,0.5054864578667986,-1.4638360431931434,-1.9693225010599433,0.46202812071958066,1.1994101294318067,-1.6977411382003225,1.7056450719642666,-1.8091362162194269,1.7272050298123793,-1.5894055575021087,-2.840035370097452,-2.3282499517229667
5.0,-2.5743893953019246,-4.379824700107195,-1.8054353048052263,3.4660346616255886,-0.42206067306681144,-3.06962633607764,2.902341351795595,5.351711986688219,6.061955421728225,7.6775054064269845,0.5565922473402609,-1.4396452928785075
6.0,-0.6749261005493701,-0.05757661942006731,0.617349481129386,0.3557071912808347,-0.6879135025083659,0.3064380722573272,-0.09627949714166606,1.5906322405720916,1.7632250240995313,3.8219560723651127,4.047649561416757,5.345946964126395
7.0,-6.160916536317041,-2.7150959705104176,3.445820565806709,4.422222251507393,-4.774606120855386,0.3157469144217474,0.9707720997216208,-0.13814456764113658,-4.282651444457984,-2.117664210879465,-3.3086018063103544,-2.840429090127641
8.0,1.466408878902774,3.93079437652533,2.4643854976225867,-2.6453085499764972,-0.48019997096713984,3.2282173836611094,0.11801535497305427,-5.380353540020581,-6.008845208216334,-3.766306749095213,-4.373772027952568,-2.271878122852602
9.0,6.191930912932664,1.800400231020244,-4.391530681912426,-4.033426970163214,5.301721455918133,-1.3431080204371812,-1.718877479019473,-0.7738839046092298,1.4270199171399582,-3.268453501608222,2.1523213334609967,0.5539342330030538
10.0,6.696916201410923,4.598630238054934,-2.0982859633560214,-5.617737005707118,4.402341172435637,1.28150217010343,-5.748130863069925,1.5765285264593227,4.166548811139712,2.3229424344640295,5.168383641575195,3.9995453066999183
11.0,-3.882847703869367,-1.180875237574369,2.7019724662949547,2.552815888948431,-3.288475865410717,0.7920922968907924,-0.8344206532730518,0.6135995427381014,-1.6008392566803322,2.021167347241201,-0.595436464524111,1.1828644805985442
12.0,-4.040479695675423,-5.659534543855849,-1.6190548481804488,4.786712898468694,-1.203943481039835,-3.685812695077402,1.560780257099387,0.2611587339536192,-2.675968353965856,1.479731081276861,-0.07539094440428984,-1.0881884507278827
13.0,2.596568626720795,2.706840777089181,0.11027215036837285,-2.637823505994025,1.2543412016865656,1.4420021437695705,1.7598837557898348,1.9238423232101902,4.561804106457901,2.5760030950173944,-0.29433931982429534,-2.1923617545383625
14.0,-0.30552923957422684,3.0668919107475965,3.3724211503218244,-1.3649151715697179,-1.9029268882665,3.175792495921227,3.0110455306504353,2.524909404184202,3.5142295262840664,1.195230433233562,1.4991759404702942,3.8623306305488456
15.0,-2.0781645561259428,-0.1601622209312421,1.9180023351947155,1.139120627186374,-1.982332277731746,0.914923304805692,2.7890172619737967,-3.9420006856439516,-1.7041500209849967,-5.437459319094057,-2.526652771041602,-0.8879674392200435
16.0,0.30438112460274724,-1.0120794614517383,-1.3164605860544736,0.3787023395306526,0.8238005710311274,-1.128098387874114,-1.6535546015532105,-1.9799400699058232,-3.5332566370580447,-1.2847728598292223,0.22941490551577548,-0.8767071276678468
17.0,0.4560914807385531,-4.054908773919014,-4.511000254657555,1.7495277110286707,2.491793043737373,-4.32675667249824,-2.906406174039959,-0.3863118921718707,-1.8867207675427529,-1.4419590903391277,-0.8527336023249528,-1.5128055338075446
18.0,0.12957194127804128,0.19528376152490923,0.06571182024686895,-0.21016378741725428,0.033754257074166905,0.08411883874471449,-2.3958083492244704,1.4695811948145727,-0.5869868726710812,0.5421174618068754,-3.3120271221799427,-3.416143842896958
19.0,-1.4796589327650789,-5.138371892713915,-3.6587129599488364,3.340261466877826,1.0855401877793522,-4.369420750340219,0.8862226114118696,2.455336774759031,1.188787601404264,1.469683435460148,1.4681089703955978,-3.3656148611575762
20.0,2.0006833747637316,7.52691434633581,5.526230971572079,-4.733469528746569,-1.7700708584315992,6.552923566260986,2.89134539758676,0.7632918430124807,4.806651206628341,4.494912888892548,4.2568347129806865,5.275134139126624
21.0,1.5318829572167887,1.0939915645166298,-0.4378913927001422,-1.2836523687575676,0.9782712051441517,0.35327838101268894,0.5411420510714798,-0.09632154861884679,-0.9271522556372616,0.9492158198416978,-1.0162969665628752,2.6077987002309717
22.0,-5.217137669403057,-2.284144627961782,2.9329930414413123,3.700722209928565,-4.076278223486636,0.2721680620927338,0.42023736847723936,-4.3268306007394,-2.1368977430177454,-5.891787192035171,-2.542278334465757,2.349753186865442
23.0,3.6640688606192895,2.4244331130410925,-1.2396357475781619,-3.015098943607586,2.4604115512754343,0.6226581528915681,-3.867734622266238,1.0953034379067863,-2.0663707588566558,-1.085514618014696,3.025097138853223,3.4122721894573678
24.0,-0.9211315276132939,1.8085459390787393,2.729677466692044,-0.49244684309788544,-1.804298278132924,2.226416262627886,0.30835784919075837,2.6728790510682026,3.8480350498711475,4.39751069670841,2.713267649807345,-0.8767760077983469
25.0,-6.124846126415169,-3.2061074591513634,2.9187386672637943,4.696465743223119,-4.4879893179176715,-0.1007305017637233,2.570073716534103,-4.807788170472158,0.7687268954501033,1.7623674055495542,-1.1965374702066498,-3.3301915306220518
26.0,1.77266131506217,-2.1631488740250155,-3.935810189087219,0.2269241413035199,2.819182917765599,-3.0785411211559435,-0.8809815669305081,1.522340105232863,-2.2108538878576627,-2.9803583691351916,-2.2466648170762005,-4.198098843015392
27.0,13.34808093382204,2.335986729863102,-11.01209420395897,-7.8889797129182355,12.149905484424385,-4.283261314507562,-3.3810431512896306,1.0360976593154079,-4.049964946243085,-3.5043877357794595,-5.615064242070738,-6.390699552919366
28.0,3.3142072329948467,-0.5764410363936421,-3.8906482693885187,-1.3375711430051953,3.5715741940660273,-2.255389323274003,1.248979650013111,2.6134573170846975,-1.2668580399123281,-1.4031381650199037,-0.2077799808476437,-0.3271980615989376
29.0,-8.96214655744016,-2.4538747711390094,6.508271786301139,5.659733348956999,-7.692005528927248,2.0036976915881235,1.921166868929832,-0.6079513195328562,2.33717618733618,0.0013721880682511234,2.523504130678324,3.7508461948711624
30.0,-4.321283857098214,-1.7130621389349223,2.608221718163301,3.047019055256844,-3.5060198807610434,0.41893382765422316,3.6005124707799117,0.2768848204171884,4.975777544595982,4.6320177450083975,2.914421739982574,7.733432464363624
31.0,1.2869897540725703,3.70041007447633,2.4134203204037923,-2.4636033799926675,-0.5292938974178676,3.0998899948431986,0.35264485456066974,0.716733043826046,1.8696260209343545,1.9216243340048447,1.5720619766210182,2.463036222363124
32.0,-5.137374789525531,6.791681264696893,11.929056054222444,-0.87417799495194,-8.498742718518667,9.317860154665393,-3.342813907111372,-1.4359857263602065,2.072274959112627,6.589560963314555,5.730535713286165,4.234125787831438
33.0,-5.112099910884023,-0.7935217364017584,4.318578174482263,2.98766922635172,-4.676390466673638,1.7948904259978278,-2.408637936095602,-3.4573607003623112,-3.711247049027168,-2.705606336673614,-2.5314916825628515,-5.659022788157002
34.0,1.0062485127043237,-7.619242274874561,-8.625490787578903,3.266911995637188,4.782226002052484,-8.089418336925506,0.9093817679912735,-2.42405164029619,-3.700907321598967,-4.549958748139363,-5.174788897445526,-6.3572918816384245
35.0,12.17889745185846,-0.4736839199505316,-12.652581371809,-5.808716309664568,12.38673688833056,-6.603774100758558,-2.421483677869592,2.7072384843394266,-2.623297888902646,-5.360477433054887,-3.4158671253388624,-2.1808750808464206
36.0,6.051809399926329,1.0695814484483877,-4.982227951477941,-3.591460358601437,5.488557691035827,-1.9099703841580737,0.5907609832858256,2.6391451163899946,-2.6773751384970836,-3.7207855677057746,-0.5382221748597376,-0.6523330257716871
37.0,-6.892965103460539,-1.1491772691190598,5.743787834341498,4.071426255765266,-6.351149666075557,2.273661113824877,5.988884943820101,0.4227769831530117,5.439709509598598,1.8017099601910316,-0.2667054143020582,6.971360042378372
38.0,1.7623759161015156,0.9387984330579388,-0.8235774830435587,-1.379094093953854,1.3310871908084025,0.04049201850557593,-2.0255583320301564,0.9458311256013276,2.0884198101367177,3.8563113149265273,2.11567067083356,-3.017408620332089
39.0,-1.6340890095377958,2.92880133476999,4.5628903443078075,-0.6784686576399771,-3.0692561259772173,3.731088747754124,-0.28119370442428104,1.4496504132276844,1.2001719512183704,4.317328418175882,3.5174362451405887,1.7664469624916643
40.0,3.924760837575751,3.8938310013338375,-0.030929836241880615,-3.9445832715238764,1.9996735570184292,1.9143506948860103,-2.561858358286252,-0.37217610295797987,0.3730745986619153,5.046832383440471,5.769851584130881,1.3029869507763232
41.0,-5.042264354965696,-4.389545842919397,0.6527185120463366,4.755202411184817,-2.8302142182693597,-1.8129430266647368,0.7498468526706108,-3.555494035784339,-1.6918292554420724,-2.1718570353712146,-4.159215371335254,-1.807364742440427
42.0,-10.017675169444836,-2.475807800115205,7.541867369329658,6.283372535822074,-8.842927281864764,2.5015023282453486,3.9838599031904693,-1.3396947874596115,-0.8971962935571826,-6.168067110130901,-1.6983415076470656,0.7492093528276235
43.0,0.08256897100473859,-2.5862686263787014,-2.668837597383431,1.287903805540004,1.3916019939824995,-2.5886892245093502,0.10634513137493617,1.7910438257450323,1.9457699787041742,-3.9778708457498553,-3.1616598109546525,-0.3260643478934383
44.0,10.142640322363965,3.095594220946279,-7.0470461014176955,-6.660946438465702,8.612052305349074,-2.022515128880996,-4.885021501269471,-1.6558781998536922,-3.2016550451796633,2.7653025878394697,-3.8988599595180684,-2.6455548820610364
45.0,-0.245857271139716,2.293873664153568,2.539730935293269,-1.0650277035147413,-1.4524921784340812,2.44420416804083,-1.366967746226149,1.084293132154371,-1.8491568777338465,3.3505215621639524,3.482070049114075,0.9413186015811097
46.0,1.3818024798157853,4.894461705635029,3.5126592258192177,-3.1011738417150054,-1.043821692766898,4.228963217876089,0.7515605508409513,-1.6557906014884358,0.5955597318005204,-0.4171577205758823,4.983860273384755,2.032679115739083
47.0,-1.9158046817989582,-1.8451963875540176,0.0706082942449072,1.8355651639912645,-0.9678349207784778,-0.9403296920980471,0.9331964415881837,0.9606622201644028,0.16971885480474302,0.09262170656675306,-1.3069436777396368,-0.6395869053273523
48.0,0.26802518909605394,-2.4170761123084157,-2.6851013014045124,1.1030786856538204,1.5071562546101525,-2.5231782073431486,-0.3129675201821074,1.3272319216431292,1.3290717947538027,-1.5748025347193264,0.7143943350040273,2.2851374895371106
49.0,4.75003943779777,-2.9573709727682993,-7.707410410566104,-0.8740350989722661,6.186815483300615,-5.379546632818152,1.8846075360398364,4.155525492169869,6.771080673392009,1.7062753881861012,0.6152839569539312,1.256019394531761
50.0,-1.523393140253365,-0.8728249925101411,0.6505681477432073,1.2147367262303288,-1.0439584319927524,-0.07473753991732002,1.0614793889638205,0.7801623043821722,1.8208622031351576,0.5718521998329438,-0.5328557078731077,-2.1577153436368217
51.0,-5.277420172901803,-5.478900613559917,-0.20148044065809922,5.312562207965368,-2.568873100384932,-2.79843021606377,3.499248142163178,-1.6232781583539935,-5.6395868499994055,-1.5256691958598658,-1.5397013096249228,-3.1861568775607134
52.0,-6.185495622581834,-1.644157824036284,4.541337798545581,3.928036188442369,-5.391711204851872,1.416671423430171,1.0755625791257322,-4.1359639619225135,-5.650565614646162,-1.709817186151429,-4.476138210260519,-2.45240191441321
53.0,0.29295834482186045,7.824370932395507,7.531412587573687,-4.041094373195706,-3.647142530398883,7.649624572001773,-5.388347530684404,-5.377492860901842,-4.77984894615589,-3.2287640296850126,-3.015222099926629,-2.846840057400228
54.0,3.8722562115274184,10.30759864082797,6.435342429300585,-7.063814180938564,-1.2318055053715926,8.423160110414097,-3.6901137439118243,2.8422437506666083,2.8865017198835683,3.5270902600935665,3.605047036903347,6.0919115046920655
55.0,8.032862453724498,-1.3138423596927566,-9.34670481341725,-3.4006535771487205,8.737951532451596,-5.359062502356563,-2.8250411941094242,2.274473136016879,5.554424784614483,1.867961636124199,4.570558877379425,2.7800914083204864
56.0,1.3067481536613479,-2.4263969891561423,-3.73314514281751,0.6096241806127651,2.487993566383964,-3.1128754421406266,3.7657516218604044,3.5672566211286987,5.199656327834428,5.589386896697018,4.23910993949656,3.9788830739510432
57.0,-1.0528578028389661,-5.198268762591146,-4.1454109597522155,3.1067332583644003,1.5132530301544316,-4.631900354917029,2.1948027815313615,2.0449403507374044,3.4148001897347555,0.38808393869437374,3.467725988793892,2.2081056696816286
58.0,-4.830912951481735,-6.005599248443253,-1.1746862969615544,5.404965629204616,-1.7834216821920554,-3.6343614986460486,1.4112438532960403,-3.7729244727253457,-5.836279356279298,-7.364462446149116,-7.252881131307766,-8.025478334857333
59.0,-0.35937928717291756,0.50692510079769,0.866304387970576,-0.08752995523996443,-0.6481289849617584,0.7175735477326839,-0.3921485970236518,-0.9745500574197747,-5.525693222628969,-3.6842360219848946,-5.242281168384351,-4.53736369734178
60.0,0.6260774533831779,5.365805313017645,4.739727859634445,-3.015998624101316,-2.093455832458176,5.082705567862851,-0.33942118951840805,0.4868074540402283,-1.043119002559091,1.5146510719955124,-2.0393538555460538,-1.0889319942772326
61.0,0.6878884548539393,4.3706442957701395,3.68275584091618,-2.480963824083241,-1.4564265191764219,4.057731293245943,-0.8701931933831456,-1.102044459757555,1.5212315118406492,2.1936804534402556,3.978457685837697,3.3850916333390897
62.0,-3.3178621548005442,-1.7593789083041258,1.5584832464964014,2.4964294122370694,-2.3977546071464575,-0.1463023694385739,0.4923907806169463,-1.0576649137372538,-0.036159518527550616,0.3885744837974445,1.4491429892323702,0.13249534488552195
63.0,-1.7920012885796184,-0.7672574290175906,1.02474385956202,1.3059262045064601,-1.4468813080366836,0.0840692867570334,0.7934499568496725,0.6773207599579814,1.5446043284516384,1.2083397127770714,-0.8449438722608122,2.5610485920265136
64.0,2.136687531997104,-0.16074193228124725,-2.297429464278343,-0.9683874148390026,2.2569489815166417,-1.1952160896038309,-0.23895258942320002,3.282479132033703,1.8913873079402972,-0.8305369392711919,1.7918268210184924,3.890100720171673
65.0,-1.4737060942824485,-6.69296112961376,-5.2192550353313045,4.100535207738619,1.8326343276005197,-6.002124333573054,1.3279142421400079,1.3961597858387933,1.4046984454852713,0.799309965371183,1.0528431623166288,-0.8431382901457563
66.0,2.460381055281,0.7231554308414645,-1.7372256244395392,-1.6519095825581078,2.056008087134193,-0.4750519990775737,-2.0082206489723355,-3.570171023092164,0.46558070110272787,1.314467366639589,3.803451364883286,1.051869731048018
67.0,3.0513838742825747,0.3703320405354428,-2.6810518337471545,-1.6884766133185873,2.898315263623872,-1.1223879189780137,-1.371836320579788,-0.9170353141058116,-3.857473974221161,0.89696572415324,-3.7643154187183114,-4.147329541393762
68.0,0.8880477958521231,10.89862643507555,10.010578639223397,-5.866502147880194,-4.53352163672885,10.49087964293992,-3.277731827008222,-2.79074627467138,1.3245590234274474,0.7027993759243208,-3.0930399871137464,-0.7541780872904851
69.0,0.42238312337016304,0.9356084176621042,0.513225294291936,-0.7271535296306704,-0.02165745787922635,0.6870529717704752,3.4251326539708424,1.7792664927880009,-1.3317385204148497,-4.578763737803149,-1.8944885866948733,-3.988498622629553
70.0,2.9851209228925466,-5.934053961386974,-8.919174884279496,1.5073978795058678,5.8942437309819145,-7.458306747667,1.1698444582429885,3.8305009568015893,-0.8967572603732188,-4.75048682691007,-1.3491510974061645,-1.0438150548102842
71.0,-7.166491461852813,-8.967968276737041,-1.8014768148842064,8.022333515996914,-2.663113706287607,-5.411418446245083,2.3169330107462693,2.4569087603027215,2.3299276779154496,-1.050647517562261,0.9902989659750343,1.2088723050393244
72.0,-4.151709137889302,-1.2627100550228807,2.8889990828663987,2.741080090746685,-3.500746120598449,0.8688670951782731,0.411577297417562,-1.4841723402226126,-0.9867088886038773,4.742952974366954,5.212502381128903,1.6209090477797063
73.0,2.571964488730219,4.541844287451071,1.9698797987207768,-3.523293883507965,0.2438591984927343,3.2352054952735463,-1.3240682124857304,-0.09295568442953472,0.9853061710934838,3.645543722130365,0.6740985641980224,4.131305739527736
74.0,3.583862688935413,9.24556390296489,5.66170121402939,-6.460008334238674,-1.0137460997368757,7.434433856934006,-2.3920463511566274,-2.549933484127553,-1.0110249109003422,3.6804836922781883,-0.5808546261743373,2.549420279024659
75.0,-2.186904242159544,5.1268030485296965,7.313707290689203,-1.436551890496013,-4.720306796541999,6.280628128204313,-1.6493328404574268,-5.069317429574314,-1.611274319694791,0.3433141513787128,0.7211103156884152,2.510265945426473
76.0,-5.384601015459756,-3.5215413383887637,1.8630596770710257,4.40748907858435,-3.588633023119715,-0.8475676116383393,1.155565317059862,0.32596817457995475,3.8613906053795906,-1.7400643175864214,0.15110870629767603,-1.7294962163687146
77.0,8.090386612289088,-7.7259559852293345,-15.81634259751832,-0.1497139853538818,11.914306933744886,-11.790735085447967,1.5938831168571868,4.005010461400272,0.7969364515926523,-3.246334769049301,-1.7538268588646875,-4.023442900048619
78.0,2.1084863035793058,-4.3866677789835435,-6.4951540825627285,1.1704985257799794,4.265738682514393,-5.463713109786006,-0.355976343241748,1.7301202825397453,-2.7963918043846836,-5.333746642457405,-4.985426837834902,-4.105771408031776
79.0,-4.587723716864171,-1.6917638121335434,2.8959599047307156,3.091348058309767,-3.776539187079394,0.6524989892348163,2.312293259516834,2.045945349995886,1.3759371210050184,-0.6416334094042417,1.8750969928113101,-1.003763054345852
80.0,1.4327436569603869,4.748129198168454,3.315385541208097,-3.1389108061965176,-0.896761036084339,3.995710199913043,-1.1318951270076836,-1.08530385002958,-2.4800249858483583,1.5423504982146412,1.849027953508522,0.6416797562023836
81.0,3.953689129323136,4.856484835651566,0.902795706328396,-4.37280459905233,1.5706165943997004,2.9133188423597303,-3.8827704568837396,-1.3766219064974121,-3.674599196560251,2.4126225855391805,0.38450716278728536,0.7704896887671666
82.0,-3.2082548507568647,-2.9930890390467493,0.21516581171004212,3.1377075396040706,-1.744086394871875,-1.4429905136358943,3.7703418132524895,-1.2636944079496426,3.910934758976243,6.0442127858916415,0.36995283241105703,4.351291801160269
83.0,-2.16807900635657,0.199642455076672,2.367721461433151,1.0282882657742158,-2.2201555527693166,1.301220577144955,-0.3398385084065635,-0.6211064839463583,2.706385640068551,-0.4769369872838265,0.1328587368264209,-0.7501127915264538
84.0,-0.43329728215684704,-1.9224218133478996,-1.4891245311911274,1.1506863942290275,0.4973099842500397,-1.6920504983101956,-1.8767707906544062,2.2406986737580548,0.6942884344585973,-4.462035251356323,-1.9261179656980039,0.11572160935151055
85.0,-1.691753829832828,-0.13105610730345818,1.5606977225293253,0.8896203881275049,-1.658518266606713,0.7290600644307861,3.0975374821100914,0.11208205574460517,1.4811959730043194,-0.993090091294903,1.4272754941543389,-1.52448183997021
86.0,-1.9110827070490002,3.591598016837441,5.502680723886437,-0.8610072033329512,-3.7432923389217843,4.566212081782398,-0.8109382515201978,1.2097200699948747,-0.8272632382361198,0.5469803108035296,0.7194192636297783,0.015660937572221423
87.0,2.9549302849826287,1.3942692150233091,-1.560661069959281,-2.1994469987819927,2.2943490556842603,-0.13471548678213213,1.6541875317077044,-3.2157825265543707,-4.172755771774935,1.932867517261708,1.5925923992235822,4.616883344373863
88.0,3.0513370634842567,5.951631028952591,2.900293965468406,-4.455666642728304,0.10615979744291515,4.463077696457958,-4.812674855888181,-1.5277924703697474,-2.0397718117601933,2.6378779266553343,-0.9788419056953448,0.31647040497307666
89.0,0.08705847931656807,-6.663612714044028,-6.750671193360515,3.2459561394952128,3.4450689765267333,-6.738837401599383,-0.9981642185501087,0.31659882751378526,-1.508610906417776,-5.7736258110530265,-2.2943394348567105,-4.409610088515514
90.0,0.9047265677078331,-6.4648934350578395,-7.369620002765615,2.809016940143083,4.082748396737514,-6.940289334648098,2.2427393549174663,0.422627361195672,0.4822372574298934,-3.3899629926901977,-1.544534007963393,-4.11028688068094
91.0,1.0917263492052423,-2.231746852762961,-3.3234732019682074,0.5958402388835498,2.2329300930544136,-2.7153455001151388,2.0365344854353813,2.8856295676674213,6.92383903695757,4.167249440188349,3.294575105528097,1.3927584736546588
92.0,0.21275431499497033,4.766753695506569,4.553999380511542,-2.4617211074549505,-2.220448438806632,4.647900844372138,-1.3314367687293005,0.03096662565559649,2.7863870068339622,2.528160594727623,1.4743620678502674,2.4592513347246383
93.0,-5.713034823639007,2.635749808844835,8.348784632483769,1.4945421468479632,-6.996536806333077,5.48113436566256,1.1586738213070487,1.3187030757401763,-0.9753341250912264,1.39909896608057,-3.1244689917691137,-0.1281280756101959
94.0,3.405412769472267,0.060044619196212956,-3.3453681502760984,-1.7680276596108229,3.4159982126320085,-1.6549950510084872,-0.5220499159412291,-0.36582193790274453,-4.587687144874516,-1.420512991092826,-2.099475548835621,-1.5991263070967927
95.0,-2.9196285034387763,-2.8473122608549937,0.07231624258379155,2.9351980576125554,-1.5284092489771168,-1.4031746213914624,-1.4550538572266238,-1.7183338945587907,-3.316518535147461,-2.57924719548082,0.5710959329169911,1.938072822751719
96.0,-3.6336814162876467,1.5371815524339278,5.170862968721631,1.0266183181565347,-4.4308757646100005,3.412259043887944,1.8560352469439052,-2.4670010658651598,-1.8805311067328885,-0.39921710081621864,3.735800092028599,1.5834062902867878
97.0,1.195777030416271,4.645108366168852,3.449331335752634,-2.941030849277378,-1.0756835859858271,4.021163575917744,0.6537469023063166,0.06430643672064495,2.572589366880514,2.9536811936906435,0.1783109791444819,2.391062889240753
98.0,6.607352932642992,1.0832707579028409,-5.524082174740119,-3.790773364588084,6.035775522118067,-2.251912399177761,-1.6060095392287885,0.5979107845784438,5.291020358348861,-1.1787533376019514,1.4619350174600263,-0.35376120452635135
99.0,-0.12090890762871709,-6.424477714647278,-6.303568807018554,3.2410028724222855,3.0563416396642515,-6.32141546041282,0.2602658855542803,2.112500352945136,1.7225276576149602,-1.9390878358263433,-3.3208315121675156,-2.255530768253549
100.0,-0.25016244917040464,-2.379415849151669,-2.1292533999812697,1.2734812877565924,0.9766668428332634,-2.293744992684539,0.15853475801466255,1.4732647868805877,1.830240676512457,4.446964480921444,2.6005672410990366,-1.6093410948307072
101.0,-1.2939764426404872,1.0776150778150493,2.371591520455533,0.13604747919312177,-1.8024099917463348,1.762283171302263,-0.6440463882114247,0.743388094751679,-4.958424736079503,-0.9001949804926399,-2.553240992911856,-1.3174399396615661
102.0,-1.8761410739735864,-2.1432927868638325,-0.26715171289024764,2.030063414445189,-0.8583948047130747,-1.2465705865637964,0.20939635788642103,-3.5271367634094917,-6.784676091105879,-3.4213172856741614,-5.035106314472304,-5.39907686069772
103.0,1.0972933622044074,4.359372380133208,3.2620790179288193,-2.7122472095598744,-1.0610482864146036,3.848460718702591,-1.5542136903365174,-2.8034771013262283,0.18971341203925363,-1.567873750792225,2.3656300605332454,-0.6782838311927147
104.0,-2.753819447853436,-0.030978973633947637,2.722840474219525,1.4075388583636048,-2.718358802304753,1.3834142135566556,3.9200847202618974,1.2285675202422603,2.970640404758144,1.6908475453960554,1.974198095108218,7.071891793517623
105.0,0.907636621319452,3.188692304710851,2.2810556833914184,-2.1103316247638464,-0.6664331250087576,2.6915243429370466,-1.4928710957424551,0.5667051565397688,3.608748580567653,2.922040730542485,3.2476964123339753,5.932885828571191
106.0,9.153976174908438,6.134811464679199,-3.019164710229256,-7.6253068669325925,6.029408724797879,1.509818350127703,-5.695070151794431,4.143870599572643,0.7909305982355646,1.1735956814766872,0.9472346796932656,2.071495287423414
107.0,-1.2740554109410214,-1.3771341315814634,-0.1030787206404864,1.347161128754737,-0.5620282924895037,-0.7163707609245187,0.00472925405336122,0.3004207411261013,2.9757266122978523,-1.5747645546399809,0.01372270296543776,-1.831460529682325
108.0,-4.87966086105157,-9.071012040145908,-4.191351179094399,6.920148591256404,-0.39695879692865077,-6.615598710987608,7.264019328974485,0.5836421301753028,-0.4225213165400644,-0.38576335655135174,-2.298403619566584,-2.904577289934392
109.0,-10.32753186233549,-11.02674877937191,-0.6992169170364728,10.70237648866334,-4.784687300761302,-5.854941133440807,5.936363149485509,-2.221579849350823,-6.168413708342214,-0.532051674478196,-1.7767438166844183,-4.363792683747759
110.0,-3.124308607725811,1.4854033387081422,4.609711946433924,0.8465077889234474,-3.8327032504613725,3.050309013403725,-0.9289385494205029,-3.417093857223552,-1.46887122607018,-0.5762089542470583,-0.1652429658011889,-2.1122910876781704
111.0,8.699019377152467,7.255536754267453,-1.4434826228849922,-7.947888789797162,5.111272730630919,2.906754375981769,-8.754891691396642,-1.411526247153081,1.643864541453671,0.7388132203784086,-1.7544214171887131,-1.398280984049376
112.0,9.735500903516506,9.621788361964771,-0.11371254155168281,-9.72511451593081,4.8911836980955545,4.756246734522829,-3.3589627876275037,2.3069177557276905,-0.5961556559904481,-4.024033620064146,2.540290979436235,3.031195342626026
113.0,2.12713934245083,-1.1930378022455592,-3.3201771446963297,-0.510328675072186,2.6934667505211918,-2.2497742149430096,-1.1166748872205905,-0.5131746558280814,-0.46298025980524016,-0.18651981840156706,-2.062538542978882,0.6104570928077457
114.0,-1.6330976009535576,2.143897084115559,3.7769946850691642,-0.21684550314614115,-2.7352901017339404,2.895640325546582,3.034059866663283,3.342765240819169,2.85007006891619,6.265955010143171,2.6778932305557728,0.9057779513546786
115.0,-3.3076803738546743,-1.3762289834121475,1.9314513904425392,2.3829648793092755,-2.5745069183229528,0.3004047781136712,4.282004856356693,1.3363441842684889,3.5615834989885093,3.5527774273405757,1.890762409295599,3.413381267209593
116.0,-4.133590633784147,-5.227830214919301,-1.0942395811351793,4.644152887979887,-1.5591538545590982,-3.1285366374229486,0.4961344168359254,-0.4923637108998644,-0.232935309068931,-3.109244852052096,-3.6999259689700783,0.8263632646046544
117.0,-6.0826865402625145,-5.078457450261066,1.0042290900013997,5.621996360461186,-3.510597484753462,-1.9952358674591817,-0.5579957607556765,-4.794331042400052,-4.047557747868551,-5.96906319569005,-0.9982954503554912,-3.085431921753533
118.0,-0.3287246655460523,2.1300014796623414,2.4587261452083413,-0.9410542186686359,-1.3662495614101604,2.2650984969684056,0.5676754071765512,-0.20783911074867767,-2.2998492216771904,0.7641631088540275,5.675291543333406,0.5867974962602138
119.0,2.0380525921699193,-2.645593930772325,-4.683646522942281,0.25827050804421237,3.385029260955363,-3.6893454162034462,-1.0610642123092036,2.4550035469859224,0.27601388155798623,0.35405689697539466,0.12858351989438366,0.6656107893462859
120.0,8.272072191605064,0.8036890236870703,-7.468383167918015,-4.51055645802608,7.8148549260783104,-3.3560942411089703,-1.4589233161168973,2.6903599284819095,5.075776368656787,2.7005509026209156,-3.0942363113342095,-2.763490267658476
121.0,4.371083351634985,7.624352701001242,3.2532693493662475,-5.97552914767083,0.5052722853291329,5.41316460234579,-0.5306297597963647,2.4743889858988193,-0.18069525814700604,3.854815573718322,0.1448287848245462,0.8502800440364728
122.0,-4.447137691932028,3.2362869537507475,7.68342464568277,0.6247027518407142,-6.035927291981243,5.509814393479064,1.8132384687232128,-4.8450606651504575,-2.3610543411582183,-3.2724464002057636,-0.8628129256986742,-1.2434658369282616
123.0,-1.9573228950603532,-3.486615971907538,-1.5292930768471864,2.7412005472826486,-0.1781368005931947,-2.4605853858663633,-0.0869980707769763,-3.2689482033357664,-1.4786528782643102,-1.0061738130404416,-1.9764201090021942,-0.18135780666774023
124.0,-0.05467458819803461,-5.379533545694628,-5.324858957496596,2.6601085752347635,2.6790277818066763,-5.384488930900783,-1.5131589173779993,1.0409445009444431,-2.640692629542834,-2.3038575888580355,-0.575316155608314,-0.33330762855731366
125.0,-10.604386756927914,-5.3930001209057155,5.2113866360221905,8.024638956723688,-7.93458446595338,-0.12231840565656338,4.012256542526343,-1.3246096664611478,3.787027928804647,-0.8073588362210554,1.8497722050247138,2.8187001866618426
126.0,5.644792345554826,2.7219385047080062,-2.922853840846842,-4.2313085555675,4.2634613894966265,-0.051688060874781394,-1.8650903526283595,3.851500713369261,2.1367342397603477,0.6172337756828818,0.9845287788222523,0.8460755909715918
127.0,9.720201680401972,5.980099884838647,-3.7401017955633757,-7.814558179402877,6.712930899622083,1.0909274871538819,-6.576464195243617,1.8682816433799936,0.8549282394710562,1.7669562374349987,0.573870033819287,-2.1887633150308434
128.0,-1.7857549428906596,6.748833912892297,8.534588855782879,-2.4416797734083886,-5.177714960984998,7.611719395219485,1.197750499741833,1.3168740527004328,-1.3644092748343986,3.7472773963192147,2.2379838401729306,1.1002287549215295
129.0,-3.2362865345772738,1.219439853007493,4.455726387584694,0.9730246307588208,-3.866306176954674,2.882977951867999,4.503871018675006,-0.27602068158032955,0.21159422763499758,1.5160779278040197,0.24432482644789127,1.9081734071724905
130.0,0.19711685332365292,-6.037129985869646,-6.2342468391933386,2.887160326536792,3.2707061556519026,-6.1747269284125315,3.5139792413085456,-3.0240035503576643,-0.7497090000731692,-2.547332367072258,-5.055441829940276,-3.7626287186896397
131.0,-2.2301593784395126,-3.906845787601545,-1.676686409162015,3.1159339328746682,-0.22424634228668516,-2.7593230213861286,0.6286031679125219,-3.212459549607014,-3.8109481533848815,-3.2721310390337712,1.70138184098633,-2.278690231573501
132.0,-3.827218074225737,-2.5275355108381783,1.2996825633876279,3.146538837729759,-2.5907213184366276,-0.5892470331212198,-3.637309879601454,-3.0626347186029164,-1.640792141045595,-2.03042333030118,-0.014291497307299506,3.3544444798803323
133.0,-2.8868686534941586,1.019323326887075,3.9061919803813354,0.9811113384083805,-3.423657574979452,2.4016249263346188,-2.093979092831861,1.3003853237608607,0.16901180810898364,0.2633800402084634,1.692845289697875,4.732478066545415
134.0,3.4938765957636018,0.9055615123654182,-2.58831508339807,-2.232772094732567,3.014432091968231,-0.8290118097740677,-1.1120748909214804,3.28209019135353,3.3690458764340576,1.8789015817097758,2.4188248920024646,2.289744196585065
135.0,14.722315168886716,-0.5548823972608168,-15.277197566147436,-7.11945173096382,14.97321820833169,-7.906304621541787,-0.25606925057360364,4.195537916882298,3.594402357832335,1.7555869602437355,-0.18539957530109863,-5.177593048007058
136.0,1.8049848409871547,-4.845710707258991,-6.650695548246066,1.559787808819451,4.279630370343462,-5.738216288714142,2.5032689677467124,4.15557218912506,0.2873078918175165,-2.3483326059009375,-7.620390407845265,-9.740607833283581
137.0,-5.695488258609336,6.318364792831278,12.013853051440641,-0.276265977967338,-8.803787496108715,9.178731508335998,0.956948440229856,-3.397012855480215,-0.9508260623500656,1.643527339524959,-2.9125785773076456,-1.9205932645330726
138.0,-4.505894748597933,5.25430388328379,9.760198631881718,-0.42235887212127676,-7.162258586558902,7.523695856195981,-1.1507918376336748,-1.7045555227703035,1.7273979434024134,3.716530597472147,1.3828742876715914,5.9916966851472875
139.0,-6.357754166015756,-1.333708072896851,5.024046093118864,3.8719003962527463,-5.721890740206204,1.78636960314443,-0.09364716472477808,-0.736255575299896,-2.241066937301177,-1.3988706918319538,4.530019658718621,6.575447870834305
140.0,-9.204053495472216,-5.707057481055181,3.496996014416993,7.399371606400873,-6.383531105146627,-1.083098254531283,6.267549837801069,2.101932998040776,4.433241026530148,-1.9504850439323016,2.8482425712979875,-0.19362166441731343
141.0,2.44841905929394,3.970360150312458,1.5219410910184479,-3.188813617060772,0.5072813038894639,2.7681335717087734,-2.5563926265048886,-1.817602146437416,-0.40093695856396017,1.437879873580334,3.056712328456466,0.5967446833336052
142.0,12.319215213873916,9.851883021300798,-2.467332192573214,-11.064772843784771,7.357879679034161,3.6341835325710137,-9.73011086994803,-9.512673625441986,-9.149747737246777,0.40433304401855175,5.556794655611438,7.505890445849438
143.0,6.795157280384726,-1.3679501539628953,-8.163107434347623,-2.690502493133817,7.523150933882431,-4.746316544016393,-0.6823981191124329,-6.3022390255133605,-9.015775136793717,-1.118972619399207,-1.5175084763019835,-0.431526372951147
144.0,-3.69043099031036,-10.321959818888239,-6.63152882857772,7.032841296452065,1.5160931585725477,-8.457748568237424,7.972899472276089,9.322956475337703,5.173959243540084,-1.933577768582394,-9.188717972778429,-10.175336698612627
145.0,-7.987320657311039,-9.35921010512945,-1.3718894478181332,8.624479965024163,-3.3398274369412886,-5.344783564274792,8.931755060449635,9.173796460905558,11.409267027204741,-1.8936256467635566,-7.431249053826258,-5.878206307428973
146.0,0.15929029297124941,-5.109427625966048,-5.268717918936985,2.428086175805126,2.6810494421482063,-5.164801544886462,-1.129837587733876,8.296788337299198,2.332599100486628,-6.7058305462526295,-4.3433313676006,-5.931588533535208
147.0,5.829004670607887,0.031656687998230376,-5.79734798260955,-2.898737874059386,5.77661593233727,-2.9332098821585966,-9.668683280087649,-5.863822124696932,-9.347867774912082,-2.2043895159517226,2.903425836591226,0.944998128186554
148.0,10.822862658301787,14.450976346824968,3.628113688523117,-12.606907487595118,3.6336814443913386,9.071327467955902,-10.234876034249712,-6.529409207282466,-5.68320449957848,6.507664257483356,8.95377252350758,8.71995842177704
149.0,-6.109697713326224,12.092977741437839,18.202675454763874,-3.0421299021143158,-12.126254418047019,15.102845755272494,1.9385373548442422,-2.6454231404120696,8.27160132760028,13.088621199518274,5.120809748405541,6.558830088997497
150.0,-3.097647227297302,-0.459051730581435,2.63859549671583,1.805881699653787,-2.9213560790519493,1.045806573758556,7.714540463874217,3.4801839746874714,5.6474674877491715,2.663856789800743,-1.5108160212677375,-2.98102099858831
151.0,-9.474003782492005,-5.348096838958533,4.12590694353352,7.439368065760456,-6.774709729921412,-0.5749014023563513,5.316756780221217,-2.944397702329931,-0.5462100133393576,-0.7676002732018685,-0.07501972358925801,3.2747828372235057
152.0,-4.643918091402535,-1.3124677588864362,3.331450332516148,3.0082870466273635,-3.9574957269404494,1.0489035549780192,0.8662788035100344,0.3805319033838951,0.4021877016313442,-2.740509675422193,4.685011444097091,3.894647145491431
153.0,-0.7562139972269737,0.8671435919873609,1.623357589214236,-0.10265360574229687,-1.2287877041532669,1.290104284951859,-0.16020462712125327,-0.8818724553800996,7.430017194666819,-1.1996955641750704,1.3399725381013843,0.3872691362503571
154.0,1.2167506342650225,-9.60665321252815,-10.823403846793457,4.147532023899857,6.071718505714531,-10.242401538705192,-0.47940524204915036,-0.030937923905577702,-3.3201976289728927,-5.499562362834538,-4.9590348826238895,-6.224112972673518
155.0,12.31193797457944,-1.7396334866931173,-14.051571461272793,-5.25746480116174,13.165461961893417,-7.917699025235735,-3.41081822426833,1.498827260430418,-11.67466736868691,-6.252851929749594,-5.2711819555646215,-4.10932744716922
156.0,8.024321723160307,-0.7720145056224754,-8.796336228782835,-3.602161710351299,8.400280349248002,-4.804660541389229,-4.415040646383518,1.1850053595439358,-11.186319323892302,-8.851266075194372,-13.060744051773394,-8.750330347880531
157.0,1.915709445590764,-2.4302886690578216,-4.345998114648496,0.2758707931227202,3.1201233422551446,-3.411992566178977,0.17895523736166608,5.988957975297258,-2.8320823623219473,-0.36133622831575196,-1.1102006806290698,-2.2619524848652364
158.0,-7.383424395868943,0.3883576922822445,7.771782088151383,3.433117057496747,-7.59619286016748,4.127093417680177,6.87415519286542,-1.0614158192662793,2.8010212759940125,5.96111511404933,1.1501064172830007,2.2189298500403534
159.0,-10.579651729589564,6.533266064243792,17.112917793833596,2.0362996993131537,-13.877788448602137,11.781075353932685,0.015292249358200394,-0.9238685467530834,13.825582733536237,9.842384269966374,13.507893327486512,10.082752611433996
160.0,0.5490629880418902,21.401329811058257,20.852266823016627,-10.95906065460683,-10.118453683013591,21.153788388321402,-6.6655620929034844,-6.715969926961916,15.003376430460492,13.739050362470994,23.055580665103072,20.88046379721104
161.0,1.3853218749288447,7.5708410001312165,6.185519125202534,-4.45459202224593,-2.3779647624849414,6.898758416906807,-5.422817117704943,-8.257875935124623,-1.490512282041804,8.345462347762432,6.487720422232799,4.295060080790403
162.0,2.263606430991901,-17.118969236084432,-19.382575667076253,7.461512773898444,10.84041264136335,-18.231531838147774,7.092066817853992,0.7595307540687721,-6.449121018173935,-11.171683827776064,-17.402686313138794,-18.222086205721645
163.0,1.630096186346683,-27.422197181753557,-29.05229336810018,12.862049833138641,15.360791326808798,-28.292727726206742,6.037085338299068,9.033649892347341,-9.72708664617159,-20.801055177264537,-28.60844152532928,-24.87119266398121
164.0,6.8792650137220015,-15.628158378445063,-22.507423392167077,4.349343350546785,14.642020033272537,-19.036188608641893,3.4555457928057383,15.297690274035833,-0.9322443528767881,-9.315640668119121,-17.357175334872316,-16.21726929601736
165.0,-1.634490761587235,21.682563534752518,23.317054296339755,-10.04398884116762,-12.438198639795058,22.463338742501783,-4.4980496544570485,-2.658943293854633,-0.6536571525668542,11.897666856162557,19.163800674048815,22.478494587802917
166.0,-10.449083345356286,17.962937779693533,28.41202112504984,-3.7756818876990628,-19.46296059243759,23.240441102729307,-3.2471891001226645,-8.16770389513835,6.454049081113608,11.573117061178959,21.125913379937288,20.18194357526199
167.0,7.008656387030318,-14.858369430881258,-21.867025817911692,3.9832964402758115,14.409909056627182,-18.38001095617955,4.677704023600112,8.82582543510721,3.422594329106895,-11.27595824368803,-9.580414588310894,-12.796189193119064
168.0,7.528306001243661,15.454480749750235,7.926174748506299,-11.514172935232194,-0.14920567577896238,11.67764685120936,-10.705356135848156,-8.169154198026805,-5.687027289941105,-0.1427766896491207,9.310132213894905,10.57264571345366
169.0,-10.872621627326097,28.034322731106165,38.90694435843187,-8.526727918786758,-24.924844662464288,33.458031420538475,-7.985497222206638,-23.401455878957716,-6.983510290159442,15.230452950041625,23.82734896164131,24.927688862595737
170.0,-20.66935468440983,-3.112992521430839,17.556362162978864,11.865954679212331,-19.07797035929998,7.204942350105192,9.963730864787248,-12.447257010775118,0.2735105742218128,8.898795866156542,-1.7334170403764495,-0.2369141488718196
171.0,1.9424923806021095,-27.326798291778942,-29.269290672380656,12.667318621508288,15.553530335351175,-28.243227559306415,11.848875159362628,16.050758013329993,9.2192063061308,-6.56442922612656,-25.333197924210427,-28.352271416499896
172.0,30.51974219738009,-33.39295596595,-63.91269816332968,1.4123672337521356,47.237422826111064,-48.685470762498596,1.2212528089109966,32.238646277568236,3.105125637312468,-18.040325885057776,-30.156818015347913,-33.41868983241061
173.0,6.974101828225889,0.8623692093881559,-6.11173261883722,-3.8636585764180427,6.56426317831373,-2.587414872616293,-7.536744381011449,1.5591292892390314,-10.783243334207267,-4.8898622559566,7.976373805405295,9.655802863358247
174.0,-16.485144369375156,13.674233788651607,30.159378158027195,1.3804243595618542,-23.295148693725384,21.867301982692812,2.0927186625460896,-11.766717395886095,-4.017196445333241,1.8587845734121764,17.178009335943894,17.197894751170363
175.0,-11.457477224660046,19.270052721134135,30.727529945793993,-3.933100964710672,-21.134393098794586,25.02129595347985,-1.5268996278710092,-9.04935533153808,6.385955697065525,7.900269418770538,12.071883052905122,11.548357980451033
176.0,5.214120842473815,11.227074240963965,6.012953398489692,-8.171086922550662,-0.35193051374413997,8.637178023078228,-4.03154766642506,1.3343758562763117,12.61906012182558,7.676507814629914,-1.8570932248924237,1.655721021684231
177.0,20.527155015668082,-9.60473291562081,-30.131887931289405,-5.493136310438632,25.306260236385707,-19.85505848151114,-2.995793512853097,8.555661351210395,3.689038344764268,-4.65984723914014,-12.97729216318382,-11.681612107259573
178.0,9.558748874637514,-10.816234128873038,-20.37498300351093,0.6729721480096031,14.946395371221724,-15.663397302769393,-2.900238848747933,5.495611105204656,-4.970526582153068,-3.601281306554764,-7.692503651663719,-7.14902556771544
179.0,-13.33969973252362,-2.548720148798645,10.790979583724983,7.9074757028675595,-12.088860600858311,4.13192137668247,2.9295804269279597,-4.7699094040070635,-8.09868691559333,0.7463670498129944,4.657349613964698,0.05243140114432587
180.0,-27.697821282352525,7.078508723750868,34.776330006103336,10.271380340229005,-31.267829240082655,20.94081520098793,7.714818635676194,-15.027387291582249,-5.2058969115135305,7.832519406974114,13.102578932527681,14.36781911104088
181.0,-14.437198736989458,7.686423679209336,22.123622416198803,3.415298134774213,-18.240516498706004,14.924135368548889,5.647362717868845,-10.313207235863329,-0.008658019651897941,3.1441454086408416,10.893997566905435,8.148960446390848
182.0,12.680214779959211,5.135075415589913,-7.5451393643691524,-8.86711544785706,10.147177561482838,-1.1775930379687543,-5.5576101373890605,1.581380501479189,4.732735459202681,-0.45798193734510995,2.8867479634881597,2.616993358489479
183.0,20.25393866028164,-6.802881269452234,-27.05681992973363,-6.762017150922622,23.689524626394476,-16.97176797358856,-3.514997190155069,10.646686487999553,-1.3608243470836543,-8.121570415733885,-10.04731690828172,-6.798378876186939
184.0,22.462587130419887,-16.907778155880646,-39.37036528630024,-2.811457275764603,30.8767156233943,-28.094014026843055,-4.4558033860841455,12.901354128597529,-13.045994326900413,-18.67312573820999,-23.703051265350595,-19.696263604570188
185.0,-5.042492204533062,-1.0818681443482188,3.9606240601852285,3.109350054413536,-4.533231665123747,1.4106150058119287,2.232737335134832,4.586291108601602,3.322433417787899,3.4335042786963985,-2.9521213650172484,-2.474020811652645
186.0,-17.620576120819784,8.268981634573294,25.88955775539315,4.645935341616953,-21.699851707934705,17.05102722827027,4.343381254656563,-3.713640950293205,15.371270955455978,14.275999621711067,11.34804479525977,8.141953939584958
187.0,-15.056708307056912,3.4491406023053113,18.50584890936193,5.852843416480003,-16.7997864165766,10.945836311475068,3.1894350351378282,-9.125140234644284,9.754006866474281,7.763295962812625,6.573166226674847,0.7680499411325865
188.0,-4.7890329384419505,0.5891461225328198,5.378179060974274,2.068243692615324,-5.102139359372044,3.0253680591590317,3.061926605339938,-5.013075878930935,-1.9177103032860146,-0.17025085132630746,4.018128209182437,5.233867712765717
189.0,9.001194280560798,2.346986589101301,-6.654207691460017,-5.71023536054741,7.804146349160861,-2.116571972267323,-4.74697591616841,1.4808284134842102,-9.518474340733256,-5.604776725166141,6.941490147874601,8.217785825690191
190.0,18.387570013760726,-0.6972277449960584,-19.0847977587571,-8.80913413241243,18.70472900149878,-9.934355155217894,-7.160509708318761,5.897211844667435,-6.573249575633748,-4.087193881050766,-6.766971068201715,-3.73319732968878
191.0,0.7924772978099703,-3.1224569774491457,-3.914934275259169,1.1932456058954974,2.3936162130999907,-3.480852678441132,-0.8884532099427589,0.9550002298892463,0.6501631883056715,3.2534964702325855,-5.814314696177899,-2.225514543202046
192.0,-8.493924718649026,2.7236215682828866,11.217546286932098,2.827007369530428,-9.81941782586243,6.935536016927291,1.2130965239814422,0.4623496635309967,2.4360165653669337,6.563091587615565,1.784824794557791,-4.78228807931608
193.0,-3.414322823893516,0.6947506359652997,4.109073459859117,1.3743659611499126,-3.723415428460471,2.452794893397252,3.439814577877438,-2.756681598021368,0.9059832090942447,-3.696638844746562,0.9560430053586604,1.130388535387135
194.0,3.4641419945699345,0.6564611328590764,-2.8076808617105775,-2.048834444559103,3.1025262319344287,-1.0978300602162507,-1.041282315115489,-3.006278751712702,1.3624970549283617,-5.183414991009767,-2.3300396315800627,-1.551169966258809
195.0,0.003942270735869169,-2.066816721516461,-2.0707589922520993,1.0434271180545442,1.013835060234046,-2.0895134785747977,1.311402057978865,3.4501878235846672,-0.5774369499985339,-2.735934438017978,-2.352001937494856,-0.7965957573701219
196.0,-2.680858043563205,-2.8330401711238933,-0.15218212756053617,2.7730013575921584,-1.278348954636415,-1.5174147322624014,0.3413613142348506,-1.3817023664198778,-1.3664133902569993,0.15077501681508965,3.070103917365767,2.1453388289407473
197.0,0.3876530515003518,-2.6303414183103895,-3.0179944698107266,1.0653347613052755,1.6951631181945854,-2.7795187301109694,1.842855785071701,1.5171508122650956,-0.31766949320821203,0.9910295197735035,0.21206662281833566,1.3277202702854056
198.0,-0.02984323529659849,0.33556049437055413,0.36540372966704404,-0.12226075554750193,-0.20375106834527323,0.30394266454575947,1.3416744587646576,-1.0383118425526323,-2.7364209127703214,0.31030296458091433,-0.21042352041687407,-0.4535337223952085
199.0,-3.9490175866786354,2.2431153861452233,6.192132972823659,0.8910119582436928,-5.0015956166973075,4.237395597967121,-0.2541754093680998,-2.600314237287892,3.3528931269585307,3.0613897954727176,-0.9832882417411417,2.28149286606636
