Time(ms),I,II,III,aVR,aVL,aVF,V1,V2,V3,V4,V5,V6
-200.0,-1.9835274406398797,-1.3083887144291777,0.6751387262106632,1.5998460271806791,-1.2896895832898234,-0.3313776702660227,0.9066532041167364,2.2611135217044986,-2.220251628251334,0.8418591482001554,-3.433819219250596,3.3154967098477783
-199.0,1.1981897239332975,2.570702442577968,1.3725127186446147,-1.8388409846580513,-0.13046565541267618,1.954230458378485,0.3341610006749988,-0.44143675932954785,-0.00185019005763698,1.8320022460147922,3.9685026600437228,0.395295902300859
-198.0,-2.8470220632482124,-0.14325713590138034,2.7037649273467794,1.473480536205944,-2.7444251258061216,1.2592463376639522,-0.13643618800373003,-1.192048730012094,1.2597386635124237,-0.08210308542897382,-2.151610101284393,0.2038678017277769
-197.0,-0.6575355532199879,3.650397712519364,4.307933265739338,-1.5099978711342081,-2.5349053836043387,4.032920694551659,0.7969349375576605,-1.7752382186444815,-1.2234232367597606,0.46488243755344805,-2.947290327775523,-2.1165098569093286
-196.0,1.6666141207596454,-1.4414519570759838,-3.108066077835586,-0.12207413273781681,2.410256178398534,-2.303618059673567,0.37186387374351115,2.978910637875445,3.273663537905025,-0.6634206544052687,2.6551625143304873,-0.6992942820359369
-195.0,0.7987411301583006,0.6906747426466082,-0.10806638751158293,-0.7533925348287226,0.4743079995287751,0.25890762979458215,-1.7483247169885456,-2.2001496229628525,0.07536859683113195,-2.8548119865938197,1.0976263664783812,1.3922414091108015
-194.0,0.7221312690799837,-0.5625961341637653,-1.284727403243596,-0.08924175593569238,0.9461841950897568,-0.8806413248344124,-1.5590550797534581,-1.2143417029695067,-1.7401246309007163,-0.9986899291498221,-0.23291105533220602,-1.6795232372932993
-193.0,0.5962679293296731,-0.8583402867294954,-1.4546082160590288,0.19965006633755522,1.0507025948127644,-1.1169810605647257,1.253666967333174,2.3507965299697697,-2.854480608277044,2.0960395877561995,0.5242569306784419,2.8839710118151416
-192.0,0.14601594433763096,-3.023501011930551,-3.1695169562681347,1.4290123132476937,1.6896115408127936,-3.139959726942816,-0.18595806689978694,2.369881634942896,1.7569915583720184,1.6625102102089104,-0.92092061019773,-0.1238458673528704
-191.0,-1.2135463778068973,-1.8975133340603803,-0.6839669562535359,1.5470408587604147,-0.22498290097225299,-1.3392565930293507,0.15394321022823226,-0.6963733618619743,-0.1632403080062183,-0.7301433876109147,-1.7617650912515193,-2.590246907436298
-190.0,-2.4062334774886693,0.19981416781002603,2.6060476452985823,1.095665291280154,-2.5379758707735074,1.427575840796807,0.6689608736454866,-3.2504664664661784,0.8826404366075221,-1.1690446484792596,0.20176437223942822,0.5993222029803289
-189.0,0.6235742662712458,4.877143672114242,4.253569405842863,-2.758533540358454,-1.8427446067117421,4.584768356286118,1.0479412658184268,0.2144724526293995,0.20345975735891064,0.7391067477748196,1.0492058792057555,0.20871690016479416
-188.0,0.5877503645712324,7.502101001732655,6.91435063716131,-4.055932383526972,-3.191030065223159,7.223795837659633,1.3238471916588432,1.233646680843405,2.5224405101728458,1.6993745951681767,0.9622306664096121,1.1464945641154616
-187.0,-1.9758273699925737,0.016020184787127523,1.991847554779628,0.9643004466118068,-2.014962656350649,1.0177818544105697,2.3962124387494645,-1.0509140395420768,-0.8529476361353171,-0.06197866858411594,2.0070181883577187,2.1432756407779285
-186.0,1.529908888435258,-10.397802045608074,-11.927710934043352,4.413290823664453,6.771700321401747,-11.227107169140197,-4.113094320808936,0.7136643478517009,-2.7020445016814536,-1.9322713295991552,-0.8372153353748027,-1.874157577433206
-185.0,5.469245273277673,-5.578390900282287,-11.047636173559937,0.10861042875962501,8.297657375112317,-8.296218839466297,-6.93844856748683,-0.6283967249068374,-3.635507467661668,-2.0733021663026503,-4.532949497303918,-3.2176252759077393
-184.0,-0.3114001156763804,4.348494110600332,4.659894226276742,-1.966848917403739,-2.4475722863469045,4.52433516482686,1.569534648365205,2.2035839414567584,3.5087163590086226,2.3358123619808966,-0.32277573289698713,0.792013334745834
-183.0,-6.222253947923456,3.173495986292261,9.395749934215734,1.4962122901538701,-7.848421788138571,6.307870116772275,4.301793074699528,1.7750311339812541,2.13593649624669,0.6087018827504252,3.586769721031496,1.6875621209590308
-182.0,-0.675850904401583,0.7717934775406401,1.4476443819422027,-0.07747110001698833,-1.0990031462402925,1.1346487676065036,2.749661159828488,-3.4164976493769386,0.03607000849162745,-0.28399251203290277,-0.06027447857492163,1.0950729330531022
-181.0,3.826734739929489,-0.6080781892151681,-4.434812929144691,-1.6419015328305373,4.1734432994293815,-2.575646994091092,0.18855916753637425,-1.6588835722205997,-1.3707754627396922,-0.625451393025569,-1.8779161956387551,-3.320600750414786
-180.0,-1.238875623892488,2.507715462110513,3.7465910860029696,-0.5937232398369635,-2.5299002086868367,3.0709918569089836,1.144382118333911,0.9851360402126323,2.884673284699879,0.22012181028617153,2.380501035983684,2.11703587162077
-179.0,-1.6828215646870983,1.3917765627915932,3.074598127478679,0.1002257954846768,-2.419277324466468,2.2540268764255096,-2.4380773517474967,1.48403474599434,-1.6383100612064974,2.071434168560553,2.0455513581979425,2.9891226332149112
-178.0,3.465739602079263,-1.9938332673118246,-5.459572869391085,-0.7097752330331483,4.496188208271415,-3.7048932920436037,-3.2246958748575625,-1.9065132371894782,-3.691127826596851,-2.675556194234437,-3.081329623724379,-0.5127669213239674
-177.0,0.20516778113334344,-2.283749117508692,-2.4889168986420356,1.060262941639294,1.3761563861647077,-2.3588287321468617,-0.5997297830023545,2.143737396719983,0.9464682820825268,2.313248895251156,0.7988823241567298,-2.669714242964258
-176.0,-1.069435404241614,-3.340395618952078,-2.270960214710458,2.2243869200782598,0.6267147855380395,-2.7674838604951786,0.33161187153471516,1.639105088733777,0.9661643049886973,-3.780737034145912,-2.547037362355785,-1.9385943807490313
-175.0,-2.7259509016939183,0.41088362588480787,3.136834527578739,1.1010378907581306,-2.9072745227936654,1.7470027796528262,1.4848345963694989,-0.9386530808816201,-1.2119894379729375,2.0348236614956257,-0.2742913847806985,-0.1271093346889549
-174.0,2.168838208611334,5.08446777466672,2.9156295660554226,-3.5979643556843373,-0.42919165637378875,3.9861776589964206,1.6529989311928341,-2.780815569468486,2.939879151496926,-0.0713260335600443,1.1915753068950419,0.10983185906461838
-173.0,-1.6494284539473574,-0.5225285211223376,1.1268999328250722,1.1231616002493277,-1.4450813711709498,0.2964538472939666,1.9552773995691917,-1.0377719579610951,0.9197519641777241,-1.4311218853167074,1.0015391169537686,0.3963978476549876
-172.0,1.5748270314148771,-0.8365171835817868,-2.4113442149966464,-0.40219336051486343,2.013936442156445,-1.6293620557866948,0.4604775755680197,1.3629705460674089,2.8197029155009874,4.542189466863939,0.8331963148597391,5.124747272008286
-171.0,0.7884550502017834,-0.5083609931436152,-1.2968160433454106,-0.16635069160657578,1.0635311486730346,-0.9162756299011154,-2.736762025209184,1.6804250642170855,-4.456063670016972,-0.964570287013288,0.907023218780051,0.7557173959847816
-170.0,-1.2515833751422645,-0.35018951616523825,0.9013938589769801,0.778409046549957,-1.0534639248403044,0.24697867137645457,-0.7191514041484348,0.6278295471396124,-3.244107027409509,-1.3501294938119672,-0.9739262907523422,-2.1312424157820384
-169.0,3.6836736132256185,0.13493011279638412,-3.548743500429293,-1.8523570671454492,3.6438241676873546,-1.6745253831573712,-3.470311916381793,0.2930917675763867,-1.9140305743313621,-1.2578033895847347,-2.637378205711836,-4.213572438796154
-168.0,-1.8508053909823885,0.23882559875942477,2.0896309897417815,0.7820760978590939,-2.015085534070495,1.1806311432444598,-1.3369483834256168,-1.5375562876905395,2.9351579711584557,-1.9673161002767103,-0.667729472320524,-0.9595930069710108
-167.0,-2.6421895580405454,-0.1983793649252186,2.44381019311534,1.4708006096755657,-2.5029372127060383,1.1286809133402043,2.4447087671408494,-2.070931758629242,2.944019926273773,0.9759122117447367,1.7316286434809811,0.7326133613951409
-166.0,-1.8018947927408933,2.877219650167423,4.679114442908344,-0.5719290942418812,-3.2751087798218808,3.781057364050493,3.4300086845301894,0.8432098817626437,2.6318803441572673,2.7676948306105387,2.924859520648762,2.3791938557816534
-165.0,1.4502767772383818,0.4804278397361952,-0.9698489375021246,-1.0069078236932203,1.1760653769987208,-0.23806735398539458,4.044734444844714,1.1607120956324781,-1.1302071704375711,-1.5710090569466144,-0.6241982726023156,2.0578596575628794
-164.0,0.716361112317006,-1.594837162495732,-2.3111982748126834,0.46849125765196786,1.5555012582333785,-1.938250710427528,4.279351037875746,2.754209566613213,-0.19950971305058507,4.030659858579137,-0.9450853702448436,2.406996752547297
-163.0,2.656847324871669,-1.889147215119933,-4.545994539991567,-0.36232013459100215,3.558812038281157,-3.272389025846791,-3.386803074733609,-0.7419917931917901,-3.590779964860397,-0.3188034335571186,1.3250173966356393,-2.2788454136345946
-162.0,-0.020026404793799024,-4.160845749929301,-4.140819345135494,2.105559071109872,2.0902268765830767,-4.119644390404642,-10.143872229471286,-3.229277317565078,-2.584463028835615,-4.7501913740441335,-4.5832436050769765,-5.362738541646902
-161.0,-1.351047098131933,0.5460988945391638,1.8971459926710765,0.33495245578584265,-1.5995515623742258,1.1778233979466746,-7.662612359569048,-0.760798209170104,-0.4612683804050548,-1.229238708863725,-1.59349656989608,0.37936306225752503
-160.0,-2.426586323584258,1.174889597063352,3.601475920647569,0.6368014227055163,-2.992728510650118,2.4235456394226436,4.715312573922781,0.9141003395964609,4.620575858395486,0.5728355561742899,3.6779873144070803,1.6644722836607948
-159.0,4.0895704425962265,4.890353789160904,0.8007833465646383,-4.4749538391241455,1.585792536190998,2.800755156634398,5.817682066394433,1.2941722569283192,2.672290996806038,2.5590026718994787,-0.26813235110710143,-0.07508116640317941
-158.0,-2.5192902972247024,0.6597702521400906,3.1790605493647663,0.9530527377061778,-2.8287527672327575,1.952066593390278,7.182702988440857,-0.2753747637708194,-2.238654015254279,-0.28130886321877635,1.260043172237106,0.6509255082821778
-157.0,0.38644231702626686,1.03361107018011,0.6471687531538426,-0.6754216113569204,-0.1090617071782225,0.8732797067582888,3.0467795445161854,-0.08691884717881554,-0.700614546731201,1.3207843607469671,1.3425627497142916,1.9467175651924804
-156.0,1.2117923437547922,-0.21254273878485225,-1.4243350825396228,-0.5315697084822801,1.2616267980268447,-0.7837312348096516,-2.4875306704068283,1.5500065427727803,1.58539564303678,0.6321813837875849,2.4646941155222923,2.507989707929218
-155.0,0.4778183168369752,-5.276699846453818,-5.754518163290754,2.3781957711308714,3.139747695511394,-5.557537275021562,-6.675974747760971,-0.7929115584874165,-1.0059860354515282,-1.7684940686387955,-2.154733453885521,-1.1917218299980672
-154.0,-2.225895539003605,1.8631321713374738,4.089027710341135,0.16761869458922507,-3.131744629531051,2.9346834484864814,-6.015194070973319,1.2717434598943902,-0.5501001145458729,0.31734360106677506,-2.4477953712243066,-0.31739521054527864
-153.0,-1.1642559583231111,-1.5634174744632947,-0.39916151614013023,1.3539219321900346,-0.4318425759971906,-0.9463770619733605,0.3368680351085924,-0.5509161633839998,-1.7998385966378343,-2.344229459886865,-2.7086764330440376,-5.360957021890861
-152.0,-1.3725427599804336,0.7783945985575036,2.1509373585379614,0.28824138690351997,-1.726587396293949,1.4153248167922166,5.753454022448981,-2.9886402245793,0.21814927551697127,0.7390524732877619,-1.6769848024007252,-2.258889471338504
-151.0,-0.5109857260850758,0.23322122972602333,0.7442069558110735,0.20862515420976002,-0.5851397336603239,0.5108952320983036,2.061687023694632,-3.302125640979067,-0.5960757903839479,-0.5309811482285312,1.1351317301456296,1.7897787502187041
-150.0,-0.05873128686828477,-4.308677203849084,-4.249945916980865,2.174552740731844,2.0671455707453608,-4.2638910919403665,-0.7430467353784864,2.422262364993144,1.8435691816353144,2.506137044451215,3.437206613586778,2.814721413024138
-149.0,4.445632047014897,2.138113911504706,-2.3075181355102883,-3.300651900550506,3.3550601657111705,-0.07348502743856034,0.9781042139978819,3.4481372391325746,2.591909010640427,-0.8793280630047553,3.0080409955103824,3.0984699462922594
-148.0,6.785470029680244,8.168626583980767,1.3831565543004563,-7.48525036787428,2.6845650579146683,4.78659158237159,0.2103469894551871,3.9157363561637624,-0.038297598587167414,4.065618277955158,3.429191711700464,3.6802771633089293
-147.0,5.418124197412956,0.1716540330308236,-5.246470164382131,-2.8029501701278914,5.318207349689871,-2.523750049389973,-2.8952077262169316,0.2846796065030437,-0.6937467005743917,-2.252008918301624,-2.5966455495283682,-0.5231977449251881
-146.0,-6.5075693811494535,-1.425481528024502,5.082087853125001,3.95777872630959,-5.729689393423267,1.768315455796227,0.4514335317455047,-3.6567865953603835,-1.7403898996969214,-2.531291664763687,-3.832117804665234,-6.592489779138267
-145.0,-13.221295447136445,-7.725649660274423,5.495645786862072,10.46338741059586,-9.372746793621772,-1.0907932221772187,-2.670445534195645,-5.0344691040611185,-3.284944993940561,-5.216869879632185,-4.366307389632352,-3.76642281542787
-144.0,-6.249529567311045,-0.7454468988395964,5.504082668471464,3.4860331171470227,-5.891949654910249,2.407760692259365,0.3694277141775494,-3.5278702975627665,-0.15679544583369953,1.4912707819386921,-3.0326934088220883,-0.5828671898335624
-143.0,3.562083235061365,0.19863001818215076,-3.3634532168792384,-1.813859880633208,3.447270148102215,-1.6304703734866335,3.6252913214517997,4.785323873132534,5.779538936744435,8.311875142494335,6.897467537595238,2.8320108673510074
-142.0,8.231421388497823,3.510451848737835,-4.720969539760041,-5.8833416843392055,6.461180618774511,-0.5740825225907193,3.0100088392919018,4.51147463289141,-2.9485138584673707,-1.348339650161555,2.3176142819187344,2.9844588679887876
-141.0,6.035584567180652,3.621216839578296,-2.4143677276023925,-4.840973295523689,4.289846427111233,0.5556565142476053,-1.5163429574865464,3.5033901767112865,3.6664508614714175,0.519890690127145,2.894800561066428,5.1267496084019335
-140.0,0.9557287530199226,-2.604513721676267,-3.560242474696198,0.8104874795747796,2.245145282277749,-3.0507919829728105,-3.3988293047063403,-4.075462206519143,-1.5027657354223882,-1.1886871869286317,-1.4908520247561208,-3.018901136338509
-139.0,0.07723757456659297,0.7408847023104359,0.663647127743858,-0.4265475097760253,-0.306242676323617,0.736449207668602,-1.8752755121239473,-2.625942158148034,-3.1674885548759066,-4.774386131487104,-6.198083853431291,-3.419729847599628
-138.0,-4.374088651502811,-0.22974598706587296,4.1443426644369445,2.3568751397912844,-4.274781267691462,1.9176090556785175,-0.20428908537276524,-2.7679650203598314,-1.229985136978863,-2.05120302529604,-0.9186770893290941,-3.2866735653063452
-137.0,-3.9905025891914785,-1.113941307890157,2.8765612813013126,2.519839667920251,-3.454467216835286,0.9266319749982717,3.7756749648895385,4.414807135881557,3.5889102513580875,3.8884137176694757,3.28845160738167,3.7490393074392814
-136.0,0.22830697836411407,-1.5085794855721633,-1.736886463936282,0.5982330728546179,1.0326019385419842,-1.6503791305877538,-0.04843814697597093,2.3843623499582294,2.849837207915232,4.6359654945222575,3.6489609546377495,4.4778698930798795
-135.0,1.8605779773827527,-0.05029353689680538,-1.9108715142795378,-0.8767997990940737,1.848016120823834,-1.0051276590221705,-2.001497213577367,-2.473367084162649,-3.0378378495741973,-2.3954946798739023,-0.11380744905352613,-2.79375543356753
-134.0,0.5204493534908645,3.916521726639686,3.396072373148849,-2.1956884220414765,-1.4050624778850023,3.7091817656387733,1.9792867574474913,-3.5176435860493656,-1.4665064867810087,-0.6039123761391139,-0.038552660309316866,0.02037131646298651
-133.0,1.8907612684540023,1.4179070732603845,-0.4728541951935986,-1.632881526031266,1.1300450518738732,0.44033569351578594,0.4236232307596674,2.8379469457155526,1.0754779468452804,0.3110370313517493,-2.3419807385817215,-2.842236307355269
-132.0,-4.824843760761716,-1.837160116963066,2.987683643798669,3.276615944538677,-3.881161581351308,0.5326780450016779,3.5486296540149094,-0.22323318822909788,-0.1745521409115176,0.31658764855851557,-2.898378894334229,-1.245330590024269
-131.0,-0.5009335734408371,-3.1993733963038338,-2.698439822862971,1.880507579398859,1.1262115636246781,-2.9248632969397304,-2.7988992558830286,-0.3563037032319561,-1.3289861060532453,-3.0241886723525218,-1.520328814541407,-0.26509045126812836
-130.0,5.391375383243747,-3.215944495246964,-8.607319878490681,-1.0502955976957695,7.032585427204084,-5.898359897432752,-5.066608871916622,0.10273220176115022,-0.7652038567027033,-1.300163409105823,-0.2748910221661397,3.834890250319402
-129.0,-1.5275836778461382,-0.3314383300341318,1.1961453478120245,0.894203864224625,-1.3999198310076024,0.43901744285552136,-0.9934613419262883,3.622563785997804,2.3684293285038818,2.6678756787445383,3.2952171520953932,0.33465674775959586
-128.0,-0.30212875430199176,3.7661866561322244,4.068315410434232,-1.763802363719647,-2.216111809120729,3.923022845727114,-0.7362659279625288,-1.279649050314566,-0.44611219891254605,-0.21099894027045973,1.0028501440538844,-0.30417933224357774
-127.0,0.5942649799050783,2.364386934631062,1.770121954725988,-1.510282275119196,-0.6133230438530144,2.0776077123511945,2.6153116194849364,-3.161637921185778,1.3334037869738435,1.6932881721002682,4.072999162644857,-0.8465614383545286
-126.0,1.394103409072437,0.7062298216218807,-0.6878735874505582,-1.003279950490316,1.097833926736104,0.02768434161112654,5.293169321594423,0.730409006721866,1.5234331692522973,0.9613222048915344,0.5299786031263836,1.44146246205023
-125.0,-2.290280664429753,5.190777177559738,7.481057841989468,-1.4043643037507552,-4.9055158560450165,6.2846026133428845,1.1981847638620597,-0.2218895578027274,-1.1828880429619812,-1.975553828175502,-3.181538678287783,-0.7694681285372036
-124.0,0.61620416438726,-3.6695004594775176,-4.285704623864813,1.4941205302646743,2.432642820440529,-3.943054469933741,0.4321203838177057,0.5650704650234082,-2.509533887167497,-0.7016813374218308,-2.5239289211749103,-2.6062633394232306
-123.0,-2.808739901309314,-6.038021442807704,-3.229281541498427,4.393170389717124,0.2723299053833246,-4.673962748514881,-1.96444496202945,0.5708534360335581,0.5727727123425908,2.759519787854639,-0.5057027878452103,2.677921878920522
-122.0,1.5843336898266211,-1.7684309441325388,-3.352764633959187,0.1445653019269515,2.453508434395088,-2.6000218711156893,-5.6763462856822,1.2319753338894563,1.274470343712507,-1.178363235136095,-0.4387062860106604,0.9258510350196724
-121.0,-0.11504522412590013,2.513690259269433,2.628735483395321,-1.2209741776425909,-1.3858983108397398,2.6099469551828385,-0.8318246444061388,-0.4087914351686025,-1.049454680885058,-0.594231759433376,2.1705140686592737,-0.35264705646629346
-120.0,2.2092452435085526,2.6102732807445417,0.4010280372359919,-2.4275979192637216,0.8897207211653886,1.5442035457833767,0.6127674281397513,-1.1388210397097338,0.058420877955868214,-0.4167249721604069,-0.07490629068637844,-2.034787597311992
-119.0,-0.6775263557470861,0.3497950307492015,1.0273213864962965,0.14782515707249466,-0.8690329529227792,0.7285372089306477,2.9943196152830027,1.038631681144536,0.17399315500439205,-0.8140244042345232,-0.38699425590158665,-2.202660117509603
-118.0,-1.9872103448465257,0.21478747113529773,2.2019978159818407,0.9479281757238418,-2.115104151819827,1.1725994350034372,1.1908551127751892,-3.172110267361042,-2.216194301545266,-2.576468561563581,-2.1519635245952804,-0.9134404884120029
-117.0,0.08964454576756409,-1.9056930577246587,-1.9953376034921995,0.8870863292351788,1.0957521481573493,-1.9828491407155397,1.305890381563624,-0.6829594861327295,-1.2488912354839041,-1.8565020472123197,-0.7779301682234945,1.5968775829902073
-116.0,-0.4967048940639141,-2.073258175911804,-1.5765532818478663,1.2578108680857218,0.5876304362748862,-1.854599158442803,-1.299813720577059,0.4401420722538841,2.6505618279942618,6.064433651489112,3.9075288906783983,5.585902394596879
-115.0,2.3127045608351944,1.1004587196806177,-1.212245841154569,-1.7411216712316384,1.7255283241700565,-0.005789736901322451,-0.7686479060616973,3.1738689392523227,4.865753525504788,3.7932160874117296,3.3265377430769405,2.1163548636875262
-114.0,2.736846360846229,4.202981294343994,1.4661349334977545,-3.4327450508965733,0.5922254778918019,2.8054233829209965,-0.8887103160428035,3.3512399243776825,-0.9402944714502186,0.09850551723196821,-0.32601519592697925,-1.8947176635945626
-113.0,-1.2145210985660948,-2.9003714526513775,-1.6858503540853131,2.0890760456046866,0.2652040211756652,-2.244800621516031,-1.521307753672679,0.36316891125118644,-0.8875475385213324,-1.7105833001173698,0.018622495183075016,-2.9421877776636514
-112.0,-0.24540481081094478,2.1577456361761307,2.4031504469870475,-0.9282195192916444,-1.3784519443030403,2.2488743751125004,0.30874838623412226,-3.3890295943707662,-0.2717048088492897,-2.5362535426881623,-5.588181508171824,-4.396443419032993
-111.0,-2.4699205291517323,1.8548606810339967,4.324781210185723,0.2543492895530984,-3.375187245635078,3.0581549754618247,3.002624802880972,-1.0808846018419889,-2.111239832674392,-3.992667716151129,-2.3645930279281275,-0.46501480046003696
-110.0,-1.1704966062160014,-2.21742036406524,-1.046923757849227,1.717415330935844,-0.038361536271776187,-1.5836834647710862,1.7942537695001506,-3.3533934773715592,-2.406561509287494,1.3544653420179058,1.5811920835005977,1.9539142619375556
-109.0,-3.1021985735776596,-4.211252309905008,-1.1090537363273365,3.598839604406311,-0.9682751372926881,-2.687680915881942,-0.6841240078704971,0.37559970728285297,-1.5424490976428813,-1.3001726270256668,-0.8154661261529308,2.425370649796502
-108.0,0.1232131572109848,-1.3644721469570318,-1.4876853041680187,0.6385038362262332,0.8405452799880437,-1.3716320250795964,-1.5980462747723083,1.436609371814379,2.7859721955660097,4.497807278103512,6.216241237668951,3.3991891019938447
-107.0,4.974974900535254,-0.012886557576840652,-4.987861458112101,-2.465617679566999,4.943580332982762,-2.522228258574656,-1.93919187526025,1.4330374711600764,1.7612337094233959,1.7732065269558297,0.19441385610062367,0.3482311137797329
-106.0,6.403736707484989,5.07544908461131,-1.3282876228736862,-5.724763727360031,3.830044475533763,1.8522512633838941,-2.702526677331911,2.351130938174922,0.802270114137489,-2.036759729395811,-1.9158699523929974,-3.776762502840225
-105.0,-2.0969797868429807,-2.241583977102087,-0.1446041902591143,2.1863622851340745,-1.015880025019053,-1.2162252424846363,1.3945394821254609,0.9411847778604254,0.20722468688249474,-0.20366246732120347,-0.7591769800208051,-2.462303099079251
-104.0,-4.382156125541864,2.878505847219717,7.260661972761557,0.6954329321727879,-5.791184991637311,5.042993164078671,1.9784078346223506,-2.8273690267363913,-0.8370106616432895,-2.4894907477889956,-3.39616178981107,-0.8728365275851353
-103.0,-2.5003043070467053,0.6507796928510121,3.1510839998976947,0.954620249482034,-2.806954029571149,1.9494586680059565,2.8807095645014096,-1.0338327362378528,-0.49293023658348223,1.5481755548156886,2.0823737572348664,2.1109049685011776
-102.0,-0.18312294636792759,1.028878397907144,1.2120013442750601,-0.3849140644637201,-0.689522345326858,1.1667246551719892,-0.286763453574548,-0.9248583581168315,0.8796293818512865,0.35369190446838383,2.3175424404523643,0.6276948410251509
-101.0,-1.0296220317893137,-0.5692824685886246,0.4603395632007084,0.765358614490007,-0.7437375858983288,-0.08692542953501442,0.45876903150029347,0.46653536997364364,-1.2607007412686917,2.9139974127573995,0.27401570240960627,3.8404848239289664
-100.0,5.046831240507537,0.11103866592513056,-4.935792574582358,-2.609593493492258,4.991449973150713,-2.4427602687418144,-2.6843586305511202,0.565020446066817,0.34137108948799266,-1.999011030662832,-1.4324193629703306,-0.1413850173645419
-99.0,1.769751650303155,-4.392182888613385,-6.161934538916489,1.3584058331985,3.970578031242399,-5.2256022204533075,-1.5535900946329038,1.1480449218331978,0.8606822892792794,0.537416568663758,1.7166142236273831,-0.8962641299001965
-98.0,-1.7311523007541638,-3.4714926110784994,-1.7403403103243167,2.5646150091408755,0.018017719347723116,-2.6304047832907,1.7779778502294792,1.2347356419203952,-0.9707638818351643,-2.1927158538456952,-1.4348061180562741,-2.281124166850147
-97.0,-2.913449142109845,0.2579775434128476,3.1714266855226794,1.3617148965024635,-3.0976104899452075,1.6918088866065533,0.4361348471274859,1.185775621633722,-0.3233996583962616,-0.7121406752802765,-2.0660388108913623,-4.206954377217115
-96.0,0.4793959752457133,2.355475524788632,1.8760795495428861,-1.4708937004283238,-0.6659811742343802,2.0931458808481738,-0.35775683314310597,-2.2953244394264862,-0.4552689900512246,0.2871076841273758,-1.7564830179619295,0.5698919738516266
-95.0,-3.7623698898475664,3.8966959628224935,7.659065852670016,-0.04851041615665186,-5.673213431950815,5.833624957669729,1.291626870674172,-2.871206177754635,-0.1565689757148586,1.75364835344112,2.9176994242817145,2.950513671625031
-94.0,4.90189116107193,-0.9084381920178215,-5.810329353089791,-1.9803981087031466,5.315257508280011,-3.382280753250162,-2.042835644774997,-0.274955844085071,-1.8582167762742912,-2.561799404513504,1.08900095756592,3.0596932473510137
-93.0,4.741423000383685,1.3837704024219533,-3.3576525979617657,-3.0431739736680323,4.004687485112521,-1.0083239304142697,-3.681078358447206,-0.3120164732882109,1.0327168983581414,0.5660713890957405,-1.6295635531636488,-2.644409728444937
-92.0,-3.2346586284893206,-0.42796758870331386,2.8066910397859957,1.8587756782696165,-2.993408147343299,1.2498342593083887,1.6605060476391333,2.4101179764027894,5.78236212644429,3.1082952202656142,3.2334166603893775,0.5749838848281301
-91.0,-3.4599672689365026,2.567372442619611,6.027339711556145,0.40612615063803714,-4.723057380083702,4.2830114223062825,5.02072717709555,2.9849372112599104,2.03319332223015,2.186371933775545,1.4661246425666579,1.1132454523040298
-90.0,0.3724180908631245,-2.221779333569533,-2.5941974244325943,0.8961524053087075,1.4997609496802764,-2.4190609977382027,1.8556327970569555,1.2778676669172215,-4.834480290765599,-0.39376610266287637,-3.3179887613106294,-0.06362991180080713
-89.0,1.7404061052001771,-5.252207725449363,-6.9926138306494625,1.7371872680603382,4.383068824323798,-6.1324874240923775,-2.6325153937602113,-1.5211492134281925,-3.185233113780142,-6.89180437876793,-3.784851398852219,-3.2286084603701766
-88.0,-1.910085623227685,-0.8409665768097692,1.0691190464179763,1.4419907888022288,-1.5469566181632752,0.10167905852921777,-1.3193277591780765,-2.6553072270109794,-1.285300048236953,2.143547115788953,0.9559148455720781,1.0443113468356675
-87.0,0.7501915730815523,2.9928585735131703,2.242667000431657,-1.8813573060262607,-0.7159477499766516,2.59972286016442,-0.013412320117693666,-0.9975109797090247,1.9353546545337754,1.5025702099706661,4.291727432068208,2.6570883589107295
-86.0,1.9919777635602722,1.3784073049545738,-0.6135704586056996,-1.6962633000434422,1.2657786952646002,0.4351982032569994,-2.380233373007704,-2.6433517667860915,2.7282968118443542,-0.35504602281512165,-1.269669309490104,-0.5429539232670165
-85.0,0.04866852015461942,2.4627642511313868,2.4140957309767357,-1.2707104912520522,-1.1288621587141887,2.403914252035525,1.7852981013857545,0.9805869149982576,-1.0626569572585733,2.962836439711076,2.0404568377830805,-0.029505771530482755
-84.0,-1.3593313736594743,-0.6738125825395491,0.6855187911198621,0.9965286117347956,-1.0366766100530431,0.04266596238442433,-0.4452074427656515,3.582340251449908,-0.3115708168140159,-2.8069994249762225,-3.537148555042811,-2.226506223993675
-83.0,2.1109535272262083,0.6838025409883931,-1.42715098623788,-1.3430354163217257,1.762094531589666,-0.4185871016636813,-0.769931056377404,1.5203606011072484,0.7474892024377572,-0.46162240711611097,2.2794320955962615,-1.40525363697405
-82.0,-3.4475958674699516,-2.9522659715446347,0.4953298959252686,3.1734523048448584,-1.9758218388737132,-1.1985265864203998,0.1713598341483128,-0.1619839060702688,-1.6783020461048292,-2.3115145902424934,-3.2933650485746426,-0.5141794873718663
-81.0,-1.8244606932386314,-5.072910280672299,-3.2484495874336976,3.423350579192425,0.705114081003521,-4.129648287193926,2.9372923907810735,-1.6433829329731213,-1.3814596922983502,0.791967207491922,-2.9749940097837495,0.06146179656786188
-80.0,0.05842786220888385,-0.36512203251873965,-0.42354989472761284,0.21103094732969052,0.22712486250290292,-0.43864943052905425,0.7055644517425874,0.20343579994642413,3.315116238122786,1.2529768143997162,3.48681121241502,3.6224719400954557
-79.0,5.33402861916309,5.272259628810396,-0.06176899035262265,-5.317960828834779,2.7529632685359298,2.565667617875982,-0.5928517681782459,-0.4034254398640469,0.8695811776907957,2.9857689531600204,2.988778631796282,2.383629609959374
-78.0,1.626919521389888,3.892014834483817,2.265095313094047,-2.767952403976738,-0.3532035238533009,3.1227320132226617,-1.7737880351201754,-0.5900386043201672,0.2300024627315459,0.8790831829401249,2.3706021155803154,1.6731095119197397
-77.0,-1.7876268749713338,3.0481950428069458,4.835821917778357,-0.6344104079594868,-3.3545466722437993,3.9904294634288715,-0.7243789011235886,0.21624772234990752,-2.1960999055592523,-0.7672490737344083,-2.005308265631471,-4.1196388322611375
-76.0,-1.655300896273243,-2.0634184684684613,-0.4081175721951782,1.8561125974289219,-0.5927845681440078,-1.263532995643416,-0.8348462836070605,-0.14668534416620313,1.3178258298123071,-1.3889958263126265,1.3329500318276217,-0.22733645616766163
-75.0,-0.33891813694005113,-4.054863924378323,-3.7159457874382857,2.190612902347997,1.7186067634649287,-3.912884426074906,1.4950234610501398,-1.5284356875355114,-3.490246200131888,-2.614857104720885,-3.7284324054811604,-4.106457749808384
-74.0,-2.1157812977969113,-3.782241421102116,-1.6664601233052878,2.9365645974589976,-0.19147483813455446,-2.7537897609619133,0.8128136680241203,3.240677543541007,0.7356277178508359,-1.0646553146658566,-3.0844348401871238,2.095777967845734
-73.0,-3.861817363764758,-2.473736001445733,1.3880813623189532,3.147648551644373,-2.6655351073662077,-0.49691208396503406,1.9911133902165596,-0.34619179723808235,1.2423459431380486,2.102282382860725,1.7088131853336908,1.182655571941008
-72.0,3.9508608223161295,0.9821971767870069,-2.9686636455291824,-2.415334643517161,3.4234688718752793,-1.0295665010475508,-1.8178643059538269,0.16656723771100929,2.2339168694932234,1.0201282748015346,1.4882525328936234,0.09319080069488783
-71.0,6.120684825565439,6.317748184253146,0.19706335868766456,-6.174036549879015,3.0056334015437236,3.297517563093694,-2.5576937799594845,-2.1263957665014557,-1.6329540382495515,-0.45201518907444616,-1.364859613835803,-0.7344625076252007
-70.0,-0.8443980020900121,2.7419657800954136,3.586363782185383,-0.9867802538893162,-2.2529347864271054,3.2038795844235857,-1.056169452461708,-0.7450500291078964,-1.034292127979875,2.219215339828025,2.7099217803186684,2.9421110414239524
-69.0,0.6880627969867984,-0.9618481878452545,-1.6499109848320694,0.09547151805835008,1.204048674996895,-1.3434658191967082,1.5978934868701327,0.5295972853456069,1.217955786593662,-2.514572663306165,0.7274286314715204,-1.0607643497152894
-68.0,-2.919753051933229,-0.5855297081192026,2.3342233438140525,1.7868483632553809,-2.6784502848841996,0.8394589468867149,2.4039703603757014,2.2690983240707414,-1.655149151538476,-1.847006691861118,-0.5570373691722335,-1.7019537224473333
-67.0,-3.7095364149918675,-4.328707957752399,-0.6191715427604464,3.971567832749908,-1.524684566124486,-2.5055765228126767,-0.8038014895758796,-0.2444221703100602,0.21251228256881555,1.508355509574949,-1.9291704076128895,-0.9515394984737341
-66.0,-1.8114367285111768,-0.426403038057082,1.3850336904542275,1.1477287974664605,-1.5810727164712273,0.5296869532633821,-0.6021263912936936,0.6077860225598903,1.9713745173529849,3.316208413324554,0.2600932272284471,2.437243306943434
-65.0,-1.821404600696178,-0.7144562743388838,1.1069483263573987,1.2959092592104797,-1.4454702131032546,0.2494191715925378,2.36542044791189,-1.186225545701354,2.9500966086671827,-2.0290631794363354,-0.5269126599745035,0.65740575366107
-64.0,5.532140145377247,1.4247908167999892,-4.107349328577226,-3.5277290422537972,4.8447365873202255,-1.3650375342393908,-0.2570236916724231,-0.3341467811126617,-4.668255183308129,-0.3796192770661937,2.7989461940346576,0.6562494984513559
-63.0,6.081181911982736,2.0319862110134723,-4.049195700969328,-4.023163601816826,5.020872545665226,-1.0319882332946375,-1.1438407512488789,0.44916484102830323,-1.4751230448260593,1.2615364789362824,-0.19772398040973727,-2.28426967351999
-62.0,1.6602041734301944,1.945069192647836,0.2848650192175084,-1.763719786092753,0.6535987152000842,1.0905345526368135,-1.282162408417232,-0.3726867302165692,1.3977186980030116,-2.363402615967606,-1.52655654276216,-1.9784917566852238
-61.0,-3.094557894984167,0.004051684329632432,3.0986095793136483,1.5108215172674824,-3.0430875376839683,1.5252588315782885,-2.952547542205067,-2.0305124411628954,0.25119491763815144,-1.6449812140337736,-2.1325986652869724,-0.2051151346515263
-60.0,-4.372816332298839,-0.13550361021196752,4.237312722086814,2.2231485450768957,-4.324350759604145,2.1028444404427638,4.648593251562065,1.062582099700073,1.802214461371353,2.7176468177560054,1.5244958084080844,3.6892466349911306
-59.0,-3.8727177431827857,-3.611687483960815,0.26103025922202416,3.790024917729569,-2.083367780816439,-1.7005301091211182,-2.638871489635335,1.9496435272081578,-0.6156493118973958,1.60345831599049,1.7295686010224256,1.5839538314346058
-58.0,-1.574122478893033,-0.31318117673748835,1.2609413021556841,0.9092687950125085,-1.4337547722056931,0.531896437876998,1.688702374952538,-0.1781297828756232,1.136683125786354,-0.34040056710523037,-0.9734910836882529,-2.809158756966213
-57.0,1.5880147770695123,-1.6719134888630922,-3.259928265932481,0.0017143991551585858,2.4854657402224087,-2.4802976176980036,0.8609964183034025,-1.1282993632780065,-1.9522213026434914,-1.2515917603163254,-0.6455282321231333,-1.0444974750044522
-56.0,6.587920107082633,2.1678692687966197,-4.420050838285995,-4.3454957546967945,5.485631224352947,-1.1345281519918922,0.13751270681056016,0.5509133445709602,-0.10866115383053598,-2.5359795327843413,-0.7891891770290573,0.68365206978145
-55.0,2.4197219738445273,3.214017611116773,0.7942956372721424,-2.7885311113232754,0.7940014287346981,1.998426397435844,-2.6826171405220567,-0.5271250801168231,-2.087474116054146,0.8778551212424255,1.2112395008825263,-2.2458417539291977
-54.0,-1.764029158199464,-2.7464139269515373,-0.9823847687522103,2.2831540724328017,-0.40898502001090686,-1.872825823875705,0.518938849996337,0.2783486007347758,0.8801124590125201,1.2830536345974508,0.5146418010535092,2.8406352174130753
-53.0,-2.691508082484193,-1.1271351775904583,1.5643729048936725,1.8620638277105996,-2.066338034068723,0.20153227760341552,0.7687355741803936,1.7527484543719303,0.7060401721934431,0.6613550862890871,0.0808293135578152,0.5131240946700595
-52.0,-3.247479648989568,0.7562627415736317,4.003742390563222,1.2837052377876204,-3.6420981332866944,2.3496964902647774,2.4019955513751907,-0.30467275995729753,3.5752479031481914,0.3996253228613735,-0.03791980262737889,0.7630922075441604
-51.0,2.251800483812106,4.535226332194545,2.2834258483825294,-3.426091581158288,-0.03281496350088764,3.4429217704932373,0.24327037173427535,-2.6470045488905733,0.4610869401359381,1.2809761524443788,0.953309253755221,0.5836038962945256
-50.0,1.6641147486723362,0.9746445866981873,-0.6894701619740742,-1.3439064411676278,1.1577279846667985,0.16308847544933958,-3.5022902502351316,-0.21903284943967272,-3.5641775188766585,0.3759432851113069,-1.1874058654573625,-0.7027692836597856
-49.0,0.3377864541090182,-4.898925012322001,-5.236711466430967,2.263140721891415,2.7649407343673436,-5.056065468301484,-0.774357502644573,0.9331048855389814,1.437958423886849,-1.9457302052546541,-0.09320933543543197,-3.2614270392678115
-48.0,-0.9195982441572578,-1.5528983546670416,-0.6333001105097629,1.3033687216769474,-0.09013326959576062,-1.0847902518216177,0.014040184725314209,-0.45941485373931523,-4.30555646125563,-3.1831439287067185,-3.0056936853949656,-1.330383400762766
-47.0,-0.9443994770600349,-0.6104321272685294,0.33396734979153564,0.7701783230988614,-0.667385791419925,-0.1288181506490642,2.488487137381532,0.31753048366246994,2.3726419326398425,-0.21782336093920174,1.5170149704537392,1.8337649366659279
-46.0,-0.8852627970308459,0.520754555713689,1.4060173527445596,0.17777122754838248,-1.095930116126576,0.8978767408522698,0.869116826245668,2.2488682859990377,-0.1533766573523877,1.394228065071196,2.1438065535669804,2.4256105767219567
-45.0,0.9893672287667242,1.445737840872665,0.45637061210592744,-1.221335332424767,0.23808706594126328,0.9689133713721524,-1.4751902859444057,0.6031596585348038,0.8686183884516976,2.3246686531773686,-0.16492965235331059,0.436822338405336
-44.0,1.7094919629036363,2.314462820193879,0.6049708572901942,-2.0174479507137586,0.5250005288278972,1.4817449235149596,0.08047588427505514,-1.723840559070795,0.3685344892889515,0.5646810996324616,-1.3477952194142064,-1.3444123397062366
-43.0,-0.9123722057443353,-1.9495204692208283,-1.0371482634765885,1.4215249513569588,0.11424700412420129,-1.5466153673010834,0.23312879383289695,-1.5722298784629158,1.7046990745788018,0.016514141423257245,2.1045881393689223,1.385100777678459
-42.0,-0.4261800521672951,0.32694370474227286,0.7531237569094895,0.034749044434242204,-0.6180544288298384,0.5686327475232915,-0.9663859711348992,-0.030147898984483446,-0.8311007188681523,-0.5560736538565305,-0.8657043237146814,-1.9238063509005139
-41.0,0.4550818063408357,0.5238556208962613,0.06877381455539651,-0.5100662049688596,0.16095790419098316,0.328269597662825,-1.4236682105442435,2.652860713144218,0.8553750093919589,-1.048298664588168,0.370961109603504,-1.5219812706235314
-40.0,0.5774300016001117,0.45116341896527234,-0.12626658263482976,-0.4610159721796053,0.39285945097893293,0.1981246874235208,2.6686793985001223,-1.2569442220849918,-3.5664897715567077,-1.0704219094304082,-0.8834315709052332,1.160174842238948
-39.0,-0.5793372008821962,-0.5267408780591706,0.0525963228230617,0.6027862917718217,-0.35965520775956483,-0.2764337887333308,0.11231995791206562,-0.8293446555304517,0.20474175513438153,0.8833924394847286,-1.364930709291425,2.0225904879993135
-38.0,-1.1501927913811418,-1.0279995873988907,0.1221932039823132,1.057522249512355,-0.6058099931834311,-0.48909580901594396,-1.7680274801857112,-0.9775151689973566,-0.05629484483210345,1.0015123327615043,0.6759587944158907,-0.5148806330879132
-37.0,-0.34079699627078935,-1.0697890925687723,-0.7289920962979088,0.6712832263688264,0.22243851100810358,-0.9331379633732172,1.1409738594603298,0.18949748153868373,0.3521879725415701,-1.9671509261293867,-2.2542198793948156,-1.897473825293127
-36.0,0.14753284669871672,-0.4660820062218404,-0.613614852920528,0.12248024465131035,0.3312588881949294,-0.49274724312927953,2.99654158775217,2.1851084683795863,2.691261340372998,3.0431229530125674,4.254072888822523,1.7934055108512401
-35.0,0.9785011407344739,2.117196870961513,1.138695730227044,-1.508553654014929,-0.04702479826785849,1.6774362503853932,-0.9205227084253523,0.9960843630306035,-0.6307994203160245,-1.387953274753178,0.5539454000017765,-0.9560300569055326
-34.0,2.1666044701587683,2.058165979402465,-0.10843849075636658,-2.1529843421415267,1.175291662038487,0.9486446844039758,-1.8498217698107626,-1.4934844053893925,0.3647996321695441,-0.06394272160802472,-0.3057478234289286,1.505991277391081
-33.0,1.815477575733961,1.2111339462463024,-0.6043436294877016,-1.4731877491374026,1.1728996199015826,0.2806191708271635,-3.6355158952597666,-0.9602059033059982,-3.0032781277817673,-2.5089809600056094,-2.1851078752053854,-0.7252954333841551
-32.0,-4.0112576265748485,-4.839553507065164,-0.8282958804903302,4.471418475137332,-1.626581729909158,-2.8536647487761027,-2.0811929938079525,1.5191103606226792,1.4725337622700825,0.3296469458961748,0.3288876672551957,-3.042762696486783
-31.0,-4.393201983929612,-1.7122866399103587,2.680915344019269,3.0291792584073876,-3.572597454327652,0.5448950012239304,4.278476666196648,-0.01174191942893102,-0.49685657476838074,2.981007482589772,-1.345099316587135,-0.5150418495040469
-30.0,2.2177244147684436,-0.1605887550586279,-2.3783131698270665,-1.04179501921059,2.3392189735790367,-1.288460527489431,3.9746693716626833,-0.27813310408233677,1.0360139504057093,0.07424902178104231,0.32535884828024675,4.210524242173806
-29.0,3.2516823583868057,2.8046748864135105,-0.4470074719733688,-3.0327646150819114,1.8882044769666237,1.156059988303814,-1.3818291668209144,-2.9051264691074223,-0.2034449279818688,0.9876642323936792,0.7975878902964988,0.09177819859465575
-28.0,-0.6358868946662151,4.02422453594971,4.660111430615827,-1.6943588836365673,-2.610909928533788,4.312850264933221,0.6162964126440182,1.0047564400856865,2.771419120749777,1.542829407230865,3.924616208503322,3.1300971118915446
-27.0,1.534260873533237,1.568080940317574,0.033820066784274516,-1.552483164982291,0.7074774918503721,0.8418791116092519,-1.472109621806329,1.655129319098243,0.3323709772223328,-4.890564431017652,-0.08436496241803582,-0.9050217889161992
-26.0,-0.3106973864768544,-2.8688092189501093,-2.5581118324732355,1.5823223209115524,1.0801235335683872,-2.6817409916306705,-0.49542497733601487,0.580142959814714,-3.938898820443156,-0.8533732612104321,-2.4976143666677197,-3.9279059327322474
-25.0,-1.5307064998417454,-4.039167462482987,-2.5084609626411645,2.768620909528501,0.523055728482372,-3.3294501570472184,-1.4775665181522637,-1.7056189353279967,-2.3506780127412186,0.2717633309378533,-4.208334392767742,-4.889749195512705
-24.0,-3.046996976654322,-1.408711204663271,1.6382857719911448,2.2031248713376774,-2.388174452459145,0.13094988399267704,-0.42426951921793077,-0.24660759139072502,-2.818416055441001,-1.0516694099543429,0.183068653575019,1.7531701269927389
-23.0,4.297809947391718,-0.721746481704479,-5.019556429096108,-1.7388589215865813,4.691724892727319,-2.859144136921193,0.609545684856718,1.0960079999656234,1.7264845419407813,2.5933410082153516,0.8832941367789662,4.233235985975189
-22.0,0.7119449680862466,1.9611883271210644,1.2492433590348897,-1.2869476449220711,-0.23407348947763784,1.6145939222080004,3.774659010711339,1.6163929461269722,5.895521537433484,0.21382848565089785,0.6363664807997734,-0.7054044749961825
-21.0,-3.153834785417355,-2.2997325071987533,0.8541022782186906,2.703012951014186,-2.0443730985275668,-0.7131090605863193,-0.47885861281793485,2.0692237535459306,1.8853088093210975,1.1539000348302277,1.4617079417120045,-1.0782109705855696
-20.0,0.40443364859796316,5.082673637955875,4.678239989358009,-2.7594023749481247,-2.0927697422748874,4.81401864245566,-2.5273976098018114,-3.130810307197072,0.4758100484164808,-0.7586348852099809,2.12540097045254,0.39705438428308204
-19.0,0.22303054899817187,5.159451599537691,4.936421050539592,-2.699942898685666,-2.3844378641380826,5.064970632418471,-3.1751751480778228,-2.976608485377937,0.20082045415754313,-0.1414915716242342,1.6813201058460514,1.9444897175103564
-18.0,-0.686009785229582,-2.5251292815598654,-1.8391194963303004,1.6002876790240925,0.55545317828935,-2.1584804851396635,1.4610546691785764,-2.5492186875157943,-4.123178753251927,1.4247409334641274,-1.7505240222783423,1.2992181323439502
-17.0,1.5888925609351632,0.9825959383990732,-0.6062966225362518,-1.292756821168061,1.0815940115252878,0.2197098794880934,2.4369758563577406,3.6294098701295825,-3.8159242177915127,1.5259974645899121,-1.0647168121378559,0.20727960790639188
-16.0,1.1027119563761254,-0.8066458584872771,-1.9093578148636707,-0.1613396282367039,1.5713161456493234,-1.397120524755989,2.974242329155212,4.79876787338976,4.220923720643253,0.4230882072227068,1.1595060413310698,2.0930398904018976
-15.0,-0.6493682531058428,-4.682269546916562,-4.032901293811003,2.6439320990272352,1.6776112706952642,-4.3113253940351965,-0.9445098449277696,1.9558287778377776,0.33726183393094644,-1.5597750194320006,-0.6392879788050734,-2.651349025851556
-14.0,0.6999553906606294,-8.242694855282815,-8.942650245943613,3.82035288535299,4.803045297379804,-8.621489273637952,-1.6667171650397994,-3.496041053621359,-4.582005677640566,-7.307125673077261,-5.671122212937255,-7.590093204514049
-13.0,-4.913582721413357,4.09823238552433,9.011815106937721,0.45194167817834074,-6.988089686839702,6.526193862153084,-1.0904111323645849,-5.155329210561687,1.5340221642752376,-2.0254933335388534,-0.548051817853384,0.009676603330984967
-12.0,-0.5372990027702147,5.935998177535698,6.47329718030606,-2.734388317748294,-3.4610348946120975,6.172642968269421,-3.0682052488193228,-4.048387852782376,0.15181375231884453,3.870594319114927,4.95022949743699,2.8334384946930204
-11.0,4.897223022312103,3.341644754210986,-1.5555782681008434,-4.1515851274779685,3.182515979203953,0.9351399656074504,2.329892308108379,1.0872142450341082,2.4362345043922033,6.237881580364765,2.962295749456838,4.602056865870294
-10.0,4.474969119479243,0.7710670030527544,-3.7039021164261823,-2.5720652414736334,4.116521355936631,-1.4282163417420528,-1.5837665687854323,6.747259894964763,-1.480003184687955,-0.11738071749784229,-3.168865015151644,-0.5156865812640925
-9.0,-1.129109082907246,-6.362737140466056,-5.23362805755861,3.721575193992062,2.0748847762661233,-5.840141329997488,1.290002578899084,7.197542489384455,4.6380981932743754,1.838482368562559,-1.416731656570224,-0.21864398827632026
-8.0,-2.7423726427194794,-6.607568359233238,-3.8651957165137336,4.651281737629527,0.5051589366846622,-5.197886956802514,5.679002932416789,1.6665817884228344,1.3696223119858146,-4.941963516844053,-1.278460055781762,-2.6428763352998152
-7.0,-3.6445805521297823,2.556496787703683,6.201077339833385,0.5174194394194229,-4.89613677192857,4.342644878273254,-3.020735205026048,-4.7598035499858575,-2.3281961419943813,-2.4204149083049114,3.150052776637894,0.5763182372512886
-6.0,-0.7056261747507719,10.070936333736395,10.776562508487,-4.636641136542849,-5.707048281582221,10.471218156920688,-0.8681058761795328,-9.402832160221713,-3.761051793058934,1.9698733011214955,3.046498222787848,0.10266890498101744
-5.0,-3.590069366327923,9.374638436930415,12.964707803258111,-2.8542394908887485,-8.31375268572264,11.142114121482642,-0.41912493446572796,-2.443803760130506,1.7120409830857648,6.122741875140317,2.7559026202711805,3.877696932084753
-4.0,5.274448368005385,-5.6179531780968635,-10.89240154610242,0.12297331425567704,8.132442827933499,-8.281453108936507,0.2926714562719319,5.325826422247545,-0.0040073343474154866,0.5715679034575174,-1.5393074058818257,1.8931040782465356
-3.0,1.6269122245449061,-12.596972581346353,-14.223884805891291,5.508610211372267,7.898183716245559,-13.438014096962897,0.6041617691453685,1.015433142304782,-7.7466081907604,-9.100235793682494,-7.822086005867782,-4.581531043264437
-2.0,-2.1553532463064093,-6.297134153310019,-4.141780907003638,4.167961552917803,0.963183645176759,-5.171184759363308,2.5916416408046494,-9.037465006771082,-6.54253228290779,-7.935856855596999,-4.980642655728808,-2.7381593300088927
-1.0,0.19235025175329912,-2.9502862492966027,-3.142636501049925,1.4007654897821185,1.6298842964250175,-3.079813052666649,-0.27616397362719547,8.117264502333708,5.292218291282902,-0.37478265999297555,-3.523522102448924,-5.9667368003416685
0.0,4.4647281857966234,6.862803931398895,2.398075745602349,-5.635834100255301,1.064395775575834,4.67428535860015,-3.3474773320153637,11.100165153657343,17.202759741530105,12.059397961014215,8.846785658882906,2.5042396023124556
1.0,4.54862765679279,10.541380933417884,5.992753276625257,-7.5069305764707375,-0.7004435163457172,8.31099084615712,-7.628019350568474,-2.23657522380158,3.1640338232147407,4.07177429626895,6.851364201237747,3.6585130317839853
2.0,2.1041593584043357,7.565894458393542,5.4617350999893475,-4.8635435875633455,-1.6633225640460467,6.479914935026808,-1.9548667314266701,-2.615280409093719,-0.9166124876247974,6.687939247976365,7.041695733936129,6.508125927986983
3.0,-8.025814723659876,3.8407951570042234,11.866609880664145,2.0754899481038223,-9.932440299222868,7.820284781810157,5.374881250111116,0.864658187659836,2.928639438563369,7.783947025127083,4.442228337862362,5.703402353037946
4.0,-6.373580932598504,1.5105860880035977,7.88416702060209,2.4228190224330834,-7.113017519008835,4.663097728945002,6.06427071015572,-7.692161735016802,-8.308404131575715,-6.4057209732726665,-5.140438721821189,3.7673484762994023
5.0,-4.134330037445015,-13.781320206187194,-9.646990168742235,8.952852286703752,2.697290929207241,-11.671763281334735,5.485264224878046,-4.16627270419764,-12.790115156492545,-15.109141900340477,-10.801806648641426,-7.720621194447921
6.0,2.267696313996934,-14.10469382341058,-16.37239013740774,5.912489330949901,9.343103453124098,-15.277106820871605,2.8307563169075847,-2.698458702434145,-10.743274990269944,-13.096145134251145,-10.856206331382207,-9.202672787502404
7.0,3.7295069692311666,-10.305710360568003,-14.03521732979937,3.2773422412570437,8.827993828939485,-12.131260078953925,-1.3701801428158205,5.484713367357333,0.8807497315907361,-4.797056610084429,-3.7702566013629992,-7.9018668062389725
8.0,2.0067274464292444,-5.738099610834976,-7.744827057264281,1.926707926963013,4.89915781607884,-6.701311723677178,-8.36726192856701,1.8365483192742325,0.3982073508041619,-2.3438722091671633,-4.166237586861442,-11.818886521632644
9.0,3.5905092270246755,11.306391932848149,7.715882705823622,-7.474124328747555,-2.041928261698907,9.474900996198892,-6.416627336155092,1.835910534748629,8.564420660820812,9.066474461820658,6.529789308255058,4.162130107271261
10.0,1.7161798013126366,22.55296084000813,20.836781038695833,-12.089797278311114,-9.54277869254805,21.73956198274862,-2.414735307125362,3.791123029233087,15.971879881694901,21.47213398889143,16.424610121241194,17.305912324806524
11.0,2.985811066205176,23.67279507923618,20.686984013031292,-13.371775382757692,-8.836259996248184,22.14596884496273,-1.0126344945476866,1.7877111168324542,14.90651772535514,18.63442402548775,15.382203640336265,20.741890260178863
12.0,-0.2883767581881954,6.1426464939040315,6.431023252092313,-2.9780449204897206,-3.348418327926235,6.25002305571765,2.7752341334194304,7.557307299301505,10.938929587238137,11.833613639043115,10.731187724796214,8.442545364302822
13.0,-2.3070041063698588,-8.714715914568616,-6.407711808198869,5.531119637779695,1.9799020442704656,-7.603282241441404,9.230229652364116,6.114553642480383,-1.4093952813607973,-6.4865504920340955,-2.4974201630824266,-5.023404044419671
14.0,-11.269586908357446,-26.085777654259683,-14.816190745902418,18.692559663609696,1.7789640304013241,-20.41967531233959,10.651871761381,-12.269179324600477,-24.2014982108452,-25.12600176820113,-19.11805428750502,-16.14166103037118
15.0,-11.325542103785429,-37.72327874058849,-26.397736636803405,24.537453362240196,7.5404438361912725,-32.031876960411715,2.637626175376406,-23.37099418385306,-39.92191006350506,-41.22731225753802,-33.97635801581457,-29.38960299072337
16.0,7.325514158028391,-18.536860653886034,-25.862374811914613,5.621079295811098,16.59969851520686,-22.169090354271816,-11.101904779721455,-20.763772889306043,-29.10818502493386,-27.425610212306346,-19.198543711184556,-14.613836387300816
17.0,4.516814007290128,26.145466222014015,21.628652214723864,-15.3096471650974,-8.544933867799728,23.923882380757036,-5.826274986125158,-9.006332767678972,3.2555658040138162,11.614692625860425,3.333716660543738,10.966006055687586
18.0,-0.1983191092468215,34.094310652189414,34.29262976143591,-16.99693073582032,-17.225421996176735,34.15992131113055,-5.371818651067722,20.03220857732605,36.26485026566001,41.552270711956744,30.843400889597174,23.223465324601392
19.0,15.0322982443259,17.346360786285764,2.3140625419598244,-16.229683007041796,6.3906251467596515,9.803709233252281,-5.99714769723359,53.98623649048625,57.09061724915035,44.101654565139896,36.15515092220089,23.884527018379117
20.0,21.47060969118553,12.604803949436938,-8.865805741748348,-16.992334018959557,15.132207163908244,1.8458286862269038,0.7836362387607728,37.33647260165287,33.8349937774578,22.470913991326842,20.065652164467053,11.054981559829699
21.0,-0.03964077039992109,-11.513600346783338,-11.473959576382931,5.8260048726203735,5.689333825921059,-11.519828187511617,4.357571408665832,-4.233028255143887,-6.646680508983675,-9.960819851088907,-5.568678245522981,-10.898177781910473
22.0,-19.450041287232036,-7.923840583053018,11.5262007041796,13.657965984232401,-15.512890579718192,1.8476038080115629,5.92520484740545,-34.66006768188375,-30.51965592446887,-20.21875383170041,-12.802914909788027,-8.174319184621911
23.0,-26.804116495509184,-13.5833427040881,13.220773791421411,20.161730340273095,-19.961084113131083,-0.2208498652803339,10.087338387439411,-49.15143084353214,-46.35637629743211,-33.416524430698516,-31.39333170842247,-17.33413845868985
24.0,-15.208232216613196,-27.026541864781347,-11.818309648167949,21.080114871554095,-1.7296547311676553,-19.38827319167467,7.291195090471605,-25.54555287252697,-35.7295808525716,-35.44238502866685,-34.18816142245133,-21.653450020422184
25.0,4.069849589689336,-2.552337413773383,-6.6221870034624075,-0.7228647253465752,5.3801400429641895,-4.554005496898929,-1.6737162212261767,4.193124501394905,-0.46408298586405294,-4.726536803545256,-4.004731216153306,-0.3481609129148264
26.0,12.47749766062114,6.44548538796503,-6.032012272656171,-9.429402310311987,9.278749976942853,0.2430529468561633,-5.763352051192602,25.787700864519678,18.940663520801124,15.482826653025235,12.981889542232906,10.843938377635379
27.0,20.333587832770128,13.19973476197345,-7.133853070797196,-16.735104576761472,13.670885181035032,2.9953793908016237,-11.220720061088706,19.401887429571737,25.53359280053182,21.322725073972173,24.948844276268826,15.752096294790526
28.0,10.994947950152843,17.05760740511745,6.062659454963821,-14.070356354006416,2.4776757130265032,11.52626546864698,-9.623595438458064,10.961397556522268,22.155487316270754,26.80841469346607,29.329184596881014,19.89811225075559
29.0,0.8575039395111475,16.36373663630404,15.506232696791963,-8.64863672087514,-7.312716930211813,15.901306765565735,-3.126773176649236,1.88912901095906,11.706148683516716,14.21923510269805,11.10959480576414,5.632045557336328
30.0,-5.302990306297151,-7.991297759175236,-2.6883074528785116,6.69551668592407,-1.2913164890273912,-5.298579524350135,3.822540700755259,-1.0241442989063723,-7.266700050380146,-7.944693081412302,-12.205986830011666,-11.994485827043757
31.0,-8.683206621988901,-22.918777177232872,-14.235570555243532,15.778228824563595,2.7995363292799995,-18.621149667292983,11.225214180593028,-3.6419081288175077,-16.48274943000964,-18.11751075225653,-26.11273437635527,-20.148643038337525
32.0,-8.335519687509777,-9.62149535189212,-1.2859756643815363,8.961779187969768,-3.571979194742194,-5.425369326833058,5.804691248388249,-5.651445835464971,-9.981949758980496,-17.664284077707112,-16.389540153832087,-10.91493881880622
33.0,-4.1770270863546415,6.37034335177944,10.547370438134855,-1.031529195928071,-7.323856869605031,8.483397552321843,4.320811104050043,-4.250731852869903,-1.976092523856133,-0.7623432812480608,4.186574797316249,6.251529555636411
34.0,1.1845179786349211,2.7687074890620114,1.5841895104273425,-1.9909932328000224,-0.23648475913341738,2.2009987977837007,0.1795015999651799,1.2165835634726747,3.8749781419888674,4.503631759023979,7.776150212238891,6.325801973016987
35.0,2.156224526867229,1.3907618231472296,-0.7654627037202322,-1.7926860895533947,1.4244032355187786,0.34050787503802304,-4.992433911612228,-1.2981660355224998,4.938952093604337,6.797985325266276,5.270143577639543,4.3185364498916465
36.0,7.666354275270547,12.213959934316176,4.5476056590453116,-9.96726384258448,1.5990373880961346,8.334614187187602,-6.803151320777969,-3.254288393001766,2.419779697055126,4.371777444936692,6.679229482019131,3.938011377527803
37.0,2.1267590657026654,5.412092142110243,3.285333076407354,-3.805350178422729,-0.5436659526656826,4.306581592117778,-3.757501413798975,-4.431006023706855,-6.415140389735281,1.8832570563229387,2.596117256408027,6.199572653943974
38.0,-1.3022389254682976,-3.4395912747414727,-2.1373523492732316,2.406981165567764,0.37051117980639603,-2.828440504020507,0.9386256267778852,-0.24056268290306126,-4.617762304636578,0.03728181542442033,-2.4994701506863226,1.4468508482296374
39.0,-3.252858023810057,-8.882435723694009,-5.629577699883907,6.10169174129979,1.2172625459272512,-7.216796988603248,5.100940868378338,6.6307983575729486,5.927636625908119,-1.082502517093896,-2.3611841955541495,-6.362986265554988
40.0,-0.39767416117146315,-8.001885695954499,-7.6042115347829835,4.237787602284659,3.63071900873062,-7.7641826760443635,1.7543130106187532,7.554602724108241,2.9523930508901897,-5.649382920556299,-5.635068863446168,-9.836941446638832
41.0,-0.21434777133477145,-5.905105425321988,-5.690757653987182,3.0281237007982145,2.6864661140968678,-5.759403618909275,-0.8210915654522482,3.5334454942468607,4.304582524536939,-2.708218677299421,0.14509176239862898,-3.2824900246624322
42.0,2.8715774218909567,2.2663752448686885,-0.6052021770222817,-2.588860433724758,1.7655133280015791,0.7898961793266549,-3.67265219224474,-2.3331423183363578,-2.211420247323291,-1.8308653931829717,0.8709098142512717,-0.46329456870117447
43.0,-1.4124636886241562,4.552500818002252,5.964964506626387,-1.5790207352898014,-3.7398189336089054,5.295212134355376,-1.3006596785071693,-5.685725662409944,-3.687179594699842,5.915469999933793,1.2950944272981182,6.7660701150660145
44.0,0.11064100744567407,8.001646798895372,7.891005791449631,-4.058188497822687,-3.861248535005226,7.900347019054063,0.025606922065854694,-5.361684930256042,-3.6023833414715667,2.317949985864384,-0.20329183207483204,5.361961398559592
45.0,-2.1655374963397844,7.711469501342927,9.877006997682656,-2.773909843984268,-5.989616454729081,8.74237783263155,3.64172662369507,0.8272662548340266,-0.32399416124467084,2.4953016076912125,1.6682153246018023,1.414246118886096
46.0,-0.5743953391666282,0.022716172027132497,0.5971115111937326,0.26966240228174,-0.6281546497610111,0.3302110272877803,5.003618846388452,0.523340584186133,2.0400586315322715,-2.696492128524171,-0.21720001536343836,0.39632342946510457
47.0,2.9106026058850722,-5.857477475981617,-8.768080081866673,1.5352907120792345,5.88233870955253,-7.297169495829499,-0.016602711954925686,1.6570356598888543,3.1876408070706344,-1.321977143079891,-1.410497027105102,-4.231411602945675
48.0,2.1767154097983124,-7.1380625750693785,-9.314777984867618,2.4494264953923413,5.717819319588163,-8.21094623743367,-2.5883710551447257,1.9607901438121536,1.806411000529468,-3.6297231995949417,-0.2928998635282141,-2.2729971675308573
49.0,-3.607513184061375,-2.030098295110813,1.5774148889506412,2.772119718224803,-2.6128685011939137,-0.20508706946306265,0.4162324596555216,3.487611468656292,-1.180225178555029,1.4817738522886232,0.778275561807647,-1.4619236804352194
50.0,-0.7369729562363276,1.7618020960968814,2.498775052333261,-0.4939865161247301,-1.554185128528787,2.1625072927246682,-3.349813312462384,-3.081797512804448,-1.1941382624999588,2.7189718977163184,3.174901983360548,1.4815698707175162
51.0,-3.702649579378006,3.9156385985108493,7.618288177888857,-0.09715510360560115,-5.674144463860592,5.733885478598603,-1.266929372180572,-1.309824059857224,-2.075671230671794,1.5278745011135135,-0.8929582444012537,2.9542423652562397
52.0,3.3259897772442804,0.024525764587511212,-3.3014640126568344,-1.6685459977634405,3.2964416781090344,-1.6592263877668132,-2.0466778220275423,-2.5445333052203196,-0.7388960872315298,-0.9715271669855352,-3.745340844621115,-0.7516144787460834
53.0,4.363210265614328,-1.457267560040561,-5.820477825654991,-1.4419945380446386,5.066278509913625,-3.651548461289752,0.4968050155071853,3.08483771868797,-0.2029095943979745,-2.7044188764285177,1.3157975731444058,-0.7056812751957178
54.0,3.531171539565045,1.0009125995422004,-2.530258940022928,-2.2452488818517846,2.994152661768207,-0.7749194990514254,0.6747593997594088,0.21725024368663493,3.010080094777812,-0.45407385313775817,0.4022821525243046,-0.39432303078410336
55.0,-4.048085945906501,-2.1860678067215344,1.8620181391849444,3.071648536046067,-2.9234023555250173,-0.17480297501761366,2.238720627797206,-0.0778230942323454,2.317461433002973,0.0743751657090227,-0.2664425136431075,-1.2360726108770097
56.0,-1.4176771533927592,3.4749173071713555,4.892594460564143,-0.9835946931148145,-3.130252439774916,4.244573821036669,0.6075558905883374,0.49148565965041513,-0.03308282641504712,2.5120340100712912,1.8832482339999623,3.2407226849418795
57.0,-2.6910385490218216,-2.418480169815048,0.2725583792068318,2.5287485244820833,-1.457784000570303,-1.0957071203181747,3.10840129069329,1.4861703094858885,-4.28317113045404,0.26389267843453545,-2.0909859920666944,-0.3296387832992056
58.0,-0.6158453131747923,-0.8667328248058059,-0.25088751163096545,0.717186789738784,-0.15338464128582108,-0.5835653660986484,-0.9054124315342007,-4.564188545257893,-1.785904874044979,-1.7863143602140095,-1.9502379817304272,-3.419464984731723
59.0,-0.6952658707590255,4.155050958355497,4.850316829114557,-1.7578205669964708,-2.813420864630315,4.558632789345964,1.5556131717907606,1.907989012926632,1.0744462052441652,1.84698125068779,2.5513489598377905,0.9202593390027696
60.0,3.014495922911348,3.0600935688149176,0.0455976459035822,-2.994204685355342,1.453637723057082,1.5355122675554185,-2.181469739877871,2.021019460110957,1.9165294341357326,0.25555131888501287,-0.2810316848339732,1.9894874009003725
61.0,-0.7364892832689551,-3.5166486819979568,-2.7801593987290043,2.160855304526538,0.998598396550316,-3.1585705846786514,-0.9264956035786276,-1.544981828134948,1.8290430197169818,-2.1771507693042276,0.027333003090729557,1.9883776568849414
62.0,2.9197371853894167,-5.39724807873159,-8.31698526412102,1.1872203820187408,5.6772943996629515,-6.860925564804906,-3.6587225919680457,-3.31937667534499,-1.150355575674071,-0.7136177897051994,0.3105955902261299,-3.5111475873514864
63.0,-0.7562239526577248,-1.6751912716655024,-0.9189673190078063,1.239463386377071,0.06040908090151964,-1.2976863022252663,-0.7890272875908872,2.2210669039112814,0.8459269549748355,0.292173383995294,1.5296252866163622,0.27765016575052104
64.0,0.9993126006484717,2.127763512968298,1.1284509123197988,-1.5391600291356105,-0.09035945047119531,1.62610092834468,1.222118500666214,-0.5405779655692998,-2.5141602548894046,-0.8179835911955227,-0.9875843312250625,-1.611004223491484
65.0,-2.2528001380783205,3.5822246456628046,5.835024783741092,-0.7153508609291518,-3.997822446498839,4.700472663776678,0.5700104465235483,1.940608086058646,1.2191658747589613,3.5610163220080366,-1.1279216298496382,1.3890087085332499
66.0,-0.9397088640737186,2.2639102630115,3.2036191270851986,-0.6291893526771473,-2.1114695817858857,2.7158409329549102,4.518060765725785,1.108351344747333,-1.0392817965443588,0.01153103088053431,1.9988379860050616,2.835198926047623
67.0,0.42381297906305626,-0.05811049221328979,-0.48192347127633806,-0.14653358875861738,0.4857446659169944,-0.2206300907909311,-1.3140200751253737,2.197341292754641,0.4673831540365809,-0.8799571261605559,-3.4439163486050077,-2.3162505263187896
68.0,2.3610681421646467,-1.999234526826574,-4.360302668991189,-0.223391972109933,3.389221913844688,-3.220103309859101,-0.9168438340387377,-2.168867147101145,-0.5536961213329158,-0.4107029156477429,0.541656165567761,0.3945801990750242
69.0,-2.27778419046638,-2.5423254427883926,-0.2645412523219943,2.363215957715438,-1.059448536767941,-1.3738601114513458,1.3785153419635399,-1.4590209748005871,3.4845778502921276,0.4185687823327451,1.3139676476562705,1.158389591760334
70.0,-1.2016152114410574,-0.664727898255105,0.5368873131859477,0.9571469049531682,-0.844533065290582,-0.04028425099115962,0.9627187071934018,-0.9534478803878745,-0.5902678977325899,-1.8724425276909051,0.6155837949351813,-2.8947322736159267
71.0,1.1007190857148461,-1.264167633373098,-2.3648867190879814,0.09639190769891604,1.6787333280709529,-1.8728450695975654,-2.22364409328938,-1.472501470570481,-3.375704777857771,-0.9187538134145871,-1.6835852744563784,0.8301261353075271
72.0,1.9320503387434322,8.355397492218849,6.423347153475387,-5.136846628258054,-2.2198373344966047,7.408467692674348,-3.741793006059276,0.977437423017709,-0.11675412357062998,0.4387374983385331,1.6773821182853013,0.07800617101524834
73.0,-0.10786295824863856,0.10613722095425171,0.2140001792028663,0.004027997538711636,-0.13274441881375404,0.17854723262942374,-0.10068375068986524,-0.43335964279997785,-0.14809342692787952,3.0438102568509873,1.0851408567237404,0.2567164983594816
74.0,-1.0464522035887618,-0.44754031891743284,0.5989118846713184,0.7519198359079788,-0.7910557621784066,0.09326170500434128,2.580356479635445,-0.6293552589800092,1.4331925771853484,0.6798689093165844,-0.6398914275649747,1.4204632064467464
75.0,-2.5746283724697054,-6.566866055244969,-3.9922376827752504,4.582735653969553,0.6655534186003655,-5.34243002088282,3.7870264978942534,5.268127406881965,3.4044383012867963,0.05271230460899279,-0.9689537174019817,-0.013424261895938927
76.0,3.0626989034562415,-1.7070334103644678,-4.769732313820709,-0.7338437252944234,3.8763229044171883,-3.224848374649204,-1.7151988804637406,-1.4767038578628813,-2.887298407090626,-3.772350012316994,-0.9361989364804105,-1.184219033665796
77.0,-1.6016473224495043,-2.3306591200511675,-0.7290117976016262,2.0007072507731287,-0.3955522583555615,-1.5184963837736705,-2.8486992902016564,0.8436931661444667,-1.2623437976007355,-0.26065334597107315,-0.8678422743741145,0.1398728222686736
78.0,-0.3755685330438388,1.8330659382936116,2.208634471337478,-0.6842924916264377,-1.2515113023758841,2.0311393934237305,0.4878065668146425,-1.188728630603805,-0.32626088301074996,0.05581528765352611,0.3883353558931412,0.6972371559708819
79.0,5.390679532574379,5.037219053772439,-0.3534604788019493,-5.242850113589419,2.831481900767802,2.3529874998414693,-1.3385659592618382,-2.637261872142383,0.23446736989733385,1.4587950418549782,0.21242859105238038,-3.6941293180718824
80.0,-3.3410078846383753,3.5304973600221214,6.871505244660444,-0.12422483709783139,-5.151170795066157,5.2148847889425145,4.1160745038664,1.467056852872077,2.717785262125163,1.412236297303998,2.6950545567817255,1.3763203131732464
81.0,-1.354155859915033,0.7331376228489102,2.0872934827638776,0.27470657343709826,-1.6923009265606526,1.3495009221737648,3.5104323431288207,1.404098200581328,0.2228436474982075,1.065889183628905,0.4692201062148552,3.041347446109263
82.0,1.9810943576804425,-0.6667119816832494,-2.6478063393636972,-0.6243420433863731,2.337367415132973,-1.634698879619918,-2.534238492401691,-2.6249461718526117,-1.5968943108852285,-2.1630467299955836,-1.6792265183999717,-0.45601286979536515
83.0,-0.6912299943234584,-3.157774933616878,-2.4665449392933523,1.9465677269558406,0.9057386316296485,-2.7857874815136316,-5.479849675382404,-0.6630920243333897,-0.24282290268344342,0.5553704038986392,1.094977499778999,-0.2560313443329848
84.0,-4.2917440024931155,-5.379255619394593,-1.0875116169013732,4.849270216658144,-1.5879126842550348,-3.2047471096792624,0.04590457845041529,1.4346744498846258,-1.204362190721744,0.06349646658169722,-1.9868085876806578,0.9268454703773854
85.0,0.1615195909517959,1.5373420331191823,1.375822442167459,-0.839183374010203,-0.6746930707693845,1.4069253204530348,0.8634815386111803,-0.7603232962380106,2.2363459018555716,-1.592552015709235,-0.7177603330359171,-2.1677888891990484
86.0,3.262175924149196,1.7859152603348893,-1.47626066381427,-2.590449535804164,2.3782555818735833,0.10439523253653121,-0.6153234890537617,0.990627717661966,-3.1200818118636895,-1.3673867948426306,-0.8741345137947982,-0.5877322267038015
87.0,0.567771296494445,-0.3860289094542504,-0.953800205948736,-0.07145414061433875,0.7687409053066149,-0.6422297803657476,1.8539683000275922,0.8963472752250161,-1.2768338341386531,0.6896140368179384,2.4073780660497786,-1.0422686689181195
88.0,2.895265164511076,3.497769787346087,0.6025046228349027,-3.166965628388906,1.154898738901694,2.0789768172684875,3.263352235594556,2.731757656611844,5.661284278992328,3.771059714140746,-0.12454192230843075,4.517770098567375
89.0,1.1635565573881244,0.69179495407689,-0.471761603311341,-0.8876486852692751,0.8289015216558049,0.14285872448197812,0.4988312623743383,1.6097466387159867,0.27640876864651975,0.2962544321756486,2.3054956839047005,-1.5825358254268247
90.0,-3.7894271737804646,-4.2539905932721584,-0.46456341949176316,3.9909712672624096,-1.6462062429061393,-2.3985631575645465,-0.892952597167366,-4.7275933017259035,0.6926983253192115,-1.2595659030560467,-2.5208311856844836,-2.440536976647304
91.0,-3.3014152986477683,-2.2890471558075984,1.012368142840145,2.7680111136240995,-2.212671518365963,-0.5912351953238234,-1.5945248810443553,-3.642677353660847,-5.233538646288704,-1.8567514987877,-0.8350923091407193,1.105186139615939
92.0,0.8020788959657084,5.472514724222295,4.670435828256624,-3.165707294786099,-1.9037212464733193,5.046149770743401,-2.1039182153220635,-0.4118616830325452,0.6165799504973954,-0.6708045191077794,0.03378358036638007,0.35881550691680103
93.0,0.3690252926429665,-0.44808322262970157,-0.8171085152726021,0.00698814071819942,0.6304644135572888,-0.6549324414510518,-1.0616425460893,4.479534558607385,0.35368629541610486,0.9913259137473035,2.5313555154794143,0.6093416652196553
94.0,2.179732354265761,0.5413811382065562,-1.6383512160591214,-1.318338140478739,1.8728616655126133,-0.5718584659375352,-0.5691698423007904,-2.371237374787193,-1.8102980134729765,-1.5857402529784084,-4.446231283937676,-2.393193459115039
95.0,-1.8757374232567368,-3.7894548526757528,-1.9137174294189254,2.8738853788722283,-0.014579555573288383,-2.879001473852954,4.1684285476815,1.4139803027626283,2.4295902493943453,0.5878188154915454,1.513192955599543,0.19263666600219054
96.0,1.358582889576562,1.0955588176216684,-0.26302407195482114,-1.1824056922951383,0.8559281216320376,0.4628395424390557,-0.1301151636467648,-0.16123459875399848,1.776030684112825,1.6302830016521666,3.070667644237214,4.4409945004895235
97.0,2.470644701529793,4.43100645604967,1.9603617545199175,-3.478382792285417,0.21939260891501278,3.239206464371021,-0.1857766382630408,4.594429129267811,2.7673762826847352,4.203340177597436,1.5522197009385277,1.0704905744489666
98.0,0.49783458636735045,-2.069623784936688,-2.567458371304027,0.7649679179949664,1.5724821643983709,-2.3537203300006713,-2.05387722205625,-1.8142670274468529,-2.817475173602463,-2.859053663803498,-4.4584965896973605,-2.287439291108746
99.0,-4.7612345623419765,-4.479028875396429,0.28220568694546805,4.6024438477888285,-2.563830593866839,-2.0520012724597745,2.564407375215576,-2.8526082541136955,-2.2997848217001184,-1.6602327776434667,0.6113435547284418,-2.244393024626203
100.0,0.216350608340955,1.864466253428193,1.6481156450871244,-1.0605711833394438,-0.6818820337634912,1.7277924531893216,0.5941666416100749,1.4411632226170625,-0.9132704239402294,-2.169655942571331,-0.07360841500518911,-1.2703849479757376
101.0,-1.0745030994978502,0.5189224490415121,1.5934255485392952,0.2492775105045159,-1.3020827060679665,1.03014752552214,-0.7784042677894099,-1.484828183574879,0.9462572491576188,2.7446210463790566,1.146906569501689,0.41732046599401396
102.0,0.7374494001137342,-2.6703830341178074,-3.4078324342315622,1.0044239676940125,2.023625590091829,-3.0658770968613425,-1.9127124671454112,-0.6982272108854647,0.49572931922501373,-2.020845067390297,0.5398085694542408,-0.020281137178341624
103.0,3.684591368121265,3.933256824796107,0.24866545667486412,-3.784087010357408,1.7448689852321597,2.1384440965327403,0.06142061379263852,-0.3424305725017485,-0.5360234829319709,0.20386921434894495,-2.8509462630421663,2.4480860269056346
104.0,0.3950863045507369,0.15699582196730422,-0.2380904825833669,-0.262233188546944,0.2609689605060357,-0.07914547497285285,-0.8492616223897496,0.17134972809396826,2.615231440381261,1.7397139582376604,-0.617094682406434,-1.5823944317320482
105.0,0.2819732583853829,1.5103311855249992,1.2283579271397207,-0.8894811959682988,-0.45438567873357855,1.401292442851946,0.01692879196728455,1.1954792660296645,-1.6833965567934825,-0.05545997221104004,2.5997767106424563,1.5908586402239115
106.0,-3.8180063474571195,0.7462882812854957,4.564294628742729,1.5397268560969253,-4.17629614690909,2.6804509930855542,2.0159609787504085,1.6386298877798893,-0.39707242642248064,0.6220362558268798,1.0161219016357375,0.8279265528711566
107.0,0.6388571474473121,-2.9346481353636222,-3.57350528281086,1.0740668595785468,2.1184127809357083,-3.3111097063025827,-0.08613841533702704,-0.019830601373217238,0.5294945377594054,0.038646779891329114,-0.06385944124514031,-2.5537308853604688
108.0,0.5931722067552594,-1.7245556902178245,-2.317727896973055,0.5747950272077457,1.4668683128197777,-1.9984247423100998,0.049173902141868786,-1.6801328892038476,-0.3607845883987308,-1.8426768628533652,-2.8609453100488507,1.4534955269159155
109.0,-4.335561621133671,-0.35729182033001927,3.978269800803622,2.362247873031811,-4.144721761722734,1.838686758181085,1.7233998190299955,1.2797324015666762,1.2370997460520585,1.1835263020235487,2.258853131891131,0.5613810515094537
110.0,4.568842150862002,2.0782415664734204,-2.490600584388599,-3.2990135739923083,3.464789814197185,-0.24778335819354624,-1.9923298341644102,-1.1205817225379673,-1.1195550909372947,-1.3969943265358582,0.7524484181599963,-1.4858738071776754
111.0,-1.1026775645695261,0.9764170732113462,2.0790946377808894,0.09751599439423342,-1.5754432625563852,1.5754989895784435,0.8394304578003002,1.7217455868122176,2.1936622920923745,1.7970245495894144,0.8887890461313649,1.4427705668211463
112.0,2.271802828338056,-0.8913923816996376,-3.16319521003766,-0.7248615033066315,2.7339527281412286,-2.048204755729524,-0.1746943724797528,-1.6237717343160591,-0.7279524441876609,-0.510964969260272,-2.4131635875641027,-1.7764146601454276
113.0,3.6944346121034912,-2.556125864986838,-6.25056047709031,-0.5957962544494169,4.989085604611616,-4.41652875823744,-3.999116482048306,-1.5690529132833968,-5.164160545625561,-0.1899141863102414,-3.2735560278359057,-0.7541853412297316
114.0,-1.933260564958917,2.4949445164171937,4.428205081376099,-0.30250516638534586,-3.1648334931507227,3.4527009500071255,0.5893259991893702,1.022224053872526,2.682389710824226,0.22489154609669842,2.5739518771824663,0.4923617985650771
115.0,-4.418427044113239,-1.1515582091031888,3.26686883501001,2.8432257765123765,-3.9066609051532115,1.0497059996873042,2.5304696289399287,0.34478888236324207,-0.018167994980945346,-1.9134765752218752,0.27942245736500915,0.1936942165706786
116.0,-3.524557519639796,-0.6570513294446613,2.86750619019507,2.0674248251710257,-3.1822762783306633,1.095708627169125,2.4459201284548606,0.11210913096866837,1.8667982970836376,1.8107502399606745,1.3361126737054405,0.815822160010947
117.0,1.637732044750501,4.703224700930184,3.0654926561796256,-3.1216057694785944,-0.7000652764910853,3.9507170259446145,0.9350332599860489,1.2303867279111504,0.5645072469118242,0.14452949345370902,-0.2712587873496908,1.2884402944712006
118.0,1.7082819817210881,-2.1347617594813384,-3.8430437412024565,0.17415699534779638,2.7913631707462425,-3.0046149258909614,-2.5398336031850604,-1.22803271824611,-0.9441704735690026,-0.5303860748508427,-0.863799126839017,0.12973489549977868
119.0,1.5361031855133522,0.8842116866411335,-0.6518914988721871,-1.2595787482208005,1.1137907721510962,0.09685299073980125,-2.0675261412922388,1.8040933888880462,1.7841125381273149,0.7880883657457466,2.6873787038575503,-0.4417718433010083
120.0,3.986806034560535,2.9015434389938264,-1.0852625955666488,-3.4241425918488435,2.483205869240942,0.8845404617942152,-1.9502806348016564,-2.6769830306179285,-2.3082965639680415,-1.0736231545012993,-0.39544590055166806,-0.9110150565834507
121.0,-0.5301905907286886,-4.9235103674299765,-4.393319776701203,2.7409627688022624,1.9650274141669686,-4.608888372737647,2.8274892800627365,1.7671950037802195,1.8721768947353852,1.1237380269806696,-1.508972125757204,0.6425183485612899
122.0,-4.7613968588136295,-6.7955528698778735,-2.0341560110641406,5.791739613513262,-1.400779923614851,-4.451425334015319,-1.0093422043836953,-1.8177166184370104,-2.792147268477488,1.2149333220877778,-3.16913730778126,-2.5825279249555155
123.0,-0.7581134361290487,-0.858421498069263,-0.10030806194012762,0.8260322516209211,-0.2794198770258649,-0.446065774608714,-0.37111332997945407,-0.6265751959214436,-2.7479118878960542,-3.185727401923047,-1.0328860297776246,-0.7349592092276879
124.0,2.736583257459402,7.637262593760916,4.90067933630152,-5.160746913793545,-1.1043705968413642,6.21405492046735,3.500160510297964,0.9511229038117275,1.8051758327415834,-0.9076923705768395,2.684995649950829,0.36994922314823553
125.0,-1.0534649717709632,6.321329247531943,7.374794219302837,-2.6768933791199028,-4.231028738343732,6.863466893150239,6.996403026125248,3.3585048413943817,3.946318261823663,0.64285972755773,2.9189505735969945,4.224438327700791
126.0,1.5242770797366312,2.8009509134133634,1.2766738336766261,-2.197733003666994,0.11035838467042147,2.0487286659539943,-2.865209152790667,0.9965474266275016,1.7729705793721398,4.916772280176715,1.441728759212526,1.3477461582297032
127.0,-4.433134120144744,-10.980601862987568,-6.547467742842941,7.754449463415034,1.123606045548196,-8.755102092241382,-11.440925677162166,-5.467884666732574,-4.48476292147391,-2.14795130644836,-1.2002023080175692,-3.8214790519752784
128.0,1.3735633375268905,-2.2909248882537114,-3.664488225780689,0.42700935351240776,2.5052641641328144,-2.9646214761413785,-3.721069793948291,0.39570175175773725,-0.18457880254729697,-2.1992844701360705,-2.820459537435539,1.1000427581196468
129.0,2.7338502646840133,4.541425716738926,1.8075754520548952,-3.6732402280001035,0.44533504768300025,3.1962987028731145,6.742213186251821,1.8451707872182292,2.4936954032312184,2.475854165399994,-0.1489670173592621,-1.7855899295930544
130.0,4.047984241108627,-1.5468631907153452,-5.594847431823934,-1.2127862592211094,4.797521529800903,-3.616114797018918,3.4274434637031685,0.4870788919375907,-0.9182378486211382,-1.878445479459764,0.21621052379832417,1.449857395179133
131.0,-5.613588563872322,-1.4860433335249947,4.1275452303474,3.582718031846072,-4.90133508042001,1.2881254465068954,3.6940884739761257,-2.9540697953271158,-2.1058530723783475,-1.8766320904594704,-0.6715445683941312,-1.0509974188281461
132.0,-1.6361739404838829,5.072916144414499,6.709090084898454,-1.6888450491727915,-4.130512441202448,5.948798730186539,-0.5797012813941915,-0.3296581353840289,-0.5927322138978479,-0.30801168357617503,-0.4162326514134069,-0.14764935629847595
133.0,0.3998206575267593,1.6189982381224823,1.2191775805957463,-1.060811032046564,-0.3707132814788827,1.4074401265231202,-1.3066656897072104,4.823024042676225,3.493240129374031,4.780973852018744,3.105332332230852,0.8917890293583066
134.0,2.5298215406848454,-0.9561044133451,-3.4859259540299643,-0.7616845692398659,2.968529539830258,-2.2265065314711174,-6.270723568882313,-1.8195285453063392,-1.9481269810320536,-0.2679870021709241,0.516256729115995,0.22283834145508258
135.0,0.14029421122356922,-6.363157942654277,-6.503452153877893,3.0544559680699734,3.3650223286035312,-6.435986026165558,0.6515482145468439,1.5515633770894461,2.2947036600830124,-0.1697322769315831,0.3695727011117893,0.3917231069680591
136.0,0.6992080794044278,2.7419273578373624,2.0427192784328714,-1.7038715688651973,-0.7016025656674216,2.389413347609035,1.2765476999495529,-1.4369774052009425,-2.2515665473715156,-1.2345996845384244,-1.868373616832729,0.29111291118610333
137.0,-1.5952651793244401,-1.0437340432193183,0.5515311361050775,1.330094678934312,-1.097177789585388,-0.25163391218603665,3.1251975174275786,0.39573893670421345,2.1343467704377024,-0.771176500373385,-3.154636670876488,-0.7390169991365347
138.0,0.04431353380311143,2.2439539603560235,2.199640426552926,-1.1391453554379565,-1.0965001002973604,2.21197996388139,2.063418966782307,-3.6059854007300536,-0.5329850472716895,-2.1735343497171393,1.637881845981802,-0.21619649921021944
139.0,-0.32348950403978693,-2.9825606229633848,-2.659071118923523,1.6546694282118493,1.2307571951195388,-2.7572818976557856,-4.179124760599995,0.09256495844683466,-2.90048436114217,-2.1727063386180534,-0.77054620293407,-1.1611102776253255
140.0,0.2407867009161317,2.2890758727904728,2.0482891718744547,-1.2630007733349198,-0.9184012656560725,2.147191702845291,-0.2548555706307758,1.0114592983266104,-1.3530518039575308,2.9606880105329325,1.9818263627548904,0.19086976231996033
141.0,-0.2881440946524167,3.5530613860740843,3.841205480726585,-1.6260803602341545,-2.07956028676838,3.6685457008190365,1.4693071684729,2.4050128565254134,1.7655717690805741,5.517871809691875,1.6909698649583629,0.04277963957312859
142.0,1.1746957183704776,-1.5729330546415778,-2.747628773012071,0.2136900376515941,1.945580326915119,-2.196623218460958,-0.47200132356143,1.356206948201083,3.6256513211317816,0.15317094363451433,0.584920877120372,0.7146698630940593
143.0,-1.6855153522337614,-0.9592181361370848,0.7262972160965699,1.2689432388248663,-1.2216526443050286,-0.0819921443216699,-0.8810179393626245,1.660397486505845,1.5065364274713602,-0.031110957743274492,-0.14727157173014363,4.329715872540342
144.0,0.1143183834664318,-0.6483760012258148,-0.7626943846923989,0.30405956580249693,0.5025949825854851,-0.6785019892107671,1.8627112879867203,-4.742548130677949,-1.5292473511519917,-2.120693728053052,-0.7472505440322941,-1.8166679488263837
145.0,0.8956344683705965,-1.2955990454548965,-2.191233513825612,0.1692024054491445,1.5311992117530466,-1.7226927538147088,-2.719219559349849,-2.2809963998708973,-2.2528644480015756,-5.360138078186333,-2.1535536284346097,-1.8920566981105644
146.0,1.547788064656231,0.010606338283383754,-1.5371817263728897,-0.7226271377030615,1.533374383308499,-0.8261421230217629,0.5701035989677978,0.4104890500402074,-2.70820346246008,-1.98433942043876,-3.2456741154276383,-3.2789406367304053
147.0,-1.2047894837408801,0.004561418920790972,1.2093509026617189,0.5829677208634503,-1.213473445284011,0.6196329815872981,1.544517750923964,2.7795484895661717,-0.7182940696592848,0.7385586901929254,0.11101507091787521,-0.9434241908802259
148.0,-2.840079826212388,1.0264232896490897,3.866503115861565,0.8905294702485127,-3.3584622269796203,2.457587246980915,3.203146239942939,1.1338667165300937,2.0598488775535624,4.177298983877675,2.708355894700454,2.2200799954023527
149.0,1.721834443395834,-0.22376636160765573,-1.945600805003398,-0.7684237990038902,1.8278024359939782,-1.0733589675012347,-1.7334074618889141,0.5632131051757161,1.3112039252238306,3.984882829555102,4.045543902327901,1.6009418377351374
150.0,2.854467913913312,0.47206866209797144,-2.382399251815284,-1.6885189167198842,2.6100580670170466,-0.9417642104434385,-5.121578891783041,-0.673839356036141,2.7175792542616035,2.3903775876695046,0.021998641188206935,3.8393445940143547
151.0,-0.44122261868429913,1.8784426306892,2.3196652493735126,-0.671980241128076,-1.392150988082749,2.037784267922528,0.2610056776642513,-0.8941875674990754,1.7317901181836577,-2.874445320597043,-0.2618834186529368,-0.48699425838207455
152.0,-0.6516828772299741,-3.5080247675436063,-2.856341890313655,2.1203354774989327,1.166134671359507,-3.158552387018954,3.563385845458478,-1.7218753712340205,-3.029323988486987,-4.174876378593202,-2.979333016953537,-2.5195875533432597
153.0,-0.5914079630277573,0.3149021667582499,0.9063101297859525,0.09569276808418103,-0.7663485174185467,0.6423110607147955,1.676933424884843,0.29330939739251505,-4.045221302276353,-1.9540539742898644,-1.4524226646451464,-2.294920059412619
154.0,-2.7961486077325426,2.8043571328553254,5.600505740587829,0.030032559795777347,-4.217662599961135,4.164779463447223,-2.0496449516159423,-0.17957382725880344,0.23611520387927243,-0.04894527011046956,0.47546208264627565,-2.0408731933286273
155.0,-1.629899732904347,2.210739604791137,3.8406393376954533,-0.33492464921678716,-2.7562057940481597,3.076276952320105,1.0778519552349537,1.1477956861435963,3.726943622349755,3.964961798824019,1.256245024001302,3.486434805352015
156.0,3.763047344222242,-0.3272284400129565,-4.090275784235208,-1.760236611196164,3.9825752133448455,-2.2290728207409205,-1.5048256812569707,1.604452100186236,-1.9354408251821424,0.9549503601172038,0.8621162212548112,0.5452682053456837
157.0,1.8165235391520582,-8.56927185879486,-10.385795397946943,3.4171421255083136,6.075873738912545,-9.493519063795006,-0.6020866782301442,0.19412460677785925,0.6167615033712948,-1.627989940146325,-1.1240876955627037,-0.47052192807471493
158.0,-0.5183059850976803,-0.24266759127848614,0.2756383938191904,0.4278602264706003,-0.42496648189301744,-6.031935753103568e-05,-0.8485462232667663,-0.6689528409324595,0.8897818880994339,1.4667076996107609,0.917364284842243,1.85648625885373
159.0,0.12427378951099374,4.910943115694332,4.786669326183368,-2.5404358514993852,-2.361333508642065,4.90517073331916,-0.5740333900912227,-0.9520882977809135,-0.7611970233579528,-2.792141642769149,-1.5483360544834737,-0.6792460710051201
160.0,-0.5674192600283534,1.7538577902357195,2.321277050264111,-0.6065230281533092,-1.3962762919222682,2.004979562184144,2.160370062815259,-1.5379957358018557,-0.8683390811832317,0.11509063782152507,-0.6855234652063031,-4.322335535470291
161.0,0.27201086130261387,0.7401017526071099,0.4680908913045321,-0.510368817633707,-0.04823729667502841,0.5591222957562691,2.4209239677489136,-0.25161166223138176,0.8464407546226344,0.7572133211617673,2.011078482520362,3.509042837528951
162.0,-1.264235104703857,1.5262006171516518,2.7904357218555074,-0.12850977447409706,-2.052420388953131,2.180539748759122,0.5051165866784482,2.791143661179363,2.4293196107960817,1.6576709553412292,2.153724741473679,0.4472720828486316
163.0,-0.8363137527443303,-2.958649634333203,-2.1223358815888993,1.90309911095679,0.6229583711283513,-2.525950895556037,-1.4929120550499269,-0.3494671039877201,-0.5929873185953212,0.2815566281780868,-0.13552011802239883,-0.8963490487571527
164.0,-1.7442772617494444,-4.281099608244056,-2.536822346494654,3.016917117000159,0.3811111451005203,-3.3961588409642123,-1.8071124942918977,0.0482838151722394,-3.20579496014916,-1.347675129604788,-4.135534625807914,0.4427594837790738
165.0,1.4287235681439654,-0.8393149905432622,-2.2680385586872673,-0.29655722525466377,1.8369018799075572,-1.5363781661741005,-0.9507088496142764,-1.7305202010548055,-1.1122937361168164,-0.24872186252747086,0.019466393736697896,-0.8655958625671191
166.0,1.4990775012716173,3.867194864543152,2.368117363271508,-2.6951128659654993,-0.444045657689069,3.144058148159803,1.029318368995999,1.9721475859471091,1.3944261163061638,-1.9113761115080812,0.8131392522893678,-0.382504240622184
167.0,4.931929992375549,4.512560289578479,-0.41936970279704966,-4.746997829059967,2.745015220372596,2.005034070377834,-2.3682882556816978,-1.3693312733384984,0.21379749610530852,0.6530766122351749,0.30948987663544336,2.079623552354395
168.0,-0.3021169076160053,-0.5646607980482445,-0.26254389043219695,0.4738234679953517,-0.030802720897395774,-0.4457487511854783,0.26116391282283835,-2.108813274312224,1.9255274551164296,1.215285411672025,1.6828129235017986,-1.8005234982278662
169.0,-6.569542886790784,1.067194924298062,7.636737811088896,2.7791933225170995,-7.117562176925462,4.325804365340193,3.6441705203046033,3.205608123509579,0.26268354940162253,1.3938291752507523,0.6839717263198651,1.382992927218034
170.0,-2.724717586276669,-8.388044939011154,-5.663327352734472,5.495990514753477,1.4498052201203029,-6.971069595424217,1.4875177200493472,2.0539377063608657,0.02872375469337568,-0.08507060547638479,-0.5071782917938726,-1.7466000286784542
171.0,1.0505720918646269,0.4874330881371223,-0.5631390037275066,-0.7565136829158927,0.7810933487761891,-0.06315302371608622,0.44660835321998127,-2.866774334453033,0.11329564899943406,-0.3013625769628838,-2.3984927168173162,1.4168388454304415
172.0,4.883854899871944,3.902110020152432,-0.9817448797195475,-4.382210845012632,2.9793121605477824,1.5105652235367224,-2.223068523827668,0.5599573034921903,-1.4043126376005826,-0.3003586825046625,0.506068786709328,-0.6187797773251363
173.0,0.07829169324178631,-3.187838536231451,-3.266130229473252,1.5676620212954018,1.6344879528103566,-3.2592419043159895,-2.058629354736336,-0.09983209571307428,-1.1969073958902507,-1.737923963865591,-0.4368230816230883,0.8174432380455214
174.0,0.8477780378708833,1.8103102629925663,0.962532225121668,-1.3111140745564964,-0.019890461867446474,1.4287044675838187,-0.6966643367341911,-0.1995250153872679,-0.40297231867798744,0.40394367536461573,0.015059771387023309,-0.2440639664813684
175.0,-2.6523671009047725,2.2352532063157344,4.8876203072205096,0.15445595849938631,-3.7338022771480173,3.5204921468543042,0.15712832919260755,-1.4481937130351146,0.8939214280843786,0.1890353327500577,0.4814066534882029,-0.7851723556173725
176.0,2.1628137051540652,2.254651550521264,0.09183784536719086,-2.1768998459351145,0.9934548085861923,1.1275355158033484,0.29090099194443375,-0.5719935888984017,-0.7818410238172481,-1.0241614227856088,3.1598083979334795,-0.9299320206375773
177.0,-0.655427885614478,0.22912077619421833,0.8845486618087024,0.17301436016350796,-0.8105225775743518,0.5850293754126328,1.5587656893422244,1.6727956708020644,1.8133279861923974,1.9083892800257973,-1.7843642096495727,0.136980818483595
178.0,-2.7522231642174417,-5.252392904507878,-2.50016974029044,4.046836315464873,-0.08616559395999401,-3.8526306476539918,1.9846939993134742,1.5443402034181648,2.168444314401103,0.8592027977896837,0.02328266027470799,0.6811076258666784
179.0,-0.8693827829959219,-1.2664472337775932,-0.3970644507816907,1.0385473677982728,-0.2737972512610391,-0.8120887848914031,0.4466687143239694,-0.3400115079150353,-1.5863174535065396,0.23095073712659564,-0.1955501323589971,3.009763030649941
180.0,0.9592895689712312,0.14539921289278634,-0.8138903560784583,-0.499357339299625,0.928259952856378,-0.318094654494248,-1.897284249730291,-1.5594754800924038,-0.05509128179999567,-0.5224293095935754,-1.5586404645296634,-0.549360051430613
181.0,3.0301355816248514,3.2660155507521305,0.23587996912728793,-3.171753357909293,1.4384228153845888,1.6849839322197164,-0.7706111527297501,1.159813690355238,-2.3033033142961674,-1.6658712167961969,-2.467937657336483,-1.16006457904326
182.0,1.8846678148143943,0.9568707969784296,-0.9277970178359415,-1.44411814408469,1.3672445301915832,0.023990343279715498,-2.891286873225844,-0.7941592493026043,0.09742386541056036,-0.620724930808815,2.8496206944456475,-3.6652808630389537
183.0,-4.060998473381435,-1.2886583102039393,2.772340163177493,2.6500703584805674,-3.458331860133614,0.7484453978922456,0.9973007995492165,0.7762893939048991,0.8063077729304587,0.9779268974086031,1.7778698319241646,2.4425973947008286
184.0,-0.9841027314888711,1.0794533872566783,2.0635561187455616,0.003540605727670121,-1.48999126532458,1.5767949407961888,3.0453028793847983,-0.11528689490615437,-0.02810178872713376,0.12275450046133674,0.9005505108315537,0.35902192904752905
185.0,2.3921319060163757,-0.15169327939559746,-2.543825185411941,-1.1513204791476692,2.42040760851466,-1.340946094499101,-0.16232091813260285,-1.558317260932442,2.478827227725298,1.7148506864168371,-0.9654936818512588,-0.028011957517240504
186.0,0.4735545079306618,-3.5913831158996015,-4.064937623830218,1.602691114893968,2.2997096527785916,-3.815960746545981,1.0216837705417283,0.29371698205688035,-1.5989825769281878,-1.1388588843757317,-2.3761051829348965,-0.9254541166238985
187.0,-3.388023268493426,-2.354629683291021,1.0333935852024543,2.8323597957798703,-2.1781835938959913,-0.7176583271663219,-0.783620837183454,2.417264061223925,0.3307447774365549,-0.6724125139110557,0.28915462582972273,1.5873358920647527
188.0,-1.1696063496505882,1.559285934603221,2.72889228425383,-0.15927293002274,-1.9121531882847038,2.178593454538841,-0.9863969057307557,0.12231013918925926,-0.22993821414381727,0.4983830841683485,0.2466694437381986,0.0390468969471216
189.0,5.937366575839028,7.28092210498068,1.3435555291416137,-6.656927066598707,2.260945066878975,4.3607803874499,-2.2085817302791155,-1.6053858038111466,-1.5049997989475075,-0.5421699035284641,0.47121177790642726,0.7490168766204341
190.0,1.6868923509154847,2.9023231075742655,1.2154307566587101,-2.268552733526189,0.20472057207768762,2.0409525629197116,-0.8917216037043945,-3.3866413377014393,-1.3609191703627115,0.3866750021486399,1.3993627890818385,-2.1554370108913847
191.0,-2.8319275093271132,-3.932395522571418,-1.1004680132443725,3.403484175917682,-0.8939153397448225,-2.52705819978152,1.9609542605899024,1.2838196270805207,1.7276831724385218,-1.0470955934900181,-1.9161453436067086,0.05695768619212316
192.0,-2.6777913049115276,-5.591936630395388,-2.9141453254838843,4.073794523118905,0.1692365275869111,-4.263742968077893,1.1958893952814007,0.7838968129982579,1.3909416789057305,-0.22941482743987232,2.089737030142604,-0.28094707488461496
193.0,-0.2342197384686251,-0.28590161661214886,-0.051681878143519766,0.2762854618210624,-0.11978565211527739,-0.18743931424758786,3.0467682696675,3.5683180385608777,1.7495110750511182,2.9906464924341636,-0.3786684377359353,1.7660277704709209
194.0,-0.8989780993895642,-0.1476934864717162,0.751284612917844,0.5411438653976712,-0.8541959802348017,0.2692179052461149,0.7148632457320182,2.054127062990947,-0.8704705978964344,1.4594157544547044,0.06657097386183439,1.8612635385586793
195.0,2.197205890804845,-0.5213458066327938,-2.7185516974376767,-0.8153699137682635,2.5085303550581717,-1.5898139730820433,-1.6302871121744962,-3.2733780743538126,-2.3216345078312086,-3.1962502619070765,-3.502524830018499,-1.4523490901021932
196.0,0.7395764968821397,3.714636137493438,2.9750596406112577,-2.1974676374369615,-1.0645752651215128,3.361494306740561,-4.492440756422161,-2.375896656993329,-0.9818321995962911,-1.6274886328434808,0.963572408886211,-3.415963593916567
197.0,0.14384429481294592,1.9335209010580023,1.7896766062450706,-1.0799773302091962,-0.8458675064218324,1.8711586690393844,-1.1351985047790523,0.17434545086218134,1.9772330205017221,0.7605453654751606,0.6872213285675525,0.19043883144474227
198.0,1.5498206491327093,0.39378888823852787,-1.156031760894123,-1.0062293476930204,1.3303861856589965,-0.3705185675083307,-0.8589835361566867,-1.8244770712759806,1.0381974673395518,1.6290389944927393,1.3264729924973468,2.0074305574661815
199.0,-0.875828919205557,-0.9683679232132536,-0.09253900400760087,0.8924981449541431,-0.41806304089275437,-0.5116202721307429,1.1766784582837435,1.6026888594897943,-3.112576509228734,-1.7714715433320944,0.14265491370306171,-1.0523741066755288
