Time(ms),I,II,III,aVR,aVL,aVF,V1,V2,V3,V4,V5,V6
-200.0,1.5626783120923111,-16.630068339079926,-18.19274665117227,7.488243862653336,9.82574871180842,-17.409544443429205,-12.109061874091898,-4.133526173875612,-4.621520924292178,-4.572572189458284,-6.8756283497879735,-12.745298959596939
-199.0,1.830933701682906,-5.017380845807599,-6.8483145474905385,1.62912278465566,4.362697631179312,-5.923535361532787,0.4502490498158336,-7.826541333526531,1.6284344780393523,-0.6910898447435623,-6.300839337324377,-1.4581772449063504
-198.0,-0.7264434369846184,12.057725303643092,12.784168740627692,-5.628511543355273,-6.736797289176702,12.442132881128105,6.3718451543692005,0.47760148267400293,10.877121649535908,4.326957877712208,8.600183105697855,11.724089813414007
-197.0,0.3506573977469911,5.377959734764894,5.027302337017893,-2.9048297750374665,-2.323478164288032,5.159343033704207,6.939698352812597,8.813944394470298,6.5954750213414215,1.281082946740018,-1.4003915395214088,3.209027510753299
-196.0,5.302533784963572,4.7895515111883284,-0.5129822737752461,-5.005780456999997,2.9212230837666944,2.1874936480773437,0.6803430924574863,9.141474825275576,-5.7282865532840574,-2.48861983335691,-6.058213888187526,-8.390472221658936
-195.0,-12.494626017705443,-7.187678018586661,5.306947999118788,9.806041195231359,-8.885995489587929,-0.9597386696708634,-7.177831723707267,-1.5630177788746016,1.0068352829155,7.790928697122482,5.917672668234006,1.9388449928684803
-194.0,-4.80256553089874,-7.597740385547871,-2.7951748546491135,6.248157455800946,-1.0641980873674117,-5.211518746592889,-10.022186050046427,-10.637269881226919,-12.514261898043438,-5.751356237300493,3.1737053517490112,4.686713135762618
-193.0,13.918729919038487,4.521527935152451,-9.397201983886017,-9.246395352334947,11.680663494404511,-2.45522922078187,6.299057378177756,-6.233844729203832,-11.269995661860694,-6.408504642561411,0.8304791023695286,-1.4033129470119166
-192.0,5.310870916799066,0.01632193679874472,-5.294548980000322,-2.6862001869831955,5.329755472256421,-2.6645454518891283,6.08355167507459,-0.1652825059057248,6.880315326698599,0.018616633811505245,-4.841220287956544,-5.440018526864858
-191.0,-4.140045647906831,0.7116282944345075,4.851673942341318,1.6939176356505583,-4.543911846669875,2.8234943742888587,0.831598362079085,3.1193211545043065,9.396849355770087,2.8776433636585006,0.05815529111472273,0.4425875408908171
-190.0,-8.799700914139189,-3.5322671818268656,5.267433732312283,6.225476419952649,-6.999803457177367,0.8972707153824977,2.8420042754283035,5.582633726613237,8.538924462819878,1.8652104210787628,-2.602833117143117,-0.28147718032772034
-189.0,-2.733618401724925,-1.0950145443161483,1.6386038574087278,1.8953700977979189,-2.2279043047751217,0.2909776599272589,-4.563023912399319,6.713508679761201,4.6719606833502265,2.497179968880694,0.7167442019701074,0.7468574190256242
-188.0,7.269502844337924,7.407215934427809,0.13771309008984112,-7.356998846586077,3.607120395463731,3.7054404810609074,-3.7919709213802175,-1.9741037479742598,-3.8775851344699683,4.20915601508615,4.370619289073359,3.6167484996768513
-187.0,1.393510927328991,4.008629824969326,2.6151188976403086,-2.718891198772823,-0.6423337256143842,3.319638130913908,2.333855804006092,-1.6479217755437296,-9.597329416493098,-2.9532518159363144,-0.2854885039704813,2.414159505394524
-186.0,-0.2876018679693435,0.3714967014109023,0.6590985693802369,0.0203280375058692,-0.41854411974025085,0.5223474432963487,0.5994653481767247,-4.277258199191857,-7.423987118160252,-6.127488358863326,-2.1035575513280014,-3.5066956526186326
-185.0,8.056337933715414,-4.559791500507317,-12.616129434222726,-1.7635127122354732,10.320353459912022,-8.57909159618349,-3.9157567872986467,-9.123369484233532,-2.980727652437655,-6.079596270791324,-1.2102311308294784,-6.558896092474507
-184.0,-3.1212192018619005,-3.029701120006324,0.09151808185558163,3.0601537520211903,-1.6155461163164713,-1.456935211735971,0.45284587746989524,5.415211336349139,6.0618430794287885,4.722587448712526,1.3549635430876823,1.1942842251111099
-183.0,-11.778149789373659,-6.106096406590888,5.672053382782773,8.924110806691678,-8.730861845116552,-0.20138424611122163,4.127859618483074,4.139665986946759,8.241771378502321,5.667289922784855,-0.02166167730913121,7.080361543992441
-182.0,-8.871269437762486,1.6234129040588785,10.494682341821347,3.6784202954976197,-9.68986171747327,5.998393014397548,2.000390388326596,1.5509986542027878,5.919442161718734,4.902523030160005,1.119178417816496,5.217959825713308
-181.0,13.461776460567469,-0.8932221196751253,-14.35499858024263,-6.318250446194745,13.895759871432773,-7.605399938348533,-1.928407425742116,1.5336993221211994,-5.082477570977433,-3.7377280181834798,-2.7266489766570334,-2.9665016650142726
-180.0,2.8314447477212488,-2.464672920911188,-5.296117668632483,-0.22922245710930733,4.041940281522401,-3.86310110524123,-1.0186172948541077,-1.631473534940206,-6.384893117309928,-3.860573538184641,-1.7231727618846546,-7.835105236515296
-179.0,-0.5754790218539352,14.32909950519284,14.904578527046734,-6.855477005741017,-7.6939075771356755,14.631172373216039,2.2527977449960366,0.36294514639563125,0.8318519884473616,0.43037682732971305,8.44951545801283,1.3656871082599862
-178.0,5.528464438022261,13.032011617439867,7.503547179417598,-9.267309576731877,-0.9518649713436793,10.278686804176623,-0.30115443257920643,1.2632217857254693,3.0582345005089793,1.0308926185427363,0.9384223024992893,-2.457014337820499
-177.0,-4.473715498767869,-8.05417966146311,-3.5804641626952147,6.273990089274643,-0.49847179289546495,-5.887501408075863,-2.9453578993625706,-10.360478002634101,-1.179603128806444,-3.2301162712095395,-6.936012660348693,-0.7880414790364951
-176.0,-3.2393365755508685,-22.441430978274745,-19.20209440272384,12.853884478523172,8.001735523427232,-20.812633043255794,-7.849436161680932,-0.6653459148650418,-7.104982624905771,-3.2990140727787898,-3.9863050364783446,0.5802451075682642
-175.0,3.384703499534708,-2.3845460113838897,-5.76924951091857,-0.47793427895887053,4.593033634913297,-4.06274031284236,7.673034985640183,9.582123867329084,3.6895287938237877,3.6293426865564022,2.007763412663114,6.466028966158818
-174.0,-3.622543611429984,14.425968753948421,18.048512365378404,-5.447338914231107,-10.900349085621654,16.261492036073513,5.108758692043,4.1464649486661145,8.212885553243105,7.20747403940533,4.482899584390197,5.986213061599991
-173.0,-5.159646252868884,3.990359003358912,9.150005256227779,0.6275124614491885,-7.14072948831819,6.608557575580561,2.7943168726168492,-0.07253142442998639,2.8157265225375765,1.470824375003967,0.7352561751790248,-0.23145698946830873
-172.0,4.34708091960311,-0.7646275563517655,-5.1117084759549005,-1.8215930498057082,4.746244557911168,-2.963163845387745,-5.5399920962688896,-4.519703393820638,-7.832959804573653,-4.939960441093134,-1.9898481780892985,-6.3721593062480215
-171.0,-2.355704225968209,-2.0587971151408815,0.296907110827299,2.1768632746237797,-1.3039908236224387,-0.8931317682412948,-3.796843346014965,-3.839122015165679,-2.3311109791896727,-0.9766535751428518,-0.5456675580035966,-2.7579028488413284
-170.0,10.282912814271633,-2.1706689677829303,-12.453581782054583,-4.091205776486515,11.398352139255003,-7.317661019672782,-1.6450956336847986,-1.514043952266526,-0.10834076737449716,-2.8126867657127668,2.5437773261689793,-4.581707901470214
-169.0,1.2943152240350688,-4.372312576478334,-5.666627800513394,1.5758827888542692,3.441004911305631,-5.026512096236054,1.2493509795778461,-1.9608981896314395,-3.7642675096364284,-3.0216707695889062,-4.045970972856168,-2.3385279459213595
-168.0,-2.3742817433008394,5.026525642718399,7.400807386019278,-1.29500832119478,-4.917594363460924,6.197405903578545,2.4038327375219084,2.773530113749937,2.105223098002406,3.135790271880591,0.684005335691803,4.707181409446575
-167.0,-5.600203269353927,2.45620413504633,8.056407404400321,1.6005263956296807,-6.849623634702326,5.226000708785238,0.6570521095710968,3.7114581917670355,3.49709208608975,0.3100280449039987,-0.8211234717888815,5.7693164778425015
-166.0,-5.403392068796264,0.5610966137164133,5.964488682512746,2.450640301842471,-5.618973865314059,3.296784118762095,0.7930495918210463,7.396783691780434,8.981307726686602,6.653077235413995,2.8761264621467215,4.094803103306422
-165.0,0.6238553087930705,-7.646221377638796,-8.27007668643182,3.465163882420857,4.439249057165039,-7.9346009296043745,4.225131340912691,0.8911320302942505,0.6709336566363491,1.9195980486222992,2.0951661454115884,-2.289437423429901
-164.0,-1.1910045811146426,-5.723192597519751,-4.532188016405096,3.414705916815051,1.6671461376361303,-5.107712842365766,1.995179824686518,-7.47401512213806,-8.495106609243756,-4.951199135808206,-1.3661961553927704,-6.923207138047358
-163.0,1.0864447053390456,9.250438448057531,8.163993742718471,-5.208068126296578,-3.540231910783949,8.730863375709855,-3.1502050528039183,-3.303382428225625,-2.238996880803212,-2.8205524552059247,-0.34952390307094433,2.4892562642034175
-162.0,14.516701999397025,12.579630085427803,-1.9370719139692487,-13.507102330189007,8.224672477572499,5.275021610642755,-9.145717895566873,-2.9281324182971775,-4.48646691964754,-2.7880438113979746,-2.6134792819072534,0.591503128249274
-161.0,5.247472642670483,-0.9364691180978095,-6.18394176076831,-2.112292976703962,5.709892865432792,-3.5959867579180353,-5.177273625307462,-3.7040176692221536,1.0861643750731034,-0.6305550176735275,-5.30129955028453,-0.9910324054828918
-160.0,-2.6378866463816184,-9.58739887272836,-6.949512226346737,6.080563657394967,2.144080288399334,-8.217066997529244,-0.8565823082370196,-2.3850311689123145,-0.3419205947783399,1.1202188146834309,0.6119321578399306,0.7814529284293004
-159.0,-10.116910219198992,-3.8256235901036506,6.291286629095362,7.02303100802621,-8.22292697489389,1.2091581956019364,11.032951335605341,15.963315675541343,8.234546441075464,6.452019046547286,10.701858844048678,3.278365566595145
-158.0,-17.469063661246164,-2.188487091532456,15.280576569713718,9.807717741341335,-16.32173316988423,6.5203076720560444,10.89671167523383,11.70133807797816,5.333001074215403,5.110153155612409,7.485057085212088,2.3525700503057903
-157.0,1.9705739224720462,-3.42654938929006,-5.397123311762113,0.7121663785700774,3.6528491228667894,-4.365926814656602,2.1620252964372737,-10.292000953038801,-8.064521903587663,-7.628373620586142,-9.658954613086891,-9.521248332508929
-156.0,9.157395637063658,2.2355301090427693,-6.921865528020919,-5.709194035327106,8.084139105492824,-2.3861011942779364,-16.1688649787554,-11.090182103681508,-0.827666511388002,-4.321882085459788,-7.691004978294154,-8.631853366936607
-155.0,9.258461580497524,5.89815598218674,-3.360305598310831,-7.590711844422628,6.273794666122475,1.2943506999455083,-1.1509585336935793,0.6108029365980778,0.5056391524835471,2.7245017894846937,1.482292989276945,3.917449149636669
-154.0,7.125439559262526,10.995793058699357,3.870353499436785,-9.074913469409973,1.5916629999398273,7.45036854600037,6.800511669850138,1.63224621182711,2.08086092896162,2.619935650418784,2.5126945410368347,13.78528831264397
-153.0,-8.911904689438312,-8.534880992648532,0.3770236967897531,8.7851557875785,-4.601977326882959,-4.065699401445256,-0.09369464455429921,0.3899732475372421,-4.599976950335857,-4.028165527216738,-2.803251403857651,3.388841044714715
-152.0,0.9469887536944879,-5.168994274751531,-6.115983028446026,2.092170019406485,3.5723824994192985,-5.707284530109468,-9.61389086953586,-5.3887381230241695,-3.747048296905475,-1.2170419412272806,-2.6114363610324456,-2.3653704306740506
-151.0,-1.315265570794196,6.5392484422909956,7.854514013085193,-2.630693155571752,-4.626295416222739,7.215971420594881,3.840532346962256,10.064063272487328,8.62545584253739,5.697655990311773,9.844566885504912,2.153304792839929
-150.0,0.09467355092673158,-0.7023432721781391,-0.7970168231048751,0.2873816021782505,0.3988486724775222,-0.7223847877954268,1.0262749915633087,1.7833726632301645,-0.5540475450415832,1.1475078867826523,5.064840596725713,-7.073822791823998
-149.0,-10.038677105241844,-3.700595250668486,6.338081854573353,6.935309742981245,-8.163472147448344,1.3552727044172463,6.058636579240363,1.08310122422577,0.4516928866690131,0.6340941328162878,1.5723989327157346,-9.920747622632017
-148.0,-4.460044627424436,-0.411844990164548,4.0481996372598745,2.425493393592276,-4.23582523638588,1.7839469747554755,1.0603454157983654,2.5159364389729766,3.6337158804864944,0.26216363084244765,-5.079812627819065,1.153592858132769
-147.0,10.385184535107259,-4.327204179790288,-14.712388714897571,-3.039701331440299,12.562410138829248,-9.5491038193369,1.0809806125572758,-15.801114385371987,-8.58567719572864,-9.572804376694062,-11.12405614643756,2.0973949207502587
-146.0,3.8834744215972936,8.753233614264877,4.86975919266757,-6.333663604724063,-0.480931033587102,6.783327145104685,-2.383307567833118,5.033623201976997,5.602586021339883,6.350550434805905,-0.8255210841955805,6.684435262705291
-145.0,5.596221487063816,-3.9785901056314765,-9.574811592695323,-0.8329704257155495,7.521380145078106,-6.728142483801943,-10.5511468412826,1.189047596329606,-4.02286165708784,-1.0084135334545237,1.1789309690720398,0.963877556240349
-144.0,2.4829105434638805,-5.903032734121689,-8.385943277585602,1.6747642857230043,5.4549144839650925,-7.178278105688742,-2.7706895509270195,-1.5875658700130009,-8.817595060615098,-7.026192600286485,-0.324663512163184,-3.7001687829555374
-143.0,-2.529081077728868,5.710842747590419,8.239923825319243,-1.5576146920628686,-5.355855015841435,7.0169068155076015,8.025604305325341,3.8731249650433455,6.7971639431827775,5.325119130164893,6.971298089943142,4.392339126266419
-142.0,-8.815952401601798,-0.830611613645655,7.985340787956072,4.850569657161032,-8.36338475566057,3.616730831401766,6.852086970812509,0.4921383664922794,5.281055731346547,3.2202248756584058,3.4651441365350673,-1.4150446682932736
-141.0,-9.530294796543423,3.960278087804536,13.490572884347912,2.812313577337827,-11.54489123917489,8.685332837518535,1.4025236715242886,-1.217216312903592,-1.40551190706327,-1.5569154954016051,0.8554707450302579,-1.9934015281428283
-140.0,-4.805798642985691,9.1449627891537,13.950761432139348,-2.1368157272145343,-9.408840340734306,11.507976163292412,-1.8015052918947092,4.025337971896936,8.67780360659683,8.84757157399595,4.445684795136618,6.610884979276179
-139.0,13.290813657682069,-4.034565451320176,-17.32537910900227,-4.665871348767352,15.277916464748094,-10.640642497775506,-4.5938448865682675,0.6907531361624599,-4.042670132900682,-3.354942666381197,-6.532781636493246,-3.455927182250132
-138.0,18.112423337751327,-11.584956261148486,-29.697379598899815,-3.2940084661237314,23.951347251854656,-20.680146965072293,-5.3618468100345265,-11.25646729972205,-11.02082214555489,-10.633032120997044,-11.674455238818954,-8.92900596150037
-137.0,-12.198931429701515,6.0721253551886525,18.271056784890206,3.037044700634083,-15.269973273775582,12.212001214932489,3.294725304890402,5.6291183140412375,7.801434709079764,5.75255597957119,7.6024635647237995,5.075586695558542
-136.0,-7.494682610610673,-3.4561771914289383,4.03850541918182,5.448534439950161,-5.7240947091772565,0.25415572404278475,1.0671284500617584,1.5977823360851486,-2.3978121853089096,0.512446857689464,2.107807757155704,0.7374973701522767
-135.0,0.6352454505719791,-4.066284627652092,-4.701530078223942,1.7635018693520959,2.7120397156510156,-4.339789182156052,3.365727827092363,-0.8939728178015534,-1.720972355257344,-2.7885067009979503,-2.069745447519782,-0.20066451295940269
-134.0,9.363763760061946,-6.722822887324014,-16.086586647385843,-1.2774052480625269,12.693312171432332,-11.436060312597023,-3.5093801857127067,-2.024359754121059,-3.9160433228547746,-3.715418605825628,-3.35560371849075,-3.344750513907549
-133.0,-1.5588341551246367,5.959766219540534,7.518600374665233,-2.239890722630292,-4.566688465971357,6.790001808333148,-1.5115395549536053,3.239762405947884,0.3660849245616035,1.7081598661407664,1.435224173284809,-0.40838490790003584
-132.0,-6.700420706261561,9.479496816043175,16.179917522304727,-1.3515771669675476,-11.465326163026557,12.804217642594404,5.3850351235135205,4.184762370760581,9.67637264956239,8.237112526928616,5.707943663596239,7.765046252776042
-131.0,-9.380993124676891,9.312102119632511,18.693095244309383,-0.0054486533792383884,-13.982958116381326,13.977552630186072,2.2023991509521768,0.2035185639655741,7.4850682945126525,5.0243463973060045,4.244996196205861,5.085042291506456
-130.0,8.244189347465689,-3.403192250643733,-11.647381598109428,-2.3795716178893187,9.918982215313537,-7.552288587397627,-2.182431916865304,-8.134006219302679,-7.524736930241954,-7.306123273236569,-4.538689366281547,-5.953416405517798
-129.0,11.696287366389404,-6.727215916568087,-18.42350328295746,-2.520459710460885,15.028930399304976,-12.527549448615792,-6.280555556183557,-9.758303069156888,-14.519125682287745,-12.418316432600866,-8.372591884570468,-10.800305400679369
-128.0,-4.364278650446994,0.2941158925231715,4.658394542970209,1.9999715866773462,-4.468539672855938,2.4403796450097612,5.063467426557557,7.8755262896617735,3.4069177728864766,5.062907607955715,3.4779768312171084,7.8526438770297995
-127.0,-4.706380369226243,-9.646356755519177,-4.939976386292866,7.219642084500323,0.15510191270271023,-7.255222710784602,-7.781851114692725,6.830313280894567,6.661493290315036,5.206899595746192,0.41020054253842464,3.1302734072801965
-126.0,-3.2720147023593205,2.737802210997441,6.009816913356827,0.23070695119371676,-4.684285686813514,4.4073442369785525,3.7503696752224425,4.676799337110776,7.500337995703136,6.610613387233309,3.9079519809143877,2.8510106219950906
-125.0,4.96298107369121,1.417825190340881,-3.545155883350303,-3.148660894824798,4.210008819031282,-1.112878478556236,1.9736530989882914,1.8170316251791672,1.1957311597817264,1.3487015287210617,3.7917493179620725,-5.984010160522178
-124.0,2.8391319078691453,4.1464656743270085,1.3073337664578124,-3.4507626743154005,0.8023728593874566,2.75242264893147,4.261625761191238,-6.9080957825958285,-7.572231725017561,-8.21660346214775,-3.404057799057222,-4.982378750940107
-123.0,0.8883874931099592,-0.5811529880516915,-1.4695404811617978,-0.18905733586119888,1.2194822670980592,-1.0828046527834947,2.8075228344293173,0.021898213941866196,-3.10947959292649,1.1839339647098823,1.980199667121009,3.6889234743371846
-122.0,-9.984831043050901,-1.4781061988689692,8.506724844181742,5.698046185826991,-9.278419234456095,3.531580016113904,-1.8026011237100819,-0.8583218278240448,5.590462208040145,2.63489901660586,-0.506619116670782,4.487262166040484
-121.0,0.29542913830078543,-1.8505989995503445,-2.146028137851252,0.7467672143727762,1.1940665845205523,-1.9838283664077125,-6.929990576039046,-7.06979324539859,-8.89123403495243,-8.964900152052618,-10.115078597795122,-6.7708002861383
-120.0,1.8886642991986384,5.13428861733032,3.2456243181316906,-3.460250244839449,-0.6213639580071539,4.204074426891554,-2.2314961633400006,-5.1480648070952,-2.980152409670824,-3.0237757023223337,-1.359134018806221,1.2969092665738708
-119.0,3.058088859185819,1.5682662451265683,-1.4898226140591342,-2.3366072464464867,2.255270355072028,0.056146726572298467,-0.6206760956014727,1.2362014519761766,2.8579685445181635,-0.37110263597404464,-0.5288591817871278,-0.33963120969766347
-118.0,4.670685126450997,-3.3612696770984467,-8.031954803549327,-0.5948635945044758,6.3329849654029955,-5.7525224233081085,0.726593873481439,8.010785490731303,4.427262567366831,8.626206323432594,4.715408385185608,5.005097846401919
-117.0,2.143019736782065,3.4285589162240973,1.2855391794421216,-2.8008897550565246,0.40849504493558797,2.3879678699862468,3.180408420326528,11.33172674055358,10.952204282010738,8.560956706432075,9.815243638011738,6.237134912919775
-116.0,-3.860435433034637,-0.7621309200973608,3.098304512937377,2.297562307980543,-3.502678902521697,1.2076774237988583,4.396072862857972,3.651100045238538,2.6813911852462673,0.4537734707549861,3.692337038526535,-3.984128019992083
-115.0,-6.575978840696267,-5.261705966596992,1.3142728740993626,5.902506020939904,-3.8925263510621617,-2.0053488659820236,5.58163874136554,-2.0210695173020325,-7.321501983560272,-1.5981981055043555,-1.4485086732578445,-4.02912548640937
-114.0,-9.929575461073654,-10.659326448775179,-0.7297509877015227,10.27088608733976,-4.5490005983695365,-5.721130171303117,-2.496202400256944,-9.738604326244968,-10.240078534714387,-9.766399224617262,-9.211343003947755,-2.415912062617178
-113.0,10.347935729518698,7.233590873176725,-3.1143448563420617,-8.746602395338034,6.702781961414733,2.0351040995121563,-5.304633945918476,-8.917690071805389,-2.7384478574300672,-3.278207422836412,-4.387904150805619,-1.340191691223235
-112.0,7.856398379009606,10.290173568026896,2.4337751890171493,-9.12054175502205,2.68282178570004,6.415797230610155,-5.853537668251864,-1.747134569586045,3.68354929157565,2.39782258507052,1.3424770145193916,0.3165426001413515
-111.0,0.5390058541371507,1.6664107162022885,1.1274048620649544,-1.0826813364297312,-0.3233543955687179,1.370218465875102,1.0446525512176468,8.068751175925861,8.280228231187376,4.349535909776458,2.3360764037845594,5.5764704627973805
-110.0,7.517951517547258,1.90768773456274,-5.610263782984651,-4.700481774262423,6.612161665342347,-1.80114291778329,-4.22956988902434,-3.486913538158296,-2.165334808723273,-3.5522490716986987,-3.066341858717729,-5.462346982151209
-109.0,-9.160890446695687,-6.758312504949781,2.4025779417458355,7.9694300024916265,-5.814280821110982,-2.2077249397561864,6.0767413309551,9.717239587103109,1.656634180202743,4.982101248256062,4.819985622338153,1.7134107368516287
-108.0,-3.2548479277606255,-6.537294874868165,-3.282446947107549,4.908270537710523,-0.01966993545068263,-4.940028087429921,5.109933502387102,-5.516213745089148,-8.066144199116357,-4.083471181314564,1.5077186138665026,0.7536754152118998
-107.0,-6.2570639067608935,-2.630505070416953,3.6265588363439782,4.461342544122238,-4.89529693890722,0.547174528825598,0.7894869221282188,-1.0076350545244086,-0.2681279593999646,1.7353395633634259,2.1871923050477085,2.94091591633819
-106.0,-11.06186461099265,3.780827715092101,14.84269232608479,3.58493352283512,-12.901952005313039,9.283311412813548,1.343347934935716,4.28908278410057,6.568751529049291,3.912329672168028,1.5761782556253912,2.519697562688334
-105.0,5.001264136574498,8.236359488020318,3.235095351445899,-6.592297487574539,0.8601744500103083,5.708791045216476,-0.5694538094790547,4.28924607649364,5.3142231592226254,1.618056439310866,-0.5878591343642946,1.506826645760651
-104.0,14.978783146141023,-0.9182186881629582,-15.897001834303863,-7.082749187369676,15.420177673379786,-8.35410645519124,-7.223229500765372,-4.501227253016815,-5.647764759984662,-6.605054556561542,-9.580384583805374,-6.678414138313967
-103.0,8.22300742715562,-4.381517234600629,-12.604524661756152,-1.8980154977301034,10.398547705802322,-8.516585432473224,-3.4956500442336367,-2.7794944468568317,-2.1985518787391864,-2.392079773144904,-1.3299161939382165,-4.579537767801116
-102.0,-1.31365697103731,0.17033181383245655,1.4839887848697604,0.5890675672504035,-1.4159684322898007,0.8049774418020865,4.849583481494851,-0.6700153173141419,1.054322078177828,3.410513335072555,3.1514922811042103,0.9069395622819867
-101.0,-2.9836462760385825,2.507384128213784,5.491030404252228,0.250521824889401,-4.182393149858101,4.056423011718688,0.9673567029001424,-3.389549451447927,-1.0716802553517022,-1.5063990821116702,1.1519952508129376,1.5039046226631434
-100.0,-5.82073274028955,-1.365136335763031,4.45559640452635,3.602424877279159,-5.17201875533511,1.5231238128020883,0.9775326352093359,-1.7693268615281157,-0.9638826295347709,-1.0508372499481713,1.1215696238794624,-2.8554094610976843
-99.0,-4.1634823401554,-3.17249016890268,0.9909921712526115,3.6777405428212404,-2.6218606519019243,-1.1149917998846792,2.372929008612306,3.850861495230222,-1.0598700562054926,1.7383298940066156,1.6413130110742495,5.156808578000083
-98.0,0.16756154747556895,3.647929874638284,3.4803683271626893,-1.9730433869937878,-1.6305623198676602,3.5362100490041333,-1.4059474680836428,5.470657487772785,2.6228642341851645,2.977883356943272,2.5794314197829973,3.6195054256883674
-97.0,0.7203990718990388,1.124002802074403,0.4036037301754396,-0.9018919909659695,0.18106470428161692,0.809770133969975,-3.370218119373294,2.8265882498397525,4.958867429539257,1.926489337898731,0.9240113310354419,5.078874107273827
-96.0,-4.204674687235231,-5.219902308709937,-1.0152276214746228,4.741997569267863,-1.5691463641131707,-3.076912610408692,-2.222527457427632,-1.1200184465171386,-2.534768031836885,-3.308545489835125,-5.7041454552166915,-4.700086307245216
-95.0,6.114544636677159,-0.245962021318596,-6.360506657995682,-2.972316230390059,6.270871234085027,-3.3463763065031764,1.5392927191955035,-5.355638662789563,-4.168465910739197,-1.090366867907873,-1.5946854194562072,-6.068629273631074
-94.0,0.2096725039609746,4.854305489464461,4.6446329855035335,-2.4799332443166513,-2.2533076260776,4.702253920750739,3.349083835515743,-3.77339012851609,1.3397317536871753,-0.6653688853282231,3.7373211903185304,0.44246464642416417
-93.0,3.404706946782872,5.923015096341158,2.5183081495582913,-4.680534681728359,0.4151096960310403,4.249715681128652,0.4879991122766507,0.9223870560745304,0.2512278295667877,0.9950154952793517,0.404797598117689,2.0957744616560614
-92.0,-3.270861871830921,-7.076784432791273,-3.8059225609603797,5.1641898659476695,0.24260371270777004,-5.412772599153589,2.45670855698442,5.137564631383654,0.819386114642996,2.7127249968488276,0.7457055188406578,0.40488806225115426
-91.0,-4.692178672739729,-4.661376562127151,0.03080211061253979,4.66993565361006,-2.388611745132236,-2.2851752871625743,0.7943239680675205,-2.1007541433994446,0.03643301061722676,-3.240126828440555,-3.9686350328880247,-3.9587985331659663
-90.0,4.310586888334965,2.2127509538209025,-2.0978359345141024,-3.270426835444191,3.249535538403487,0.011846523501631179,-4.4840511857536764,-3.3063704786248294,-4.267015148207964,-4.225382279149755,-3.7251103537116625,-0.7059898277713654
-89.0,6.80776182674219,4.687680736846907,-2.1200810898953293,-5.762599401489345,4.501307808147594,1.2418698920168747,-5.514222521667051,5.349785081575111,2.308965367346395,-0.3662693037688789,-2.1672517916084013,1.6908257182750057
-88.0,-0.71277734327403,-2.4625401448261504,-1.7497628015521587,1.6424797993265077,0.5488979339319111,-2.0658723123916385,0.7729629724685654,5.673493873579176,10.736562508892277,10.494099912370777,6.541861438283085,0.797542137848261
-87.0,0.33884435459356754,-8.15528325675659,-8.494127611350173,3.8739388485094235,4.364030667066238,-8.281890570832026,2.1126009348606005,-3.919212514577018,-3.9803534214656855,-0.8226269739599541,7.147607201176598,-1.7488358334893341
-86.0,-12.733298917511943,4.988856170955597,17.72215508846756,3.906613295189024,-15.280402451772755,11.320730189845623,6.890913954857634,-8.613623514071447,-9.298139902944026,-2.85438454558589,4.651786404200495,9.376478592205364
-85.0,-2.581407869813768,10.342296849433689,12.923704719247494,-3.933329610490566,-7.722586645018763,11.59785787500534,-0.23194558964598544,1.340787865554777,0.7375271780022854,0.8269752947922244,-1.5649232105411006,4.607009733625523
-84.0,4.48032356100928,3.7539703209994206,-0.7263532400098347,-4.097360657821565,2.6407735940479604,1.555734163927264,-5.019726075442419,3.6018732792950354,1.4789239548918842,-0.5183837445168421,-4.852745023696149,-1.9515421986181645
-83.0,5.821691161223855,-4.179468723230929,-10.001159884454786,-0.8044516735881977,7.879693752292167,-7.129589366328758,-3.2287433931852734,0.882469780888256,-0.13475638636851262,-8.125789599250256,-13.937825451670372,-8.54296181424185
-82.0,6.592926039029082,-8.48708409235053,-15.080010131379648,0.9636628981441938,10.892793795476383,-11.74660495422085,3.165532758029479,-1.0315836070636835,0.27784853096575923,0.028335531832672345,-8.1281967326195,-9.459192447007599
-81.0,-2.4450897738599666,-9.248017113188583,-6.802927339328674,5.787081055624037,2.1625878454252563,-7.990554565884121,1.2313898094754365,1.2594639355116122,2.0072150311844137,3.6396552415553467,7.978101666565855,-1.7202414474542032
-80.0,-3.6585371609449213,1.113586597647933,4.772123758592787,1.29662205263528,-4.231384725604185,2.897886962674235,1.7073114203770636,-1.0755507473677148,4.146410009021266,5.907535040789642,13.448646468754891,6.085196093775894
-79.0,-6.458624529376207,1.613643913307858,8.072268442684011,2.4528364231578466,-7.288224392163902,4.7979723343791125,-2.1175698261924327,0.9425052287408338,-0.1465252510843904,2.490039134386129,7.5762808264424555,3.7469202513180893
-78.0,0.07725325992022425,8.340498347648737,8.263245087728462,-4.250821322444835,-4.128489857265285,8.336909410681,2.7880015775126488,0.5510929535583184,-2.82649847528652,-2.3731778875667136,-2.1034763368226104,6.093290467848886
-77.0,6.00882696554683,8.52815915533017,2.5193321897833103,-7.226213537502269,1.772487547088153,5.561367503589915,-2.724017998224034,-1.892557573053192,-3.849339233772919,-5.767922852560818,-3.472751039769037,1.2570135184665197
-76.0,2.5638214654790756,1.8879059848150086,-0.6759154806640548,-2.25908262923882,1.6337510916698972,0.5684385700196559,-4.3990106127811694,-3.9107638098297444,-4.75033282877955,-2.8569269421541295,-7.935525496392328,-4.495267113752676
-75.0,-2.973807345777529,1.5978325185790405,4.571639864356635,0.7336184303852404,-3.766829279870702,3.1297069346675084,2.935521393545347,5.914592349844439,6.395839620732582,5.044169410365862,-0.739588951134758,-1.5770694329345627
-74.0,-5.934386781295871,-6.9490963684518645,-1.0147095871559175,6.4053257941479105,-2.453604594603009,-4.012748559411665,3.0871875798670056,7.0476873806390685,7.58805836491957,7.087013464379557,1.2366537869733474,0.6936918801954235
-73.0,1.956366649334199,-17.337781350256808,-19.294147999590965,7.6483095006338,10.639948898981109,-18.34560235257108,0.21131761432363905,-8.352716823498568,-0.7134546837966904,-5.079778472942333,-4.21090890503856,-6.0189864119670355
-72.0,5.4075310474600595,-3.042159308088152,-8.449690355548167,-1.1533614210623035,6.9570040613126904,-5.697594824159517,-0.7420723101773896,0.8874069811399785,-6.106977938582922,-2.7649875859080395,3.8494360194658555,6.551732814873887
-71.0,8.022291066656468,10.33775868581975,2.3154676191632992,-9.156646018517783,2.8174000041299334,6.293987329203337,-4.1093931692931935,-10.415937855779669,-7.971299967813375,-5.564309327284686,1.7226542489042869,1.0387164750157152
-70.0,-12.294754994036754,0.8745936817784044,13.169348675815192,5.730495113406239,-12.757856189040528,6.986959932463458,2.0177243845463617,4.954588196201704,3.3544901707123915,1.7758889691600173,0.20943444579634019,-3.081547222943196
-69.0,-4.234882750476291,9.390944048813724,13.625826799290046,-2.6353447745621277,-8.953462316213413,11.55098300537881,2.9696275076610843,6.640250439375295,6.037815412290609,5.778467122214332,4.848169852827717,2.8660126418059213
-68.0,0.5715271843241547,1.8581571589339543,1.2866299746098306,-1.1886305933907702,-0.3076545395347816,1.6160356037164236,0.8233868935939115,0.24171976476311752,2.0588466386345727,1.8760939498908593,-0.9032588542747244,-1.1367532269245244
-67.0,10.432445990614394,1.1843547974068018,-9.248091193207546,-5.775073184030041,9.798895929576432,-4.063804699282539,-3.8538275048647677,-0.32994419838763567,-2.9360895575979296,0.5752687735151394,-4.318244733755102,-6.442185462936187
-66.0,4.926553492106068,-5.153635154980952,-10.080188647086999,0.07537940521171582,7.52507489280342,-7.644687659213294,-0.9657021837244221,1.8750815702117571,1.5396713526641357,-0.6261272398762798,0.7958393619789992,2.498425991567711
-65.0,-10.577803658018272,-6.854387084566495,3.723416573451786,8.761809431244988,-7.143303572838697,-1.5111542956749702,0.9186390514580556,-3.824707911260559,-2.110641519572696,-2.854104062975028,0.5486239127449153,3.7786804228392787
-64.0,-5.637737892138555,-3.034521547896353,2.6032163442422216,4.3045682843235396,-4.122314160700047,-0.2392374167804059,1.1455880069901243,-2.559456313529278,-2.1881475320734425,-4.175799419712244,-2.8246639802647806,-3.2040275042304045
-63.0,4.633090190668004,5.139147263321684,0.506057072653679,-4.9198717250676705,2.0602484181355605,2.796422782667741,-2.543642123522637,0.375987813492876,3.150726533413528,0.3413458421301234,-0.4786057451393435,3.526051407821668
-62.0,3.077082795083579,3.712833096180714,0.6357503010971269,-3.4328591627195975,1.2239801567871207,2.142447011324907,1.9685101254611541,3.380863703020053,2.1726864363841085,7.335581361265845,5.5936032269482645,4.809153172434125
-61.0,1.0299781507351649,-0.6653089528803524,-1.6952871036155521,-0.14472691985099218,1.3786020368172422,-1.1405662327372443,4.255411277107873,-0.25077019629567365,-2.3551903829018292,-0.9955957897510315,-1.0755560193061204,-0.4206338994167722
-60.0,2.8394733180623155,-0.3476267152170598,-3.187100033279439,-1.2079044545948763,3.044326816783626,-1.7341460310530183,-3.7878477569166815,-5.656070431851672,-6.845283739801282,-4.1532714454147115,-3.746254637967416,-7.481592129885591
-59.0,-3.7759254137235727,-4.900145386338499,-1.1242199726149453,4.381337706541479,-1.3603863889060357,-3.061675024582742,0.4490683394488153,5.918342535348012,1.4515053119295338,-0.5195989260162777,-3.2448745890373027,-5.184618913621039
-58.0,-8.853113989640121,-3.112280488465368,5.7408335011747935,5.956329272158199,-7.32382502122968,1.3430076770230663,2.510111886713,1.0813295694364777,8.339209934807622,1.9347194464970316,3.2192993494069233,2.5160940211697906
-57.0,-4.347795188699312,5.66140282903468,10.009198017734086,-0.6733411213625287,-7.204856348345903,7.866484229602179,1.2473651879390824,-2.2533800985807413,3.345238134876787,2.9744628597290914,5.1072088165360805,6.90540742193145
-56.0,10.221441281052122,4.875564615882614,-5.345876665169384,-7.558201648759589,7.830075813923239,-0.2788689101664472,-6.490433092974229,0.08429674936961362,-3.58272662141426,-2.0286694799018736,1.6259540461119177,-0.07281939522017877
-55.0,15.017932858013301,1.6252057392244903,-13.392727118788713,-8.330276705169172,14.163320267048135,-5.845521454222417,-5.946083189767467,-0.03737702354038047,-7.359924016173022,-3.9755696417993276,-4.900636759989739,-1.821457614197095
-54.0,-0.25300914941092145,-0.6061905929692576,-0.3531814435582712,0.4152595043751548,0.07712219477163895,-0.5193125978294026,2.2786986383663552,-2.5443876286057527,0.06588999807692897,2.810241423737787,-0.1482785626003844,-0.13821329464876408
-53.0,-8.497439116486111,0.38467117079953606,8.882110287285663,4.031423927111983,-8.669268789738245,4.591758445444748,6.17292814434832,3.070581733429617,6.486757397441549,5.638655329003108,-0.20507424282874265,3.0742604439591577
-52.0,-10.451415954872052,-8.61297204408643,1.8384439107855957,9.573825396393373,-6.126155616413787,-3.3542972608044423,5.427417975301708,1.529290193823329,-2.447345665556947,-3.6943096542855667,-0.5904566465654968,-2.313079758899933
-51.0,-3.9594673044489443,-8.6554295213632,-4.695962216914344,6.339372734422827,0.3897493550935973,-6.647343985629332,1.521212925903611,-3.507025375997328,-3.921917708687224,-5.9023073334057585,-1.3890044774725532,-4.651649959472821
-50.0,2.4842814333176584,4.441022994424755,1.9567415611069867,-3.513613086628103,0.21187173620475275,3.2240164417926067,-4.340370504667758,-1.4172315753954567,-0.5991657407627402,-0.9989675279101762,1.89846645958348,1.8140388873413111
-49.0,2.0895204975464283,7.0368801836673605,4.9473596861208495,-4.532757361934163,-1.4751363545495098,5.938015586261298,-4.173134668394201,3.7883141034813823,5.5566074368625245,4.244890485862792,4.155781478688016,1.6582593154533145
-48.0,12.172414959133405,8.700189888907017,-3.4722250702264383,-10.397441328516193,7.859175175250872,2.6413071382668503,-5.713332648177987,-0.5652703425983621,4.985045698504921,3.606925709810114,-1.6681188788532788,-3.6857260786047448
-47.0,1.5579516211891749,1.3168346635881107,-0.24111695760103302,-1.4659466973790725,0.9388267555258656,0.49179845427275604,3.942963418914744,0.8669354557078117,-0.6028284382437299,1.8775945034859605,-4.746741440184273,3.3321703226061192
-46.0,-4.232211169607563,-4.360470629700585,-0.12825946009294364,4.278399070607815,-2.090286775709907,-2.204884381771065,7.658260422714682,1.3685952052764039,-6.348388158000659,-0.5933331867253684,-0.5071696656733342,4.77259728966084
-45.0,-2.5138925039525506,-6.546172609532834,-4.032280105580189,4.518820324816918,0.721982415467999,-5.243328876992737,-3.998441095872467,-5.767088083553016,-0.4855742840248136,-1.5218208074620392,2.384132496813488,-4.331922878249714
-44.0,-10.792608394080911,-1.113304518888385,9.679303875192597,5.942942550506596,-10.192123375062947,4.254265880158162,-0.07092694098674174,-0.9156398856331409,-0.9065037009589367,-4.904907417233618,1.4649139088868028,3.1168208246691598
-43.0,5.9782643670323905,-9.101231263990565,-15.079495631022928,1.5473720202104353,10.576805472739998,-12.118672322142311,-2.833801930774101,5.961204790015199,-6.28670096012978,-4.684657777456631,-0.09029907289810102,-1.797363303222351
-42.0,1.1031955996808118,7.424881052406386,6.321685452725554,-4.207037058866129,-2.634587887194229,6.84152284704623,2.412780727187603,0.16646235158362144,7.319340097885975,4.095718657856138,1.110546369466266,0.7442758047572939
-41.0,5.032486462061337,7.89166595439135,2.8591794923299574,-6.49257056569345,1.0668640220634316,5.4164229614948125,-0.4167709775204801,-5.3312053933074575,3.971801662167015,3.165189579632394,-3.297446625052611,-7.321368152603104
-40.0,5.620310818860203,2.6158401348763016,-3.0044706839839113,-4.0774594990846875,4.296557803115344,-0.23810298420066323,-1.52399308884265,2.825255034630609,5.847354832085933,5.549268649190699,5.212524283674197,4.794886142639597
-39.0,-5.076190430967282,-3.4431651279860356,1.6330253029812476,4.216428524797154,-3.3694282997967075,-0.8735353530111554,5.780964397605332,3.0976240584683987,-4.282864568868571,0.19500442389108708,-0.9063436808944947,-0.7413386099135313
-38.0,-7.699940060788502,-2.545650843139823,5.154289217648674,5.156185071849651,-6.365703028186283,1.3366960651472937,-0.25505847505606427,-1.073286111875867,-6.734486771972801,-3.9242439725302534,-1.2588593463095745,0.7390489704790282
-37.0,-3.191843114119473,-2.2237158383004774,0.9681272758189776,2.663036607913641,-2.1031022150029632,-0.5904335704667092,-2.8255533553613543,-1.0616142755512288,-1.3022682232440994,-4.332079722182831,-1.7061142241445266,0.20451667810713836
-36.0,4.59602108889233,2.225470788468974,-2.3705503004233894,-3.374121372394142,3.452127340397899,-0.10669130947201588,-3.1763324553168153,-0.47304994615977625,-2.108304902917821,-3.2029838974426164,-6.240602210634525,1.0814996463005349
-35.0,6.4965405044751545,-4.1596033651970306,-10.656143869672194,-1.2069104172229448,8.615129546486127,-7.4352876997737045,-2.269149106307699,-3.7527366370107997,3.3509920352471014,1.826058435289325,0.3316996912963297,-1.666703225188994
-34.0,-0.7399116656936715,0.08021644202133782,0.820128107715016,0.37389825954011746,-0.8278638562520211,0.4266786179465347,1.1088247084174108,-0.11465655712727774,3.074589855209285,6.27764791406523,7.074298730474548,1.3574342891770104
-33.0,-0.05310071132753458,5.385510272245703,5.438610983573279,-2.69812157991385,-2.7204621085526033,5.388792305024024,4.91651808014821,2.857206410796826,4.052346371802936,0.6316994290224383,3.991919422840257,-2.6112895743999776
-32.0,-1.0487833120603252,4.854524884980522,5.903308197040878,-1.8551518483985967,-3.4530431737211327,5.431661445456017,2.4926735688495283,4.16057985594283,-0.2556642680950869,-0.13866131207131893,-0.16537356533138814,4.090838453172195
-31.0,-7.710124907817145,0.09438867217680835,7.8045135799939525,3.7751663776470483,-7.733809283680585,3.919413547159359,-2.240374161496531,-1.5711356198170148,-1.5382740903532395,-1.1432456111386888,-3.7866748260543437,0.6057201735043383
-30.0,-0.925839579123426,-5.611432035996851,-4.685592456873417,3.2315820760685154,1.8269358615221338,-5.10360128485832,0.5018432234889811,0.9537476222534211,-2.971540584905472,-1.9945929291106332,-2.585247816483046,-0.06904097396370973
-29.0,6.3218794450148135,-7.173155123768343,-13.4950345687831,0.46087880993450825,9.93684636120339,-10.292203171370597,-0.017681417331580462,-1.0893090076581446,-4.744865145272872,-0.81527403499288,-0.837603270436253,-3.0859302065104686
-28.0,4.4516271511889745,-1.875779967316352,-6.3274071185052225,-1.2600273099205959,5.340736506191419,-4.141247135444307,-5.18768737649934,-3.9786702002491054,-0.047484600433151725,-1.587117646562211,1.7727487652065514,-2.471864561705316
-27.0,-0.34423529612480164,-0.6268148158455992,-0.28257951972072304,0.42797796373661634,-0.0008594232777543453,-0.4979673095555168,-2.4138013316518774,-1.7039921015187673,2.0541459791292462,-1.8835062983944821,-0.9963499401144584,-0.23592309319726512
-26.0,-0.5524516355988194,12.952641204783443,13.505092840382218,-6.183501713425637,-7.000156921845176,13.259355016737137,4.158234859308735,2.7077811291298373,5.138575508003594,5.783330434954204,3.2413257464037972,6.43628601580563
-25.0,3.537522764893939,9.845961340907609,6.3084385760135016,-6.676787617088396,-1.4374699491902225,8.023224085220967,0.32476887457386705,0.12643477177304807,1.6265902151514706,1.5547497882799206,1.850963397311281,-0.023538786106745757
-24.0,-3.4711521061869117,-6.683914276629279,-3.2127621704425993,5.0938451987960685,-0.10379988375662785,-4.928137595372501,3.27988332232313,0.4182206034822462,-1.9943505597855973,-1.0757798165031212,-2.6594579657346977,-2.9477782607320346
-23.0,-10.258094513770429,-10.661838370808267,-0.4037438570380155,10.479751790297573,-4.901680840945607,-5.51369813765269,2.148326255527488,4.639782170612973,-4.588021265468748,-1.28123286415844,-0.953827081399215,-3.1393231343348025
-22.0,-6.542450732083803,-2.5480114522244985,3.9944392798593182,4.490414495466563,-5.319705732015894,0.746336722735732,-1.224946821692585,-0.33655567940375164,-1.0451378774482487,0.01376031260614452,-0.6066558663214696,-0.04448448375732217
-21.0,4.39321749591452,0.011851497920190024,-4.3813659979941715,-2.175143881421066,4.4185100127039325,-2.1523525490895117,-5.10092899533339,-3.007216901685603,5.976404323034916,1.3327003980365038,0.53397981169335,0.5641722069359414
-20.0,15.831197372517288,1.0521464168894619,-14.779050955627602,-8.490941837387078,15.34106427747821,-6.896910478338763,-0.1485226979261136,1.8797936688747474,3.9377753337145913,0.12668119464394528,-0.33277374181641234,2.7966619834409783
-19.0,8.793374074194604,-0.2114654892966259,-9.004839563491082,-4.260480609044347,8.860934937704865,-4.6279287375367515,1.2273869536220448,-1.7850459928103424,-2.218954566809762,-2.72861213550177,-1.7579514294250762,-1.1125969686591404
-18.0,-3.427763760985,4.375968426602786,7.803732187587801,-0.44272051936127577,-5.650376966290121,6.0816385235843295,-1.9725756072774567,-0.6335509070610711,-7.733200309208593,-5.419062904543976,-3.376750378002446,-0.06698977734039085
-17.0,-16.526346100268185,4.956011582026426,21.482357682294516,5.7398386860648625,-18.95833786604428,13.21837775362507,6.174522261257255,-4.403949602845312,-0.8236269061270227,1.0653756738206075,3.8591369618416733,0.7376879888488699
-16.0,-8.43217639518189,8.50469751197243,16.93687390715418,0.001178411833701265,-12.71693602490933,12.722515539412665,0.6798642875767169,-0.38822672003966335,0.6432460867932615,6.985544755692802,8.893165350745107,7.319578436850364
-15.0,-1.2919558211650202,3.2589739654187944,4.550929786583776,-1.0187546625239143,-2.8757312768612673,3.904831071280848,-4.701982587311694,-3.946799969616114,-3.2177148414548933,1.8266964707407367,3.219177877178537,4.240211279822608
-14.0,7.399164181929253,-8.076453877183678,-15.475618059112897,0.38941802358438915,11.403629391331378,-11.781280516467817,-6.029245743178277,-2.501504892330757,4.877273204279264,0.5179984079247917,-7.182922936642056,-7.541626700906267
-13.0,15.082157836848705,-12.817296990970616,-27.89945482781927,-1.153538045556262,21.456978984586193,-20.292146605738722,1.61802564990961,14.63665305267541,14.161306677049092,1.257074669283037,-7.107972934399601,-7.744924160967035
-12.0,7.7830901266479975,-11.377289725192245,-19.160379851840286,1.7805255297126583,13.517576342016618,-15.29001406119438,2.753068550911291,11.331479758947399,-1.4750834617799322,-5.990393056913815,-2.242924910328548,-9.078431533806171
-11.0,-1.3920719154196428,-4.703553438056572,-3.3114815226369867,3.0317417479799413,1.0071341046798334,-4.038232102520897,10.959840943174147,8.708646775623246,-2.3828231133935462,0.8769260711499527,3.8558141930779803,1.8528898373343692
-10.0,-9.009008682388297,9.081753747676473,18.09076243006472,0.02186360322942963,-13.579848929770211,13.545767331215016,-0.0038654880058577312,-7.209321749839717,-8.852836065486677,-3.4357240230453634,4.590273846343858,5.8272353939699055
-9.0,-10.579396293257489,15.55925767111765,26.138653964375152,-2.519628018377455,-18.388906922818613,20.878282134609364,-6.055516259557635,-24.154437870807925,-16.081443594853006,-5.2678399198697585,-0.4968209791928313,11.598596874081128
-8.0,-8.620392173006678,8.396937345511844,17.01732951851861,0.06952307268266233,-12.850473910397284,12.729821648545473,-7.265955066076909,-10.780670439779906,-3.0431369280235723,1.2654693649604174,-4.635869954112816,2.114111413275026
-7.0,3.3918277990886994,0.7402379754819268,-2.6515898236066704,-2.042898805766864,3.0657231976505077,-0.9359673347608606,-5.772861391734731,-3.5842168136697845,13.142453792217145,7.119106298126154,0.4796345204221971,-5.2288245404437035
-6.0,0.73072985955675,-11.918115579419238,-12.648845438975895,5.605387142308904,6.651837940049669,-12.341096396466607,10.539330871756725,13.962371908565625,18.091228633465224,6.356497179950808,-1.4472745912540264,-6.898458773936535
-5.0,10.102620732211673,-1.93007101500692,-12.032691747218564,-4.0815028153051,11.106750172755598,-6.954613660100884,4.998086062500249,18.981761778908773,12.275132750783609,5.184314259488794,5.591312623787984,0.7345015560017174
-4.0,11.706902118726777,3.128643846407437,-8.578258272319463,-7.413947287667325,10.18264687355721,-2.689382513432326,-5.611658415358612,3.5075138152390846,-3.304738707718098,-0.9124791947904121,6.416507981210403,1.9406148108215109
-3.0,-1.244404957091719,4.54790525007889,5.79231020717034,-1.6429385517232984,-3.5531151924063984,5.136499523076851,-3.4683882356588582,-7.762133495174336,-16.788464887024297,-5.085941805155285,3.920685870590468,8.22680263579094
-2.0,-11.882271880997195,-6.161804000781963,5.7204678802149305,9.040310165838068,-8.829883439163396,-0.245820603240971,3.117840239724414,-13.744786889348887,-19.97038176940463,-14.368596665525134,-10.275995882720519,2.287591746017261
-1.0,-10.204701354256734,-5.095633930738015,5.109067423518454,7.6012777708396495,-7.678051148205379,0.06537956393683408,6.625173981996826,-0.5458196152721513,-5.660603288341509,-6.698292093485535,-7.759540560152706,-4.125357091497397
0.0,6.922362238844588,-2.035200500488507,-8.957562739333188,-2.481296436817453,8.004570478554836,-5.516179444850228,-2.616135021808984,5.139212945211195,8.005457561031392,3.2213741469393824,-3.685869902488494,-11.880957478684403
1.0,7.7297155712577545,-4.889491526174053,-12.619207097431769,-1.3705053854151203,10.165638387883313,-8.77885635629671,3.552486907927314,9.412448767466865,10.356048467866465,6.538003056981431,-0.48334255048107977,-9.180372480333194
2.0,4.742408902325,3.32510866348634,-1.4173002388383829,-3.979770841477343,3.073514202805872,0.9207883971756167,-6.9872383454332985,2.834606707951954,11.12435475038238,15.88463101198706,8.980070814080314,4.177996854699005
3.0,1.7101939550752927,18.053234894823554,16.343040939748427,-9.90717173391508,-7.323692989644839,17.23344516293843,-6.62687984982221,-2.775337588786962,7.77050056349426,6.2556128340156745,11.77924684879174,14.77128283526659
4.0,-3.478615387559755,5.380964962883811,8.859580350443537,-0.9823806736247818,-6.180398019428674,7.146153261007908,-0.6226645040909942,-2.3315069307460448,-0.524389396415661,-5.07657940099136,-0.9515854632328802,4.386001178912824
5.0,-13.198648471436973,-2.5891738981358134,10.60947457330105,7.8531205536529365,-11.921189031468831,4.029755899912969,1.2382847968451116,-11.76819254365187,-9.260098453377124,-9.33898163463191,-1.0746870101526604,3.6270806276116874
6.0,-11.56584387006393,-22.391983709835422,-10.82613983977149,17.005890491143987,-0.3926371121505583,-16.670037098537577,-0.1153795562064941,-15.864493158472165,-20.26475593137011,-14.619163707195348,-13.022255909839874,-7.986778607178972
7.0,3.85159285108056,-26.626348818153502,-30.47794166923377,11.405112252038574,17.2171064659766,-28.53159995944462,10.495120232815923,12.299648745509606,-1.2769404756297753,-5.283158582278145,-13.688829887776858,-19.006357654117167
8.0,6.992073936951067,23.656433594776484,16.664359657825777,-15.311156840859732,-4.78451798554253,20.187500450491456,7.081076329849003,0.9041266377524804,3.6146645280014624,4.825148366891446,4.395370037056256,8.089378511338943
9.0,6.3484651232411995,31.644677864536302,25.29621274129515,-18.981907898791157,-9.499386313814824,28.42768564763764,5.296802122954795,21.694885648472447,19.302903082535696,15.195174169444533,14.446338783011777,14.010238962864754
10.0,17.559077730403953,14.620956857973535,-2.938120872430858,-16.146579584436928,10.22525235915678,5.886893089593295,-9.423888919165325,19.899589174381774,23.706443479816553,23.48685181196965,17.54171928899416,5.464279563111783
11.0,9.315312281435292,0.9560759803300414,-8.359236301105984,-5.102106847450265,8.814601302392225,-3.726385773326327,-17.28937426311735,-7.5394358659340535,-6.1881177208641045,3.0761661722306375,4.097135504434691,-0.5741951012493853
12.0,-18.814027764698903,-24.035571789937016,-5.221544025238154,21.4702900120587,-6.821025630191441,-14.647078017859503,-1.6512437561439945,-29.23742113389453,-30.78076361979551,-31.094763142698472,-27.472889019240515,-11.371065634965063
13.0,-13.677498637272993,-33.751226861069135,-20.073728223795626,23.689805751839966,3.2471921800610293,-26.927451756608562,4.269130260761921,-8.44959189430377,-11.424746261903211,-11.180259700463202,-5.657028106978462,-10.364167576778314
14.0,0.47250600016738886,-4.391797924185125,-4.864303924352508,1.9377650256089538,2.632221310957963,-4.563474083579715,-2.4306119920883558,0.6287422746291824,8.610156520488648,8.693592673882488,13.618018113339804,4.621239227320414
15.0,2.8263947694517864,4.416172181676742,1.5897774122242332,-3.6473403882107265,0.6543961222648207,2.9871826300972306,7.795978344008298,4.930283942287698,2.654231232086527,1.4525666786453963,5.5462434378801255,5.394898927080794
16.0,4.185190495246997,-12.405172955878482,-16.590363451126244,4.0746162486161,10.418835857522554,-14.517141241233928,12.731287656048753,9.336708506596203,-6.178041999673221,-11.544858883013628,-13.638968460983794,-11.07303812318217
17.0,-5.629831727167072,26.544953484002175,32.17478521116868,-10.424853920193204,-18.952844811294483,29.335488630868735,3.6993223117317493,-3.920027285122554,1.1597798195667135,5.126793843851924,1.2389593160418406,9.651883537890798
18.0,-7.40768875672963,34.524002352854595,41.93169110958456,-13.532985866803024,-24.64211242123415,38.27641444364764,-4.519932329902504,-0.5738221596090831,11.201468102600648,12.626697888704616,5.308548882075911,13.247448292802465
19.0,5.273999695833474,8.721488793758256,3.4474890979258284,-6.973569490036125,0.8632542131935566,6.0484155360784975,-5.625539807565807,5.902351248783181,20.293451389283934,9.843288868224942,-5.8116662840777416,-6.634975370754416
20.0,10.359482419498116,-28.02239154785925,-38.381873967356185,8.862178622594687,24.401894535428355,-33.1647571971127,-3.9275497399706074,15.357357259366285,14.241494396934375,4.335287565067164,-12.192003727168863,-16.36554117017623
21.0,5.2841546431903295,-4.3325459212495865,-9.616700564439473,-0.5114240588752468,7.484950349455396,-7.020146208970058,-10.243146620054176,-10.509934879929704,-14.58421422457307,-12.591630939710557,-2.1635104584161935,-1.3221058614091081
22.0,-11.482725575584912,6.277972771431413,17.760698347016145,2.5814492517578635,-14.66219259885172,12.049980774838513,2.230226393944834,-19.55389570126245,-32.66585613759111,-22.140951843617096,7.208102588712936,17.34428193173061
23.0,0.15693766332458114,-5.8097636680545435,-5.966701331379967,2.818467411004148,3.0251114845540306,-5.858301823286011,7.908130953296768,2.292317284705824,-22.98259056579753,-9.598287665844243,17.117643640245017,7.706405426056489
24.0,13.061602752692995,-4.167728652169261,-17.22933140486299,-4.446620469452908,15.190768211580028,-10.745935704117862,-7.0750824532654715,13.91526890644211,14.90280046051863,29.251491593081077,33.150709519244074,2.5722993459249452
25.0,7.109627123983083,0.2955071613823286,-6.8141199626011035,-3.6998794625702924,7.009144883123504,-3.3029104451310136,-6.7020007610179055,-3.7475532916508616,13.72255753948175,19.3110082637012,4.570226611791581,-1.6878007700500364
26.0,-12.890973402754126,-4.9043096898687955,7.986663712885294,8.897573779242345,-10.470599368301517,1.5826444447415997,10.460718052529034,-3.991404100314928,13.722325519974156,-4.623344521753227,-27.692647127792604,-10.427182414966428
27.0,-15.609489351324825,-1.13422392007182,14.475265431253266,8.366072481122966,-15.077605503045657,6.720497559010726,18.07974401577412,5.3883183049142405,15.8003605836296,-4.334717943005357,-25.419634057010093,-10.923043190369722
28.0,-7.885051227132747,6.021297639261842,13.906348866395055,0.9200715636271248,-10.85899555633586,9.944612737449898,1.4419573313437803,2.5249506310885836,7.582950917172634,-4.847290000967972,-13.622110835512597,-4.022126031063423
29.0,13.024134524163074,-0.43572341295148753,-13.45985793711399,-6.23141424709436,13.190621004109158,-6.958319862253052,-12.350745695817968,-8.0157019749115,-23.527378197545552,-22.451603351288522,-9.918151890666962,-2.4194539630443552
30.0,3.6523082033999357,-1.5481081337489826,-5.200416337148569,-1.0693715056887916,4.44384478065196,-3.379233700234385,-3.636212866173988,0.9309103658676707,-12.202925286914303,5.373122211370612,18.8755776822707,4.524956760930836
31.0,4.626429794862295,3.7471408134067614,-0.8792889814554963,-4.20296256329652,2.762416609276242,1.4296175090897187,-2.2901529874261994,1.0236848831079537,-2.461716071389075,11.921385607325242,25.60504283817711,14.831461339203361
32.0,8.742508244490466,4.79063642851791,-3.951871815972843,-6.780758625903277,6.353038708701568,0.4102241647040241,-5.886984234914842,3.1576314141009725,-5.438663086173017,1.8786700422463518,6.256205610995739,4.5726586652076975
33.0,3.9274381628199575,-3.8231815559118134,-7.750619718732231,-0.06536758937745812,5.846501435336248,-5.805608579437299,-0.7436666561374179,7.239889967461638,2.5851779950777107,-12.009253179704888,-12.819546066514555,-6.193055578148153
34.0,-11.712068766725471,-0.7261994369012807,10.985869329823917,6.282843939778826,-11.335035258565206,5.17764102242694,4.825532369464233,-0.1881604815741038,11.360477836051821,-3.4412127662306373,-9.902463495544033,0.5220507490864426
35.0,-9.937139696725865,3.702667552988749,13.63980724971465,3.0967128625439204,-11.76521307146091,8.62795343454367,9.299970797285521,-3.1656069487677114,10.349751621753729,8.307547985179523,0.5710156902202832,1.2017622019261445
36.0,-6.325962420771561,-8.726593150724106,-2.4006307299523018,7.496796859368369,-2.008688255844299,-5.538227931302237,8.133396045073745,-4.21013255215631,-3.030756146849443,2.6207836145864043,4.389629629499621,-3.48877055192202
37.0,-0.7409421987520259,-3.9805229546661147,-3.239580755913793,2.320295893094974,1.2104482899769395,-3.591007558245709,-2.7269537509349755,-11.694139165777292,-10.332169506982275,3.0649404547101398,4.953743355189031,-4.0437816056696345
38.0,11.17688035228562,4.368740808391321,-6.8081395438941055,-7.745019290031744,9.035885054397065,-1.2029442915480475,-15.151383732506863,-5.450310311658284,-10.33560797849515,0.4115993378790357,-2.7620143816794407,-2.847884003803082
39.0,4.731676229994625,11.570689686388222,6.839013456393656,-8.13093182111526,-1.0891341324709511,9.143906572945955,-4.354598798665235,2.282423362865069,7.206699121010213,3.3920340031784986,-1.7770197590666523,2.935387620315346
40.0,5.058799398409926,4.031240158304126,-1.0275592401058304,-4.527754616798578,3.0839447085140486,1.5228116977290014,-4.113296157909292,14.594480769795588,10.399672822469668,-0.12576730431416472,0.41270466936763883,0.8559420485883786
41.0,2.1409035372867167,-3.0542457859318652,-5.19514932321863,0.475309845915183,3.7054497728165967,-4.099587443842886,2.6399817328156416,10.135243422701087,7.707240782078375,-4.945060090316235,-1.3275075358817876,4.792519679954921
42.0,-0.7315266339085769,-8.525516623714031,-7.793989989805472,4.65092879816605,3.487214218539542,-8.208938995085887,10.739442858905134,2.7586413775013874,1.2234901757801437,-1.7980916327266492,0.5798210217078346,-0.618592787693804
43.0,-4.488614356280818,-6.739924382487525,-2.251310026206732,5.561229618440583,-1.1636730479032222,-4.461357859515944,7.041698560352924,-3.4841001259014757,-6.8338059618973315,0.9721359283017801,2.786352684166503,-0.2040325308019374
44.0,-7.7105759552961235,-0.18379602719232668,7.526779928103793,3.89457716224899,-7.583774877367095,3.632232281933596,4.523264052505587,-7.428267568461061,-9.923031756434938,0.4241918576055079,1.1144200171625984,-1.1573738196046572
45.0,-6.252469170166062,-1.2986066206608007,4.95386254950526,3.7984083102162227,-5.5650506979058845,1.8731133905822226,-1.893565352767427,-6.146890993755655,-4.452388788034118,-0.13225347988804903,0.21077015873200955,-0.04188059979846437
46.0,-0.5038193872071548,3.5473176378205835,4.051137025027709,-1.5047858219313646,-2.3136940725063404,3.772404332113023,-7.5180735275986095,-8.419892538013759,-3.5522067718345416,-4.297102592854655,-3.5627769728504797,-3.8022368356192233
47.0,7.125823075118215,6.297923319777334,-0.82789975534092,-6.701073742183489,4.023636891357991,2.792701576087911,-8.780143999380895,5.282689350196573,6.161919325290489,-0.9402601229364203,-4.465327016765835,-1.3576562227184912
48.0,7.8620944603188345,9.948111939341027,2.086017479022212,-8.898102841126008,2.8586504150902154,5.9993382644955,-3.7561390665093297,5.490708201230954,9.259665796879345,0.26113250223199014,-1.7798745660589692,3.9468688114991335
49.0,3.08060369443384,-1.5382004556194087,-4.618804150053174,-0.7637667521979745,3.820322979861132,-3.0970345566018285,-0.31571731210363563,2.819595876761543,2.4278087463746374,0.5666596632854108,4.235830567584241,4.517752868278515
50.0,-8.404588318462192,-7.8501539606331825,0.554434357829166,8.140061421878343,-4.511353232312983,-3.672116734823401,9.789055816383723,1.8327310148670088,-0.6109304062221619,6.0611789440081525,3.0525393649834243,0.24886767276497768
51.0,-2.9073637776290626,-7.793143936731742,-4.885780159102534,5.293587820329105,1.0323226564867451,-6.373569860316566,4.825216379606646,-0.3114604916533634,-3.5482839771029977,5.681311051583184,0.9123357930401257,-7.521020133263583
52.0,4.169275401123077,0.42020818580934627,-3.7490672153136613,-2.2607063639300806,3.998763029024689,-1.631438561475314,3.5130689228479706,-0.7558859979602126,-4.4549001950208345,-1.325480426657525,1.7713730477532832,-2.1879133305334135
53.0,0.5717179979558519,2.5470531481841556,1.97533515022826,-1.591608261391325,-0.7429318174578927,2.283802062198542,-5.210552340775259,-6.394939739124637,0.3894068344688444,-5.653665665205486,0.6336883846216395,1.7578088685773685
54.0,-0.09663545173438655,4.754813543157903,4.851448994892146,-2.271604110202632,-2.4364105792305812,4.8192668775893575,-3.7238403884240547,-0.9213100953173199,-1.3841079864724422,-5.720899219157491,-3.6353550451549212,2.583864526633529
55.0,-2.775433908926464,1.4135927377926278,4.18902664671891,0.6672651093552189,-3.521905037348446,2.8161409601888545,-0.6794680524284846,3.857155858594424,1.7638570634059847,-2.2981873790744958,-5.991699292755136,2.5580691336727304
56.0,-5.11799354555369,-7.24020432987067,-2.1222107843171063,6.168513866754808,-1.4570348733683032,-4.74171823441263,1.0023521436727454,2.9869948454599706,-0.7894355661453657,0.6148470671760877,-1.1015239059490907,2.8786928225550468
57.0,7.055796706886378,-2.320218806399853,-9.376015513286214,-2.3800145033420166,8.179035201911773,-5.823586792734256,0.8055599839031944,1.69113436544479,2.0170601625179905,4.082623864446644,3.1430608524642296,2.044804560146847
58.0,3.0310658052711617,13.756505337448317,10.725439532177273,-8.41128453682161,-3.8843926339050094,12.272217223107969,-1.8508815559988478,-0.7791750525227288,9.653574753264431,13.182652360682699,11.111865950978228,1.9360089387312513
59.0,1.227764158959951,-1.0666647200381814,-2.294428878997968,-0.1048247541495484,1.8010330732952182,-1.7231560406523565,-0.8679903433544374,0.19244907387942134,-1.4274651679848955,2.3201229331621986,1.6221267129050094,-10.73997166619782
60.0,-0.6553068306764036,-8.951319487312032,-8.296012656635464,4.851984988428634,3.8579976584174096,-8.585721163305049,1.6449994042910903,-3.795268933399018,-5.93366072707669,-10.629217287516347,-6.315024400355192,-6.31870771655297
61.0,-7.853528532011929,-2.367126131003049,5.486402401009016,5.156017563355874,-6.713326532349964,1.5177276804258295,2.9784372681990643,-5.631096786620205,-8.537535990147912,-9.75356302245485,-7.522322854622644,0.419321256848074
62.0,3.7608549993313187,0.5342827771284258,-3.2265722222028463,-2.1803216491986235,3.5274432147601953,-1.3904114610585556,-1.381470131817978,3.0623639801379454,-2.089038729205295,-5.925999775333983,-6.415382065969393,0.5754596514866581
63.0,-0.40885636253046875,7.604326881078336,8.01318324360878,-3.627934283416324,-4.256771856638374,7.842164608605967,0.14078650791415254,6.3704351812121995,8.335240120310841,8.760283198009864,5.702807808514201,8.799478875299034
64.0,-3.901411463489011,3.708283800703989,7.609695264192947,0.14791327874184357,-5.722184274954964,5.694886337517987,-2.126707185485566,-3.3067513847407444,2.3061469621895268,7.579820407001592,7.6626657057157495,8.423397047246292
65.0,-2.1511901258052237,-6.431106691685215,-4.279916565880082,4.264755649904046,1.0205274327141205,-5.312743109437877,2.668285804598881,-5.774402088994025,-2.651418588937873,-0.8915461339874442,0.7942103630084834,-2.049875967755405
66.0,7.868922519341062,-4.179310465341107,-12.048232984682299,-1.8731590708897135,9.996128775696846,-8.139753027596186,1.5457418479711498,4.380621409627096,0.8148266742179467,-0.786023425198527,-1.2085988474124096,-10.940586528007147
67.0,2.388781466703583,-0.8837538598383485,-3.2725353265420294,-0.7856185551454122,2.8716200219877903,-2.0939767370990516,-3.9688413594885055,4.073046470781815,0.7338739328213163,0.6654575863250703,-0.7276244493601604,-1.0412284927276048
68.0,-1.275787325601589,6.23385829458348,7.509645620185008,-2.4395258515833445,-4.426832560905947,6.862712779365485,-1.2559714292439064,1.0008405000936236,3.383930648365044,1.8156918185823607,1.789279590392844,7.215829606348157
69.0,1.3776488236245474,0.47551793858187485,-0.9021308850426979,-0.8926480901996311,1.1092365177430001,-0.2214816558409849,-1.2324410164062143,2.0094425892177066,-1.639920191805055,-1.4406013264369428,-2.409390859115219,-2.692920865699618
70.0,-2.7465703401123767,-4.49835154004006,-1.751781199927583,3.652993047636474,-0.5249548234175394,-3.1388828143167133,1.3111604825103944,1.118165965952734,-0.045869178935945554,-3.1706232360416395,0.21114737778499348,-0.6309543350600963
71.0,-0.6896775455683573,-1.1443448676219923,-0.4546673220534281,0.8682858310039843,-0.06342208153879425,-0.823795130928194,5.599823666955183,-8.581447990044468,-4.824643652518758,-3.272079303532046,-2.405745000978462,-1.9241544716911687
72.0,-1.6005997854641798,3.0743489712781304,4.674948756742527,-0.7833798793029021,-3.1595880706754107,3.9171129553261004,0.2561878637879653,-6.340221017965858,-3.0424669194308387,-1.2199804235089156,-5.312687394541218,-0.4514946179831901
73.0,-5.42478082010904,4.714959097928441,10.13973991803762,0.39137307367238505,-7.722821259732125,7.460028156211901,1.2634862508528335,0.7672649813334327,1.3703451530131299,4.077474078563613,2.2076566648887725,2.785578768456391
74.0,1.9991308952342148,2.024801446492819,0.025670551258523577,-1.9702606870810058,0.9686214675058005,0.9744691344299345,-6.55244374439028,2.1895455739854506,5.377030961375974,-0.018261654286804596,3.0885623740396606,3.2128974165229867
75.0,8.384322850673732,-2.89876279748605,-11.283085648160032,-2.7745888513513632,9.814255855803294,-7.061402273154366,-3.5899028851674633,9.199978587322033,2.8078833687582727,2.6384212165419907,5.3415167126462935,-0.2759655774186378
76.0,2.123928869525953,-6.930920116321111,-9.054848985847288,2.375962924022416,5.565243616869866,-7.956384308730284,1.9008265711880576,3.941062504052283,0.359530769448307,0.14104551999628034,0.6189102690855575,-2.0056875636517453
77.0,-3.697906759605477,-4.032999320714825,-0.3350925611094775,3.9193093568380597,-1.7133664305181067,-2.216144773246601,4.500913013806318,-1.488386513291485,-2.870966729001437,1.9374745953924597,0.23178566498306358,-3.4812026891450265
78.0,-3.9217311913221042,3.460428457070815,7.382159648393006,0.2065428404887868,-5.61468515218186,5.3997147256506715,-0.8443771981588215,-6.0998604478799505,-3.4965752240452423,-0.6485921058803851,-3.345717204779301,-1.663975453730359
79.0,-3.638803865500769,1.2938926867474927,4.9326965522484265,1.1475884716458622,-4.257690659707672,3.100284003941077,2.1522700075649075,-1.4137854274240635,-1.3140111019654792,-3.4181833333467595,-3.84992196339019,5.4022973825666165
80.0,5.775616334661137,6.905457829010025,1.1298414943490305,-6.367014955421195,2.343949988230213,4.01007909093073,-4.257979923784932,-4.340691462632119,-0.6932635851244948,-3.0101785795303475,-2.9419864988651656,0.17648285888590776
81.0,0.49331258594650396,3.593285663149063,3.0999730772026863,-1.992802763517282,-1.3647559950604158,3.3413458694547122,2.437894953248282,1.6697433905997974,2.7484777486932934,0.6768271588613524,2.9575906130215808,0.909373857128656
82.0,-0.3837841044806445,-6.299244765954667,-5.915460661474077,3.3902633219392744,2.782708473190053,-6.034161292578437,-0.34491318804440074,2.334701445546789,2.4890641855124462,0.8677525513953463,2.488405554870347,-2.739035460263136
83.0,-3.395646442984122,-0.6741710414293398,2.7214754015546276,2.0026239733405697,-3.0396884417424257,1.0158019183000584,-1.1861212375082733,-1.2982113446922106,-0.6042338011051092,-0.8969468173562216,-0.667439268900544,3.765584892695026
84.0,2.087079665276939,-5.250127291946475,-7.337206957223601,1.5453403120362954,4.734177836357208,-6.305629085046265,2.718333955584304,8.082991894671157,1.17807374672608,4.476115286657314,3.7562481482868657,0.22965071229058887
85.0,4.5054194366459335,5.1701560072306325,0.6647365705845694,-4.8016424784298515,1.866658178291467,2.899633598460771,-0.5059835164267761,0.15893204966151275,3.035266659674048,2.174809500324371,-0.05307991149395175,-6.460023893248425
86.0,1.5289739373500746,-0.9777621172977664,-2.50673605464785,-0.32716124187675355,2.0450066731325296,-1.767176249433605,-0.3063391069928675,-1.9003477590991977,-2.4666137462613724,0.8435921832030013,0.6812698383429938,-4.230237530363441
87.0,-0.9105708659126528,-4.183863218738862,-3.2732923528260995,2.5641694888746382,1.1308284498744352,-3.7607270128894967,-0.6238632020131614,-4.797388953920212,-1.6056318066168498,-2.653845012407391,-5.050142814208706,0.9141408591717872
88.0,-5.299283556476266,-0.6203223014846468,4.678961254991728,2.96746625247466,-4.9602793414457755,2.0701386561732873,-3.133930830069608,-5.893442707044832,-9.754475262074093,-8.804209483332935,-7.711059706143691,2.935934177951537
89.0,-6.649570503778427,6.660776731511883,13.31034723529037,-0.003751651667428968,-9.950153857792229,10.023196693107916,-0.7788576430686053,2.017351785190257,2.7093633870673157,-0.7125343051012596,2.321589034686819,8.251199535618255
90.0,1.5398106975832797,5.521630668771498,3.9818199711882007,-3.529325022251113,-1.1894579782816765,4.788762068637167,0.5955068401803901,6.6261503460010225,7.1892694676455315,7.559698260400826,9.180394300822728,3.081480996414092
91.0,5.252390683235761,-2.9731899766655614,-8.225580659901395,-1.13283629026489,6.694152449087086,-5.640473278828982,3.8629084708554173,6.141008314840059,4.466782654099077,5.435176509330774,8.272714155731101,-1.36906081924502
92.0,0.7093189176860277,-3.413994750590489,-4.123313668276651,1.3690396988828433,2.3738939161695924,-3.8099914535113473,3.4900567650522367,-3.199751193002529,0.8017133001163748,0.7316011832674243,-3.664549369609909,-3.538078189238547
93.0,1.462831757572707,-3.2433213616441345,-4.706153119216969,0.9187746595177438,3.1226377334001,-3.9401966204233734,-1.7689673744959913,-4.118315638292467,-4.537481105239365,-4.416879240217626,-5.784077663129379,-5.042840220398322
94.0,1.145718268273241,-3.9497674898842137,-5.095485758157459,1.3622978757410813,3.1596107481972657,-4.572806243315188,-0.659337743633116,-7.070988325797919,-5.347360483538598,-3.540418418664868,-8.231859707930273,-3.9056904171894984
95.0,-2.3715990524293256,3.1042853773154624,5.4758844297448235,-0.3995139469274167,-3.96354533731721,4.310667773301156,-1.619317892710543,-0.3097113000455458,-0.3693285351675666,-4.153172481370742,-3.1926029029700076,-0.8315618342628237
96.0,1.8974121788569658,7.383068662930049,5.485656484073196,-4.671826804710375,-1.8345310928544563,6.447126629825648,-4.323863847914233,3.5622963831043335,2.3304686041997673,0.7846896946322186,3.7336935676053193,3.133156681795656
97.0,1.550619374666306,2.133013220235206,0.5823938455689923,-1.7972645365827757,0.5218926793457772,1.3651825710025167,-0.26133228359658656,6.465386362223594,0.7291998820188144,3.1666979032069205,6.708456273282785,4.834096899359207
98.0,-1.2749498729379387,-4.2822163518443865,-3.0072664789064705,2.8183358257794797,0.9039445781488449,-3.638431229344885,2.186647776463577,2.605771329918063,-1.1322854598147132,3.0283122977975516,6.458457095572184,2.3730399499235726
99.0,-0.7603558957629064,-5.016356754944564,-4.256000859181693,2.8445920046498854,1.707608202193307,-4.62670626622359,3.9312811448600393,1.3883075831438572,4.6592065682706,3.1678024883150835,1.2552243935844798,-0.216806760109447
100.0,-1.2782076884532518,1.100026665391469,2.378234353844673,0.12087169583855384,-1.7884604129768618,1.7549558817612847,-0.5568116715978866,-4.951722956089609,1.136577692807705,0.2318431306094877,-0.8074654768902148,0.4894590065509442
101.0,-2.2226697360099514,-0.7724404585560969,1.450229277453826,1.5281589074646797,-1.8742630916757197,0.28357767309645887,-0.5104488684919792,-3.9792515796178867,-0.30591312033532125,-0.9162891876866288,-6.672395668278476,-4.459580361542933
102.0,-6.9351281036234385,2.928862325711276,9.863990429334644,1.955437704318871,-8.436698324496653,6.426821202481639,2.1337750650419873,-4.735634966301863,-3.7540222823572837,-6.900633620169227,-11.437886830359782,-3.832871911559984
103.0,-1.2599606481826031,-0.06962372441590281,1.1903369237666492,0.61846533734143,-1.183524189812458,0.517153683834291,0.03915542187520571,2.8703547582826965,-0.11076798905987006,-1.6420487424305166,2.4615780278882617,2.8624041897163113
104.0,13.248397155711167,2.613069244773064,-10.635327910938019,-7.896535559531357,11.9829483119761,-3.9723929779464076,-5.094558457848571,4.115817167312943,-3.4910439515233582,3.674447355882555,7.465627478880149,1.0195262702835868
105.0,9.21365470493392,2.3048665986375867,-6.908788106296181,-5.723033138925728,8.022664198024572,-2.340128526052119,-5.267071471565961,0.6199635007996203,1.1493151343483226,1.9665041229695008,3.816853996500375,1.2404172443949661
106.0,-6.666815880803974,-2.6688152245062744,3.9980006562978847,4.627586208091562,-5.3720708338382455,0.7065078451182643,4.736054185095854,1.7062550938575138,4.305497465312388,1.0710407541249092,2.0329234932699687,1.183657112738545
107.0,-9.005269849570125,-8.207630916258141,0.7976389333121512,8.647392373837041,-4.863652523605744,-3.6617720851233866,6.855837988264594,-0.7224349111500085,-0.5702972728101001,-2.949521231119446,-3.8381155299593925,-2.9602364949260105
108.0,-1.2560616044736221,0.2914121076433487,1.5474737121170388,0.4466572106846347,-1.3655281968263617,0.8851348093793782,1.3058739122367053,-0.3702117937068594,-0.5963312952452297,-0.196634457643304,-0.29718063723294885,1.49761643311795
109.0,1.2003960705685346,4.3808165600892846,3.180420489520653,-2.746218000258115,-1.034571668369534,3.747054197142139,-5.391783962728382,-3.890488750759535,0.9087066784543983,1.529484678573049,1.476808517228462,0.0005054300322767354
110.0,-3.2664835573420277,1.0593543045329519,4.32583786187479,1.069285197571649,-3.7646919221010147,2.6590682671934007,1.556299186463614,1.643102381939713,0.3390972453134739,0.3459033404801671,-2.3764844791513533,1.0456942766090331
111.0,10.158273130503499,0.36794179464239374,-9.790331335861268,-5.298441091115818,9.923719476048348,-4.666439227425883,-4.605952664400046,2.496550964807833,-1.7549400270062914,2.196247682780018,-0.9861507726723903,-1.870504494019723
112.0,5.583967865093936,1.1504141397229284,-4.433553725371069,-3.325301765826496,5.033634449263239,-1.5972602090521213,-1.7049480114461524,-3.5841140841767745,-2.5229646493513536,-2.2496564538337855,-2.5090652138773493,-2.639513284659305
113.0,-4.393294698929875,6.312696069437367,10.705990768367297,-0.9975657416076142,-7.5269802642728685,8.474956997651784,2.6046699437364556,1.748377363867236,0.8329752303385902,0.5979940136351237,2.89380341801128,5.675693965616441
114.0,-3.5523334314417223,-5.715469330283576,-2.1631358988417264,4.675121371321051,-0.7505405217082797,-3.972985101817849,2.247525578904355,-0.8772328284948873,2.210555475453989,-1.179901455551909,0.7658143880122488,0.2845741286193002
115.0,-2.9578116638158956,-0.7263401585433442,2.2314715052726224,1.885121202421947,-2.5683406876429196,0.7987576335998177,1.8865660359571441,-1.3649827115845532,3.08870215121883,-0.3911529646353876,0.24466308754569233,-4.897557499827
116.0,-2.1181236118603866,0.20337434646750108,2.3214979583278095,0.9243448370907972,-2.1864949736329455,1.2309257351591874,1.5334655074279337,3.8623263378185175,-2.6512622726883768,-3.8263844356427072,-1.391522080754744,-3.415548757957389
117.0,1.063577051303879,-7.068459432432895,-8.132036483736876,2.971862644096016,4.561897705203789,-7.552631065737322,-1.7664717279969788,-0.32988577232178184,-3.4116467321251784,-2.437358375711637,-4.243860505751719,-0.16583077028976612
118.0,-0.9366267662709007,-0.8180305483591226,0.11859621791176655,0.8480882638732301,-0.47492954041916224,-0.38161965994314784,-5.412639019963171,-1.516501014950695,-2.9864304250903655,2.815359024847432,3.205125341095871,4.830281179439832
119.0,-1.6726516830537173,1.9156693092565562,3.5883209923103694,-0.07204058119607071,-2.6492634658506793,2.7180454163662082,2.2583263892506196,0.1357015338531149,6.018972436566229,8.802969957373357,7.000665591577907,4.780089147886539
120.0,6.407609801420453,6.883031017233543,0.47542121581316565,-6.675693696213815,2.949447397403354,3.7210384884356205,-0.05798394891724018,2.9455519109104062,4.667431272312631,7.592086808362696,5.225933482246148,3.697610763058025
121.0,8.731796257771633,5.064525047573517,-3.6672712101981286,-6.851417530256956,6.178515400261685,0.6584502350031909,0.1268935880775986,-1.5574833317075563,-1.119082607808083,-6.8953446878989135,-2.3839378048365134,1.0637827446442807
122.0,-3.7905732241388366,-3.7173391305673986,0.07323409357130711,3.719982993077747,-1.9632243999893046,-1.786276807604079,1.3263283587439871,-3.1880652894732946,-2.532061089983854,-7.636155667397838,-10.373287039562268,-6.819183411647801
123.0,-5.737181343153324,-4.864733601980732,0.8724477411724021,5.34312220625794,-3.2712244768210903,-1.9624176187522466,2.060528920618687,1.4504116044446371,-1.2777386544541942,-2.8766017803594774,-5.526206625596224,-5.722270977231136
124.0,-1.2580207418284926,-2.3503649499992396,-1.0923442081709205,1.7636705527771959,-0.06324010859015994,-1.767934561806902,-0.08046242030425454,-1.7169168142224058,-3.597458830430549,-1.2511617515444144,-0.7067320186455368,-5.787324215145876
125.0,-5.61273740483451,-0.38214221506503465,5.23059518976947,3.0298144195060592,-5.413036387716993,2.4547127994299336,0.4491209634490941,1.4097520672435426,-0.17712663329923162,1.8145755339401408,3.526518892825036,-1.8328410381135136
126.0,3.1297668012586137,3.8669239331384446,0.7371571318799699,-3.5524706172248854,1.1989564705656721,2.251416215154401,-2.2691136810659547,0.42469428664498543,1.073656243402047,3.8069492589531695,5.914631294524908,4.337084007931255
127.0,3.2714327129042298,1.496793665494555,-1.7746390474094569,-2.3681920672842036,2.5250561314460445,-0.1138736896601229,-3.295693570778937,1.115951901905294,1.5212945622352039,2.912432362903584,6.538384667261347,9.17105725701394
128.0,2.2959884663710564,-0.41876047913592607,-2.7147489455068237,-0.9305760873480806,2.511119234317044,-1.5448607218901054,-0.15196836640137845,0.8170434162399,3.140368656818035,0.9322330762641093,0.4389632226948432,10.42090584175327
129.0,1.4714653262808557,2.458917874980286,0.9874525486994608,-1.9621115416961716,0.1754515554331013,1.6642177729795093,1.3407539055064384,-1.8678901881551444,-0.12780231490466742,-1.263986636463777,-4.162830503705565,-0.6152024519488126
130.0,1.1550381371196479,7.274832113553186,6.119793976433475,-4.2121557170890025,-2.4626451673702388,6.717145786552656,1.4610040084488332,0.8155902914408075,3.242936533848331,-0.437315575699057,-5.112540376210028,-7.468468863662506
131.0,-6.884173682102157,-10.979803186070125,-4.095629503968079,8.93987025394192,-1.3671345654705978,-7.515175731534778,0.47285130339914483,-0.6484308045794231,-3.741161698910304,-0.9643148511048589,-3.126365257702944,-7.641997925008609
132.0,1.5833068075469403,-10.18607007697944,-11.769376884526546,4.319240947241947,6.709925626236361,-10.950423433577395,1.8210753309556058,0.0861935954385985,-5.53317362739856,-2.2565544070400128,-0.5328534977364185,-3.949270894067091
133.0,1.2856073900043115,-1.418088763202992,-2.703696153207469,0.018524813157534847,1.954407509910719,-2.0284921074929425,-0.5186144041759085,1.191489149635737,-1.1849521688458915,-0.37271012993540453,4.431980653002276,2.291376922277152
134.0,-5.333189482847464,2.999617273864905,8.332806756712273,1.2118300722288111,-6.870206403114032,5.623168343146807,2.246432795515863,-1.2935122694301007,5.788931128790793,-0.24002367336425345,2.743596583867507,1.4414765787174189
135.0,2.408434039698573,12.921496120796709,10.513062081098184,-7.686246374140417,-4.009732163939451,11.674346097017613,-1.140479167428977,0.28359795746319083,1.2570824243577319,1.6696342269889561,0.7758518182832854,1.5634740329665662
136.0,3.8128522949316177,7.103415249566641,3.2905629546351562,-5.470470875471593,0.30296109367199264,5.15130368110741,-7.367248801895862,-1.090606782203488,1.693100746121692,1.5469245913324463,-0.2505261688584982,4.382483418912523
137.0,3.648822881569493,2.025239927726464,-1.6235829538428446,-2.844908880601324,2.597219256833922,0.23047191772293374,0.44051561189619726,0.7762076287996581,-1.2906718864096214,2.8476087244679786,-2.218978640762539,1.239774293005258
138.0,-3.025359270795557,-5.293633215535648,-2.2682739447399265,4.151530339859263,-0.4199555672342252,-3.7523413919197273,4.701378050399059,-1.2171665977383423,-5.183691422798173,-2.1483091265808025,0.9747420700212952,-1.7393297016934504
139.0,-4.395254783195625,-14.84412764050129,-10.448872857305599,9.686477224840496,3.062619432080795,-12.614275390911715,0.40560853159923127,0.973471671389076,0.12845959812702867,-2.859564677577683,-3.5791600426468104,-5.464574661946902
140.0,-0.8226179486010983,-1.2737470382889686,-0.45112908968787657,1.0293169379056781,-0.22791628369595607,-0.8219242516357612,-0.114702165202752,-0.5746581394767277,0.6840172255531851,-1.7103056794922702,1.3994949156266396,0.8586068623882763
141.0,3.703622745243562,1.0520490856974405,-2.651573659546154,-2.405335139276178,3.21816401740282,-0.8275644307302812,-1.6280986464917828,0.4069447737646098,-0.208256582769084,-0.4214194187474577,0.8667096287951609,4.011348190790931
142.0,0.9486144804808908,2.9724493345800314,2.023834854099099,-1.9970888432571472,-0.4900185570546768,2.4787974612992523,1.490103865328504,2.9022931094586206,5.169372963675257,2.777794955545489,0.021445764551822677,3.036020223133467
143.0,0.15029815444993933,6.766073197583994,6.615775043134015,-3.4240657568612036,-3.255407078885308,6.674181164689859,-0.2783899609247029,-1.2403739053178375,-0.2727656685232591,2.0404309123066176,-1.5943487684917534,-4.553747763130077
144.0,-4.133715104443491,0.6340298039909129,4.767744908434304,1.778175418822563,-4.466049665592997,2.6790704281306903,1.0310574752515747,-1.1141071785455816,-1.5783248896941253,0.20600926527648467,2.1130732906697736,-0.783789148674725
145.0,-0.7044867661748409,0.16384088047919043,0.8683276466540013,0.2960566346738805,-0.7982264396200267,0.48271811029601963,1.4769609007969624,3.738742094600616,2.0386431670772573,1.8489310682272468,0.7354413472360625,-0.9791069391809868
146.0,0.9288182090278712,-2.210672366814448,-3.1394905758422853,0.5888675085936053,2.0202316459469887,-2.643831276817573,-0.20471559849864135,-1.1102030003332297,0.1877470042477411,-1.0037528518848258,1.0448361033883375,-0.2920421120973794
147.0,5.182758934513475,-2.403487334557675,-7.5862462690709895,-1.4372508653099936,6.3627425120148935,-4.975240875145216,-4.86298244692894,-5.950788511905172,-4.8946316320225245,-4.832669914510043,-1.6472758547550472,3.4921864915655068
148.0,3.015218181686027,-0.1817596939310393,-3.196977875616891,-1.3780397505646256,3.1510294915549597,-1.674575043675397,-1.3665085867141715,-1.9091012708734378,-2.306520478340927,-0.6714669027642266,1.6179294196336904,1.9141201780485686
149.0,-1.2055907797967658,0.6366045464670498,1.8421953262639321,0.33309105487060287,-1.4926383680478543,1.2579355714798393,-0.15493956940817477,1.859527870382889,-1.4269044654514462,-0.8418320746455489,-3.4825793524482824,-1.9810552985781866
150.0,-1.658777677561438,4.739689570812365,6.398467248373743,-1.5596699647209307,-4.088511364747791,5.598542639999225,2.8976640072981628,2.9321036967845773,3.5886410771787487,2.111439318630112,-1.8816496393995301,-5.337905095011569
151.0,-5.529592978453445,1.9599625525844484,7.489555531037693,1.775676264297665,-6.4993401640425095,4.689639908719222,0.1965064633070326,1.505882086098753,2.122457641877339,2.242313044484228,0.50004306403963,-3.3512354668009903
152.0,-7.387635182631232,-4.7523652974078185,2.635269885223232,6.067997117862146,-5.004540338802697,-1.0811631028537323,4.271195936560163,3.875044235199934,1.540444348172417,1.8339363010963319,1.7674480408131266,4.008334574357024
153.0,1.6108868803001064,-11.242598013641555,-12.853484893941683,4.816443451168192,7.241333817624941,-12.063752852595346,1.5841882963195126,-2.6596549906275406,0.7533924150569953,-0.29797522498017526,3.682837204975531,7.288310818002232
154.0,6.683460905613426,1.1960484283263497,-5.487412477286994,-3.9416278437734222,6.101248431477356,-2.161651083798164,-0.6153473649741215,1.46871657416394,5.011163190736529,5.58551374806538,5.652508766701773,7.931110234939384
155.0,2.582274445699736,4.69453794718912,2.1122635014895,-3.646870719796123,0.25968431271704073,3.381167046394499,-2.3038161633494916,-3.4112570835752827,-4.218990697820846,-6.010246288563379,-4.2154899225993,-5.645050410079012
156.0,2.526009968680832,7.22480221324496,4.698792244564093,-4.892370180084967,-1.1320014664722282,6.009121624787743,-5.429891814500851,-3.7458119390446125,-6.530266938455887,-5.858593928482052,-9.018121358266168,-7.647883180568208
157.0,5.567265654996668,4.480762209006011,-1.0865034459907705,-5.048498126895288,3.2872559981093263,1.735870942228373,-5.577521457842275,-2.5787604361396648,-4.769266414458773,-4.232368178792152,-3.7780847379130846,-11.092708256205166
158.0,0.12021208522265564,4.544618827532412,4.424406742309658,-2.282157455364775,-2.11029575534144,4.517891333721458,2.2069564757732767,2.487033656763815,2.5917457827868358,3.1028085196940944,1.5325770553557434,3.1904649098450406
159.0,-10.07923267799826,-4.528409836724187,5.550822841274082,7.3547102954869175,-7.852030460023089,0.4647371670335625,7.506861424051972,5.466064662982945,5.93519024231321,6.054995152961075,7.973147211450634,9.011496448698095
160.0,-8.255391723953124,-11.807617981201634,-3.552226257248359,10.00806672666349,-2.3111447018111506,-7.723501472902443,5.8708804303964985,2.5329796827388567,1.6363792441472316,2.792546307196458,3.4631402666699427,7.240018352011314
161.0,2.993582915724459,-4.82119695755685,-7.814779873281164,0.896056026966205,5.443660098576975,-6.355617828446176,1.759117312832109,-1.4916678403379984,3.2181259415857957,1.1036696701107807,5.4525645473354425,2.473852022712804
162.0,6.446686555048824,-0.1928097998474554,-6.639496354896162,-3.1408683391877723,6.504280793611389,-3.3671478473036776,-10.748533508021815,-3.733471990280319,-3.3150378858878344,-1.5354019551423839,-4.917845577676086,-5.347403104360936
163.0,4.133976373432761,4.66974631317408,0.5357699397413134,-4.41623224813695,1.7624446679332442,2.660218141665825,-3.1736351077624714,-1.0176144064852064,-3.224750016479736,-3.2522358320411993,-6.889995747108385,-6.640956413290155
164.0,-1.1722738734116032,6.093223629950563,7.265497503362056,-2.4802473009606345,-4.173377142794278,6.665255532555703,2.563727153473013,-0.3485253850587835,-0.9745392466031353,-2.1897304231973704,-3.938489367601256,-3.242812058006231
165.0,-0.6897070053142462,5.892441208678422,6.582148213992517,-2.5515454884473,-3.6653562734952234,6.226888785980712,2.0901242840900998,1.4657615066350589,-0.43080261250754304,0.041960430705529905,1.163683478806604,-0.23334218957835073
166.0,-5.680788556923514,-2.7878433713083686,2.892945185615056,4.195052951333745,-4.234375306769486,0.04042118503697756,3.5529814706718543,3.040836482926269,2.6139929100375277,3.3717611130400966,5.634333376035585,2.885470843742265
167.0,-5.3298605302776165,-4.883893000706534,0.4459675295710712,5.137831110071923,-2.9125432223155494,-2.238978362086432,1.958676116003689,2.221838956574987,2.9917698163153674,0.6641656365100173,1.2774625568923828,5.6133756065640625
168.0,3.0148248104295674,-1.9552054492510647,-4.9700302596806045,-0.5031853851230266,3.96748794571894,-3.4955977690432105,-1.0821001519643119,-5.607823355612776,-1.381013971918586,-2.5840094177411963,-1.211689547519922,2.365881546239197
169.0,3.3663968556991715,1.9700925445886366,-1.3963043111105051,-2.719356954518922,2.3545383799903292,0.3174293014021998,-4.4877561391035625,-1.4868767636859437,-0.9724676946978218,-0.5495673735120895,1.3568560253212114,2.7169907588781728
170.0,7.789932992300003,-1.0313662985115073,-8.821299290811508,-3.34563827351173,8.355240339511491,-4.909638948084412,-3.021423765944779,-1.2783864379564998,-2.482515466745469,-0.20066010453130845,-3.415449755696117,-6.195489718556991
171.0,3.0343637365535003,1.5982505161913554,-1.436113220362143,-2.35207367188995,2.2047892526526067,0.08856127616647358,-1.259595915261243,2.5810881814507427,-3.0076878380252197,0.21036996399169144,-0.2233981178920874,-6.77111327213261
172.0,0.06219547286454524,4.723505283342349,4.661309810477826,-2.339718600318728,-2.250509795520259,4.6970517953080195,-0.9029637641149433,0.526216500602013,1.2480314279823412,0.9812492979772385,-1.2011634352504297,0.35931351094628816
173.0,-2.3594610001093157,-0.6911487502953222,1.6683122498140532,1.5078915890542401,-2.040599352574005,0.49641418939340554,5.665404334266829,5.147089126763732,5.896163656891657,3.8771448785185654,3.97232920282862,1.2520514087117856
174.0,-11.278788920881997,-6.868277662721681,4.410511258160384,9.060114273893507,-7.86704860132463,-1.21388145787078,6.828693998265672,0.5818767729092225,3.610491053334968,-0.5030313541080662,1.2556442552656664,6.0505684817936665
175.0,-11.67651096660671,-6.5084983376854675,5.168012628921286,9.077750076041228,-8.36202839186376,-0.7257165323969885,-0.6682764237357008,-5.802550607665484,-5.694161768806088,-2.936048331565335,-3.049783224004932,-1.411106737609153
176.0,4.789786906617824,4.309629456136133,-0.4801574504817001,-4.570739350485,2.617925106169123,1.9448557339002241,-1.4550929340306267,-1.4503446812736773,-0.035960875401889414,-0.5523416458213541,2.115355032229375,3.6633018033388427
177.0,10.116451497345935,2.7952707189435513,-7.321180778402403,-6.407612927259628,8.69943214626254,-2.3074400530212262,-1.9973899057433655,-0.6783201161461194,0.6099941749597946,-2.2843492844257063,-0.630488956328704,-2.4895708430067955
178.0,11.530250507855907,7.5566758701396015,-3.973574637716315,-9.584173970000403,7.726314835490136,1.8276049864005124,-7.839647610429454,-1.3549465384634676,-5.9153683206083345,-0.6534845400165122,-4.469222896040352,-3.1852350788697583
179.0,-4.003079086113607,-2.391660913061962,1.611418173051649,3.2267364770728477,-2.841389614539499,-0.4317828392828823,-1.222522299096095,1.9615934917144804,3.1657240043425308,1.1003108127717454,-2.7854791066726676,-3.4434305478206984
180.0,0.32774761402852987,3.0421195771042413,2.714371963075695,-1.661365015405393,-1.1568511433684132,2.917613649488098,0.8247199511244354,6.896963829585676,0.5694761107949116,3.747097894014943,5.4527494932920915,2.0309420375734146
181.0,0.9192409047877175,-1.6338162894421666,-2.55305719422994,0.3780410035824402,1.7676541091687197,-2.049122927379041,5.725678625152752,0.5146727036271299,3.070427172569557,3.502218592677153,7.466359071248954,3.9678009388338014
182.0,-7.784052562085491,-8.111011600734091,-0.3269590386486742,7.88887725285684,-3.6972033140062743,-4.245621958798881,4.972488090166783,-0.9714558464335606,2.622355897887719,0.701701638293444,0.13816724303151862,0.24837705127777676
183.0,-8.35417356467891,-3.8038891138734856,4.550284450805361,6.099591834255783,-6.495355097231752,0.3561224978425277,0.7114272157206609,-2.792369517839319,0.38532858254213653,-3.2410276340228514,-3.1182455711231585,1.1078045694016452
184.0,4.407801627417758,4.353634538434253,-0.0541670889835173,-4.4378395406847435,2.27317718759113,2.1421305839223175,-3.772382297662632,-10.044198302522684,-9.265185080999848,-8.19165039013901,-9.511629135597923,-0.5667125372771743
185.0,-1.7439207716638845,3.920148952280533,5.664069723944404,-1.0645588477748429,-3.7346629590009965,4.7920202165242145,-1.9333522039521511,5.338690343734129,1.8423228633935609,0.12091539898056025,-0.08263563962597686,0.49906127652021015
186.0,-2.089200990241822,-0.8102999155836166,1.2789010746581457,1.4767651730554445,-1.711944211204402,0.23847573815485168,0.12478584152318195,3.623372845455703,2.35087232153277,4.466696433260313,4.688575458585056,-3.089486385756725
187.0,6.884979418232385,1.7421524391958267,-5.142826979036687,-4.281197629283419,5.984858901215149,-1.6955944682376765,-0.9239546988741535,1.910785715266941,1.3934315419356582,4.228456784399971,3.401631653911795,-2.313861872391559
188.0,14.091931870873319,-1.4905109549729778,-15.582442825846396,-6.340400691073068,14.882975779983058,-8.534491136672882,-2.8740802460156254,-1.76926858590397,-3.75132841011674,-2.5454701810398723,-4.235690429539437,-5.28911020394387
189.0,1.6073821479055432,-0.7076589735867715,-2.3150411214923414,-0.4043159118687849,1.9241449313142232,-1.5144562091851492,0.7266454385348151,1.3481305824183103,3.2871191088784064,-0.22902998061066865,0.028559915729273258,2.6114914283834114
190.0,-2.538420552342768,5.1185909445885756,7.657011496931359,-1.3190077480436235,-5.0575043679924505,6.378594389566544,-0.011286198539038894,-3.7896447118384056,2.61131064010545,0.4998535129141499,4.621726984156509,7.649422441595125
191.0,-12.7554548847025,-3.9853692722545344,8.770085612447977,8.341966968623016,-10.719577912325308,2.3773841694232565,4.43533482253012,0.3217602378624227,-4.1970783309209105,-2.4208551108756247,-1.5666061014734374,4.3221954110001635
192.0,-12.489994835496166,-4.67176161351927,7.818233221976893,8.54862465491124,-10.182178803646536,1.6326172657393605,2.870147555823662,-0.18203360308787586,-3.240962743405019,-0.08510101270200754,-1.810583668305763,-1.4929481910199849
193.0,-0.42062277387659286,0.3006785661186575,0.7213013399952071,0.09920854265745849,-0.5886924152457835,0.4891089833428731,0.9896551755840749,6.996681742500144,5.6962778241208145,3.4542025211808207,3.9320525081911804,-4.199892036237853
194.0,6.899214752331728,0.7731781872129424,-6.12603656511886,-3.805932002451761,6.50537559768769,-2.6989909259326064,-2.92865312166225,-0.5542654035648518,0.6520190797153969,1.7770872295190185,0.5611978880523409,-3.229921516061222
195.0,3.2097330000765076,-1.068479468232435,-4.278212468309035,-1.049124794358956,3.744599304500573,-2.6952069597595996,-1.4398968336135423,-2.967758911518501,-1.850288071147936,-2.3293782994642607,-5.7740300004040535,-1.9001937206584016
196.0,5.727394151276853,8.716632569138786,2.989238417861877,-7.2863042767058595,1.3729810082659046,5.91126961498208,-1.9506822748482153,-4.090053319303209,-1.2340979717319356,-3.057740809005981,-0.2640811089262458,3.782567716004531
197.0,2.576593190921532,-0.30249862650571124,-2.8790918174272377,-1.1270507409986688,2.729600457449826,-1.6097023373827892,-1.3459219587488294,-1.4293929963455811,4.7086980994035095,1.931564712331536,0.996712951293238,1.4492076900891482
198.0,4.4744872659849,2.663098751822154,-1.8113885141626975,-3.560454131477508,3.1375135049363534,0.40787654312570837,-2.958553647985722,1.4308188059397775,0.242216015822317,3.1096362322948066,2.8799344620834986,3.542591831304283
199.0,5.158672538178834,-1.0566034199319656,-6.215275958110731,-2.041894939290086,5.670661893792784,-3.6541071944213064,0.48256314377984766,-1.1691731581945075,-7.58008382513128,-5.746025053588989,-2.345458674032874,1.3903632129591954
