Time(ms),I,II,III,aVR,aVL,aVF,V1,V2,V3,V4,V5,V6
-200.0,-11.617733790102347,-1.815415441307294,9.80231834879484,6.679774654837267,-10.729398131879655,4.0340986179461105,5.902026424772076,-6.318210605026011,-2.9445536951708307,2.359014036979781,0.6986299807592027,-0.17044790601854665
-199.0,-5.0097275377917,4.680139375950989,9.689866913742527,0.12184531194933923,-7.292673331862308,7.148557910712981,-3.4669368818425728,-4.793624047959955,-2.20673880087323,0.7743995605776317,-0.8970465875670446,-2.801267368221338
-198.0,-6.623489320344797,-0.08028213783869331,6.54320718250592,3.382522651107426,-6.528339369136477,3.2736554545358874,-2.115882041110414,-6.207219820455249,-3.818336676191029,-2.2398836217490317,0.23377761820693288,0.2844375655166429
-197.0,2.163208525292176,7.4128653317213615,5.249656806428998,-4.759651437327735,-1.5687532751720938,6.29265294682408,-9.027041707267895,3.699334025699498,4.61984392632355,6.858293156315135,6.633073269704488,7.44294455116516
-196.0,7.236776012887182,8.840492455604185,1.6037164427168404,-8.008263425574754,2.7890247136281667,5.180069588492481,2.770321259329741,2.0929860453162172,4.745719233631586,0.7283489471303932,2.873819521073932,3.4919359950487143
-195.0,-6.098633321779264,-9.713404769283386,-3.6147714475041175,7.864005634612178,-1.2721238420231256,-6.631033688968819,9.75933080326337,0.5695082555546565,-5.277810845951456,-12.824309032789554,-5.718787388111619,-4.021025138548422
-194.0,4.614092928489425,-8.071555953540598,-12.685648882029856,1.6963323512201043,8.616466864063266,-10.348248325069715,-7.680612879693646,2.321682908172069,-11.927414783884004,-17.89068197301588,-13.618684899635372,-10.585163517163185
-193.0,8.474159397694798,-8.641299953583676,-17.11545935127797,0.14070964239729244,12.837480092556378,-12.849161191042638,2.1804855298997152,6.605784757411144,0.6593446916342032,-3.382090943357156,-10.527843362164587,-8.95638154183662
-192.0,8.84401706388997,-7.357023166471313,-16.201040230360576,-0.7556208244338609,12.564442533536647,-11.828466761184698,6.446057176958564,12.802186416248597,11.703475615389099,10.245191560277288,-3.340814181057983,-2.554766885718246
-191.0,8.854047152968413,11.17267632253685,2.318629169568977,-10.019583862012702,3.232873498986196,6.7752236117105396,-5.2651859554336475,5.110313418428618,18.527505712369695,21.036036616974982,15.506269415398855,10.739231783038225
-190.0,-12.44137897311352,4.906572027926572,17.34795100103995,3.7619919344743775,-14.846296584695116,11.07730416827906,1.8379897848808242,-13.325067115631873,2.045455957974749,13.488253085153755,15.997486896249777,9.838647710861824
-189.0,-28.224603679598623,-2.25729221659095,25.96731146300705,15.230989564405299,-27.12084412533781,11.881349267025572,1.1312644056425527,-19.27105228622161,-7.2308071903299895,3.891123382996247,9.51469177524854,6.925935055825006
-188.0,-4.604231899477375,7.679397901303611,12.283629800780417,-1.5563088956890851,-8.464173351731091,10.004031509474313,-0.40722761720411865,-9.299706455852709,-11.252120552183474,-10.452278822285518,-2.446870273928042,-1.9675852056819658
-187.0,15.327468343630784,13.246866211826482,-2.0806021318045875,-14.237844370621712,8.68606417152338,5.522931058139191,-8.364405114270898,-3.55140605265434,-11.948976338903496,-14.100235000795596,-7.939295652592856,-1.7411649301725514
-186.0,11.562836153469803,0.3766320872846376,-11.186204066185473,-6.008973969082497,11.355901206216545,-5.3886460489171215,-7.974502384036811,20.051113691520282,-2.6742896539834566,-9.77790515493831,-10.86766330712926,-4.743024651812279
-185.0,5.834125980565515,1.6356939686519825,-4.198432011913905,-3.701746018332971,5.07332990100806,-1.2646070280391903,2.940675881010814,22.050885361414615,27.517675223502877,14.762899710199674,0.9378528785637581,-2.8253399150586906
-184.0,3.861358781337662,-33.65417792191806,-37.51553670325584,14.849557733715233,20.662316216639443,-35.56397815781513,10.17821719962982,14.698214723590368,8.49356638163657,-1.5818239895395179,-9.13548327768067,-14.33340206286606
-183.0,-8.21214296885859,-23.56819048245255,-15.356047513593682,15.926032573336402,3.619857914772524,-19.434640511951418,9.58889243698399,-10.255035414592093,-16.54875746548553,-12.61052156927551,-6.90975825213834,-8.394801217781144
-182.0,-11.957329739560333,13.86690513299446,25.82423487255536,-0.9111712120103146,-18.9259541957353,19.80105158086066,3.931104572366804,-34.91797720633415,-25.29897741160087,-11.332803359294546,3.879454225087757,13.868746537304961
-181.0,-19.966237863819657,19.863226993434235,39.82946485725445,0.02518606751829361,-29.936761358145905,29.884684205430133,-0.2539476122012787,-37.69658232502913,-32.64606602156929,-10.954822650557801,8.547559164918752,18.20438774916791
-180.0,-1.731935084178617,16.58721605359766,18.31915113777658,-7.447240624520136,-9.988944779973158,17.4121712396475,-8.820728405173671,-6.659640393554321,-6.705808262186233,0.580848296015666,8.436403537350586,9.664530091385307
-179.0,31.295832012086215,19.429586805309015,-11.866245206777167,-25.380198406950324,21.614690439765152,3.735063643533543,-6.268655680322328,39.28749566735483,36.175602654465116,23.219261891313735,7.596746127710063,-6.628367839019815
-178.0,20.62841719156582,-2.996822548001454,-23.62523973956751,-8.836776165137403,22.07891207121207,-13.287650267051937,-10.777640277219216,46.34871450483172,65.66896813116526,47.36302377545734,6.865562323122954,-9.310093715474057
-177.0,6.416309076456363,-17.694666127021875,-24.110975203478556,5.688643416784769,15.291786937645643,-20.888022575787943,-4.707301703919178,28.06649885946803,39.87874221179486,23.32299991335357,0.5756867228814335,-3.972959445608713
-176.0,-15.086486718027722,-19.62130460839792,-4.534817890370601,17.31360322820751,-5.32872637947315,-12.068126812041498,3.8670083612261337,-16.90152042694021,-18.003962948135317,-20.646382177619632,-11.911338569477405,-4.426758296352344
-175.0,-18.14693963376771,-14.341361850100263,3.8055777836672515,16.2714521587877,-10.951787187697992,-5.256849984294719,16.25788778205308,-25.79341684964468,-41.747069036600664,-39.28864898564043,-18.406457258085197,-7.589325608351844
-174.0,-19.000587382316485,-14.217768241299911,4.78281914101661,16.627238541759915,-11.8672495122678,-4.699370581006282,14.989833999130552,-22.907692990435244,-40.13157691931617,-31.758077325222,-12.41668928856557,-5.006289016453928
-173.0,-5.332793760650047,11.148372541408648,16.48116630205897,-2.896051699495696,-10.881065912428602,13.843556055396954,0.06718023562693709,-10.591308187534604,-18.972143784503192,-6.095406738126993,4.8530117254812275,8.072075127815769
-172.0,20.744732810704956,30.218414517474383,9.473681706769709,-25.473309475001777,5.585228335652306,19.8066749957276,-18.644319831715848,-5.085375448990102,-6.567090150612183,8.940019667930047,12.953162197795004,12.688475463075202
-171.0,16.03472967872886,33.01093523341616,16.97620555468747,-24.594579570059395,-0.43940836522652305,24.961157761597807,-12.479941996055594,-1.1606924517665984,8.414717870624884,21.95038587760171,25.48855083904077,20.43211226036639
-170.0,7.03068307488461,-6.395794533264823,-13.426477608149405,-0.3100367817330678,10.183670365852644,-9.942085549844847,3.4203209333023867,14.91416893496608,24.49280892563954,13.363065001480678,4.0489527330743424,-2.988951033156715
-169.0,0.0256395021692839,-17.23806440385939,-17.26370390602883,8.615599381881768,8.68030789782099,-17.206577327447768,5.858943500859193,11.694615689640052,13.072820664055989,-2.8241882716836813,-14.42526359725674,-17.44433454419461
-168.0,-11.598859999937812,-25.998347356210182,-14.399487356272648,18.811745757104337,1.3583559242629546,-20.239213237555283,8.171998839826912,6.458117773300263,8.408073219306786,-6.972286520066957,-16.52310018100772,-12.470930434729013
-167.0,-17.03552396806248,-16.502736501529043,0.5327874665332342,16.78777850983245,-8.746555393985734,-7.951316536398847,12.35455573217325,2.104782741232299,3.3540289640940983,1.0133702917150962,-6.638680471942067,-5.010770796188166
-166.0,-7.716660104737499,17.383499852543956,25.100159957281427,-4.80820349472433,-16.3701532060808,21.274448391078813,-3.2304018886806407,-2.8395320991156856,1.6261037191545267,3.6852121734214416,8.859459493096816,10.135857465864902
-165.0,6.303911671533732,18.33930058677766,12.035388915243928,-12.368859890605851,-2.905820990641529,15.223537856590177,-13.258053375979536,-3.8190123607594186,-7.901447568838803,2.8819406346569982,4.6940733137932895,4.386452156519713
-164.0,9.01410526840635,3.379559024121649,-5.634546244284751,-6.160855659796523,7.284075017860763,-1.1630601519040926,-11.635424222723254,-9.333940368301626,-12.539222765775364,-7.932295099521458,0.2471126999404918,-0.715465059181736
-163.0,9.615054990762854,-13.830119760614881,-23.44517475137786,2.0664905657305077,16.56750817639297,-18.665299432398598,-6.175870463920835,-1.6744291002481653,-8.411431005662438,-5.964405658646612,-3.0051183927671348,-3.7875152541770283
-162.0,2.1089557924691897,-4.201578162074156,-6.31053395454339,1.0043855942232747,4.244905512027212,-5.277370454324865,8.770161635966343,2.875196728844518,3.978987758390412,0.5637314930134387,2.292610937434418,0.29486544723160724
-161.0,3.9997689880076512,11.583699490556242,7.58393050254883,-7.757219993195486,-1.8389491030358154,9.565847760512055,11.638328873196333,11.335167223905664,14.134115629528424,11.471750385121958,8.8998322090304,11.337932795326475
-160.0,7.914597053310334,3.995753436029444,-3.9188436172805394,-5.922764782389172,5.944683370936906,0.09965454083232483,10.966147592429106,9.634877573237153,8.262488605072432,5.661341565661074,3.389624602791013,2.3467490982086368
-159.0,-14.53207186352966,-4.641147394662673,9.89092446886722,9.618339087798637,-12.266097577939608,2.6059986666156476,-3.7870584037731367,-4.802032228939651,-4.666635731199854,-4.923559038605948,-8.986741971033092,-7.400862050520425
-158.0,-20.31682418065801,-13.07872521183812,7.2380989688199415,16.65171670722312,-13.756074333620427,-2.940766779060528,-5.2808287351415375,-13.675137822002586,-9.512082845977995,-6.451802997027388,-6.347883772821586,-4.45776166566708
-157.0,-1.29585766825873,2.5222003121646424,3.818057980423252,-0.5786078453072498,-2.5365030361382086,3.2278161368295515,-10.281278035549041,-13.985730551496447,-16.078729011075357,-7.56796158318154,-0.37339823545085693,-1.870805739976154
-156.0,10.431128215356399,6.570321961315403,-3.860806254041289,-8.54325235606586,7.167516030240845,1.3344828346909305,-1.191435388956962,-0.934683297651878,1.5340183857629164,1.179150278484273,1.3051242832568706,1.7131998292343236
-155.0,7.470065979426452,9.761405461058137,2.291339481631396,-8.657643620765509,2.613458698714175,6.008011373830605,8.721013974318872,7.653403674858978,9.48480306308525,2.9605413616851846,3.2617343281701725,-0.004292966443221247
-154.0,4.89375298081319,1.7753413904029531,-3.1184115904103704,-3.2983040883414336,3.954355435095982,-0.6875354168109463,1.7695569259856634,11.899008738879772,8.56096587200507,3.481248845941202,0.8449736237210665,5.695237073562664
-153.0,4.135122182063787,-2.798063185546334,-6.933185367610058,-0.6337623747665537,5.484770531534695,-4.879560324849233,-5.399442499295573,6.04595201377746,3.7313749312893956,0.9409152198555732,-0.9964368265434247,-2.374751420044101
-152.0,-4.992552861021206,-15.274780142080553,-10.282227281059155,10.16654751211276,2.675623907691341,-12.71255171885376,-0.7855617534887095,5.833320091124348,4.733215325518037,6.429059044931011,3.241346850538289,-0.08470744887311353
-151.0,-9.16696842100749,-5.424021969273891,3.7429464517338245,7.247664675157882,-6.423320304774895,-0.8536109749423453,-1.0987421782209812,-8.200544059682452,-7.059036595065879,1.1437396466695011,-0.25291262505427814,-1.5989167044586599
-150.0,-5.486666967755133,10.036910470461237,15.523577438216481,-2.324712096497263,-10.472519588985469,12.765199560946813,4.940338710157987,-9.094515527620295,-5.647534499187746,-6.683544525220221,-3.797326089516689,0.509414734007058
-149.0,2.341557983043329,0.5935375403665635,-1.7480204426768182,-1.4395122603165231,2.000292305771919,-0.5958424536556839,2.254464771559831,-3.5660358015723217,-5.587046431349038,-5.5506839916572215,-2.601580840434635,-0.9458110212668611
-148.0,3.747734603391557,2.1340758259754766,-1.6136587774161355,-2.9127381942532153,2.6387588333882377,0.23714482022266203,0.30956772790334686,-0.6311033447192189,0.5155586896550917,-2.560996139110228,1.611379937024452,2.622027938298155
-147.0,10.728005942717978,3.367242055528839,-7.360763887189147,-7.017493823554256,9.084513824642464,-1.945266452197294,-6.007491179802141,4.4859899141151915,0.3733371331624892,-0.3638345549465296,0.2408409223839737,-4.481770569250807
-146.0,-0.7208808531530542,-0.25927190481658835,0.461608948336538,0.44551305131420893,-0.5475457274827948,0.07128573358975065,-1.4234890450896915,4.682389963112085,5.25585432254943,7.649733687751891,3.866265817477432,2.261602191625383
-145.0,2.202782674823124,4.035697434247848,1.8329147594248492,-3.1578184582081485,0.15290324089921575,2.983020615967772,1.8700223509747773,3.2525749021567214,7.449595329615151,7.420521119026214,1.6887419785093698,1.4897514925698823
-144.0,0.5076244038195714,-0.8615825539950046,-1.3692069578144854,0.22446980900710167,0.9079524126832199,-1.1429243275306173,5.357142001953527,0.900622486145886,0.586070447160894,0.9490478948400636,0.8746771241600481,0.9842024127644637
-143.0,-17.820366866416936,-19.6642848569509,-1.843917990533974,18.718654959001753,-7.9404703081586065,-10.77705182639947,1.0931468126785682,-8.359340030549845,-9.533798575892863,-11.359203027940687,-7.9075999128044945,-6.042680371106693
-142.0,-9.82923554918625,-3.2221206939615383,6.607114855224658,6.58702762125188,-8.251869458280238,1.6750242102247066,-0.7987306021562889,-6.456899812652125,-3.9431638152369,-4.147264573646082,-2.7096206720008955,1.5232796497977632
-141.0,6.824795051575954,12.636459545236086,5.811664493660082,-9.745015293877557,0.4686072161358643,9.290189113330184,-1.599252224765043,3.055225708971851,1.2056336811587771,2.5909063356344806,2.7883427576439623,7.009051542202775
-140.0,16.31550067776239,18.90671767237178,2.5912169946093693,-17.627469523692316,6.898117991075351,10.738934569936536,-7.557340199277141,5.932896191653574,4.418215158655968,3.3910437805865876,5.5578143524037475,2.150687252928007
-139.0,5.825585797947404,3.8314741038779605,-1.9941116940694514,-4.852531395194778,3.9413842254279556,0.9075864258121955,-2.432129792050406,3.5455098641963834,2.8876108290170452,4.908829223170802,2.464836024105546,-1.4378862323960186
-138.0,-3.5892016697779194,-17.238410610448344,-13.649208940670448,10.377511858520226,5.05785683726852,-15.460277443670684,0.12525726455567565,1.0931537240703055,0.1324064424395408,-1.7071187486527486,-1.0750307349744155,-5.771868889393686
-137.0,-4.48823843439477,-12.701538214298917,-8.213299779904123,8.623134321761462,1.8084739252604058,-10.483032823208365,6.901041874506236,-1.7059747441762936,-2.2270397534408577,-1.1412888097811775,-3.1540766416900916,-6.291812824856843
-136.0,-5.086910942249386,4.265363343340219,9.352274285589656,0.4265632622785125,-7.1979863829930455,6.850891628198131,10.041288318405288,-1.5385621948531638,0.7604417368311254,0.14786685517452325,-1.7824465706815575,0.8418512601251154
-135.0,-0.15091225197801794,2.273363741853717,2.4242759938318112,-1.0528233483396088,-1.3478122931564283,2.3019328235518057,-1.150122419136041,-8.822099269119212,-5.392253181314003,-5.834345271027295,-2.1791574678099117,2.9501416805704372
-134.0,0.43524010173787064,5.945942111163008,5.510702009425196,-3.182760489571155,-2.5216044256399655,5.7536658210144935,-3.1708378339043857,0.6101354270278123,0.09972252215509725,0.25336393952875325,-1.3066134191462735,4.354789242506662
-133.0,-0.1581724884106141,4.296548008296991,4.45472049670764,-2.0555441021416225,-2.2909243376411172,4.400061992235649,-6.293620548501947,3.6278424107627254,2.7495196179606927,1.2858026630408723,0.39809190131616523,2.9985580273241648
-132.0,2.813026226089194,-1.0621890556794296,-3.8752152817685808,-0.851924085888486,3.3617423628991117,-2.439340037159606,-3.8577394471726354,6.116102893596931,4.1268120831644115,3.2927684608082286,4.856041211029581,0.8436770991296998
-131.0,0.7995890515116997,-3.092376243976806,-3.8919652954885104,1.1017812969252245,2.368158495534704,-3.532352185980403,-0.8450184158697485,3.979687397286861,1.6904093187143627,6.719993720792062,5.957204867315097,-0.07732703000610242
-130.0,-2.1411216191480493,-5.902654323144138,-3.7615327039960964,3.985903906575933,0.8387943081687026,-4.861692062788291,3.691459222837899,-5.0668153102297,-2.0309258907063206,-1.93001329890278,1.9378425389908687,-5.256521221042918
-129.0,4.122267057334467,-1.9626673859462156,-6.0849344432807495,-1.1105151431613587,5.059218262831716,-3.9659444267643185,3.1711559635542614,-2.988483202079573,-3.4291107022829523,-5.603132940385773,-7.386699324133215,-2.013615584367809
-128.0,-2.843527835576859,1.9271331278324564,4.770660963409174,0.508465291659514,-3.847668177877381,3.332263768248402,4.285167828593573,-1.0556393724316435,-2.2670851687825255,-3.967358421767062,-4.860890688608007,-2.352372961629057
-127.0,-3.8921330341416995,-0.16817304266063693,3.723959991480961,2.0809596753683817,-3.8471076660924868,1.7600299919451763,-1.1705861751075983,-1.2944334663730164,-0.8311118990563742,-0.23858731247465537,-2.597251764759764,0.06250203157424838
-126.0,0.5447050656854284,7.358712651379708,6.814007585694249,-3.979478025725807,-3.0947071835932034,7.062658374273835,-5.013087659086111,-0.08415758796586868,0.90647613898459,-0.24167000835969457,0.9287953344349924,1.6100942211442035
-125.0,-0.9539211111762285,3.9823289992470228,4.9362501104232885,-1.5416158385032506,-2.9044704440416735,4.427731307765351,0.6325939471992097,0.2597327715762442,0.25694193419855393,1.953865084895354,2.531937283542801,4.601339900877581
-124.0,4.394371046684993,-0.48689610166356634,-4.881267148348475,-1.9022690918131908,4.680695226468566,-2.643400716562895,-4.698708722588923,4.711754678089322,5.320240053871919,7.3117438425054955,8.641461798425752,4.208718688745174
-123.0,9.105803867508683,1.103860842781125,-8.001943024727456,-5.133219759266879,8.521751019233708,-3.410785298944949,0.7000780601285941,0.6350086104755448,2.3700095025434096,5.068605976691192,3.498487618874189,4.489486796605094
-122.0,-3.8226317132335756,-3.4925986846174957,0.33003302861609995,3.6258999396880385,-2.1045270420425464,-1.5404951054521998,6.732260755666957,-0.7636418113421181,-3.117384154258474,-6.031481864132833,-5.044333745177275,-8.279318035069004
-121.0,-8.631100537044368,-9.849283822179602,-1.2181832851352818,9.281304755802052,-3.732318322235283,-5.565620514945935,0.980058135529025,-5.112070162113698,-4.227706872475277,-8.978259092025702,-8.268350093354348,-6.323092585863673
-120.0,-2.891295532354654,-2.9556338420289148,-0.06433830967437648,2.8778726165131947,-1.3611503012270898,-1.5352699373549792,-2.236452923241446,1.2267813398512004,-0.21457599461422072,-3.313399342150679,-4.798161921376664,-4.742636221247411
-119.0,5.27348834284748,2.5843874293956683,-2.6891009134518997,-3.9043351054006585,3.9511559884652216,-0.07369955082159152,-0.1125267383434716,6.981636784609643,4.423740772925996,7.094949815111017,4.197569242813277,3.9239827422480107
-118.0,1.668467250180834,6.176554030740091,4.508086780559212,-3.905152372153241,-1.4559813358898066,5.320316042471864,1.281364758726207,1.1378876037595218,1.1685926944215659,5.237824489021774,6.614477114473686,7.711993131963348
-117.0,-1.2629480210884947,3.0689742144201295,4.331922235508626,-0.8897325526538817,-2.7616840476802285,3.7519983663737517,0.4148110081207498,-4.855944630036018,-1.9440025053260719,3.7629990087308793,3.863375749700341,4.165122238786909
-116.0,-2.530048444285999,-3.017809049600073,-0.48776060531403287,2.708862108078902,-0.9914787782270064,-1.7877642820352193,-3.7547493147970745,-5.5877596810954655,-3.8711278937858498,-5.593178907642999,-1.3516032361087063,-6.003339217568085
-115.0,-0.9590877769952043,-6.110747032152064,-5.151659255156815,3.5538953019374135,2.1215600167260122,-5.594774689949358,0.9827147180287004,0.6362448312155893,0.9707305835554867,-3.7553422575071407,-4.715205126367698,-3.1131294096277795
-114.0,2.8799036764142856,5.046630318460775,2.1667266420465428,-3.934835566984907,0.30059118028682663,3.5604485766782124,-2.9813519336599787,1.8633589979406056,2.51274797070724,-0.7723195240455045,1.6824548966340807,2.6388360809547
-113.0,3.3397022694063474,7.486168610962258,4.146466341555906,-5.372827175018461,-0.3816026555551013,5.85030904947684,-0.25839786994941266,-1.8222294634481533,-5.865499785655231,-2.245193022258705,-5.819926213066649,-2.0179380356385814
-112.0,-1.1420999846152122,3.744034919067894,4.886134903683066,-1.3285342552390955,-3.0708332857245058,4.356146454003667,-0.4028724978473879,-0.12169818446540526,0.5202132373646636,-0.7451480375925612,-2.073722923722957,2.995324350552715
-111.0,-5.245475752739719,-4.217237986264169,1.0282377664755245,4.7113384906622695,-3.113366287733195,-1.621146039989787,3.7706401163505157,2.642076517006489,3.9053135017055434,6.691920784346412,5.411228886056527,2.7993142158017856
-110.0,6.612061183607363,-8.174591515899284,-14.786652699506659,0.7632858509229976,10.725645030106683,-11.4951970025966,3.5226252780781437,9.068557016763378,7.388916358143152,5.780826176868781,5.802107825290493,-3.8670758346978302
-109.0,4.538164033268426,-2.838380361376635,-7.37654439464509,-0.8715827073468221,5.987682632820277,-5.112196537308427,-1.5498282006825885,0.14034678591773542,-2.1246566065293027,-3.1460889000535115,-4.472616674007098,-3.6162850865241496
-108.0,-3.4163186895855278,-1.3021134276757653,2.1142052619096927,2.408446738193501,-2.8090478508393795,0.4064382498383696,-0.39040567518128544,-1.1354539733486932,1.3163957856673933,-2.743320599015553,1.3662981581395843,3.007947603682464
-107.0,-7.3371358196351455,-0.30729605583581265,7.029839763799204,3.7836547438382766,-7.144416017473774,3.3611393513024725,6.62660573246817,-8.14570611003851,-3.491069652315264,1.6614200943279043,2.2025541897133283,2.2213869068953365
-106.0,0.41945369782734376,6.240463923510872,5.821010225683443,-3.2969066134192504,-2.7380342444176033,6.025262292185383,-5.650576764575747,-1.943794473817679,-4.886149311503842,-3.856135325352409,-3.774469229841442,-0.0525143797208405
-105.0,1.4470442158016892,4.6603372960332745,3.2132930802315887,-3.0235895104076884,-0.9203009585327524,3.9234265305900364,-11.96675096061616,-4.545008639314203,-2.34553989116431,-1.944818366946286,-1.4583767528257772,-2.4253517207264794
-104.0,-3.996246548852112,2.532606130805514,6.528852679657706,0.685183829014516,-5.223097306399344,4.5096732484237085,2.6829079058641003,-0.9356499535111077,-4.200056216053103,-2.645195372483504,-3.6130745708993484,0.4631509285234958
-103.0,5.184969054337715,0.08301376849485731,-5.101955285842784,-2.5957187917529594,5.1794488841089645,-2.4568946316660867,2.8823465159803843,6.37409872916329,1.991585547673261,4.131800104830155,2.7050256747528376,-1.1283922941819915
-102.0,-1.8367039499169389,-9.470699608841477,-7.633995658924556,5.621535941820547,2.852283676688732,-8.501488635847474,7.857772667947676,4.5402303823925125,9.75544886010636,3.8945449173019733,3.4922481336804534,-0.7470346191540205
-101.0,0.3542272370346733,-5.324963056051701,-5.679190293086403,2.46117866657688,3.0465384649997125,-5.529208319019186,3.5551717948861596,3.086518932857513,3.7403684868497242,3.399297123947579,2.280118363309155,2.9147790749911007
-100.0,2.696631370496641,0.1778224672491171,-2.5188089032475514,-1.377320504597583,2.5581343829648153,-1.1965445880402648,-3.781972701523482,0.28030770445669284,-0.21573702632508818,-3.6383390181987347,-1.2009153012038234,-0.6858948171887991
-99.0,-0.6007317646647901,9.546239071016688,10.146970835681527,-4.490457769704436,-5.343130184278839,9.819738022336658,-5.263857396933741,-3.3472324170552095,-3.1806394705951253,-3.969497509470303,-1.9081052058903325,2.6800571560396778
-98.0,3.945114490570199,4.901349341773095,0.956234851203055,-4.444518520492903,1.5285979777708958,2.898083174452867,-5.97925811421122,-3.4230934996445104,-6.460513851651051,-1.7964490165211908,-3.796489933086286,-3.7778638605805437
-97.0,1.3224831830912238,-0.14197035146582193,-1.4644535345569119,-0.6191771471122658,1.3531587243079262,-0.761587259448091,5.469124608126794,2.2228296355344375,2.483381907481828,3.6237215501513087,3.203048569869903,3.012394683041416
-96.0,-1.9353784493488635,-5.508157391142959,-3.5727789417940516,3.7616086289052824,0.8607721624016476,-4.506145146994569,4.2112325052781205,-2.260406393401406,-0.15935186179364846,1.6009222647939523,0.49667565268381797,-1.5469636121445818
-95.0,0.7281736820529807,-4.384257419577074,-5.112431101630131,1.8577989528600622,2.88513906876351,-4.798917355982736,1.0527935135991593,-1.4398784661758066,-2.1351716790480366,-0.8688593672328752,-3.1462623905954725,-2.4240935715702903
-94.0,-7.2010328387205105,0.22720332618620853,7.428236164906604,3.4299427476490996,-7.351270542274538,3.8523787735312465,-1.6440711692786807,-1.3094162328760437,1.7449707984105105,-1.6330784059053256,2.6699832147140166,0.41839887831680767
-93.0,-6.304625676126165,1.2539611653755418,7.558586841501622,2.542823091424273,-6.893856973450878,4.430383276865831,0.3149096198142064,2.627821549055265,4.214939213202264,2.1570764132619233,1.247503042403174,0.21264142684561288
-92.0,1.4772317958702228,0.2798228221845338,-1.1974089736857436,-0.8610021172018458,1.3688822974926804,-0.4330907441142984,-2.3900390425689766,3.499306602004694,-0.32335196803024013,3.559116072125532,2.6431981208659514,3.8350967345300195
-91.0,-0.11744190950118183,-0.7607592912128744,-0.6433173817117034,0.460555243768793,0.20947299288151355,-0.7528481508439907,-0.6835652384236488,-0.22152018632267279,-0.8676181356987945,-3.672727847501972,-0.8610707849328669,-1.4537769245023344
-90.0,10.074374834947978,2.642304572446477,-7.432070262501492,-6.409119318658972,8.774089704964576,-2.444190836931893,-2.0111426251677726,-0.08442793530181181,-3.519471603904373,-4.040466923034003,-3.9457976318275585,-2.969586759365467
-89.0,1.873968785466551,3.150237410225711,1.2762686247591937,-2.4767979829545967,0.31886230946635497,2.242855718959568,0.6629502662602453,-2.5734220887628605,-3.125806458530506,-0.23723173571320877,-2.61826946662623,1.0424649830532768
-88.0,7.84544734338853,9.773834757652715,1.9283874142642294,-8.846618829629477,2.903534907868756,5.879863382116863,-0.5348778381197662,-2.1447320206459737,3.4751819438307514,1.66253547587312,2.89778308771628,3.1996629045473632
-87.0,-5.385049038761665,-8.077636257880545,-2.692587219118849,6.777572962822297,-1.3141381616356933,-5.357294351031407,1.883891569999725,3.0768364609323307,4.490834742968724,1.900117094548743,2.855055180295091,1.872279640393241
-86.0,-7.893372454762675,-13.788164723992825,-5.894792269230145,10.810363660695,-0.9555190072949855,-9.892404158038405,10.044775424095176,1.4315614656303337,0.3722237490764595,2.199401066604902,0.18559980736430726,-0.7550108703143225
-85.0,-3.741718773216256,-7.204798492577268,-3.463079719361045,5.443111402102988,-0.16169647366255813,-5.304371175080275,-1.6494902222259986,3.0642021217646778,-0.12846836636054926,-0.9448802937882003,-3.393056495362588,-5.655321331329823
-84.0,-1.5254338748478986,3.180072783974621,4.705506658822477,-0.7792523250064498,-3.1273899198310406,3.897531575689012,-2.5996026047173855,-2.372646443169742,-1.32112620948707,0.06347730661554114,-0.18283784839210826,-1.4482299098155687
-83.0,2.9329069938460126,13.039506783670452,10.106599789824376,-8.01703315516663,-3.59331850752869,11.612682630445173,-10.22559237455236,-5.328389039513789,-5.055132755619189,-2.8533165626065227,-1.6212626902667344,-0.9603916850186986
-82.0,4.470891681562714,14.016917988070317,9.546026306507517,-9.194938837095776,-2.5453732828280957,11.75021666336678,-3.487734321364957,-2.3159114669604826,-0.8996452366912511,0.5946340654959069,1.773181997503373,1.7808320704232292
-81.0,0.9928732814893126,6.028060601783926,5.0351873202945265,-3.5379674292368426,-2.0371930487345997,5.587608175282076,2.470442263609314,0.711736181579525,-0.3552537522656768,-0.45688428367287626,1.2091522713829501,-0.04659934017729617
-80.0,1.7549879048423378,-4.262148212019172,-6.0171361168615505,1.2289023756284654,3.9352301641024283,-5.154928929145778,2.4402987162283045,0.6242795806630169,2.543964680853106,0.542351742115355,2.7341815957554463,7.525852044747101
-79.0,-6.983502017892373,-20.08518847918627,-13.101686461293856,13.590618732900433,3.013475904785836,-16.604027894885967,7.135525309234609,3.644547969360722,1.746400624521635,-1.4679594420903415,-1.0248230853937146,-0.3271827929492077
-78.0,0.15000543130999322,-13.199400242343206,-13.349405673653095,6.502671606859291,6.767647301383377,-13.28435069536106,4.002145357088919,5.769728377774678,4.854229610824613,2.149143058367753,-1.7115311866937741,-1.13662403381691
-77.0,2.3842590750618604,-4.554721741274608,-6.938980816336378,1.0613240430262563,4.668232753562274,-5.7603781116254655,1.989474078638682,2.4719570457772244,1.1069731154439326,2.203415261214684,-0.510090831370883,-2.533933436529037
-76.0,5.717816287881567,8.72852148029938,3.0107051924178645,-7.250975162712514,1.3547141491481125,5.849450158873244,-4.08289787936008,2.8541908543128773,0.7126285733032932,3.207552285256676,2.542062283206498,-0.9344533513184641
-75.0,0.5969826079199334,12.519725099870385,11.922742491950462,-6.51213482655089,-5.660720148256102,12.272305881235138,-5.812389338795411,-10.668492476056702,-5.068629759715865,-2.511335996795511,-0.2741516336745807,-1.6097448352378894
-74.0,-6.310200439887206,7.43701572458296,13.747216164470155,-0.5998801792987205,-10.0199763385579,10.558474655133857,-4.321050746294615,-10.015410989881985,-8.672486189709133,-6.312885044006745,-4.691859948164412,0.42365741310477967
-73.0,-0.921969623081528,8.224763234187566,9.146732857269074,-3.610967968336643,-5.015455678322157,8.728242644585546,0.7105410672019397,2.599006940413532,0.9021636736184524,-1.3703606321970128,0.7641892119914164,2.906579346098777
-72.0,-1.1121630287621969,5.052119045079883,6.16428207384206,-1.9288895545298574,-3.6867445104980625,5.573210332842135,0.54221976713283,2.734275258961214,2.6878234527094245,3.69966862525016,6.640979145500262,2.3962726930857907
-71.0,0.39795929109194617,-6.102637190759209,-6.500596481851187,2.817234011179115,3.4110687404654687,-6.253604252181476,-0.5781141248616066,2.5798605049867276,2.978128821179851,1.5050342677583026,-3.26531333843445,-3.1917070362907736
-70.0,-1.447282804094794,-19.604407951866264,-18.157125147771495,10.493963974063949,8.40321070868054,-18.906209320335847,5.313092354404273,4.1503764739285565,4.210746018306995,1.5244409361550628,-2.8147982812890895,-4.371643427125335
-69.0,8.807711459024116,-6.656232327849819,-15.463943786873989,-1.1049119065734319,12.18843408623753,-11.081453438401907,1.7044248760953309,4.947993372528215,1.587311170968679,-0.7321861037351818,-3.3139947392283013,-2.7009242566248455
-68.0,0.10632983896683612,-3.858176690736168,-3.964506529703078,1.9270336938010741,2.009820620039706,-3.9315973559044224,1.4128695421693533,-4.423431929721757,-4.296656467751594,-3.3600844828752034,-1.2256302890521973,3.062867795433742
-67.0,-5.946090417995644,1.4945941964072533,7.440684614402845,2.198324704819882,-6.722049029105017,4.523613886375564,2.2725848835553117,-2.771057292335688,-3.837485840294322,-2.7152287522938607,3.0305310766229385,2.8619957235630102
-66.0,-1.8687070841926479,11.234922870343109,13.103629954535768,-4.632846444304422,-7.520698594398602,12.140932747224376,-2.03501699758979,0.09267917608013487,1.485682024218236,3.3630586333044894,6.4294046908187354,3.61298148226175
-65.0,0.6570443461073661,12.241698940264197,11.584654594156914,-6.480331918515243,-5.426747606336223,11.877787030939096,-6.9392228250092245,1.1982539764505922,4.082626584076771,8.887506296971168,7.772108735238996,6.399243372254446
-64.0,0.5198259422668503,-0.8289667721374272,-1.348792714404155,0.19817888435493014,0.9648615842696611,-1.0520150543144098,-3.813824109955937,-2.3240053357886086,-0.6921567431146518,-2.632910303748187,-2.825336121374682,-2.4574866694646147
-63.0,-1.2555004099734193,-7.23301164992705,-5.977511239953504,4.203085547407362,2.3088040536644794,-6.572508701482505,4.758668392949517,-1.6260492522617382,-4.8657912075825465,-7.227153492405145,-11.879335988470235,-10.699589790986414
-62.0,4.998444220318884,7.236676904874946,2.23823268455616,-6.166114429331525,1.4063221660097622,4.690791460428467,3.4513461123612785,1.3710096771605667,2.445982886039487,2.059262418041647,1.433016342293155,0.6383764408179431
-61.0,1.4444487146230365,3.1727329741250814,1.7282842595020336,-2.285800673751029,-0.1122213389098774,2.48537261295051,0.3486881125375896,-0.08260519951500012,3.2680992940901867,1.011155985827833,1.1780308782737479,2.831567999649504
-60.0,0.6946722037464695,-6.549067451288373,-7.2437396550349575,2.9444066301708895,3.926528698457263,-6.935068109542191,-4.509574796049938,0.9210470042904297,-3.3769896962829167,-1.0542826176002102,-0.743005739161008,-1.6770449277922603
-59.0,-5.61201441383459,-14.820058338317729,-9.208043924483325,10.231083197781961,1.8416987921769201,-11.967947745258565,3.13249521087977,2.156849355787247,-1.46407042717823,-2.5123836406338063,-4.945696154879749,-4.226775396628844
-58.0,-2.890480426822276,-6.401886566163819,-3.511406139341716,4.6630443110059465,0.28239913780039627,-4.984288425036908,2.376252082601797,1.0070275261969805,3.4351033087840257,2.016251432426892,3.89904117344042,2.768688674585295
-57.0,3.2098421811334363,3.65930035381382,0.449458172680274,-3.4127165609587706,1.3571025837961161,2.029251187630357,-2.708399562735339,-0.9922308692678455,0.028078392349836,-1.1405442550657998,1.470627217670859,3.493885746248452
-56.0,7.048925378843661,13.959139539087602,6.910214160243903,-10.55455312093852,0.048605239246579446,10.48756593073156,-4.204087594050438,0.15426633956243196,-3.075928771312835,0.4794937359840491,2.3762263286122702,1.6227647538872527
-55.0,-8.630297060264473,9.129670697762359,17.759967758026864,-0.2944506796813542,-13.137241804836663,13.415128382117777,4.770956970488634,-4.467802313357006,-0.5852938721834937,0.8785534336497188,2.2568139818615793,5.670378698158044
-54.0,-2.3122595906863377,-1.8577122911040647,0.45454729958238893,2.1226909325631187,-1.4062079825515212,-0.7372081447431977,2.033497903163379,-1.509894429975231,-0.8449090394220882,1.9234448648626745,-0.7225896154896658,-3.124914534171112
-53.0,5.127027734322712,-3.3421997327398794,-8.469227467062428,-0.8535107600499016,6.850899424875324,-5.8691018473905405,-1.2809305604912047,3.5283707919177063,4.317336753779619,4.165947118092413,4.000705267794733,-3.519841422221904
-52.0,0.11429552810399168,-8.579312307913703,-8.693607836017522,4.191699204951083,4.374007607417946,-8.605363238650163,-1.323305814685583,-0.05938065062099751,2.98745503191609,0.1451658089107889,-0.9656913626677587,-1.6947960934835677
-51.0,1.8030857389585746,6.288398305121213,4.485312566162729,-4.010021034989697,-1.3753813939381176,5.335803912666607,-3.06625790350968,3.228745827567324,-2.3420926112361267,-4.32041567783253,-4.517536572199008,-1.6563259964451775
-50.0,-0.8386492889971056,1.9843910355721086,2.823040324569194,-0.6182076846193715,-1.8691121871365728,2.4304769009877276,2.0875781592961244,1.1795783137163356,3.2662415184419986,-0.4422672649511177,-1.9663098664605188,5.687358636750165
-49.0,-2.907900540691317,-8.301111725511005,-5.393211184819814,5.636733733638783,1.2803520311159486,-6.81931650085796,-1.3439781376152704,-2.977577850317559,-5.256556610600055,-5.236491124558844,-7.099055639010681,-4.490736517662767
-48.0,-0.7234532020147133,-6.1693147916852915,-5.445861589670751,3.400791909003714,2.397964353670879,-5.856333701286098,4.055168730366542,-4.213217916555543,-5.885587079979532,-4.750792238326808,-5.105134976803479,-5.015128961469257
-47.0,0.32741036674605595,-1.4529207655523635,-1.780331132298576,0.5994139426167225,1.0913554488972101,-1.5843837580268394,0.8343538089767246,2.8101710227371286,1.1347197252421446,2.0426222747957725,4.92354750841952,-2.4410422676681365
-46.0,7.561025207653053,15.585089110469964,8.024063902816815,-11.530695906507187,-0.27158425890041527,11.759775038937143,-2.0684899073046834,2.542342887290833,6.0312718444440705,9.130883661677418,12.033528636177875,7.992106393757787
-45.0,-0.36753067776652504,2.257283788117321,2.624814465883806,-0.9745982228844454,-1.5362689030034868,2.476175508969213,-2.21730225161758,-0.7845304771219201,-1.7916152555647424,3.3181461944695636,4.891578795484344,5.480677117456539
-44.0,-5.649485440718105,-0.9088834311403837,4.740602009577739,3.2553148859407863,-5.159009346369399,1.8733899769954445,-1.4216120555129659,-2.6749520713863264,2.1692193241633935,2.773162338845257,0.6285770863391509,1.681951059019494
-43.0,-1.6208778901985492,-1.4928495879106818,0.12802830228792894,1.5362988198196448,-0.9226369067923825,-0.6443868200469409,6.599295721906801,0.6800973792570736,2.4407785608334778,-1.7128322081378151,-2.386901176441542,0.9709969863456408
-42.0,-4.835895124541412,-9.466776438684622,-4.6308813141431315,7.209150299169442,-0.07921536337828539,-7.008217652803334,-0.5999038292475221,-0.3763505319838603,-1.7966817775356083,-6.986988762599948,-8.009338286747447,-5.054819222528672
-41.0,1.2662050021543405,-3.3778842187466216,-4.644089220900902,1.0306272728070098,2.9713200382043783,-4.0460485348749256,-4.860601039076236,2.177299012052363,-2.797742425531905,-3.8435557617194007,-4.057948012660396,-4.481483584332423
-40.0,5.243169847259949,7.206251794879142,1.9630819476192323,-6.257442104324758,1.6514045163602895,4.552333419086139,-0.47842707216139857,-1.7591776410848317,-1.3273833248958995,0.4025773104265764,3.451609687324539,2.2105608286286937
-39.0,4.918944486822509,4.863963178996988,-0.05498130782553834,-4.854843111496444,2.4974291277116225,2.452389713535992,1.062104102251682,3.656756222319999,-0.12664590945462684,2.663984932545572,0.3145136559486661,-2.4709296528769666
-38.0,-0.8113305319671049,2.1118546739591775,2.9231852059262318,-0.62323293481345,-1.9319119062622958,2.4864002261304896,1.9015694596583597,-2.166752773607465,1.1526713691321206,-2.433970351240197,-2.131507920960982,-3.95801857430393
-37.0,1.381651807967771,-1.5425904259085241,-2.924242233876369,0.02070672056087841,2.1746217566246324,-2.2664341756566326,-2.9234103080126546,-0.16075063630908704,0.8801745796300459,3.412221454910424,-0.07701859501138264,1.9120951965466682
-36.0,-3.9205742285449485,-3.0779383774854745,0.842635851059389,3.5131242160827383,-2.35013128241279,-1.0747810128894235,2.1309403796720243,-1.3303141173053143,2.167070585689425,4.164851888227606,2.6520976633020865,5.664559526685344
-35.0,-2.852536517119053,-2.0646334366098116,0.7879030805091969,2.471033123799645,-1.7793740619970435,-0.5984294023560951,0.8954874524080674,-2.311410401561499,0.5413237300072458,-0.3283329974159508,2.32807982622214,1.0589641043961948
-34.0,1.9771511287504326,-0.19581344163582393,-2.1729645703862444,-0.875971279485255,2.043115301000361,-1.2254510732215342,-0.0547004633810072,3.1307941281461105,-2.5132095722278853,-1.9748886539010564,1.0476012016612615,1.2201552149429327
-33.0,-2.38367435715633,-3.937359840486141,-1.5536854833297322,3.1802604495723856,-0.44674922094561614,-2.7877308601744817,1.5412915611897748,1.23450760517777,-1.7399605778582279,-2.221845801684598,-2.404967122168854,-2.596740830622446
-32.0,-8.982618697815578,-7.974560525402982,1.0080581724127229,8.425961244617426,-5.03341773190975,-3.4467426828195378,5.312219641963874,-0.374582790995287,-0.5308493769925379,-2.5392991261685003,-2.0388062779132747,-3.6642826761015277
-31.0,9.851663826764483,7.176355335109683,-2.675308491654727,-8.481729942844295,6.292721029147577,2.2877039555414047,-7.803407403557648,0.8362796504003529,-0.22359767928869884,0.5286176724244822,5.189733549684158,5.069166689611213
-30.0,8.105914242287147,15.765131672658974,7.6592174303717915,-11.97716640182395,0.23924910792694165,11.671181570309589,-4.352335330477236,-1.1481096564721405,3.794990810636726,3.747578978008865,2.3874752744678616,4.250155855843953
-29.0,-4.824589985684915,5.161408350207117,9.985998335891898,-0.12817170258277688,-7.400649535616648,7.610934522665113,-0.31866486837668173,-0.8578642548023003,0.9339773744761677,3.9901893684438514,-0.25326623932016157,0.8117622706991002
-28.0,-1.7396295050150083,-8.379784901023347,-6.640155396008519,5.0229719627052525,2.449174848073948,-7.553930801497995,1.5434489882233182,-3.3609789661380476,-0.7621657309450883,-1.5589350403424098,-8.654778930593658,-11.46982441213607
-27.0,4.262286418769123,-1.6232773353503944,-5.885563754119587,-1.2763319767283559,5.074498470153122,-3.724149258260271,1.3231641073256581,2.985720893867577,-0.7327192841600378,-3.3406271536777,-1.6341863861716597,-3.7586138762926233
-26.0,-4.50788243863591,-4.684463274147399,-0.17658083551145953,4.561841717288437,-2.156223762457638,-2.484841739995996,3.781243093412495,0.9916222051366816,-2.9997025006279885,-1.9854211284165981,-0.11555133238999127,1.8688211245811872
-25.0,-7.976930180298388,-15.578249317475144,-7.601319137176672,11.823689894223056,-0.16448540173903398,-11.570999388483777,3.3523347449763325,0.9819724773885739,1.389867544071276,-2.403916880041808,0.02528843417702853,2.0132352636264867
-24.0,5.965698699820416,-3.0795903518540424,-9.045289051674343,-1.4737339721726403,7.46555418521192,-6.047404558409966,0.44059587301013803,3.3035449138427695,2.131093287102354,2.5896879838931532,2.9749783928945694,2.473226262415608
-23.0,4.813205222723896,12.41972782353749,7.60652260081371,-8.645442279013636,-1.4232611560656323,10.027389499895232,-5.615540871844522,-3.8414498470461433,-0.5484934678558988,0.3631232300852729,3.837391056462432,4.634007444729149
-22.0,1.6864262131911842,14.357445239092593,12.671019025901503,-7.971476195063397,-5.432031445487681,13.530557687349829,-2.0592609394518955,-0.8470819639445237,-2.1929440604906,3.8262271887351886,4.5852714521600895,4.4077654272406495
-21.0,-2.468363605394683,8.58648387318076,11.054847478575557,-3.0883995981292207,-6.778845024619795,9.8404599836484,-0.6596876805979894,-1.8308534893839523,1.2898309103373937,0.09067983828576809,0.39645196798313154,-0.26737548887819074
-20.0,-3.571896813521995,-7.246309359619872,-3.674412546097753,5.45528647597155,0.028505321422253704,-5.51651465894108,0.9900571414085434,-2.1583845844911105,-0.2781667636373937,-2.534303313888033,-4.530615486192178,-2.644086814915043
-19.0,-2.4086207399687174,-6.716287148805332,-4.307666408836573,4.524561897328381,0.9163114739889691,-5.488925568505126,2.3337671141471104,0.3997701485922896,-3.063783907489211,-1.1835983265445535,-6.856519369536224,-6.0573189593346335
-18.0,1.5047089558079683,-8.27124617234417,-9.775955128152212,3.3387590804765037,5.67346477489277,-9.081543810357518,0.13020220529157922,3.5004916897571663,2.346621672765637,0.17876560399072594,-1.6671539493123402,-8.14789790295931
-17.0,0.22068093589887205,-5.075170822167524,-5.295851758066571,2.455075663742808,2.7803349437269866,-5.168358895430156,0.8374417725062558,4.344845477969853,3.9386759235742463,2.7927749476423007,5.7116575875145426,3.7693282107436055
-16.0,0.3583589096046168,2.0942998323474744,1.7359409227427047,-1.2029143896100813,-0.6738452141227396,1.9296201858200974,-0.5360807258616902,-0.08700334639597318,-0.5816378192675662,-0.3622070905237911,1.018631288298862,5.805976403454863
-15.0,3.8811535204047125,4.42265491954517,0.5415013991403669,-4.129507495117484,1.682861851313103,2.4973303443698285,-1.5512173512060623,0.5358609186829331,0.6538059880035536,1.2020869391961895,2.9231138334725513,5.899042499273877
-14.0,0.27236479997988816,0.17715664084074456,-0.09520815913915426,-0.2783116480773056,0.12126599379845371,0.06158250053645453,-0.06308688995607548,-4.4666282477411805,-0.8705488589323898,-1.263280237012877,1.0935019138628324,1.1300193884138858
-13.0,2.918546258008105,13.731792886951258,10.813246628943174,-8.294130689653093,-3.9239055617318286,12.302420464607673,-0.8514789757682135,-2.6683947010853046,-2.2527771264624668,-1.9425683132108253,-4.583843722443586,-5.527711960452594
-12.0,-3.2166539363346347,-2.433304781832545,0.7833491545021145,2.8631360536250816,-2.045639340157822,-0.8629242592049762,1.5108473822875763,0.17116966312558168,-2.752090330525637,-2.618979828074574,-1.4618400091096126,-7.298238218719421
-11.0,-0.9049625963093186,0.709694056594298,1.6146566529036512,0.06329642960181392,-1.2163766543688712,1.1337247551851077,-0.3896670365538185,-2.2354686614794215,-0.594594508769445,-2.01405745955839,-2.8874442479448135,-1.6788554675753464
-10.0,-5.6375855906532655,-4.023105771706781,1.6144798189465788,4.799645873772249,-3.5736187112031796,-1.227156351320978,0.7019415500212853,-0.43914206406439077,-2.649042427302924,-1.6147220175198571,-4.668736706747642,1.094743310714146
-9.0,-0.7412075732526793,-6.161598049261293,-5.420390476008512,3.420982142094855,2.318823493562456,-5.73442181036168,-1.2012123612328485,2.818086574138217,3.756404464714538,5.277870753494318,4.972976282210845,6.988879222579423
-8.0,5.005189963435233,-5.525937952861369,-10.531127916296484,0.3060613948292048,7.747853602862791,-8.05438754191142,0.663712687418626,7.507361785277196,7.006189690140672,8.128880979105542,8.801393294052037,5.852043225318644
-7.0,2.1621652832151694,-3.3858371040454225,-5.548002387260558,0.6531999419948546,3.8295537692169948,-4.498952331504365,4.126172004545733,2.9623128978429754,2.716433946772369,4.906252326282834,7.521909199452232,3.8084699540041997
-6.0,-3.6255983966468057,3.0749759439507076,6.700574340597425,0.2333265452885671,-5.198450436084324,4.928120800377316,3.856468209381476,-1.3583701890979623,-1.692050694844667,-1.8982756303537587,-0.16008169769835368,-0.3460148662373158
-5.0,3.004670597955701,11.219576155083846,8.214905557127945,-7.079135796546874,-2.5735478828994154,9.752951051365008,-8.331877574519666,-4.628221881536165,-3.2076822129101314,-9.680320627666168,-9.535866473881597,-3.884758605909672
-4.0,-5.288414982786799,-2.6865619544444668,2.6018530283420684,3.939437631141217,-3.924071494884841,-0.08734382650212869,-4.438769153462782,-6.787404054095195,-5.175932987359099,-7.464326468233905,-9.802088847447315,-13.384549112092921
-3.0,2.0125000298449756,-2.664887560369994,-4.677387590215176,0.356457391269015,3.3594864347664948,-3.636809726631363,-1.6430457697202419,-4.045762438720443,-3.844694768746193,-3.3595012041671892,-4.365298843982533,-10.523765094697703
-2.0,9.002810277158057,10.332607243399913,1.3297969662418665,-9.714605260673675,3.849548497807549,5.788916880170856,1.4047060902889592,1.57090514111276,-1.1984913787960012,0.4837619935206918,-0.6923117405795023,5.587633354856498
-1.0,-0.4295234788530031,-0.779537372783734,-0.3500138939306272,0.6399251747452601,-0.02408434539357529,-0.5257256348809778,2.154296959829415,5.0599906049688705,7.224613265296523,11.224288046175518,9.455082202962744,13.85701517308763
0.0,-1.8101222927007796,-1.710235877023041,0.09988641567791112,1.8005611725408306,-1.013551714124783,-0.8425754378043147,6.637833440693749,5.711758295514378,4.067432385728384,6.644828845681165,10.375667688465533,8.204219444092974
1.0,-7.5121459361235825,-6.870575796267488,0.6415701398562099,7.158376180192027,-4.052665106628124,-3.1499683513089405,3.911624701841441,2.099712163186334,-2.0527190479731354,-1.8866289639525808,2.1916112764025275,0.750446585973549
2.0,-10.198603686240709,-9.17709590175716,1.0215077844835458,9.659193132962113,-5.662750290428209,-4.032502260868423,3.210943474327041,-1.2973404835225455,3.7799229417063738,0.5189341984432696,-0.7484483621287183,-3.7192190854774623
3.0,2.5539643665973513,2.75456525025933,0.20060088366189788,-2.602349549447183,1.2022898358178429,1.5254432063888406,-4.751738514036988,-1.622099452018056,-1.6328232347162155,-3.213191582820035,-6.6200296658624005,-7.018868623128744
4.0,15.331779674973854,7.663203731387301,-7.668575943586733,-11.525981162230723,11.524085629795838,-0.03037958121326184,-11.22209368535774,-3.923490472037182,-4.032225241388719,-4.042586025494829,-7.866781527237243,-7.529049650177448
5.0,1.9357352692230352,1.751163891110603,-0.18457137811265056,-1.8772022718424584,1.0827349844725838,0.7589121554553924,-4.835345760689191,-3.3060010059025813,-1.6067426864271397,-2.5790542870359356,-1.8315410232888834,-0.1101703032850514
6.0,1.5379052871921446,5.0747767692205255,3.5368714820282388,-3.269397575055685,-1.0551751360137875,4.283986040734508,1.1124936072524712,-1.6353381886633478,-2.639276937311807,-1.7940507718907817,2.9650139643827242,7.454391284124899
7.0,-8.495506542528219,-6.386199342378918,2.109307200149317,7.468551790760243,-5.276381594922415,-2.0806042147304202,5.711376977680658,4.304791848528373,1.3229578627747742,0.5741763208805788,4.923808787768784,3.846185220941346
8.0,-5.740523293021086,-5.744570795843648,-0.004047502822451143,5.683064167858709,-2.8370040435094945,-2.8964192508246107,4.688049603234392,5.105876540032119,4.397271024078781,5.603732642014958,3.0763535983468038,-0.5596362974314517
9.0,-0.38849987311520184,-5.573901166957006,-5.185401293841664,2.994783763325045,2.3573238816395117,-5.40509483274232,6.6044227666719415,3.212497178856878,4.382411854181788,4.338350329453338,-2.459150788742265,-0.7158407298413062
10.0,4.054089996339135,4.946596187388179,0.8925061910492105,-4.488316133628582,1.6245218317988237,2.967988531326262,1.951437189003626,-4.445534734193005,-3.936118654192539,-0.4763874505456771,0.12147270380855321,-0.5227665110438218
11.0,4.789302528914466,12.622513276881659,7.833210747967336,-8.690911567491971,-1.5524315974846448,10.192304043417842,-4.3694620231776025,-5.31934854512379,0.48762669794160307,-0.5891944742834293,0.8978871296180455,-1.0960642696258995
12.0,1.7683882590651436,4.417110289076606,2.6487220300115375,-3.0710544790152086,-0.4682253751679504,3.4932455037438404,-10.775336324027572,0.15046122033616838,-5.100703186046679,-6.291499764231318,-3.5377681591420758,-3.6634194231029342
13.0,-1.1448306692060823,-7.710218118636199,-6.565387449430122,4.3790749156458615,2.6828896087169873,-7.100289727094475,-1.2422761643221119,-0.5081389769402833,-0.9208711976737853,-3.8050473192127967,-0.09445303953006912,0.88917699814028
14.0,-2.462029314417139,-2.5229165289815696,-0.06088721456450408,2.530999326927557,-1.1492752449853523,-1.252694084374697,2.4203157292237085,1.2061695644611055,0.1902354814076297,1.2931381555235335,1.6441232815051503,2.399451908083804
15.0,6.944972722325179,2.328298926663683,-4.616673795661606,-4.671029217472768,5.832299761343335,-1.179263852953167,0.24985486431970094,-0.33020976930542467,2.7845794982404968,4.353118656959749,-3.6437411885224664,-2.4944358677858838
16.0,-3.941228282152589,2.6276306258806823,6.568858908033132,0.6246949621570272,-5.2815622751246725,4.6473952009799,1.833203836583543,6.976693991563816,6.82280087268925,6.768705293898045,3.741654333073021,1.6812235457741278
17.0,-11.318758276532126,-8.123867240470306,3.1948910360617253,9.766665030018892,-7.2824812220707775,-2.4900819970408214,6.082800996695602,8.31614636010528,4.973319845104999,3.6478993711801913,3.9052070833684875,5.3822488583634565
18.0,-10.021860308251762,-16.124198716305663,-6.102338408053939,13.114407124743083,-1.9853167885852354,-11.138530939025452,2.9744365822735217,-14.009960392685864,-9.26575942617033,-9.04447854248049,-3.443899883791532,-1.5442085273726343
19.0,2.357715250619956,-3.7996267304669673,-6.15734198108696,0.6784160705389031,4.30939017189963,-5.007995996700376,-2.987609011248794,-1.9673417864355098,-8.312765715404499,-9.145501986660017,-4.486067529400384,-1.7445294416484223
20.0,13.535101258520475,11.41418858715563,-2.1209126713648505,-12.521828985932373,7.798296946458267,4.687968515436051,-0.01806496176284167,-0.8209380556001458,0.3706139947628415,2.3905727588719143,3.562589102380569,-2.0304617396368725
21.0,10.987737052692614,18.73991135753752,7.752174304844912,-14.834769722536768,1.5843894011381017,13.199558147094177,-6.136595103398446,1.002430782231989,4.110835932111497,7.996808144976596,5.906400988897867,1.7454885628274486
22.0,9.694471784646643,15.062730336419087,5.368258551772557,-12.34881065695537,2.204984718320063,10.24064781117399,-5.957856508414826,0.8635401470704884,2.113306893238212,-0.5830849612963029,-2.347933638102583,-1.5005073713029768
23.0,-1.4266986868972324,0.7245779266123673,2.1512766135097734,0.3850764250849279,-1.7493143232619115,1.4603405773290916,-0.706643588245909,4.467596453762434,5.30605915649889,-0.0449220721124064,-7.296165720377495,-3.415156934862623
24.0,-18.576241970869187,-18.253294076785373,0.3229478940840138,18.377014297450643,-9.488900243037877,-8.940485538334602,8.523308551254743,-0.43277605699678956,-0.9652020530120464,1.0710791217781201,0.8165411293293692,-1.18768653116438
25.0,-4.527521161745669,-15.535390975712383,-11.00786981396665,10.002040073876831,3.2027753672944725,-13.241137712824072,2.8910304901056225,-0.3614511391688764,-1.8574612525236287,-3.000276156086847,-0.7755153554290605,1.4645361183488326
26.0,-4.468845229903579,-11.673144184760638,-7.204298954857109,8.049767816530629,1.4127667975992777,-9.48062429189265,3.2113609540299817,-0.5647491083794176,-7.325098173275985,-3.895042315574921,-1.1627256398465684,1.127687559348898
27.0,-2.2912301181084653,11.315959006273415,13.60718912438174,-4.447983151036164,-7.978227058810278,12.423467435088234,0.2144097258578681,0.8578914604482689,4.02511046125579,6.415518596491772,9.891992965579618,10.840771577302501
28.0,1.8817582796499173,10.469297339856954,8.58753906020684,-6.185091545446344,-3.2985917283440642,9.489755029593262,-3.5219086113291738,-1.9340187720973088,1.5044517155982977,0.3617473836716212,1.6384185518244672,0.13571047461084484
29.0,13.211314895636217,9.005678259543647,-4.2056366360927715,-11.115607087596292,8.687142510845554,2.4354768878473543,-6.6486712711036215,-3.5543112115615596,-1.1186407340489182,-1.5813204228859439,-3.060467785522869,-5.509866773940536
30.0,6.847692657920349,-1.232823032735456,-8.08051569065592,-2.8143265987140094,7.4432665382182535,-4.627839191661804,-4.315314249089836,1.7695476543762176,1.5744002046609984,-1.2824824614324775,-2.791381591093528,-5.872215321263325
31.0,-1.553938788299563,-3.8091777096880124,-2.255238921388407,2.6732272260374694,0.3270905450454942,-3.0091673233436493,8.913354962528599,4.7355899395375864,2.3512334220434083,1.7848037465334723,-0.28381501301848555,2.019682856513148
32.0,-2.690916139081278,-11.322418349666714,-8.631502210585225,6.9962191911180645,3.0198242398455064,-10.035254995048206,-0.6760564377350029,-3.661618274119622,-4.687480153804633,-4.591004813746195,-6.856284926254656,-3.945435671871199
33.0,-2.867831234188331,-1.7775750707587834,1.0902561634298076,2.3105564988795706,-2.015724642918628,-0.32156158448688776,1.3540426087698219,0.7161869216062495,-2.5516190839147805,-2.107660498335388,-1.2892976385641401,-3.031761034484934
34.0,-5.076663523150197,4.353214904987122,9.429878428137576,0.4277870646815565,-7.218807410087214,6.918871342515467,-0.7969232868273757,-2.546833278300409,1.0506230561496315,1.083968811642484,4.073197693904867,5.7014608419315636
35.0,-3.035399348317416,6.524548892525814,9.559948240843386,-1.7566753138875382,-6.348025950836707,8.076318999629677,1.9225893839011667,4.248695229863548,4.239356995812784,7.740102478684395,7.708944740792214,6.8158726834223735
36.0,-1.875355030706404,3.796937951807634,5.672292982514016,-0.9720402718906268,-3.7487799976010496,4.695499450535188,1.2563319793138548,3.38661959824866,6.5440640762548945,5.623244682558209,4.587394919453898,1.6954989121657218
37.0,-2.376271396160525,-0.9848402296373344,1.3914311665230392,1.669124572686553,-1.8592297290479913,0.16634473694427232,-1.7796068511840644,-3.068796511811073,-3.958711385383175,-2.5144481563683363,-1.7110550128376225,-3.1800925720332764
38.0,8.457351700618819,-4.097153585674562,-12.554505286293594,-2.1938371171342435,10.532147848443513,-8.364763881029583,-4.307795376450601,-1.3466518630794284,-4.051793926378279,-4.861665608217633,-3.8516379773719485,-4.033032999946069
39.0,8.63659967908031,1.8171150277236028,-6.81948465135689,-5.245382115641985,7.677344013140158,-2.466497445046116,-0.36478379227227387,-2.6966952667311004,-3.7218804694101375,-5.28840150055644,-6.810463702673635,-1.0256873297821634
40.0,4.671801451609959,-2.5087168671607585,-7.180518318770847,-1.0280653969774678,5.9543070195273184,-4.816045190098627,0.40092018906100185,-1.5679048649254956,-0.9925417008374755,-1.9764116103427485,-0.9446651394936842,1.2996530042924168
41.0,-8.191694574043028,-2.700928909126806,5.490765664916225,5.413472693641485,-6.894785470383012,1.4185679840672174,0.3963657509749329,0.7623594240659085,1.8616668199442237,1.9792319394014242,2.7496734588386467,1.0796123782278326
42.0,-8.635782238781282,-1.4851047553760834,7.1506774834053015,5.09931831074762,-7.874084937921339,2.853933513915228,2.30442481089643,3.022302010325069,5.134894574573048,3.045092526131378,2.70529163956246,1.2170055711636958
43.0,4.098084072662445,-1.5525865100785579,-5.650670582740855,-1.3179457150625193,4.885655581885235,-3.659320930572792,2.170185517984741,2.6959237187771024,-1.0813510579589511,-2.0579725009393783,-4.745424434350054,-7.043684009011297
44.0,-2.892222242902327,-1.501898180171927,1.3903240627305085,2.2278071989927657,-2.1375306238153273,-0.03321572274615181,1.901831478818798,-0.9634411069238473,-0.6683439088569687,-1.2402212974422184,-1.7277145958975708,2.544900866534774
45.0,-0.08385327892377381,11.58623758955889,11.670090868482728,-5.799197719394669,-5.878170489300759,11.574229138774507,-3.353652882705979,-1.8131054633266126,3.0821766001343267,7.939018257807991,6.1155781411080286,3.6475398414125273
46.0,3.233900392552719,1.540116803754711,-1.6937835887980102,-2.3538082338247452,2.4619427395795377,-0.049455880757413695,-0.9136691732443074,-0.21570980016400565,0.7082706052819567,2.9717302481887105,3.51210387296108,-0.7950280787863995
47.0,4.429083662622592,-3.358638669428337,-7.787722332050918,-0.49817284350616764,6.11057230799384,-5.542833689716686,-5.22744440569366,-0.004285482148818742,-6.338325440856513,-3.4507533281713734,0.6737928334388281,-1.57947459050424
48.0,-1.040713406962451,2.373279537294476,3.413992944256967,-0.7044348877066541,-2.2170898743293446,2.8488224087489584,0.5859529151183591,0.4009801658865867,-3.397485501372622,-2.191819443171742,2.1242678690834405,4.528746228952365
49.0,-2.6476060272535626,-7.246837113181403,-4.599231085927837,4.989158669763167,0.9963902092269168,-5.88501681717848,5.017073166344899,-0.6033559642495812,2.4885419562854687,-4.110504122688923,-7.282849784089899,-1.7445947922456568
50.0,-0.7732630565403646,-0.46877078558170115,0.3044922709586313,0.5819088366761078,-0.5868376961277268,-0.04025167714856526,3.229732389403324,3.6015120091135273,6.667848896938984,0.04657332175612927,-0.47244778336989945,1.709557584269813
51.0,-1.1894800759514694,-0.8819274874977501,0.3075525884536716,0.9904244985164237,-0.7097256815631371,-0.32147567882213335,2.8617809928868767,-1.3734447136319692,0.5400705717611118,2.9704684778366586,1.453137188155969,2.505805375404815
52.0,-4.231855572057004,0.06393382071076326,4.295789392767699,2.1086256484234367,-4.29922430219082,2.145950881465024,-3.952514319895518,-2.987833657800829,-2.476455256824985,-1.6637605919280538,-1.7190353559342042,-5.042829226931518
53.0,0.6013525242141591,4.906482546838119,4.305130022623911,-2.7383150520435615,-1.886200037957811,4.569976629551558,-3.2752674369555943,-2.5358984074552824,-3.7714836578812205,0.6091968583033025,-1.8065375442600948,-5.841385913397797
54.0,5.038842442756715,-0.9456671116528743,-5.98450955440958,-2.0376772424243392,5.5547650307110725,-3.4254638648769027,-2.9994894401032415,-0.6839741188344209,0.8327129322850213,-0.734087083048983,-0.6941031330316658,-3.2617646159160945
55.0,7.889784610039489,4.415595700185614,-3.4741889098538055,-6.146237226044285,5.722799908643343,0.5071999504917402,-4.109223120881837,3.382528727082833,0.6494802541147413,1.0306306181189209,2.745089986271126,7.608975500071472
56.0,1.3224752509900397,-5.04222190832629,-6.364697159316189,1.8685475973775443,3.803795474215719,-5.747287017900933,8.557713926548633,6.478394797471577,1.4687132123041866,1.242852378549454,2.8244935869302066,3.584250636980181
57.0,-4.56943328887956,-3.236700593213194,1.3327326956665333,3.91762339015338,-2.912751167593326,-0.9165511879432668,-0.16874759171334386,-2.1441584408214207,-3.9394951296122174,0.4635231993426423,-2.462505084109826,-1.1580610000656124
58.0,-3.6771764054172227,3.9992361146301856,7.6764125200475375,-0.21762857465053997,-5.716315456527687,5.875306684683626,-3.077024507464884,-1.2799387464956546,3.486535597961302,0.5076828802180251,2.8946939228460344,0.5006643702587229
59.0,-5.3680300002802985,7.020058091020403,12.388088091300762,-0.7966183799671482,-8.915090343352565,9.665138535530104,5.3105353691792,-4.01012994576508,2.263035754745627,2.90564784393226,3.8902173348409925,3.3645433680268915
60.0,-5.4701990040635575,-14.525413800276391,-9.055214796212855,9.953877467498948,1.8383362515982178,-11.827847358192352,4.110151683761053,2.0962652794586103,1.0509235954781848,-4.2408906039871335,-3.55096227186926,-3.4128650944612144
61.0,5.022805375811332,1.2236392508714138,-3.7991661249399935,-3.0853439692008484,4.38368454503776,-1.3253067601110189,-4.871168498456923,-3.369313934840952,-4.9574129368449755,-6.158231267272905,-7.253842281988679,-7.40040748166262
62.0,2.0293697637102435,5.180674492319291,3.151304728608971,-3.56616385646451,-0.5029277464448305,4.206192553545179,-1.0531962764594889,0.7013752851677492,-1.3907909114369161,0.37934432504200455,-0.08447973195907021,0.7428265352050905
63.0,3.0886758468651094,3.358306222356527,0.2696303754913778,-3.2636348183389625,1.3952157124560558,1.8529917459122962,-4.396576212834821,2.389257922600049,0.2995427489102982,5.764342581406169,3.58752983302732,3.351091969138335
64.0,2.0706531076152546,-1.688666876363012,-3.759319983978263,-0.2315084546715962,2.9053127361851696,-2.6858870801252293,0.06133963051826674,1.876089285718126,3.333878919169739,2.745717178872292,4.431552455509935,4.212198062098745
65.0,4.378657404255642,0.24574828717059596,-4.132909117085007,-2.273332524606193,4.247552046900678,-1.985263083044366,1.641937270093424,3.3598574873555505,2.7593768016763325,1.7752878764542763,1.2699882304719896,1.876829885845312
66.0,1.9229964155173473,-3.68458108186144,-5.607577497378741,0.9221706125645693,3.754748451291059,-4.689901626080561,1.3075153336036132,-3.049489477214632,-1.9530088438393418,-3.0394056821887077,-3.423876223701342,-2.026617221833378
67.0,-0.30792827594453076,6.615919484447828,6.923847760392393,-3.186643465901779,-3.6317636366978676,6.800705212140235,-0.119027471170424,-1.5704549845256777,-2.9497647401416667,-4.435334299800802,-2.8708461017213502,-4.019200183595494
68.0,-8.066297267659161,1.145781632818534,9.212078900477701,3.4342525848267105,-8.661574409621991,5.203629589632862,3.728022483276961,-5.313338301909035,-0.33985102160091873,-0.5002696394443165,-0.7547658630682295,0.35010052603017083
69.0,-9.989715978682755,-11.081589202020126,-1.091873223337391,10.517310791753255,-4.397954785396657,-6.147832224105445,-1.1880489586817462,0.9401762079062088,-1.7059937075663019,0.6521764468359375,-1.1427433101233127,-4.718492386696615
70.0,1.428670788030776,-2.743513281185607,-4.172184069216406,0.7251056584947024,2.8488819763634043,-3.4461341568369437,-4.010534444577558,1.8002794039922025,2.911898583859803,2.1365099759864914,2.6389159342767816,2.811653376844217
71.0,3.876275151115161,6.116714075695171,2.2404389245800007,-5.002471662952074,0.7885685520776042,4.187830009100661,0.4325289527048659,6.138904668153281,3.4715913557758444,3.599790499367333,5.2315982217751875,4.5988764573842715
72.0,5.150876064784635,5.019513902692162,-0.1313621620924592,-5.09016906301869,2.6154952511169465,2.4560884746293303,0.43752457560481184,-0.5797081477429513,-1.1524031081415977,-1.023722438831136,-0.5920931454847205,2.297384952608669
73.0,3.2567984763419897,1.2799197369604625,-1.9768787393814962,-2.277824301287314,2.596307176744192,-0.32820865640595165,-0.2975975934558497,-1.0649678876229514,-1.6240223978568624,0.7465982466614426,-1.8866808307654983,0.18505615574892098
74.0,1.0195672837460448,2.6201785695373463,1.6006112857913397,-1.8395217360263327,-0.306084545025501,2.1428781056075445,1.7306353059664046,-3.5005926270630847,-3.1833348533208254,-5.059938702883829,-1.5388898489327703,-1.871388238972425
75.0,-5.62467754277697,-3.5819922718513495,2.0426852709256518,4.569284441908529,-3.766821680562106,-0.8027072310754304,5.453488734426757,-1.4629649842193515,0.830499678080149,-3.3736703170947573,-3.842903828371614,-4.027344656041697
76.0,-0.5925533195429451,-9.394618537086947,-8.802065217543987,5.022661335948701,4.094453888656723,-9.120453455749548,-0.3443649917818268,1.2640088499637214,2.051963272683084,2.0440108981168037,-0.7335546834121214,-1.2636638136892824
77.0,1.3829310719125911,-2.944066356097024,-4.3269974280096255,0.7964872418311475,2.8437360871563473,-3.651279629547663,-4.736261492745387,1.4267694594838385,2.2828969535044923,4.456477818802933,6.1661833501862615,1.7561724802515606
78.0,3.7093909659309663,5.0965657926887165,1.3871748267577209,-4.39454947515274,1.1464443045666985,3.2274075594621765,-5.348162720252672,1.4871557100732145,0.7413907935490787,2.7353479427278558,0.143202796881861,0.6237312816733462
79.0,-2.2980558347021156,6.711266217464329,9.009322052166405,-2.198336456868209,-5.67371527921346,7.843316106497166,-2.4195830532127918,-0.010551818492109066,-3.218729439079564,0.844515010654751,1.7914962541875394,1.1983172562922266
80.0,-2.113953916661959,1.694121514244424,3.8080754309063547,0.2250311865058987,-2.908409846179048,2.808741863881376,3.5388670507395332,-2.153112737756584,-0.11093412679137571,-1.7308332672249664,-3.292016544211286,-0.9805882947994434
81.0,1.8516786314727394,0.8235689201798009,-1.0281097112929443,-1.389468766641532,1.4083921780837212,-0.04849358890169109,5.605346851522372,-0.5529519336769808,0.3078054558925589,-4.839223834521446,-1.003415695182128,-0.022061876257884805
82.0,0.9388203191641891,-1.5311966123441587,-2.4700169315083325,0.33680321846710004,1.6697460780682767,-2.0284878015850247,0.6219801294077221,1.0030766087037564,-3.9899432549554863,-3.930918882964045,-3.656949622980394,-1.360814442255725
83.0,-5.532199563073008,-3.167273972880778,2.364925590192249,4.324195828779683,-3.9046420181377393,-0.43152485201822977,-0.5944773033584752,-1.5748988223114064,1.5013555298502215,0.3738134516687073,2.7909303490089723,3.3764405915986977
84.0,-4.166825237081642,-7.238089585510704,-3.071264348429051,5.6861197314244745,-0.5011612063655869,-5.188089792222387,-0.7374176639846367,2.899744015283545,3.495735561647213,4.110374262204063,2.64277206983681,-0.6625746892298877
85.0,3.206453861920652,2.4656289477971347,-0.7408249141235297,-2.847696373297345,1.945859490977786,0.9034486140164124,0.4028529110491683,0.8768358741020859,2.884540337790582,7.082643558467445,1.2855971103575876,2.345735290861391
86.0,6.540125573064941,0.760036545820634,-5.780089027244332,-3.5828481158128715,6.136487573935978,-2.552956128761303,-1.1983695426301955,-0.08511597039518726,-2.1719543349545827,-0.48257521635791,-0.5042064123888633,-2.5845931664176804
87.0,6.380976136442166,9.996199859783642,3.6152237233414524,-8.203731648217648,1.361469378936151,6.836527063292604,-3.121184435595713,0.05448123983574915,-0.4960695019489383,-2.5223696708865027,1.8162020887141206,1.5765738611491489
88.0,-6.440005683271687,-3.3468832915771825,3.0931223916945,4.872185738041567,-4.788741504760282,-0.0993435122318167,0.6033733244201316,-5.820723136631312,-3.6046937559088494,-4.31038217632872,-4.633519526864567,-3.546129621244183
89.0,-2.6131403022349535,-1.1258724934994155,1.48726780873554,1.8412325507927785,-1.997514068050155,0.12912786454688274,0.948077812335351,-1.2527730519158988,-0.46670688081198475,-1.6252723785587966,-3.462954076997761,-2.8030748457994874
90.0,-2.108916830559748,-5.168763964036196,-3.0598471334764126,3.6831538511717157,0.521691841789206,-4.084181510106468,3.3258235026121357,5.401276040909996,0.4436945611255023,-2.252248203788347,2.0299934854594945,1.47153985955245
91.0,4.27751281755427,1.2333383093700512,-3.0441745081841765,-2.7935303628288146,3.6201185256450517,-0.8696741645873334,-1.2794723277793218,1.6722801910811753,2.5964861705030726,3.451537294704014,0.14290343075262268,2.7766038198943255
92.0,1.381203172767546,2.8164627684767334,1.435259595709238,-2.0582446029464094,-0.07668800979791324,2.0897050088913245,-4.387873567206466,0.17952511591700504,1.174862912530697,3.2413916845990722,3.40821892758277,3.224629668284976
93.0,-4.3834590613212745,0.8526290383526707,5.236088099673985,1.7309990663631696,-4.7891631436078885,3.014508895290323,3.7199352207232326,-0.008202711203408153,4.136949240971594,5.082761522971369,2.6289135039570883,-2.1981949560222094
94.0,-2.6000980259692796,-5.167757972820792,-2.5676599468514985,3.934886776549037,-0.002347049684949809,-3.814520571950553,2.639419020445111,-4.225309482618901,-5.092161694027312,-5.110597686348537,-3.5955346015493816,-4.961483055863679
95.0,-0.11197790553689768,0.18622471817824082,0.29820262371513684,-0.05729374333449855,-0.19515084361361942,0.21825436968390444,-2.882781768622084,1.1581846669589133,-2.0205222290330673,-0.7473931245095946,1.0478051273438853,1.8074217694318255
96.0,5.21972985220902,6.304110492182051,1.0843806399730513,-5.775812116171565,2.076939039813671,3.6695469997743126,-1.2107961246701127,2.499312023458188,1.0478198932049072,0.9803848143440752,-1.641391686115036,3.109752560061387
97.0,3.3176182139351313,1.4971464911035632,-1.8204717228315608,-2.418436571782201,2.5805498697802323,-0.1882731922449844,-0.4190385396667645,-1.3744274408389685,-0.9778754430822654,-1.0835145986151926,0.9250360117293528,1.268945521910566
98.0,-1.4099561566470733,-6.417328197116758,-5.00737204046971,3.9007492132174932,1.7356308152592268,-5.661859940560169,1.9618323343361217,-1.9665388809133195,-1.4058592636624352,-4.902711901856059,-2.907884651327243,-2.784360083987964
99.0,-2.524889112365086,-5.085106441410679,-2.56021732904562,3.8642921999328173,0.0381500869492013,-3.772584049024153,-0.26760737949691027,1.8945473702354985,0.694429178532772,-3.067490954180558,-0.14558555806070572,3.1873240456762595
100.0,-2.7034156418622284,8.231284795766372,10.934700437628608,-2.7935474467666257,-6.79435772283556,9.555154520041496,0.5447899771571897,0.27592615724509295,4.809393371378181,3.5343682897673814,5.47276404168249,1.0028916309481613
101.0,-4.243159902223258,2.750144431506973,6.993304333730265,0.70519161620147,-5.590905000768839,4.845070977523104,3.3856884482988043,2.368114712999892,2.602636274497147,11.204382960840054,1.69034160382098,1.1782623693512024
102.0,7.4761741613003485,2.125024482653741,-5.351149678646578,-4.773876789757817,6.362722749358868,-1.639394600877246,-7.550784301187486,-5.430002681672062,-3.9963655045265307,1.9427589065079447,-1.2071538195374554,-6.328437560223612
103.0,3.3110699710514053,-2.3695495024279345,-5.680619473479337,-0.4513124184268633,4.522081720885195,-3.9740206547953836,-0.00905596837132272,-0.4774239698885572,-4.799867841582564,-6.81062312217928,-7.0521046120451425,-6.481195265606094
104.0,0.3912276417991061,-5.523772593847281,-5.915000235646427,2.5835967450007415,3.0978195996634046,-5.750078127496629,1.2623670799906268,-0.00650882312427814,-0.03219455757102052,-7.580508898986883,-4.970836442525703,-2.201317798622262
105.0,-6.572462677214599,-3.6502721141689243,2.922190563045624,5.053468457181803,-4.726424622762603,-0.39855170812848373,3.2995311205218822,6.708406638404623,5.242640299274132,3.0007522094213828,3.2837500225975105,6.197373766602716
106.0,-3.5426496248038055,-2.6076811423247865,0.9349684824790185,3.104309902805265,-2.2187721091944255,-0.7955165115959247,3.7741382410973148,3.0397999974201695,2.726321647416576,2.3026701949106814,6.77371838272192,5.530683868639773
107.0,-0.15595998947562917,-2.3762005431075965,-2.2202405536319447,1.306192095698858,1.0537641679469143,-2.2593381247093722,-0.025745585306305996,-4.246405038439405,-3.3447521681465084,0.20322125905619348,2.962226772998596,4.198468216055415
108.0,8.97703971326636,12.557359246341898,3.5803195330755786,-10.795029212296997,2.723623171220437,8.028770683381767,-5.456704800535188,-3.7935988787834596,-1.2118079006446267,1.443002230145792,2.7790981951004037,0.33468016035801473
109.0,0.8932138861999346,9.563760518666058,8.67054663246617,-5.248539150339907,-3.937885610856192,9.156896313175753,-2.997267342644215,-3.165113508520146,-2.595693313685777,-2.4510114441112334,-2.2676812453090793,0.6104946959815264
110.0,-2.6693329590061468,-0.16630986960600946,2.503023089400192,1.4003806407591397,-2.553448705992264,1.1307274161889516,-1.2154604004726668,-0.279705016139955,-0.6564903806112278,-1.2518938262850448,-4.782771911497484,-0.414281245578318
111.0,0.2137294356821624,-8.017450431350849,-8.231179867032951,3.9598091534881337,4.177579703947485,-8.16106971315945,1.8849850523039278,2.998437089441493,1.581720888432773,1.610514749083746,-3.4345858542211394,-4.115879210902832
112.0,0.6099683504407334,-14.608499380797827,-15.218467731238492,6.969881933683341,7.868843124274795,-14.871385127843116,3.9601737920970455,4.827683098631692,2.9184373847956437,0.7831955733912758,-3.066950188310538,-16.71306692549874
113.0,-5.992298671651055,-1.7518467001371976,4.240451971513917,3.8310143019539766,-5.08340643831119,1.2072794153145656,4.493580326415643,1.9912888645170788,0.8569693114972732,-1.165182160601484,-1.0952458907898324,-3.0905349863610123
114.0,1.2160516872789073,17.205395384347568,15.989343697068701,-9.184816782289566,-7.351757199543866,16.63873972633092,-2.0678120081738007,-3.5623149520471578,0.509057508591938,1.1598726304191678,8.142611618928116,18.924083647228574
115.0,1.5994811461773213,8.951795581219532,7.352314435042243,-5.258585310211336,-2.8357555047078065,8.19330235467334,-6.792021163847254,-1.7107180229406225,-0.3516931491843935,3.363868221550722,7.056555988940856,11.957736056677303
116.0,-3.3844876144248346,-11.583283620056177,-8.198796005631328,7.497246019422313,2.3786245474840255,-9.928680784004486,1.511849085844435,-2.5873475339801963,-1.7391635448168479,-4.133781023795024,-1.8835519635795857,-5.963520756602689
117.0,0.6657746710349262,-6.246544645877943,-6.9123193169128925,2.806005565125682,3.7721111108617933,-6.6177158689611355,1.5617375222921563,0.8279971038341469,0.2686432603290376,0.834825788035717,-6.4344986479559125,-7.60409284983304
118.0,5.621400054246244,-0.8830583230987088,-6.504458377345036,-2.424865033970549,6.056855558168959,-3.654687733368153,2.4981065556638633,3.775292168723985,0.7597803294250028,0.3103058329447935,-1.6897368355631244,-4.5762367339812
119.0,3.826806477731422,4.079266897513158,0.2524604197816309,-3.9193615983335186,1.7884713613831873,2.12439772995523,-1.6071699049838424,-0.196527046823199,-5.411028122676214,-0.7007843106753977,-2.4333986254192994,-0.9716270326045433
120.0,-4.066624938323565,-4.50847719143485,-0.441852253111358,4.253686427949356,-1.80905411833097,-2.439101931950006,0.07841371171004036,-2.0652226926741215,0.01773575291940621,-1.1008702904883285,0.5245777323621379,1.6266054919625195
121.0,-1.6069191489796357,-0.20374036421544395,1.4031787847641684,0.9594442336433153,-1.5054381244453188,0.557515437420744,-3.5909236888282394,1.565194916045316,1.6267735956294074,-2.121138938197315,5.658136764590959,6.61794502942532
122.0,3.3323605794812363,11.208881804739013,7.876521225257807,-7.290028830709478,-2.28085623204946,9.582147531544372,0.23633037449447802,-0.8133827967342875,6.4089165686363385,2.864954706013866,3.3250903825877245,3.7345117440055295
123.0,-1.849235416008432,4.411980964416981,6.261216380425465,-1.3005906868265649,-4.074781398236403,5.38113740477459,1.9011778975080698,-0.9535181677357638,-0.9435141300060317,0.5274267709044529,-1.2823056660936465,-0.24246810156450738
124.0,-9.414518283606316,-3.8958201485731063,5.518698135033262,6.631320896387006,-7.417763572979752,0.7832516990070353,3.819403399552084,-1.8904782507130717,-4.102939918600399,-0.15993627023846013,-3.06528662887529,-5.775483452855774
125.0,5.473035847195364,-4.118277959120947,-9.591313806316297,-0.6304801715028403,7.494942889757951,-6.877898801235365,-1.9342731459732885,0.9195534524855197,0.7855822774153349,0.4970557236277289,-1.9564180032090135,-3.8300038233968134
126.0,-1.160886615212757,-4.938207311850435,-3.777320696637725,3.008595798773914,1.3470977890724565,-4.378437481560707,-1.027941713031106,2.846774871675964,2.6386405513417692,2.488152575651849,0.3427799293565632,1.3279391620718322
127.0,-0.23282609402851095,-1.9635254945832115,-1.7306994005547844,1.1282066338757955,0.7114511825147902,-1.868913369132275,1.5980126147276603,0.9036372039903029,-3.06355960017012,-1.7492983033043494,-1.9393097689006638,1.8450465471314392
128.0,7.457007010580731,3.2660739800595655,-4.190933030521238,-5.336064118632481,5.871631153759194,-0.4100614836770462,-1.8036906706219225,1.2921002121760243,0.45216359287942454,-3.0005728054265113,1.9696298917646984,-1.2958920403251828
129.0,2.6642633997684424,5.2092955458235135,2.5450321460550223,-3.9905419282088364,0.03696700410183906,3.9223425695704113,-0.9094719958777473,-1.4998786260271952,0.12866465107332048,2.2986535446408114,1.4997491713676423,-1.705260096077526
130.0,-11.929804200781449,-8.139761056615178,3.7900431441662676,10.063038236929586,-7.874378677519157,-2.217028664291231,3.4405149735315943,-4.452035107322675,-1.2117792605627198,0.331539741241813,-1.5125139871060698,1.6869472866332074
131.0,2.7943610449946403,-1.0913447939243097,-3.8857058389189163,-0.8174815200723655,3.33159149691871,-2.5393694967585625,-4.84041923596283,0.4516504021018455,2.060652202551247,-2.097533810281143,2.8274849671597355,4.4619743502533975
132.0,9.441089825598974,7.33165582475523,-2.1094340008436907,-8.424547758653048,5.769525802113963,2.631649630449087,-3.110724623031805,2.16545995113071,-1.175519983599882,-0.7171210659611662,1.5612103908474868,1.8020863644635636
133.0,1.0930239605973882,3.2570293452650683,2.1640053846677114,-2.2074818946038017,-0.5420890651726004,2.7262410109916493,4.371638604797496,-0.7792658979647302,1.0067636389810495,0.65095245151489,-0.9328603089407077,0.6158824923313884
134.0,-2.0509463111719923,6.752081140695699,8.803027451867713,-2.3003650298078115,-5.358933602812964,7.791743639927995,2.0524382658712312,0.43413620886778903,-1.360528809037636,1.0322356053978883,-2.8561426985796308,-5.3943075450840725
135.0,-13.837192265132993,-9.800919158606632,4.036273106526362,11.792453261226182,-8.95417552018868,-2.8665067978589422,2.1609494389799755,-1.0232298661794879,-1.7685238880454597,-0.6336401704377255,-2.205631635864391,-3.2688475484406228
136.0,-1.8222584119604983,-1.1337929897912935,0.6884654221691832,1.4519260538713796,-1.2814800450683514,-0.2029887455147974,-2.1377212703046493,1.420131447655002,3.3417633331264254,3.877180590502118,1.7311323467706814,4.24953239888822
137.0,1.9679561500788323,-3.8164888613134647,-5.784445011392312,0.9767251139050652,3.8404455416187506,-4.8546871013935,1.720509567622233,1.0611198566431617,0.05016060716036763,-2.136332417780868,-1.5264398947251512,-3.72385467392345
138.0,6.289836636065952,-5.712227958499482,-12.00206459456545,-0.3155247804602158,9.179690229939043,-8.906364527852695,-0.9488007881266054,1.2285299945544892,0.10704536957959364,-1.9943148231899448,1.9035940700617744,-0.5658892915659829
139.0,3.7172812104003246,3.0738441162942913,-0.6434370941060381,-3.34437788054778,2.2068181553054185,1.249824682219438,-1.1778479421091859,0.22499870793100632,1.9194646138735902,3.2628782761613326,4.838655585168251,4.262630386147963
140.0,-1.4138176553117199,3.608425252379259,5.022242907690987,-1.1269032167174973,-3.274190860673818,4.355650488748548,-2.5433292021826888,0.26773961313830497,0.7305073028892177,2.082220588353978,-1.0184833009971404,2.227510742331644
141.0,3.611190879296708,4.592609677363919,0.9814187980672311,-4.135651124389263,1.337791946701309,2.7552804427192363,1.9612791791840145,-4.805984376604641,-2.745342215894659,-3.694101359041761,-3.0426720492506116,-2.143198899782656
142.0,4.154705422569689,-0.04983474367861662,-4.204540166248289,-2.0141669795687416,4.2067670595969755,-2.072880943125593,-0.11366988153232183,-0.9073488905328304,-5.199137844691304,-5.190201164431567,-4.052965942486078,-2.228112604107567
143.0,-1.4955344268572248,3.288166467500967,4.783700894358212,-0.9456533837918976,-3.1056767155887894,4.017932161896814,-3.720426697184063,0.9930397851065121,-0.5259726156653604,0.6129676064868392,0.05664349255524459,-1.1702958353150703
144.0,-3.2562273415814884,2.2723297601862447,5.528557101767755,0.5117812344264576,-4.429917144298519,3.886000837072548,-1.2694711182992562,-0.37814377464916316,0.5777637343311162,0.4042800633029958,2.476594613336589,1.1940199564036569
145.0,-9.79687764895368,-3.1381402153374944,6.658737433616192,6.478964069891894,-8.259555791890286,1.7447627737881959,5.975728827102444,2.0084568695850167,4.93749311466824,4.061656038388298,3.350592337368352,6.640649549944184
146.0,-5.826584311237648,-7.8319835582903305,-2.005399247052691,6.835343627038343,-1.9391779956977366,-4.94061706693511,0.5891522430604428,0.31984358268999635,1.8869008171259827,1.4523686916153125,-0.07163231829140604,-1.0386653905247478
147.0,6.7200840130446124,-0.6446047919165316,-7.364688804961155,-3.033083073876941,7.093244187083314,-3.958591289144737,2.683302489703033,2.1102268718013715,2.9640980337141722,2.2879736193479663,0.7191079979865593,-1.3812781000521892
148.0,1.3773879112235994,1.616952585819079,0.2395646745954796,-1.4899678835863308,0.540323984998393,0.8827246113159699,-2.7463887683235852,0.15730367156244596,-3.0052645450508146,-0.45195236303908354,-1.215999517423352,-4.76838862894068
149.0,5.633208004092769,1.0683174751245652,-4.564890528968189,-3.3379998714316748,5.1483615675633985,-1.7269654085726909,-1.319506120023506,-1.546454380476765,-2.7154211811003,-3.499898117998381,-0.08660792727677924,0.37936769404931603
150.0,1.8733901528440153,2.135732477929134,0.2623423250851298,-2.0632948919685803,0.7756863654710586,1.2122063638820302,3.509075689829607,-2.678875893860249,-1.5148199363145194,-2.1098256028461275,-2.5596529877706518,-2.5268570740432796
151.0,-0.6691515496554779,-1.2566237729871625,-0.5874722233316847,0.9907037770485188,0.0077394030466118036,-0.9115504848426932,-1.4419986330204506,3.138346950598146,1.0289224643434156,0.9862945934059395,-0.36614438554699835,0.4859583891751187
152.0,-0.23619947092309912,-2.981921455496713,-2.7457219845736325,1.5658012230786058,1.2231826219345419,-2.8503127573528464,-3.5800224938552216,1.3756583565047853,0.2267976119722604,-0.19838248145395665,0.4819406401795976,3.096914866508272
153.0,-4.382349826240699,-0.9430885961693742,3.439261230071299,2.705449585521345,-3.9460730758575444,1.1902429767199816,-2.0289700205023857,-3.6044999022755473,1.590528614903171,2.4713346445051116,2.522061485304466,6.359205151542469
154.0,2.1858684620007773,1.0255480116897802,-1.1603204503110174,-1.5565067772632344,1.7101234296862122,-0.03700942714225164,-2.55174630054056,-0.28129933502676785,-3.4466096460554994,-2.784001835222922,-2.6162098478260805,-6.2331736768318065
155.0,3.0505483928002195,3.9011299470089726,0.8505815542087709,-3.5003307084938093,1.049759867142162,2.41515713512148,4.7223572647754795,0.9194982108711731,1.1414051918023347,0.787787937128993,-0.9632617871228197,0.5617940845313107
156.0,-3.5169803003791915,5.115343978907895,8.63232427928712,-0.8208820194310149,-6.054856109620799,6.840583319315516,3.0548320934232485,-1.3738458426525693,1.0579613912230592,0.418643584763273,-0.8031773191451446,-1.0131345862365395
157.0,-1.9801483461109715,4.563116677718226,6.543265023829236,-1.3132605795796881,-4.248580317992882,5.5222775306891245,0.544538244002791,-0.19452541564837034,1.0215849910312724,-0.7680184894911146,1.467169301070906,-2.539562536317774
158.0,-2.71187957998473,-6.644807359199258,-3.932927779214495,4.653706639528505,0.6208889168275444,-5.321110072193456,1.6215329646083878,1.5253924980193652,-2.2709745147998532,-0.24193776011562307,-0.25776913666769496,-1.9858004141649401
159.0,4.186174293856349,-3.696189935475135,-7.88236422933147,-0.19570173381985523,6.046421947517393,-5.74649937161589,-1.8285802035656709,2.4779159168748524,3.8848425237005424,2.4317662842606746,6.923448603901985,9.661489098346351
160.0,0.45626379890495716,2.644021350806211,2.1877575519012336,-1.5064355071656763,-0.8480924821781235,2.4541294698733296,-4.916582908433057,-2.6364011316032476,-2.0583923770232344,0.035931368700022004,2.1735432363698504,3.8636718836950936
161.0,-1.8785653590787996,-8.83897785231208,-6.960412493233338,5.318499264987684,2.4870776658774214,-7.865701424261382,-1.8065888287727048,1.5731644238923266,-0.5802475350829368,-0.0774118286711466,-3.079077563902385,-3.423754811681997
162.0,-1.1758272186697603,-3.9511158422484662,-2.77528862357876,2.519090108201291,0.8313184230886914,-3.41167482709431,2.2117117522105763,0.4942050475782388,0.15754185898206297,-0.9518614906174326,-5.637660914172147,-3.934224075632809
163.0,1.6885771446181501,5.548601768405527,3.860024623787346,-3.5868141703440872,-1.1285926522389986,4.65230207355001,7.914136562402225,1.252876073763821,3.6321494417063276,5.52399349796692,0.3479868744511174,-1.6499955325289033
164.0,8.713481656351656,6.197974190764631,-2.515507465587012,-7.424970373008438,5.651472404427162,1.864259614973287,-1.6188240092925743,-2.287379852919944,-2.019429578682254,-4.382583193534283,-2.193350040851651,-2.4533610902033978
165.0,-8.02236641349896,-0.597192706695532,7.425173706803476,4.26205671756351,-7.767390020196933,3.433191025557389,-0.9316070525116003,-1.203862801162549,-3.4267089482847477,-5.312958185559652,-0.7160528931531106,-2.3612183047804733
166.0,-1.8704319103192968,-2.4341934993963767,-0.5637615890770107,2.184279112102324,-0.6220766476403625,-1.4832318918901501,-0.36018859952666804,-1.3413052060710688,-2.5696363522565586,-1.9738235128923314,-0.24880366002374799,-0.21994893236035462
167.0,8.052022516251949,3.828249329140857,-4.223773187111027,-5.907341147100302,6.164269428035671,-0.18442685968285955,-10.9580399538089,0.029810359534728548,1.3087956514786723,1.681248369070661,1.869072761617224,3.7535777223734224
168.0,-1.8288433778870978,4.617472849741825,6.44631622762895,-1.4401692370248802,-4.1164652421859795,5.465756616575423,-0.8387998571967676,-0.7983335976628863,2.4589087115628603,1.3377956483677542,-0.5591576769200195,2.0966764326236333
169.0,-5.956920372604816,-1.529768296246856,4.427152076357929,3.6967626852470614,-5.2550893491719,1.462739157416213,10.384492322415129,1.6662698274004684,0.1218164013233598,6.588074953671455,6.411202832743928,5.443880396825858
170.0,-0.7007282603142049,2.659219537956015,3.359947798270134,-0.9480760165376045,-2.0201485698624895,3.0273480594063207,1.0170627888420851,4.657889467415966,3.901483978097183,4.534893319485571,5.351298284422521,2.9683428824790523
171.0,-2.443541368934732,-5.937286683300406,-3.493745314365762,4.22128447562096,0.5300226767588028,-4.692207902569469,2.842940215060863,-1.3695184111772543,2.2056227418772507,-2.1239323225261377,-0.5455829508803818,-3.2647086668725986
172.0,-0.9387958209198976,-12.68732455620254,-11.74852873528269,6.845208799113015,5.405526578575173,-12.188380448429903,-3.0704831816452756,-1.4210616469032054,-3.8393538879710936,-4.573149028910896,-7.57363657604319,-8.028662532903622
173.0,5.4549865683916705,-5.870002889511213,-11.32498945790286,0.16412044437734785,8.388462613348674,-8.641302025422435,0.4749390168220078,1.5765142678912847,-2.921957654967077,-6.243496298405762,-5.695628116133571,-0.9422195118881316
174.0,0.6239130246342635,6.603968068031099,5.9800550433969,-3.6524390192772844,-2.6787173564205258,6.251457210916911,3.364913616869385,-0.5079294241608925,1.1109874571529894,-0.72917648054977,-1.7490655391399512,1.1302951832656334
175.0,5.3861563140107975,9.96732148537722,4.581165171366516,-7.63064761399024,0.4062779027731398,7.313107963085429,-8.602773984021253,-4.191794954836451,-3.2206603511558063,-1.1881838824733688,1.5934906075212376,-0.6582612844459662
176.0,-0.28649253563901045,10.723155629467744,11.00964816510679,-5.245219270494874,-5.636637557356142,10.825271297248069,-3.768054292681086,-2.4892647006038744,-3.0372575967991455,3.801924052519761,-0.7451178691123637,-1.0827472477218052
177.0,-3.1799246096685403,3.5183334514275035,6.698258061096044,-0.1128500325315569,-4.917979216317547,5.144193977573784,2.2053205585836286,4.223671101966012,6.210337249009612,7.347912219460318,8.391296283415395,7.0972333932253235
178.0,-0.38969268872692053,-7.295656691834484,-6.905964003107582,3.822251582064476,3.210416292375963,-7.0656030398099166,1.8235595602641603,1.6763992022153293,2.945862494603031,1.8442470909540591,6.717805131738438,4.157044759775893
179.0,-4.353928709887418,-7.170939602684741,-2.817010892797364,5.7405300988562535,-0.7291387100490643,-5.036277189088314,3.4139548715300614,0.4892861792761185,1.8447673593852711,1.5862004190616477,0.5815734841444993,-2.796562981570408
180.0,5.027268831499454,-5.339106109714481,-10.366374941213966,0.12887884463189359,7.662666037917497,-7.8131369386631935,2.5237205581302757,-1.732896511499429,-4.363937189010363,-9.268033840139985,-13.884707792292334,-6.548112916866566
181.0,-1.271924961869462,1.8793786255680867,3.1513035874375173,-0.26003136925787973,-2.2440659031826535,2.480457335460686,-1.2489321439552838,0.48595489217608745,-1.5756599864558147,-3.577823371076363,-1.9097081839395331,0.3659506502938408
182.0,-2.688619635717412,-2.390902899775344,0.2977167359420577,2.4954069145778526,-1.4484687344765281,-1.0773067122625797,-1.625508695001703,0.32541427591745425,-0.2313643619238197,1.7106431289058213,2.8540182178617033,2.5000295604247365
183.0,-3.422195557412482,1.8655435987016977,5.287739156114189,0.8039982571124441,-4.314405501671751,3.627568409901188,2.466606783153757,1.2248577097018785,1.930934433840517,1.0844183730364982,3.958522110355867,1.1379830943009315
184.0,0.49831554753681834,1.989044016818414,1.4907284692816178,-1.224727188719113,-0.5401880903919904,1.712744069796222,-1.59279018977207,-1.168165220366551,0.08850873714068214,1.5193192843584025,0.8910055710228955,-1.0997070509095637
185.0,1.7463983419699762,3.773098508513124,2.0267001665431734,-2.745035528668513,-0.11199672405948366,2.949414043986489,1.35870797617882,-3.333188243038261,-0.14943772878842576,2.509377792781593,0.3538719106530588,-2.0004322161302586
186.0,5.1770241907841825,-2.2805282696752074,-7.4575524604593895,-1.4358249284634943,6.260135902589009,-4.903233532916156,-5.23981124608455,3.038719311890829,-0.20296837654262753,-0.7560954996383624,-3.1660206359542427,-1.7069643670009154
187.0,3.467992567322195,3.377311414433762,-0.09068115288843881,-3.4903981042181593,1.7954880746371145,1.6018307277520052,-2.7854372884808916,3.054114725173067,-0.47552943406024456,1.1122938609413546,0.2850733247783178,2.37997625843655
188.0,1.2449196761032357,2.03598893646924,0.7910692603660039,-1.6309131152480973,0.23989001383786057,1.442390421400671,0.8929260022755509,-3.8794289770619157,-0.35258528871222694,-2.170961592912232,-0.44339596922773405,0.19540972950988533
189.0,-7.718624508048216,0.6448763562350445,8.363500864283274,3.5447013185221787,-8.028106490295617,4.525268572615323,4.314958793081899,-2.485225883107086,-0.42351393597749226,-0.9948260753971876,0.30792860894736357,3.5378774343253423
190.0,-0.48771916992614184,-3.342420060546694,-2.854700890620548,1.921504991961974,1.1999149172406116,-3.0827925492069808,-0.7793409568836829,-0.08489377731071412,-0.9423241085712986,-1.0741437007060273,-0.7210794860681771,-1.407782427876899
191.0,-6.191698594976652,-5.5505811416714534,0.64111745330517,5.877500578996139,-3.472309541144402,-2.5190634308239828,4.699904443704029,3.253711621251641,3.0099718068070196,1.9558727284378583,1.0900417345029467,0.12504414728909763
192.0,8.47221282902682,2.3295408936644986,-6.142671935362334,-5.392372262565065,7.3384238266944415,-1.8887719642639431,0.6104678022203389,0.44771199950482776,1.331279718928299,1.621989246775232,4.206115855794944,2.13284060263433
193.0,3.5453139884647324,1.5493969682141988,-1.9959170202505185,-2.534065207636585,2.8097833654431597,-0.19760206721648965,-1.8501981453068481,2.3656425447643548,0.24033407681447916,1.7402017113773682,2.712265586034091,-0.8910284828772326
194.0,-1.5557430006972246,-5.641608512438942,-4.085865511741685,3.540465259178745,1.2321085973086467,-4.8270709204745925,-2.5446815940210046,-1.0931191742886979,-0.9905310716289268,-3.2443161143672388,-4.593079157021253,-5.281033913109925
195.0,-4.883040838036383,-3.2387282479157413,1.6443125901207092,4.0904451296994235,-3.2926435956978004,-0.8274046384435243,-1.8231667991836655,-0.30896026152287026,-3.9807318946340127,-3.502006706548036,-6.164188736772323,-2.491842712246764
196.0,-1.9367827561910382,5.944732682741685,7.881515438932803,-1.964650893332,-4.937012142789535,6.893093227454083,-2.5759901043513205,-1.273674448600422,-1.1042936990368084,-0.5908880356131889,0.37714301623754887,2.1719746736272887
197.0,0.7809927623989896,5.452508834143458,4.671516071744556,-3.1468355066707545,-1.8955809359253242,5.048287663039657,4.3284355241072285,-2.640974856797151,0.7338044452202325,2.894849301650822,1.667512385798101,0.630792717170858
198.0,5.551687219313755,8.849668557656074,3.297981338342331,-7.222907874090721,1.1739912660654994,6.061495368173097,-0.6093213602570444,-0.8536348955551892,4.928951269356125,4.189308080477258,1.4407906131273664,2.787296385646015
199.0,2.2384899226601034,-1.9766499085883251,-4.2151398312484964,-0.14752290176469973,3.192216163663205,-3.0327789963986933,1.6572466100108936,3.7146322702847603,1.46856508451078,2.4867978286166945,1.9389228717691234,1.8383941428426225
