Time(ms),I,II,III,aVR,aVL,aVF,V1,V2,V3,V4,V5,V6
-200.0,-2.070292689954363,-0.18304280295739606,1.8872498869968126,1.1441702097083155,-2.012023702236302,0.8343065346277614,-0.8546950910223068,-7.607938951114286,-11.370070280973149,-13.675200801675532,-3.5751493975225017,-1.721809558934679
-199.0,-3.94287585189632,-3.170038171244908,0.7728376806513882,3.5688245896331976,-2.385500763849322,-1.2216921864635366,-1.774859755643163,-1.385843038044713,-5.124355498785064,-7.113501989318851,-0.8671358909119,-3.6646939344073757
-198.0,3.624643206032955,3.7241878829782395,0.0995446769454098,-3.664446340568336,1.8183972602858454,1.960330976577707,2.871867761367152,2.0432791708621423,2.466948173002492,3.910415468860509,4.927460309876992,6.783959052448076
-197.0,-1.2721990374707164,5.124703797127316,6.396902834598207,-1.9162043391512882,-3.8554893270071364,5.723622843292846,-3.7520287614239987,4.346077993543142,3.6657423327767233,1.7113633420691703,4.026672126271613,5.334131088274283
-196.0,1.30901932301896,-0.7031417552923376,-2.0121610783111983,-0.3696692209152064,1.6375339544119802,-1.320785108072534,3.82280350656044,1.438126747700288,1.3807473304478122,2.8930833811281835,-2.736402112973296,-11.765939025347155
-195.0,1.9560674004596648,6.024402239054812,4.068334838595113,-3.9749455176764243,-1.085541917557313,5.00300054429111,1.9969339690212669,1.988133282059462,3.5607324807151146,5.6892564438898665,0.9190441584143556,2.4414037037069662
-194.0,6.815172303839717,5.332579531229756,-1.4825927726101396,-6.054506952025259,4.188786433874686,1.9619540595179017,-3.658771500223739,-4.274130471501555,-2.4157226806547807,-0.4504097188879532,1.8683929065640086,2.553725539173787
-193.0,-7.713485249748687,-16.085015132111028,-8.371529882362552,11.923006082545871,0.35853107673023166,-12.187957827921593,-2.3834704752511993,-2.2838372493081858,-5.536653938633714,-4.210299754922254,-5.467648302275508,1.010456705126461
-192.0,-8.784675183825055,-1.0806652149028526,7.704009968922007,4.960468972119557,-8.302469614291363,3.276417072407829,1.2530916147713165,-0.43787193981050954,2.834656218698181,0.7201846165808703,0.35619275239102133,4.746428413938099
-191.0,-1.354691986593188,-2.5035952256826803,-1.1489032390895795,1.8812120120783278,-0.08754829160736799,-1.8603223413360124,1.3127211048843996,-1.3051718403811274,-0.1965411143400369,-0.2861593276927723,-0.4799381196162791,-4.322558265786311
-190.0,4.9719661444158705,-1.0017349437658492,-5.973701088181665,-2.031375845784304,5.487669342530317,-3.523539269270747,2.5651662504915134,3.6760583620466445,3.3627660643731407,-1.7156612532062847,-0.714934928571324,-4.974718024867786
-189.0,2.14321085000817,5.552860906256571,3.409650056248536,-3.8148585154991173,-0.6142378160030959,4.519776505164118,3.3074607041337374,5.622397702899832,1.961676525837059,1.991482817344706,4.457758830865692,3.389617771096276
-188.0,6.783062328026327,4.616138464826356,-2.1669238631998127,-5.665708334133842,4.501455435041212,1.2572159101003346,-2.535152270304551,-0.5631499162830313,-3.606819962654627,-6.27147557175844,-3.2121686594172547,-3.931932579535395
-187.0,-1.8441235608644369,-1.8645958673584015,-0.020472306493864445,1.8114443280984833,-0.9553199321301269,-0.9159816041988615,-5.45019397336013,-5.438154551142041,-7.753143243450966,-6.096641237043023,-2.4770277623889623,1.4779689969888237
-186.0,-1.4968770199365484,7.281577872697418,8.778454892633976,-2.852556487844973,-5.172977152961886,7.97264727483895,-1.000925359362241,-1.4552605177997693,2.7487193707423607,9.809376806167666,7.93508512144734,9.91128515755956
-185.0,0.9365122895659534,-6.701067396707684,-7.637579686273729,2.8492426631204717,4.25813650575555,-7.151637340180723,0.801442110293825,-2.07271794088091,8.259349487954527,7.50132152699795,-2.526408948633022,-5.0901074450082255
-184.0,-2.6875436571540163,-0.44489265031011715,2.24265100684375,1.6188364223145641,-2.410953472303479,0.9147396475204852,6.205047700721501,3.494392645281863,-0.28895399764250307,2.211402092239782,-1.3712756725677222,-5.30391227573694
-183.0,-3.1403113641534195,3.9628785122376247,7.103189876390908,-0.43112176665188917,-5.065322377106189,5.470634686818952,-5.037610013728725,0.002099901586694708,0.6719263547562395,2.3455559140771287,3.431394865698161,1.9751146858092943
-182.0,-0.11016097287551574,-0.7648033728046928,-0.6546423999292474,0.42175118781921794,0.2500896778580226,-0.6900615824987979,0.4033669601344002,1.700454129466196,-2.9566190729382695,-6.904440378675124,-0.43725760425931176,3.222472949238072
-181.0,3.406741707197068,-1.0384799918181533,-4.445221699015224,-1.198801153684905,3.901454750791634,-2.715814037312976,4.3061522154778356,1.078005186303196,-1.0331139477987452,-5.777051240162079,-1.7072194905022773,-0.3132127148042496
-180.0,3.961657622698732,-2.5411461742823946,-6.502803796981087,-0.726635776300125,5.202376889293374,-4.486985119649794,-3.922258834309668,-0.6054179580107458,-2.3232458591886296,-4.566482243152695,-5.032739904448978,-1.8718078638211764
-179.0,-5.840739478394687,-7.854224895742021,-2.0134854173472796,6.827881575307488,-1.872823857271663,-4.967584468347733,2.366345000938961,-0.6882776679760584,-1.494774339693786,-1.5143395407767102,-2.730387238424754,-1.9346503715155023
-178.0,-2.585710501536946,-3.2966128767722083,-0.7109023752352139,2.9970984843839985,-0.9851349459971186,-2.028713936541404,1.105789576489882,0.7080877011975151,0.5289865183528293,1.825518715204555,0.4081055613204244,1.0352178378891181
-177.0,2.523402996609397,6.253984277601522,3.7305812809921592,-4.3351013759271835,-0.5822593657899913,5.051053043466695,-3.925975158606602,-4.138309159424041,-0.43893998678770574,1.9613620733329276,4.362027252825832,-3.3493365817382137
-176.0,1.2269235795995832,2.505885754539868,1.2789621749402835,-1.8933659952494253,-0.012365725709747144,1.8717407841036922,1.9881804277763624,-2.8085387583392833,3.3526422188156917,6.669836310823333,3.484954035408721,2.007392615603095
-175.0,4.9844147049889145,5.000820680456698,0.01640597546774547,-5.022104157285236,2.4933481260849004,2.4811114301761474,-5.397283883038433,4.294659628196389,2.224296647126007,2.4093691166567024,1.9711229937484256,5.79589435246398
-174.0,-4.51471927050761,0.5987515903318856,5.1134708608393895,1.9239540305564726,-4.805389687366365,2.8171239925396403,1.5610175838537428,2.427592857433888,1.835151133749909,0.6788413600460774,-0.6237047636522365,1.6078252844855783
-173.0,1.5460039777013788,5.239974236867775,3.6939702591662757,-3.3551913259502992,-1.063021791759945,4.493717214675739,6.562442534100469,1.4530093536170037,1.43845112535672,3.6969869466419816,0.7353603024183404,-1.0212769334774845
-172.0,2.6658770845015765,5.1009101933258565,2.4350331088242005,-3.93263362386291,0.05133804572120734,3.7840627506094484,2.3539372052513183,2.2265215916564123,0.31733185486619897,-2.2554528106102953,0.6953434328359067,-0.2640317490226267
-171.0,-5.637690849735333,-11.84939959894132,-6.2117087492059895,8.765453808857,0.30532825456511437,-9.019464907369176,-7.7493537296489565,-4.495725158556588,-7.498959770501585,-10.188667678194083,-6.124794386536785,-6.846607183867782
-170.0,-4.481453798160354,-2.2292512842857652,2.25220251387462,3.372498720690951,-3.345972170772015,0.02464691192555879,-1.3627088686737094,-5.860767486098491,-6.551229429622749,-6.957080427312178,-6.60659648422688,-4.978704283137212
-169.0,0.371211495564709,-0.13526477205400456,-0.5064762676187549,-0.1015813429283341,0.4606847592732279,-0.29953201094045623,2.988014392245709,1.0181392137773915,0.3173367002645473,3.039759926356817,1.241637461022481,0.924567175522967
-168.0,6.315385602207559,0.16064674733067755,-6.154738854877017,-3.2188777999314238,6.177735324823729,-3.043282565195197,-1.0282387573768723,1.8373106746569943,5.461087062599996,3.83385587760354,4.960568225177083,6.637625216019781
-167.0,4.159506264989004,-2.337407094242001,-6.496913359231223,-0.8877531940317578,5.3483865545615705,-4.374474491537498,4.28964806757185,6.345619722225142,8.71132857930429,7.526706853699956,9.162595621810432,10.333514188792536
-166.0,-0.7432821360327342,-19.791467899732986,-19.048185763700495,10.214743728780334,9.171333298465528,-19.45015347233726,1.0300232069471897,2.9756465478491125,2.093778367912088,2.8303677523342143,0.25874697236459987,-0.2850823084985121
-165.0,-8.090141713030578,-22.71548561147224,-14.625343898441805,15.349601048437059,3.2858690689877044,-18.700969684289763,7.26702757798804,6.9479496476481675,4.275063741239946,4.803891797354853,-0.6966419870272256,-2.4533930730241584
-164.0,0.21479375764251385,71.64746389086429,71.43267013322173,-35.90990777309481,-35.668888136192,71.50430182849641,-23.298985128571783,-24.158466854839748,-23.444424782494796,-22.374150938387366,-23.04864931948259,-22.801774669827584
-163.0,6.54785521673182,5.616780453457036,-0.9310747632747791,-6.067546703498142,3.7600171381321825,2.3787443904651226,3.1887822030685147,-1.4147164946582649,0.5273717190393814,1.579737729979101,6.084508763517453,3.5530957931099696
-162.0,-3.181701037368317,-13.26186850883459,-10.080167471466233,8.230752834599958,3.4724023143202274,-11.640209211128633,8.412313272840667,4.899948342816519,7.568874658445514,8.318442780282787,12.096961169134845,12.472239948197839
-161.0,-0.754569513321734,-13.097150905876703,-12.342581392554917,6.932356726787956,5.819914553346122,-12.689126454446878,9.184097399716057,12.109195311391591,8.888212821239664,7.6205053490379955,7.098658617440663,7.168940314571041
-160.0,2.978005658522134,-6.626619981621328,-9.60462564014341,1.833087528697197,6.240405099600586,-8.157859164996633,-7.003282842869386,-1.5933920193793636,-2.9138784600320697,-3.080308256373381,-3.293270947999347,-2.4854960849474983
-159.0,1.9500092420239947,-6.187890239664386,-8.137899481688345,2.1343613369823293,5.072171858596233,-7.116442042172924,-6.835740371988326,-1.7689773744941943,-4.212876112323073,-2.315220853861942,-3.714555010191998,-2.105323296511755
-158.0,-3.61518556487942,-7.938251306400332,-4.323065741520922,5.801160605262411,0.3020710160846831,-6.1523402563961005,2.2884413680472457,1.8569294728678947,1.4725814388766045,-0.8715407057098559,-3.214989789236169,-0.27432945035228773
-157.0,-1.4572870536953464,-1.4956063568184241,-0.03831930312314158,1.4309276408623386,-0.6850744916782965,-0.7812598189647533,6.899478241457565,-1.6865553097735226,0.3686076920398902,-3.372962025158012,-1.6304520792368211,-4.724259495712269
-156.0,-4.578282385738659,11.055030653377086,15.633313039115643,-3.2773811851324686,-10.083879503210477,13.331244828866598,-0.0730492476681226,-3.329723181678684,0.025221147215380157,0.036141549853693,-2.1574212068478777,-2.1260295885890983
-155.0,0.20108237224568493,17.540449142619877,17.33936677037412,-8.906161162417238,-8.548538740144565,17.421778141048517,-0.9563517797875635,0.09251133989587013,-0.6774507021308616,2.0867332285022187,3.3507833486647396,1.5585108866056714
-154.0,5.628305751789649,-0.8685462076331074,-6.496851959422811,-2.335020313306593,6.005126045321397,-3.7107128638418683,-5.501392694226237,-2.201408789120482,-1.999971426241369,-0.6896153851249691,-0.02094281446831925,2.034474599437429
-153.0,4.4585596955954925,-6.162062623312149,-10.620622318907674,0.8973693979935304,7.563811321984157,-8.351600462080665,3.120654540613204,4.9657640161899845,2.69887432874664,3.0011118011146776,3.159703828969598,0.21590584026189097
-152.0,1.9025585466759285,-7.2642396760864445,-9.166798222762376,2.7273015972644394,5.5636258118337025,-8.184082923371953,-5.6105115719079794,-1.5617768960131118,1.4760417900390832,3.249446274843422,2.1498516748676124,3.2174160297776897
-151.0,-8.043150443877396,-4.9733771532993485,3.0697732905780146,6.476661670761758,-5.600690205265357,-0.9234435834571562,3.84725170593997,-1.4679538594354729,-2.017798594766054,-1.9347306275910725,-2.5612830827502076,0.33363797461875366
-150.0,-2.9962814401874405,6.941380583292638,9.937662023480032,-2.0045327827896937,-6.427282010573278,8.391712658544527,2.142365454346197,-2.282309077750983,-4.473629032512081,-4.548938430425586,-1.4590016256938532,-2.959414528903771
-149.0,7.143343151485737,0.913390354822738,-6.229952796663064,-4.062365240806633,6.651135175279162,-2.620660818494744,-0.8278048424003641,4.111366444113806,2.210998203604402,-3.109425291948197,-0.36599987656979893,0.2261233907872131
-148.0,-1.8814333202698066,1.4880845621392982,3.369517882409064,0.15964033972528724,-2.5811154028649788,2.3957819694953084,-1.082466182381865,0.405126389133176,0.27716976302873997,-0.7909081032230134,-1.1716846871288595,-3.020464400348072
-147.0,-1.1737415512629041,1.9181894042857153,3.0919309555487065,-0.3327873329407814,-2.1686157886387383,2.4789915611408118,1.096109459712598,2.8598843158592424,4.5771714649359545,2.491083176058022,-0.23204871825099604,-0.180246823053839
-146.0,-1.687287534427765,-3.7532317917574725,-2.0659442573294813,2.7601775613110973,0.1503878118051214,-2.9314867534955655,4.13694890767554,0.9959028534514505,0.900989559717027,6.603467218069257,1.6923076404384172,2.5723528822619177
-145.0,5.997898882740001,4.340490507496441,-1.6574083752433553,-5.125066596508063,3.8639050256012957,1.399400164183973,0.02863353324575435,-5.609082619443183,-3.0154156739473157,3.494341331471383,3.0190323510141432,4.563187984025159
-144.0,0.6837167885329429,-2.7813230700679785,-3.4650398586008078,1.021287130871535,2.10816169681525,-3.1457114382505633,-7.629519372159135,-2.9139006954916833,-2.789273547455953,-4.4078311766115235,-2.4700967487287784,-3.938470991042276
-143.0,-10.374693264755203,-14.992181000782972,-4.6174877360278135,12.663518236588839,-2.9239936347951536,-9.752094892599724,-2.729502188803136,2.295719527571985,0.6728717430643458,-3.76341439065527,0.3527296011811739,-3.649114984528997
-142.0,-0.17163522154340072,4.752408089430573,4.9240433109737785,-2.30511555872539,-2.5128809806262287,4.80755202352503,4.83563095784096,2.8191298382479286,3.5048426232252834,0.7583116693544145,-2.5711545077614772,-0.46914992481297735
-141.0,4.068541482610696,11.375868993866192,7.307327511255274,-7.7362492263578355,-1.5817867332918023,9.305532473514148,7.859951474002116,3.5187129760471714,3.248244272250171,2.6220114270636214,3.670314396917754,8.848803180545767
-140.0,1.66462745204783,0.7192174063399284,-0.9454100457080887,-1.2102322892023283,1.266160408616721,-0.07608593992891866,-0.7033260769488003,-4.983199802313843,-4.827442304443627,-2.4566360982204776,-0.7911287414486617,-1.559682518163232
-139.0,1.273876236944492,-1.8699402866088604,-3.1438165235534234,0.3505293894533774,2.1708597306520847,-2.553967477960665,-8.686842231745441,-3.0134959437298336,-5.6022573844068395,-4.457933910128061,-4.430452718654055,-6.142343317546885
-138.0,2.1852204964434705,2.183297411714568,-0.001923084728819413,-2.2197544085148113,1.0549915648619193,1.1180181092643162,-3.2947088183041986,-1.1249953382544082,0.46631583699358203,0.43779878012899176,3.7058695804579918,4.900909126456158
-137.0,7.882452097307685,7.370703980786583,-0.5117481165208917,-7.591307547195291,4.236187256473685,3.4540101092698605,-0.44632216619905063,2.314204228348032,2.9247913134947194,3.4143816801564215,-0.657336179782245,-4.368446077604254
-136.0,-7.963326087067685,-5.481364704848843,2.4819613822190476,6.752842456555378,-5.1838089839591035,-1.476358914010599,3.4392327406555134,1.7406544305699796,1.460499066088919,2.185441267612828,2.18604651557724,-1.0538386488680758
-135.0,-6.099466076722615,-8.959802667994705,-2.860336591271965,7.4807783577848515,-1.5794602725728535,-5.965406752473858,7.622026313692907,2.3424615697722846,0.647284237034204,0.6241921376375474,1.2681444073190944,5.721270591262022
-134.0,-9.023377389271893,-14.906132587660197,-5.882755198388288,11.91944991941502,-1.6066782088814573,-10.370182391667514,3.573454473359068,2.1653564057529353,2.3752680297694506,-1.783770190093177,-3.2917847314055817,-3.2314393912525308
-133.0,5.746945438160019,12.125763298278386,6.37881786011833,-8.896006742452077,-0.3505168140622743,9.199179913061402,-4.102426968890682,0.7978071158415911,1.5375923152204594,-0.07397394334811214,-1.9810799280303621,1.2281286431913023
-132.0,9.352664897133165,11.1715580928641,1.8188931957309227,-10.212946308163135,3.810723409387751,6.522882968382699,-2.7277239219785616,-2.2179991032455835,-1.14808198959783,1.5875125493825128,2.083008999322094,1.0815798056925348
-131.0,2.8076350584898204,-2.471768735896351,-5.279403794386125,-0.18871010856844528,4.0053788662621885,-3.845009975285196,-4.69809567817763,-5.44147412659634,-2.91665081847001,1.982592377516971,0.5437555279221661,-2.579747377702115
-130.0,-3.8450813183531594,-4.640913801912557,-0.795832483559341,4.22895131567373,-1.568262116628225,-2.6839160096941326,0.47279932000481484,-3.9226946775270535,-3.6460989284544905,-2.0501841050553735,0.2208329669218746,0.4773014924581933
-129.0,-0.7769852408146942,-1.2499363276370998,-0.47295108682236275,1.0024476816075336,-0.12279195362242762,-0.9011914311003935,0.44655168771567894,3.330511484586732,-1.143432991770661,-6.6438345120986355,-4.864044659622246,-3.19778102931806
-128.0,-3.411807462935555,2.534579718034516,5.946387180970065,0.4263455719186233,-4.653848708898997,4.205460374713871,-0.42433458314923245,4.494477646008733,4.335809460584606,3.458928555850736,0.8858637582472852,0.8284781608133449
-127.0,-0.07256259591624348,6.81491113039616,6.887473726312308,-3.3883250306975317,-3.45523397408225,6.820687552417584,0.9764189061300927,0.47133549190430335,0.5843206261148062,1.6995295949107503,3.962534759943331,3.4221670665982735
-126.0,-1.5341682742820368,-0.5626771636466528,0.9714911106352369,1.103124922430512,-1.2249102649106725,0.25672591330760475,3.992298762430769,-1.3993741386629104,-1.2299911009738016,-3.337085867044269,1.5115466545058802,0.3071262158158963
-125.0,8.622864863909324,-0.25847068550936925,-8.88133554941881,-4.213270653413542,8.706526579462684,-4.514314460517205,1.0592285845927607,0.5939017868608474,-0.534836182573883,1.4078157634711692,2.1148744072110475,1.823634780618761
-124.0,0.17141263112622518,-2.1434795964066273,-2.314892227532898,1.0280032893795443,1.2026236286481753,-2.250629021005572,1.120890804202687,0.3083784782353379,3.138581837385123,2.1599586919037272,0.08151506260411012,2.0115639357288777
-123.0,-5.747609643687731,-11.002033764742674,-5.254424121054857,8.334246031611439,-0.20570412869256227,-8.150503531776637,0.7053027671027163,1.427995148796799,9.065326348463875,9.893749922723194,5.616707407375099,7.665432488420995
-122.0,-0.3372817421177592,6.092333782530115,6.429615524648103,-2.841493715604983,-3.4222286584474078,6.234635701245323,-6.650369030841864,-1.518247090646557,-6.793427270115649,-4.87149695120451,-8.263026254511166,-9.081113401478156
-121.0,-6.611376277959667,-3.2495296930402424,3.3618465849196766,4.886482100219727,-4.951136797402272,0.022730984245299624,-5.855200575418696,-4.1803404849742725,-11.496189022224469,-11.353002977500685,-14.59483174416686,-16.768746756012934
-120.0,14.164128794303346,8.401247273672698,-5.762881520630468,-11.249076916893436,9.991936436982318,1.35559075461103,-2.7410866443185675,-3.6889010567537017,-10.325460885933406,-9.451839545877135,-8.624766509305383,-12.401966446284801
-119.0,-12.424790931233282,-16.40783789021122,-3.9830469589779174,14.369623040378386,-4.279147784847617,-10.168099461151826,13.979433034972978,6.0456647071521115,18.686613469070842,15.936112720743678,23.034065002982366,25.61512168162932
-118.0,-0.32183486790938387,7.22392922203376,7.545764089943024,-3.4209246070741752,-3.9203928902214713,7.404352119077743,3.7374180835239956,6.538366691277622,8.817922556985144,7.580405658368104,10.035482845355396,14.838320722066705
-117.0,12.442792384132868,18.13909230190386,5.696299917770833,-15.26277884262797,3.3820341971928207,11.931170305913367,-1.2699695311369195,-2.1889053122435134,-5.128100140229823,-4.330986805210566,-3.4838370995725167,-4.704654344721186
-116.0,3.560369679920216,2.6274123447474977,-0.9329573351728286,-3.145987283191938,2.2542108833814187,0.7775913652043238,-3.811669205763368,-4.302385880439272,-2.516874340429416,-0.8116939626958615,-4.470568121371194,-9.350749024432583
-115.0,-8.14602575504262,-13.612632092214294,-5.46660633717171,10.905267455943589,-1.3299992529862412,-9.533524199054723,-8.59992875220017,0.07722703392906816,-1.0636557449800095,-1.0647042105331197,-2.0621861034743407,1.3269208961270467
-114.0,-2.25285970345488,-5.120980876535263,-2.868121173080304,3.7130143030520317,0.32201984406705075,-3.9901598977827684,-0.9056289918009939,-1.7441753609825077,-2.9504146292199627,-4.190050467176402,-4.344382958618096,-3.4131751080533412
-113.0,0.30414788126455417,-2.3134263401879016,-2.617574221452302,0.9527910570660731,1.4022007224858326,-2.4611274748034377,5.2917023582786715,0.7635636114259482,-2.0585830794738538,-3.6853518286111093,-1.8635830739891834,-4.079928376840634
-112.0,-6.105622479777311,0.1998788285542985,6.3055013083317615,2.9808042281210243,-6.180347978427368,3.2591588873617274,7.884781457866498,1.342349782439748,2.728825718707003,3.1442718331272976,3.7125262313314895,4.985883029863908
-111.0,-1.6063008706055277,1.6916866450730774,3.297987515678714,-0.013982366307496386,-2.423615152723902,2.5055087858600538,-2.355926081067973,1.7838579990600707,1.0505760990647897,1.397020902390646,0.7172800964607766,1.9722922696489371
-110.0,5.742417155641261,1.569726044856077,-4.172691110785157,-3.705901132544832,4.908255707400892,-1.2852364113108066,-3.2506101400786234,-1.5117912032954859,-2.7241694311973728,-0.015576344430813904,-2.9969334839095927,-1.1795982660248114
-109.0,2.627599855182516,3.2016098935457307,0.5740100383631463,-2.8860177744987063,1.05492355145374,1.909684761851793,-4.512178768100179,-1.0307172166282983,2.987778942080533,3.4255820892460536,1.373493026168289,-4.864747157961965
-108.0,1.2125256483838527,5.684857698596341,4.472332050212346,-3.4993132663664204,-1.6045330798210984,5.026076549215731,3.8067752652100237,3.2706605041733168,5.72023328533487,6.718333170118515,6.292265551315465,1.0681851497030281
-107.0,5.591127905419846,3.6723791386747147,-1.9187487667452623,-4.603577162828889,3.6986654612377783,0.8267481970090071,0.009578939648708262,-1.988508019971067,-0.48981359613466413,-2.41508720845279,0.7450724175546828,5.564519594478508
-106.0,4.139206801051478,-2.0298581082509664,-6.169064909302496,-1.0254812244069746,5.175116591104761,-4.06981069107377,1.6436476488296445,1.4822114431056124,-4.623487773840516,-7.617979283941327,-0.8882555863335315,7.982678930390827
-105.0,-11.922517606658326,-8.977496824898648,2.945020781759681,10.481115087095779,-7.411487394019637,-2.9859059732685163,-0.8052864427618875,-3.0800675382807277,-4.061144242010399,-6.22951272805485,-2.948701461747514,-0.42960717159556605
-104.0,-2.2660413425673616,-9.704047372068533,-7.4380060295011425,5.939553616506923,2.5344414600717435,-8.539112193181111,2.40378217315247,-0.04284901658256468,-0.063140609615981,1.7000446151565836,-4.543646139316987,-8.965223469905713
-103.0,0.5887214832439049,1.59241994158445,1.0036984583405364,-1.1345990758672229,-0.17189138412018368,1.2541088291608515,-4.436832871541576,-0.7551726796895278,-1.379453612715378,2.1870984345691595,-4.952165571838326,-14.198262791799781
-102.0,-0.7178110468678777,5.883647007223143,6.601458054090992,-2.548139592343855,-3.6135683844946414,6.280861066229552,-1.6654021029192085,-0.5959014590644118,3.3656910725433358,3.9844243443830845,3.2738677922798436,1.518896308325636
-101.0,4.74807321598389,4.5795423544634986,-0.1685308615204577,-4.630595976936866,2.4357600874441716,2.1677546127762923,1.0124473898304176,3.4667256799826975,1.710311486167781,3.696323955370993,4.5246103747580975,9.136216095939822
-100.0,-1.8837295920074366,4.213859407378138,6.0975889993855334,-1.2135217059434664,-4.006141404294133,5.197113553654159,1.3366120208705532,1.7787538103149125,3.1763742151803047,2.1513773364059885,3.5144512215478003,7.891966009773355
-99.0,-6.270669105951406,1.1857931932964063,7.456462299247803,2.5690408300130936,-6.877168329772303,4.281126906852837,3.958846441047716,2.2182591347243394,4.386452951630293,-2.86123503953838,2.8764004840318185,3.4222530785065386
-98.0,-5.5245353101820465,-7.362501668698723,-1.837966358516665,6.466363966249478,-1.8607484870966087,-4.645383118123149,5.125174021567878,-1.25333405904917,-2.6892300864843204,-2.134594320936128,-0.3582188598142021,1.6314120239694534
-97.0,8.64575958570098,-5.755908044300549,-14.401667630001521,-1.5039566658831847,11.497916888954283,-10.051130004348536,-10.306461878750685,-6.117916368470102,-9.778838269532343,-6.191849496088483,-5.2001220194997675,-5.848812549266427
-96.0,9.651879984332705,2.3136551814629165,-7.338224802869801,-5.9649603649327805,8.537815163415964,-2.4891545806389983,-3.1426373603003936,-0.248602779414008,-1.7325629659844433,0.23805969586124975,-1.6041370972359026,-8.445722114876691
-95.0,7.742577488268981,7.701129974614139,-0.04144751365484556,-7.704403563212229,3.9256495744451656,3.8515274803929374,1.1013331788916954,-3.769476872972861,3.4162493848203686,2.9998939751494618,-1.7526303157420864,-1.205834926053031
-94.0,-0.9803605004569385,2.7798377218072643,3.7601982222642234,-0.8811089626164779,-2.342514796059104,3.293633386907854,-0.7477182886760618,4.894713606498355,1.1953232520273105,3.3531137618926694,-2.7625913856825277,-1.9300577955058864
-93.0,-8.981738866612035,-1.953667459582751,7.028071407029315,5.488702741081926,-8.057591445321503,2.4861172778680083,5.482395375857292,3.6498207665227325,3.8644883421152514,-0.08368497409457687,2.277180610501575,3.4529206181694607
-92.0,-10.41180020370043,-5.012546490076216,5.399253713624224,7.6575759403602515,-7.9559940325813265,0.22498776586407132,7.885079529125336,2.9472908522763053,1.6756991273021018,1.6578804258894555,6.22919010791181,4.294505021518521
-91.0,-10.481492653501078,-11.436072508510753,-0.9545798550096984,10.908005496218866,-4.730037157338265,-6.240682405759161,-1.3026881239165586,-4.244230228902953,-4.295185265472288,-4.4097390359673305,-0.59427725095791,4.173993663679392
-90.0,7.747471478247185,5.374938540058534,-2.372532938188672,-6.528477909055078,5.100047688170802,1.533047919906756,-5.101935170619321,1.6738289018505603,4.010891389976953,1.4673828109366824,2.3800475937108505,2.4317100182476774
-89.0,11.508982966525558,7.835692483518748,-3.673290483006787,-9.633657720814746,7.55883148298153,2.029850316353442,-9.603584766954276,-4.150238038706607,-2.047575346196136,1.4593391173433785,-2.6903415667053303,-3.821747756812192
-88.0,4.708027342926247,4.147132168046767,-0.5608951748794362,-4.3821168274959055,2.6852353955911488,1.8149223568803288,0.6669213972781654,0.1704428832199567,-3.6403980545596353,-2.915497039078973,-3.783590558474878,-4.937340478599021
-87.0,3.5637789282314065,8.542021695474835,4.978242767243484,-6.079905802458006,-0.734503487618523,6.777524902191202,9.942357137884605,2.925305863011942,2.352309940075817,-0.03478584118664674,0.15181868648432806,0.6873790288856552
-86.0,-8.074394061131862,-9.970218811272964,-1.8958247501411,8.999149238622667,-3.1201367781263283,-5.916944456546029,1.4314676415138905,2.389566775634816,0.5833223469184803,2.3847367358048257,-1.8223843778038429,-3.91183160562386
-85.0,-5.437706829417693,-6.885870324069906,-1.4481634946522635,6.138423385286394,-2.0327885185348213,-4.1484929737745375,-6.565400762750418,-0.8170033504006289,-1.8119207145583447,0.5644498421240245,3.921156587101729,7.424091284580764
-84.0,-3.689796631372402,-9.698882126887447,-6.009085495515115,6.666283222343269,1.1916235260380774,-7.908864136433238,1.5638115568813058,-4.168854989500241,-5.22246469644812,-6.353316797821808,0.09236164368647382,-2.1616407411183536
-83.0,-1.372650476098888,1.7385603376352314,3.1112108137341075,-0.14034704690524347,-2.2177277161215048,2.4549426819137166,-2.3542622192641782,-5.318890656774426,3.706066540395655,-0.3464899136393107,1.7371241976427367,-0.4419062011463194
-82.0,-1.6657713954118334,10.985817023534137,12.651588418946051,-4.626688527322297,-7.139201959757323,11.853305562731224,-1.7755022042598967,-2.7180509359352754,4.158260482571821,6.532529030417172,0.7580544508861804,3.424372597785978
-81.0,13.637622122782304,10.40901739137383,-3.2286047314083195,-12.076694802163482,8.45166252880166,3.546972825232217,1.998875929693676,4.432646935170474,1.7723870699141802,2.5905934864018185,-2.5865525484944323,-4.316722334741972
-80.0,9.995489185482839,-0.3483710990748543,-10.34386028455751,-4.802856634202527,10.111598697474081,-5.39278799800133,2.08541442786718,6.249989674102089,-1.3668834220513253,-3.4075922512660104,-5.647505718149492,-3.6547426203176605
-79.0,-3.9101175066885965,-8.97324539964314,-5.063127892954468,6.4619116469320605,0.6006758150901481,-6.993017003690576,6.71133836970856,9.482696921215647,2.4590444807482785,2.6823872227110614,2.448691728555957,3.496364595679513
-78.0,-10.68633216097265,-4.617470721471257,6.068861439501266,7.675586160156976,-8.350254516545663,0.7426595868809249,1.4734403217005014,3.3088697756012455,0.9533986964844706,0.36864722421947715,5.487759811664811,3.265217982656052
-77.0,-3.925882739782997,-3.7968117709254225,0.12907096885725267,3.812465861860388,-2.0768877066830242,-1.8238148280883983,-0.16782178345983512,-5.429637567469357,-5.499819235467839,-2.270746937145842,2.47698260678725,0.8984185374669409
-76.0,-6.176186858505778,-2.669645075890128,3.506541782615321,4.381338692422435,-4.889524083419724,0.4249056218791827,-4.519563363230291,-12.522770788568847,-6.281625902708922,-6.823452710773987,-5.789748942397933,-3.875831260383133
-75.0,4.116779969600912,1.7099759985489529,-2.4068039710521583,-2.8693154873695748,3.2943622018442085,-0.34147769037099884,-8.865434989826795,-8.46822998732707,-1.6818304652739382,-1.597396575038195,-4.461375388289865,0.4784820988468872
-74.0,9.053351125289238,17.149278925542934,8.095927800253765,-13.051986014275574,0.515627567314314,12.63353775677758,-2.097255223662278,3.89291190450494,6.028769636413741,5.278418559188078,4.032933710006263,3.34857129448744
-73.0,2.25709808897303,4.033610246371165,1.7765121573984008,-3.1719424388978386,0.2845900796165832,2.8433253295678678,-0.8867462612303346,4.635741424654599,3.266762066572445,2.872794609636913,1.086798359108709,-2.0932866513904163
-72.0,-2.0316386166002256,-4.102383417425347,-2.0707448008249534,3.040508704331689,-0.005494916996631183,-3.0630293734085416,1.2608030585383236,3.8412442606086206,3.6333776830945093,2.610538199799365,4.521099337682085,-0.9693097119628088
-71.0,-4.00246454184435,-1.1637663103828015,2.8386982314615317,2.554296852831294,-3.4367258839937826,0.8666802443254693,10.721029593287152,3.1790635731856485,0.7956372995124297,1.5736642939178893,1.6765998402665043,3.104965311263639
-70.0,3.6729933632206486,-7.950586371560362,-11.62357973478135,2.185021168245751,7.637489072688167,-9.832452080934486,5.391799712101339,-0.09906767413419137,-5.422617634736855,-5.909448601040327,-5.459896967945202,-5.585467781582828
-69.0,-0.23733001598199976,-16.220175869078115,-15.982845853096514,8.19248303922195,7.8614357375885335,-16.065590151147585,-3.743324788102128,-5.534376702438753,-6.7731989646464275,-8.720263308487977,-11.174979758019614,-5.045019564493614
-68.0,-3.2963136443500503,3.820744611753855,7.117058256103741,-0.22239576257760074,-5.225032356988898,5.4271826532446585,-2.4665456975523528,4.982649956152462,2.8189301375153404,5.181559236162986,3.9594165657662383,6.445708552821696
-67.0,0.27449153158118555,12.165175488212883,11.890683956631923,-6.181192285735555,-5.759894383789166,12.064835451438093,-1.0519338069397466,7.655180488328718,12.869155746373986,13.663569646410023,12.585189910881509,10.098099947697383
-66.0,-0.24352449334278914,-8.391460035171441,-8.14793554182811,4.2772596720379665,3.9071091567814555,-8.234204919674825,-1.2222959208344708,-3.100631528824131,-2.1639868130245645,-1.5847683691522256,2.8441544257245726,0.8825106715803797
-65.0,-3.408178918442598,18.183523721439144,21.59170263988244,-7.4278615228398435,-12.479751578562956,19.84136080747384,-4.206255051259062,-13.220898145053253,-13.491622246704095,-11.644595716554594,-13.818432541573863,-18.627458258550657
-64.0,2.7081198592404054,3.328107152215943,0.6199872929758561,-2.9801037229926113,1.054853438446635,2.0017365245801573,1.7534601207040832,-0.8346738778512348,1.2911116398616906,2.459593688148898,4.740913182117926,2.72543193712752
-63.0,3.181456459296207,-7.214838222772446,-10.396294682068758,1.9745891503750723,6.795980068395455,-8.862954671547802,1.0084224630285104,0.06769862109252389,4.205741235024985,-0.6432259299397868,-2.0003219262712544,3.5679705887087465
-62.0,-0.9501357679304823,-11.412841766003172,-10.46270599807329,6.216321853083582,4.76534061002471,-10.923152078774777,5.766036242132809,5.6748240013924445,3.759348845334314,1.6660686555120023,5.190065384315736,7.915769478132054
-61.0,-2.1259599086510845,4.975860904374629,7.101820813024932,-1.3917496069214614,-4.59890301568453,6.048076970432621,-4.946051299359151,-4.73701544519283,-4.8987243196935975,-2.80940854535919,-2.43822794555337,-0.7629720683683585
-60.0,2.483827023006215,4.352474396942721,1.8686473739359433,-3.4645797362427544,0.25122845686444645,3.1175936108685938,-3.1675429443061027,0.5944920830409269,-5.022592574320455,-6.118608704099702,-5.88501983962842,-4.949577893623356
-59.0,4.855463836291505,-0.21033869951026773,-5.065802535801964,-2.2900434789949076,4.989468858440701,-2.6289335753722503,-1.0970904169478162,13.33237462359968,8.053617664137601,8.119057171963927,1.7003163580315537,0.32188993052532267
-58.0,-2.283662291206383,-5.116229728247709,-2.8325674370411296,3.655100569490222,0.22847310959539424,-3.9589574972615282,7.554254454217412,13.165721414538112,12.854130384254647,10.010258972844447,8.185430876095227,-0.18742157565771445
-57.0,-4.493102462328453,-0.6131178749577647,3.879984587371185,2.589575539854266,-4.152736967956095,1.6580342675260393,1.3387375390399892,-8.331098422244514,-2.7177368749059374,3.449524416931125,4.143283529294957,2.86962532136104
-56.0,-2.4461815567399854,-5.717148990040448,-3.2709674332998455,4.042998319031132,0.444917693284689,-4.538209921085593,-0.7414560568221902,-18.382025545157482,-14.229917880431415,-10.674560343031535,-8.484656370068151,-4.910452149667717
-55.0,0.1708753352093486,-7.700138392225488,-7.8710137274345255,3.8090639740140446,3.97217450242294,-7.8207359357319275,0.8415255802585698,-9.702269431865087,-9.433464780033091,-12.541348786512522,-11.456362712632705,-8.807714871658728
-54.0,7.394832203513856,17.033996944879874,9.639164741365956,-12.244304610096096,-1.0949547788317517,13.308387490099209,-5.51306946803825,4.8984312753041825,5.612277753305683,3.594536099663305,6.353602094075765,9.402524383934061
-53.0,-7.6854534536871775,7.273745716605005,14.959199170291754,0.2582488415518611,-11.297380371999713,11.17182124049053,-4.891247451302479,5.564359691942997,4.45937802862925,7.630323693604332,8.950921572845118,9.114504935076313
-52.0,-4.336907863555983,6.603090680245744,10.939998543801357,-1.1578341391160687,-7.693676007177681,8.829709294672142,2.164575307380163,5.491723379348154,5.255663789213326,2.737470985910767,2.806892336207699,2.814337225008042
-51.0,8.286599259027815,1.3492646414788063,-6.9373346175491015,-4.843608911618893,7.634973273975589,-2.813840800390662,0.7217232686915708,1.2458883012353104,4.322358372989689,2.278402636706919,-1.5651631594318833,-3.5271824979444224
-50.0,6.563275850523098,-11.628129427174347,-18.191405277697097,2.5034939693164646,12.400619660736854,-14.931294635737048,7.004837112401271,5.988611917752401,-2.757178729273651,-5.534006811145855,-5.7358627994597216,-10.057960238416618
-49.0,1.291019551684021,-9.884489687852614,-11.175509239536025,4.342151126287378,6.178687387771809,-10.556197519319557,5.0998570121836995,1.4928568653421639,0.4357695558028414,-1.0897192163498175,-1.7839631716819895,-0.8576083972505693
-48.0,-9.212993510750898,-11.248559243789773,-2.0355657330387427,10.193625125297935,-3.563261181700144,-6.675726512646211,-6.495614218772557,-13.838071306401332,-7.93367184733686,-0.7566209147416535,-2.8880087138095627,-1.0666930943970379
-47.0,-4.9427620091137285,0.8986770312260011,5.841439040338978,2.0619399872574067,-5.365312480109965,3.405866715390548,-3.9840608411240517,5.261372034763004,1.0396128480830535,0.7715877146761195,1.7171725856210889,1.0786666755150647
-46.0,4.950973158948581,11.20998128180675,6.259008122856872,-8.039542674750788,-0.6262263033098119,8.760704316404318,-0.2672170957540563,-7.810433927609727,-4.10641174556268,-1.5519389523910523,-0.9735809103481213,2.702991372883072
-45.0,0.8807860605388744,2.2890628065246617,1.408276745984498,-1.6195449404187654,-0.31427254959135364,1.8663489108143434,-10.139504130838912,-2.398638949480688,-1.374150452332676,-2.9197396637381168,0.3669205939221756,-1.111045460152078
-44.0,0.7607874838025145,11.751198994665804,10.990411510862923,-6.286777154860282,-5.1652605023034885,11.381901624768737,9.13064103774542,14.129988318608401,11.611550627885041,10.258876497497491,9.642987805975626,6.458525696949381
-43.0,3.3169070222614345,4.8774635420504495,1.5605565197899516,-4.125322847557609,0.9070090787138869,3.147135662169668,4.188001152733463,4.872221377830362,5.132709013216454,4.202706484498867,3.810953868021293,1.7124377339490175
-42.0,-1.6749509504445435,-8.72115087899283,-7.046199928546711,5.248563475472411,2.7165355169071175,-7.878360674242037,2.268863350969512,-5.227667496968204,-7.282426231750738,-9.309396185128367,-5.82535064515463,-0.8463545574946644
-41.0,-5.984898586096797,-9.44340914375234,-3.4585105576535726,7.760885724586645,-1.2279245274795698,-6.4441282847168875,13.817989594168397,-1.2065507825820405,1.4144045965327066,2.126515265262384,-0.6493748130999735,-0.9587111781561592
-40.0,-0.9138186272460693,-1.5231215276699812,-0.6093029004225619,1.178868893634328,-0.18927195480222347,-1.0544057895286763,-9.858289501465507,-8.883520181905723,-4.59437627202988,-4.6964416153543125,-5.134534624053731,-1.929875377828992
-39.0,-0.5395576720423421,-1.1825535543695702,-0.6429958823269812,0.8109560850458353,0.022095958743249433,-0.892646355402126,-13.054254812455152,-1.743826816140217,-6.312284579172626,-6.417886183011177,-8.134315397633706,-8.751158867688243
-38.0,3.010094186595022,1.5378722145447534,-1.4722219720514587,-2.2567408251926007,2.2967887418256465,0.06365110246036454,-7.094644496770973,2.405375407545184,1.5210805076573255,3.426027805747509,1.801302202790255,-1.1133608795941767
-37.0,9.3001696143731,12.450905373752745,3.150735759377807,-10.867747109404664,3.055408857191937,7.764195596495529,5.037531700342234,4.789592061846739,9.824378152469915,13.37776735676951,12.263169990782602,9.003301940189825
-36.0,-2.1666054808188333,0.6305424279423324,2.797147908759373,0.7712989727488901,-2.501227250021177,1.6870643411252901,6.945938900155122,1.6699903369350038,4.127631137601698,3.735317070438864,4.598637635843564,5.434496849715714
-35.0,-5.12385926142848,-12.396244265058478,-7.2723850036311175,8.765781128459658,1.050951788487202,-9.854359643276306,5.124904921890772,1.4784887611228203,-2.4966434154228323,-8.242134506998621,-5.942351208056596,-6.015688672829376
-34.0,6.718447905610072,5.881184706778697,-0.8372631988314837,-6.284362289027197,3.826558275568888,2.5834966906967676,1.4170390261804329,2.8640917135367587,-4.136057629180396,-6.322017452087883,-0.5238216464946046,2.609477623646099
-33.0,-3.038086877936983,-1.08954874351962,1.948538134417918,2.0944545659694533,-2.530825300889895,0.41131320830212326,-4.986327054175701,3.306270450612972,0.015402259383280326,-0.003980133871152702,-6.479266212212737,-6.551990839527259
-32.0,-9.89740583070342,-2.9405949552963513,6.956810875408329,6.388077064542865,-8.391731519651113,1.9859371209254184,0.5100580018555259,-5.210064627282665,-4.932689079892956,1.8910616597486132,2.4116013726303462,-0.23029551044266938
-31.0,-3.7754383198478774,-6.403082655497182,-2.6276443356482035,5.073506920857123,-0.6196173882595972,-4.46462740520003,-3.3870824478346884,-10.721678008241778,-8.178546289186226,-4.573016921238889,-3.424524535756486,1.288562734350815
-30.0,3.0613106438272197,5.287693051513053,2.2263824076866108,-4.180398104867553,0.45253940417605865,3.722685526256007,-1.9542824717173264,-10.421373423433892,0.8558224602728655,1.1956179430559555,2.967816069767107,1.6684925351346367
-29.0,8.968570510489291,1.0619177544271174,-7.906652756061916,-5.018113585717901,8.47866284228238,-3.4621597413628558,1.9001043932542947,8.017053707749255,9.743290217563027,4.649831729020515,4.4089796082553185,4.919273780532373
-28.0,3.195051778262191,7.544650402848914,4.349598624586,-5.375885354822451,-0.606754725753341,5.982759466290558,5.611602180651391,18.573664293772737,12.998559351341338,6.702296344753769,4.333007093171879,3.046005588232819
-27.0,1.0155834252131681,-0.6174060168497348,-1.6329894420634834,-0.21205353902861912,1.3029213119312681,-1.0900327123556663,2.4049746663126914,1.3733420382639672,0.6064406115061631,-1.6262554463225052,-4.262506464053323,-8.936519853298936
-26.0,-6.178895590144464,-0.45044000660208816,5.728455583542106,3.3730332620735015,-5.9692096500865945,2.597761094415667,-2.7540645569303894,-8.314323251363023,-5.7312542137560785,-0.8963226475389063,0.6900013547409447,-0.8678898670265447
-25.0,-4.692502277635814,-0.16361597943870798,4.528886298198152,2.402757132116023,-4.624042329188727,2.224384573254815,-5.5216251085958055,-6.625994270452059,-7.066216021607829,-2.4055050002892067,1.1266727388211097,4.8943630302300605
-24.0,4.46795026520676,-3.537143570454654,-8.005093835659867,-0.4913559541811314,6.300153393944225,-5.803465762507064,-1.9520630279338231,2.9372084037526607,-3.5394184845258962,-3.2907247053710047,-6.507432281162913,-0.7866882415201999
-23.0,6.435261563297313,-3.4083959538594693,-9.843657517156304,-1.4569606774700685,8.119154996007405,-6.654926483220946,-3.638161427806148,3.5455277585602256,0.42593477433888527,0.7169291275229921,-1.0773004054755724,0.6872118999308019
-22.0,-3.6645543816459183,3.1930479915879735,6.857602373232747,0.2198975916987566,-5.288947922486544,5.0761855779843374,10.02344994356498,5.057386235114783,6.805721086502548,1.8067319136247004,2.2746550361438467,-3.750989224865327
-21.0,0.6300352999960959,-4.176555700540718,-4.806591000539255,1.7639327357719021,2.760489463762702,-4.521405217908994,0.0844127312040035,-7.826429505875916,-5.908417656323167,-2.046342046966937,1.7381015186870663,0.9323109780419775
-20.0,-2.358977967118415,1.7876863565136518,4.146664323630039,0.2801599496998415,-3.29796776473603,3.011540623631512,-3.687730420274645,-6.6651898323930086,-3.1936187543547274,-3.7060822929473543,-0.27307934361338715,0.3744185794273849
-19.0,-1.5140073936137606,5.231274736907342,6.745282130520698,-1.8649456709438623,-4.103300718661719,5.947928600363494,-5.522232212116488,-6.719349867176019,-2.1029109887832167,1.8692157981481066,1.5659757272198755,1.5813343710069503
-18.0,-9.175519642317933,-2.765192156058826,6.410327486260456,5.958043723493159,-7.771544270947626,1.7767365200341083,2.9191318997519993,2.0378279171660187,-0.3739878298655288,-1.7680142492225657,-1.7663126737959831,-2.241217534235695
-17.0,-3.113496900986221,-13.852320052515935,-10.73882315152764,8.46050849980187,3.753287865382813,-12.265483031047888,15.400465372025026,17.68533069716103,4.050113012201409,-4.268274017591866,-9.3299054020226,-9.13810151286459
-16.0,5.76351203210378,0.9607762220416989,-4.802735810060142,-3.317748260910592,5.303691750406513,-1.8893524009685096,8.751285560420406,16.781726074851424,15.068428714954303,9.453649923187559,0.06384397178873735,0.222268592263684
-15.0,6.397840138906753,14.853924567583507,8.45608442867746,-10.59276425325897,-1.0044613260232653,11.693046008115559,-0.9768829985459107,3.9990481024461184,17.80315963209006,17.811161870297685,11.07495779765577,9.108578373246546
-14.0,13.111218306329574,9.853590613641138,-3.257627692688765,-11.536565924455157,8.215209650688013,3.2674976265974003,-17.480834049107823,-19.76354398377648,-8.49821137105485,-1.2199980421998093,8.418770933320971,8.878997938979646
-13.0,6.720151480836127,5.585204697458495,-1.1349467833785905,-6.132728642275347,3.88647521785439,2.20637283136784,-17.421208755625997,-18.651307690503796,-20.63204232749957,-8.94164003743012,4.7240302802341265,5.589748100669078
-12.0,-8.447039656939717,-1.1512967923933077,7.295742864545145,4.818525166767607,-7.906081055544989,3.0640172286965077,-13.21989986632411,-6.296433259963864,-11.766414939236597,-8.80018574081442,2.4233001673415644,6.666475756876354
-11.0,-3.5130509247060466,-6.955668352220414,-3.4426174275155805,5.177793389546077,0.013907208881034805,-5.200082871142643,0.31113332324796983,-9.529227894296513,-15.381397271371885,-13.350830124486238,-11.307420686720317,-6.8588529864171655
-10.0,-14.092298381027565,-16.365895878069693,-2.2735974970427093,15.256392672731677,-5.935367694858626,-9.31765541290098,18.64984970204472,10.684469047016195,5.439916966131821,-1.4616851293255761,-16.14699577694474,-21.939852506008993
-9.0,-3.4768129489743966,-16.94312912252748,-13.466316173552539,10.243263529121844,4.971299081351435,-15.203579987806952,13.617163640981808,13.351136764214896,14.470473872276639,1.9235092263069684,-11.589598169728252,-18.582769837261544
-8.0,-2.8258579010757408,-0.5958267041421466,2.23003119693444,1.670813429243878,-2.4705829894699933,0.8143790000645499,26.92271257913342,26.47644242948251,17.03173572420358,8.109657683941219,2.3477726650906328,6.9622621535455895
-7.0,-3.3648353503703934,14.255600011976771,17.620435362347916,-5.403054474337345,-10.512260357118507,15.929772699072474,11.685071202654129,17.73878387398396,18.07163246464998,14.623135920602184,13.13225583765595,15.866463482957197
-6.0,16.931764488853883,17.176426913451312,0.24466242459777376,-17.089474381787035,8.324948838546469,8.774784952130524,-29.899515123145676,-24.308646931126987,-5.532441501445703,8.54279098162126,16.267914842319257,15.685821136700888
-5.0,7.870222332943527,12.694564618388789,4.824342285445601,-10.31926624054008,1.5823495472140006,8.738263578858334,-30.311690562199622,-42.52308381987377,-22.68745697767569,-3.0044223089316535,8.285920023869313,2.440603447322628
-4.0,2.1858468105940174,2.8439813719909974,0.6581345613973593,-2.4762587792996875,0.7408627015279814,1.7227071070882367,-1.1680541016412533,-6.643780070755007,-8.308615011699871,-5.9838746894983545,-4.802066027384241,-8.528870518373354
-3.0,-8.355624795505626,-20.503411136774872,-12.147786341268922,14.464521779401231,1.8659224662747582,-16.361566093396277,17.61662474715751,31.69880072717414,4.134230970399874,-11.341747901782313,-11.33006775211906,-5.950057665321387
-2.0,4.2353971598461,-21.958109066126624,-26.193506225972865,8.814842342095512,15.174188211416451,-24.04055934455941,7.248630935032079,23.143312166161614,0.0882755944496042,-10.030273729884641,-6.110187930499348,-0.7980648472465202
-1.0,0.4374938014413172,-3.6617617491572485,-4.0992555505994375,1.643406594631216,2.295701704200546,-3.8516041285326725,-5.696595874241204,1.7064382432223155,4.300250713009411,-0.6297694448915419,-7.207368161344447,-4.65226387951857
0.0,-6.365420748627597,23.2624126424516,29.627833391078013,-8.494812925538076,-17.978841530149168,26.39148216732812,-7.486159164064486,-22.26076261170209,1.625571762116195,6.498774728386005,2.5584295513457755,2.4751362720346677
1.0,-5.859831672746427,12.393108945313887,18.25294061805956,-3.2312181144798373,-12.04407068949147,15.34800197272429,-7.168524324782674,-9.435940998189235,3.3039284605821067,5.419531906357671,9.096781000755731,9.5739519166166
2.0,10.408690989791467,4.3670172561732405,-6.041673733618236,-7.348412641850956,8.23736468570713,-0.8083894031307342,1.5356371536168827,13.932503839895416,17.992625217970783,17.685626597902885,6.479551894019881,-1.6647159234840943
3.0,-3.234659264373872,-5.830832212933337,-2.5961729485600644,4.497475229713729,-0.3022163146260759,-4.255761377655721,13.727215333178604,-12.423933205863216,-25.31987212052193,-7.434287223044192,3.7227886692692422,1.9869008913027533
4.0,-17.246030070889713,-6.905961146167082,10.340068924722994,12.043943703980743,-13.846654236604294,1.7632849261824504,14.06996715042105,-31.02249155034508,-26.169814618887482,-13.952143225749186,-1.5821300767485709,0.20174694074954036
5.0,1.218919114641145,-3.0089213413317486,-4.227840455971881,0.8650308393487549,2.7576753126617817,-3.640947875085655,2.6668772046738,-3.8423610122907004,-3.571848569441368,-4.778742553411309,-10.170000519006976,-11.512774027049142
6.0,5.74616423544453,-4.992249299799694,-10.738413535241753,-0.32702245803746477,8.206139245528446,-7.879757563885546,3.0864388304941506,22.34492153534406,7.679011405645506,-9.497211855647919,-8.97515509115365,-1.5559984112089449
7.0,8.343025102735792,-26.01303306993656,-34.35605817267057,8.885543168549079,21.3199065269155,-30.194192059967826,-10.812128459350303,44.26261703605394,21.019719588277358,-7.934165870258398,-22.518513868474248,-16.273110051296836
8.0,10.62048033953293,-8.063858116367843,-18.684338455900395,-1.3063632483772691,14.706236718807798,-13.383091587593034,-10.27810579016744,28.12959071884603,19.013475278941282,11.177005831146564,-5.666647741577243,-4.966898443781865
9.0,11.467170734912514,19.826970476722348,8.35979974180756,-15.675705290578625,1.5321021401309989,14.159705369283936,-11.79796232422478,-0.6016199577974586,25.830320501051286,35.99811779186046,32.8700589374986,18.65539753155286
10.0,-4.055737735803431,29.31431328852335,33.370051024323935,-12.659705184837001,-18.653526205742516,31.32290233880427,-12.064993750555207,-22.692273336438884,17.427774163767758,31.452008838295836,38.96920629577765,31.27943274520545
11.0,-8.007624452604485,39.53214754114584,47.539771993748424,-15.71718574969296,-27.79231548587456,43.507574613808956,-3.396368773126592,-28.41783879486515,4.483101714752003,28.204525073151864,40.193301409513516,31.606138780272694
12.0,-9.586675671604866,18.50036072648171,28.08703639808624,-4.41638009995288,-18.856789754036882,23.255483400906208,15.663385700406188,-32.483452173596945,-41.61974656300207,-26.669533901332212,-5.066605834214861,-3.133873431162046
13.0,-13.659282673971944,-28.323132531695293,-14.663849857722067,20.94751383158594,0.4785428316540532,-21.461829514347436,21.03179751788371,-30.119916230433304,-75.86872347731388,-77.25766064990555,-51.56384074701989,-32.157926364262075
14.0,-6.396053064458812,-60.607469222789405,-54.21141615832834,33.45287207540243,23.878003231908146,-57.384309711067445,18.276670245514723,15.032397334630485,-25.965007587439104,-56.287639150583914,-67.24805551588636,-46.71428172772763
15.0,3.7290520385701598,-44.75593042257078,-48.48498246113904,20.539639243717588,26.14922720207506,-46.59890650834822,2.529485334983277,41.483649021935335,22.8405488115582,-2.268277018211485,-38.354004265497764,-38.34944084080817
16.0,9.780251291894398,4.815308342967917,-4.964942948925675,-7.272432872824632,7.408610641878099,-0.05425379887135051,-14.750314290464704,30.336483071089,44.97784721072326,39.92082097452521,20.975137214687045,7.7928566575457445
17.0,5.535487024499746,37.528463929631236,31.9929769051312,-21.504010319421514,-13.275740784289633,34.70322309092287,-18.1700659316255,4.597451360066401,35.70453802117722,53.16082106384445,56.39157599491483,43.69682146395219
18.0,12.049809224489033,41.19613161708146,29.146322392591173,-26.66804662243254,-8.518379490008158,35.11530256615663,-8.929531250794895,-6.756940171348667,17.418007900640873,38.109051199228716,53.26301453195711,48.15067368730905
19.0,4.238237115812418,8.87208311822748,4.633846002413449,-6.514122925957476,-0.16786672232587385,6.778067283621873,-7.7086136810782575,-24.863865322964298,-12.087896822859648,-1.739063640077248,11.332582321819494,12.484141964915981
20.0,-8.11036464500645,-15.411139813147194,-7.300775168141934,11.730011374097327,-0.4525858940592231,-11.32759236606217,1.6333486467944551,-13.66706837005442,-25.092128910251596,-32.825850765468815,-26.83568751841834,-22.604239023555603
21.0,-1.303293410807779,-7.966403013010728,-6.663109602203456,4.608708381287175,2.6331268763210547,-7.282084486743126,8.44201187089318,4.541412270276663,-8.55561177324227,-14.678026943334359,-21.252887115411987,-16.553419532430155
22.0,-2.922633084180977,3.2163643644166786,6.13899744859809,-0.0933195967918703,-4.4984307672818495,4.714913128579068,9.032979525012529,6.414468126314673,0.3748060872350045,-4.591507369570664,-12.902030184129668,-11.221856687536512
23.0,-8.859887431950636,-5.480762490140254,3.3791249418111535,7.142137184387432,-6.087488837847498,-1.0891465326411245,20.44353580094043,11.525268518993101,7.095520401180572,1.6852066931177667,-6.646922592947014,-10.37363709502901
24.0,-3.8255883946611977,-1.7747071461909503,2.050881248471083,2.765861890550049,-2.907433153490827,0.09988455473236968,3.534383904991306,5.075397796105329,3.775194162472408,-2.489932979898363,4.362482542236505,3.7597980034999985
25.0,3.027078072342337,-4.329249316755147,-7.356327389096772,0.6879136856908303,5.1415495455091245,-5.884670120297436,-12.813081542998376,-9.926361320397822,-8.040423462096886,0.3285275043708884,10.730678906233633,12.299195965837825
26.0,8.135990529082402,6.6883720480211455,-1.4476184810611308,-7.382690466662079,4.817111100291221,2.6505469054268946,-14.075155118761941,-9.407822465802854,-5.574863288413184,2.8881463009209654,1.6212879981523534,5.306854196796074
27.0,1.1098190411352524,3.235281308698998,2.125462267563444,-2.2273177320423114,-0.565366592668533,2.702845260216055,-4.892104996112922,-0.12337733717946264,10.149904557456392,5.56208159552938,-2.053324406415546,-3.6426442620851134
28.0,-7.309758273924543,-7.7473106731577674,-0.4375523992336594,7.549632464993671,-3.4189804619331876,-4.076363233376181,2.5350645285287374,3.118301025095741,5.177632041415557,3.623076548639383,-1.3920858636710265,-3.0160269953313654
29.0,2.428809721947163,-5.365074646257631,-7.7938843682050525,1.4888643696664658,5.125582854000175,-6.566999726128821,0.4578507049857885,1.2738994988296182,-10.03936649908524,-4.725433416128485,-0.09231714803668378,-1.66732404897252
30.0,7.5706381365975925,-3.1714709785195883,-10.742109115117197,-2.1775726276252354,9.169890275877062,-6.9448525068167095,0.1615047674411585,-1.9775344216913688,-12.241275169375653,-11.232005274469337,-6.651971080896458,-6.914053969687281
31.0,1.3899310305200558,3.5752592161764136,2.1853281856565587,-2.5376367702573996,-0.3825260686939619,2.8150903115354176,5.283740033263786,9.196551868536547,10.505298038570054,7.344567247671745,5.924035472489344,4.866174528609907
32.0,-1.8595202349120807,4.123286023541549,5.9828062584538015,-1.107067666145328,-3.902702023751212,5.068983672896666,1.3769079015534293,-0.1636141562669331,11.143442269587199,7.878083909359467,5.761162929785199,3.8641739976926273
33.0,-1.6962588077626877,10.188281173643855,11.88453998140655,-4.2997659464603295,-6.847109860391386,11.05438621000587,0.4672046576435509,-0.9412640648613813,5.774363515035324,1.4636851367624262,0.45110290099825523,7.873533709590391
34.0,-4.833229550203422,3.3141742417348254,8.147403791938167,0.7841648154264276,-6.465648637268108,5.750003807544814,1.8129394392883962,-2.8811901263253015,-5.487659942855712,-1.0504060822445398,1.0318246239398396,-0.9607748912920915
35.0,-7.631703411762686,-8.516083916128512,-0.8843805043659065,8.098339806285201,-3.4265512100210773,-4.758964648191459,2.0025659053260814,0.09705614108882887,-8.310848845362653,-7.990014177044449,-2.3581649126350013,-1.5092298653825447
36.0,0.8059871922580291,-4.861146319881094,-5.667133512139214,2.0524220668519604,3.2626526140120715,-5.242753441253674,-1.8431988409189695,-0.9005043986309575,-2.564656593683284,-1.3150888361924822,-8.465064453394533,-8.274991008601173
37.0,6.051589657099835,0.6307431678824074,-5.420846489217473,-3.315551788603147,5.762687349630043,-2.370507849147457,-5.11269207164274,-4.209524217526758,-3.210130976650925,0.3532256046111739,0.83310655711478,0.4284123250892806
38.0,6.039634459025948,0.9886336141706691,-5.051000844855246,-3.5667617421380737,5.573409320890195,-2.0796048628179946,-4.921486799473258,-6.5200320193388475,-0.7179848373509604,-1.4023879912578394,6.227190319976584,3.5734589235664145
39.0,5.772071894828064,3.736549064653331,-2.0355228301746155,-4.807131376844346,3.856580488292064,0.8891098399077153,4.330419881604788,11.399990632685613,7.296337713571903,3.747577922832365,1.1824914344370003,0.029097109236443208
40.0,-1.8425895591054107,3.0603254367172683,4.902914995822854,-0.5834927511511423,-3.336039276172163,4.029515304964831,7.437881443624141,11.179619590800325,11.901993829347312,8.55718569310107,1.932808085904468,2.404563896797555
41.0,-8.32547260716831,-4.761970894260578,3.563501712907956,6.569346466512767,-5.980100425157646,-0.6223166170016654,1.184400671446498,-7.353434204543359,-3.092061061820849,-0.6052054073742879,-1.6014848094445697,-2.422146441748593
42.0,-1.8256579490775744,-10.24277412068383,-8.417116171606043,6.0623543982421,3.2672272691665643,-9.349629990341654,-7.542663865410743,-7.152319801654083,-12.380654811057157,-12.166744801508205,-10.178558216520624,-7.48875361289874
43.0,0.21799573530681826,1.7444311520812033,1.5264354167743224,-1.0260218175135836,-0.5965889391766268,1.6127846701878275,-9.324860681441445,-7.631642115845828,-3.1349559336620647,-2.4177970834715232,-2.6634389938838683,-1.4500628178584405
44.0,0.05047399744053466,7.0896450355909,7.039171038150069,-3.526935377513367,-3.508129115324928,7.0322824250058185,2.524320547708278,1.97463885219799,2.39493963509161,6.231464800585608,4.607660811983915,6.175435657699561
45.0,-4.345578491496503,2.8352272392054396,7.180805730701463,0.7311845355906601,-5.770062406387971,5.040588245468984,12.285634902416962,11.373250039672477,8.332279103422554,6.512189385462168,10.345946690358033,7.1186585185482585
46.0,3.297331904036525,-0.3209918228407238,-3.618323726877618,-1.499754846581803,3.4568632939226953,-1.9522932075651247,3.8651649216815107,10.552385555666584,5.310813917556354,3.6147275909818233,3.9682339399928424,5.1866551140029875
47.0,8.526600131557055,2.1415479176581305,-6.38505221389909,-5.334504155341039,7.459001704636718,-2.117012598906796,-4.346109789471612,-3.7581248062960064,-4.944513373870709,-6.650175500259542,-4.9125148675583485,-5.674524528737769
48.0,8.569045447304552,-0.39453698921621655,-8.963582436520584,-4.079765163467066,8.771039148909693,-4.681506865058647,-0.38065679921342266,-14.707154048417257,-7.017231735549389,-7.17370340890401,-5.164086301284716,-5.180045921177373
49.0,-4.512011210227783,-2.3390630050314805,2.1729482051967155,3.4360456104300146,-3.339487017687598,-0.0860622765242578,-7.504620375995596,-2.7239701146394673,-3.3411105290934393,-2.7330788953357374,-2.8316004293830566,-6.956223907100711
50.0,-17.842560678748953,0.6981893248679105,18.540750003617386,8.579700881212336,-18.193994973952304,9.62186494876193,-0.6999574546032004,2.370808379494367,5.557820981046001,7.777732941996609,5.237168158327314,5.288209867461553
51.0,-3.552344382687287,-1.7429327609944345,1.8094116216932674,2.6458564290335165,-2.691866687492042,0.04481256852114823,4.319730077038745,2.004961325275878,2.608027438168377,3.7262812938595395,0.8390266848709315,2.552593388847579
52.0,3.464409877795845,-11.568111281569129,-15.03252115936486,4.03529502345746,9.226496210924916,-13.278717032262238,-1.154054493005403,0.3195415858561952,-1.180649483346433,0.5814066192889631,-5.450299975264578,-0.5216748449409403
53.0,8.555986052638449,-1.2643740904299854,-9.820360143068607,-3.6805039973514946,9.23319751893345,-5.591364238734956,2.6767229312820398,2.478873673379643,-1.0138034109453502,-4.532583112641412,-4.893613005606298,0.990562654006399
54.0,7.580513534398067,10.709291274853857,3.1287777404554324,-9.119177119930901,2.1813591167826507,6.87465536899224,1.4818970671329825,7.826594033149916,0.5011885967373972,-3.132516966513708,4.048647906043249,-0.977054794691326
55.0,1.3308111256785922,7.921695320034617,6.590884194355559,-4.615440241753632,-2.6041688820304514,7.291521534366365,-2.88418308810099,2.7153200061328513,4.037048919000832,-0.3031020868939822,4.467455286804916,-0.4795638388939427
56.0,-0.07321738161576041,7.822609248614114,7.895826630229664,-3.8723285285404834,-3.9639207802626504,7.892524638289238,-1.4072065245885383,-7.73660920407109,-0.917124706987211,1.3149841085283034,4.104047296499508,0.9831830901584305
57.0,-7.053861678819979,-4.927221843730473,2.126639835089626,5.992534897597389,-4.571995775906167,-1.3702036862263083,-0.449396001230826,-10.598032261695552,-7.796827506644452,4.140479130068427,2.017388014983779,3.7755589540497265
58.0,-7.241118776258382,-12.089135252695007,-4.848016476436214,9.674479022829505,-1.2573048876462019,-8.52036651590257,3.613132701252656,1.8828994148678442,2.706539459244377,5.547536458697037,1.740274591907317,-0.2015373738735894
59.0,-3.2984215769924483,-9.046513184393628,-5.7480916074008634,6.194717661617504,1.2437098653496819,-7.372351859549938,-0.47038071098244094,1.0616905463932205,1.2798465131342445,-4.424879895492767,-10.828999131647576,-11.497663415164388
60.0,4.033051180558857,6.543827654199698,2.510776473640883,-5.32991770074817,0.781499749367417,4.473353123329396,3.128253577320753,10.545885061469916,4.8334920331033295,0.1123561273859024,-1.5719511528747052,6.768146693496173
61.0,6.841227999246044,8.285219007816945,1.443991008570734,-7.591243626786893,2.6424839149286905,4.89166717797686,1.6644640027244275,1.820123142271588,1.3973359036382123,-1.5286399826872126,1.0922183830466865,5.987838380916847
62.0,-0.9193337681523257,2.4482180492265186,3.3675518173787338,-0.7048366205533698,-2.1171087980276186,2.9398927692662893,-7.462303776769286,-5.8379265852868265,-5.894645286561071,-5.654255414014317,0.6718522777028089,-0.3060205730319403
63.0,0.8801984812109067,-2.2006555538361305,-3.0808540350469737,0.6436731842568593,2.0128092423593413,-2.680105202798159,-6.371590804099345,-6.817720549608597,-4.894883031138551,-3.437190683998937,-1.161164007113066,-8.23345155856315
64.0,4.19945110781582,-4.079311190506438,-8.27876229832209,-0.08044954011212158,6.201053195278662,-6.130716779485957,5.1812053194558505,2.315945799067997,1.9485958015213347,3.441932630472142,1.2195529248393537,-5.456444932744182
65.0,-5.147718368745715,-5.373527480001103,-0.22580911125517966,5.231347164788822,-2.4100934812602564,-2.8211586547104983,-1.3640284405207517,0.26074263777037576,1.624782407688311,4.000935421021492,4.862149392895064,10.17767510588239
66.0,-4.254351977119109,0.8061819892553912,5.060533966374515,1.761944411478412,-4.675080236168336,2.919082988285819,3.153623932895287,3.4060309387431795,5.232689770864067,3.9677737419348342,1.6403365072426457,3.575696807372302
67.0,0.07418041957659227,0.685490072376572,0.6113096527998025,-0.3536565780412182,-0.2780186525060908,0.6381125927512219,3.594146091950215,-3.1131522842601678,-5.8765926692767385,-3.4539777473063986,-5.495355587844967,-9.722114495444888
68.0,8.453467796466263,15.58385679584363,7.130388999376943,-12.00199351213126,0.6563121003723,11.346703527789144,2.857389169979059,10.116143377097938,5.796105027166073,6.2312878725586165,4.079215150138973,7.811323501042067
69.0,-3.4410121529580016,-3.2310797507611886,0.20993240219631604,3.2680172863352412,-1.8313057868007372,-1.4466394339224253,-0.9723695456600148,2.166486004190147,1.276031412681047,-2.506746894207134,-3.0887748966126516,-4.086876821531327
70.0,-1.8187279510540748,-1.0888961157554706,0.7298318352982339,1.462621137918199,-1.2850111258954318,-0.20244613065612801,-0.7571897582595912,-7.4992907947871625,0.3364750548715171,-1.904559417590952,0.8707702658898295,3.0063663367148203
71.0,-2.1642909912211956,-8.73418924487876,-6.569898253657567,5.45982181123264,2.1847172273575284,-7.68555204169044,-3.316270088114993,-9.35979862880908,-7.972225411374714,-6.706590397502452,-0.27102257335425384,2.7713767236340416
72.0,-2.9514626891241567,-9.65801914314141,-6.706556454016833,6.3196877140953625,1.9308906120703007,-8.148328105197383,0.20105569123695632,-4.128342248600546,-4.544675027677569,-3.9400495646606286,-2.5217864209926004,-3.6815569557578414
73.0,1.9841702094597256,1.5678143032222929,-0.41635590623687646,-1.7558034323520575,1.1698233763173276,0.5212260752410609,-5.906579396191019,5.616945480229781,4.086546661950013,3.4644273749709638,-4.825881331800431,-4.210565425917006
74.0,5.349984187128327,10.540408630535165,5.190424443407489,-7.920860694772649,0.12655685415481444,7.883791328851268,-0.6848110361848654,10.240973561740239,4.601645621662246,8.2020847146918,6.296341631107662,0.6952115050984955
75.0,2.0102982934392073,10.685181142185122,8.674882848746382,-6.400633128399692,-3.3624926908805306,9.697954077870268,4.560908815332508,4.634745862331498,3.8603557473606296,5.502677627770842,4.186082800683676,4.114933732426103
76.0,-1.7810004495686997,-4.346894608759726,-2.5658941591909814,3.0096358501103078,0.3658880240511526,-3.4333448614627162,0.36193846701704446,-3.601893037794945,-1.4544144728835309,-3.9980534536668784,1.0142790347416244,-3.388055057979887
77.0,1.1257310152684818,-7.028590360246402,-8.154321375515211,2.972768187111851,4.695624679165422,-7.559290152773289,1.3064826873200377,-8.198958975543212,-3.7803166957896126,-7.958967670093606,-4.212109649670438,-2.5044568845116175
78.0,0.983845897302281,-0.7389052323880478,-1.7227511296908542,-0.10354028770014079,1.3313038583508385,-1.267281461990426,1.8319958850971363,-3.657261943698277,-3.0858747189480917,-3.0319752034472147,0.730946246586309,5.8932878328859974
79.0,-5.336907751614262,0.7339483205813182,6.070856072195115,2.3210186091847946,-5.7281953950080355,3.3737689300722553,0.9607678921164216,0.9814131842570628,0.25044508137297994,4.60906432666624,-1.7292831389268055,3.501824904804118
80.0,-7.581226770750206,-4.303052254539059,3.278174516210975,5.966313531143095,-5.4597951566351695,-0.5379963137377313,0.7263532981193807,3.56959232628223,0.08828529485005043,2.6299258305563615,-0.8592731928445061,-2.916425689869225
81.0,0.12091120055353866,1.2046822632594534,1.0837710627060182,-0.6309268435833864,-0.44075441232476753,1.195079572208717,-1.086496427168275,4.709330230891905,2.923578736682418,2.64043364629438,-2.883674985391879,-1.9625413994580425
82.0,10.933607812159156,2.757256427498743,-8.17635138466014,-6.884141256793674,9.587533402497122,-2.743968938287062,0.1603852086428803,5.04026685064048,6.610374097438124,1.656666528817474,3.3804640207133088,-1.4414533240038008
83.0,-2.3262969090017536,3.8098674214333696,6.136164330435343,-0.7748403866594149,-4.2835488878506585,5.0092210120743115,-3.7931644839787264,0.7355451681073195,2.310585269767257,-1.0835930894257597,6.817219123091732,-1.169700693549514
84.0,2.192236040246608,1.9181601497631617,-0.2740758904835069,-2.087070956999186,1.2570484815107312,0.7727727800319661,-4.629462526405063,-5.926224543237932,-3.922035187067753,-2.527931403374471,-0.49681365968896385,1.8836085509470553
85.0,2.320907053016828,1.5124506182078816,-0.8084564348090121,-1.8730882822456811,1.590272926453175,0.3785422971149143,-3.7132947413406043,-15.956562701951631,-11.077018390414946,-7.307284270959865,-5.0223479564052536,2.4083763934274276
86.0,3.104742526818815,-2.2135227861310294,-5.318265312949837,-0.48660906003844706,4.163942693028312,-3.7375352556034236,8.736921909166817,-0.4720036159160461,-4.901024712835799,-1.7055351427428598,-6.8696433411333,-3.2199110736108842
87.0,-8.533741731095217,-14.023139032094171,-5.48939730099889,11.310701201410016,-1.48264252505947,-9.722171470534125,3.018640616525346,10.381911472586493,4.4637234079741575,1.0011627152117826,0.1667083013553663,-0.16242936955727716
88.0,-4.331596318294709,-2.337576483554721,1.9940198347402245,3.364285908281154,-3.192598881266894,-0.20905942073758244,2.9510126475755087,10.31501387673557,6.216576555788988,4.810713068880346,2.956712140885551,3.383874299123261
89.0,0.9351199785138049,7.447947137906812,6.512827159393253,-4.160281651785965,-2.8099440811168677,6.949295902778136,-1.0337138785284252,2.4111913864152115,4.7942484861654115,3.3685316822703752,2.518255083525975,-2.618612081314107
90.0,0.23700400173249728,11.81670157843634,11.579697576703994,-6.069247060625909,-5.607421794427178,11.669910844620656,0.5904201417930641,-1.0336969459220602,3.195712476884988,8.16687714529324,8.75705903716157,-1.4320848928831955
91.0,4.773267528966005,6.853522776327532,2.080255247361438,-5.848985469057438,1.3341525140367219,4.515938564866891,-7.341589972714443,-11.690608419735135,-3.608575714401632,-1.4980851115278884,-0.7463661662535732,1.9259461284625319
92.0,3.1823674409896836,-7.912175717905155,-11.094543158895132,2.4143727767307332,7.124038798663364,-9.538073435879749,-5.907298149585316,-5.308324366618257,-5.777138515031354,-10.056519535690516,-3.799626417807729,4.4833404186003145
93.0,-3.488988014502133,-12.090970533550832,-8.601982519048963,7.764897444615299,2.535665782686575,-10.309545834687299,6.521802632848836,4.611476903801191,2.379919882928046,-1.7700182667308528,-2.817852474113183,1.1300053423092318
94.0,-1.2498083612947464,-4.407905393425469,-3.1580970321309767,2.805352229637948,0.9237974473871211,-3.7536080503384124,4.208515364240739,6.11376254506561,-2.584729354828504,1.618372031245245,-6.729982879982903,-5.8097768273538
95.0,0.8994670934313445,7.512696544983905,6.61322945155244,-4.2300775505881925,-2.819009130553515,7.006888754773063,0.43892204236938426,-0.05827531674204689,-1.2873389010117304,-1.0941389516109339,3.7415208860185434,0.8148120628073721
96.0,1.2237253672015496,5.568356396158263,4.344631028956779,-3.3427625207305933,-1.5318339197454924,4.973939373356146,-2.3383679514742077,-1.322900261185957,2.383247270849267,3.372900966750917,0.8725565392657947,-4.238350074237267
97.0,-2.1200255932041028,-0.4979941367485252,1.6220314564559266,1.360675174608069,-1.84858789250509,0.5759447040700021,0.1902704268298484,1.02300846335174,2.4846019891378286,2.125443555971388,1.050712069135415,-3.230679886082629
98.0,-2.5545457778406906,-0.4473940918631487,2.107151685977896,1.4722113911059374,-2.389355328164313,0.8420525186098158,-3.4541948259642554,-3.62749499148711,-3.7175953419749326,-3.347658786731075,-1.5540220195876753,3.9557597725347087
99.0,2.3262064446410267,1.322606486100808,-1.0035999585400226,-1.855546921711617,1.6870037479827036,0.09307347937285931,1.1852076954478221,-0.990940601552742,0.847773367996308,-2.30638556967088,0.8744365060358403,2.1200244277843887
100.0,0.044581302546201684,1.1482466904757072,1.1036653879294418,-0.63145035697571,-0.5807415041381263,1.140587860849633,1.8741154375699949,2.7605605589109583,4.323041351650408,1.3674494412012295,3.8053433470650924,8.868004517508354
101.0,2.306978905669047,-7.05021388288885,-9.357192788558187,2.409601110829258,5.867892590587563,-8.184410835117802,-0.6551152540167937,-0.7366820431691392,-1.331371987787734,2.7888660643774235,2.886963714031678,-3.0075256757273285
102.0,6.625635154921908,0.9910147154672218,-5.634620439454806,-3.77742430502325,6.1758804852826445,-2.295811949307297,2.082938232471929,4.0958816907485405,2.709560532107412,2.782145643704161,-0.6577954031417251,-0.7569265376926877
103.0,0.0594252279570735,3.7418499163362227,3.6824246883790845,-1.9557337686273315,-1.8343603632823133,3.7457654644239815,0.9966890190921658,2.450599838707716,-1.072661110648559,-0.16011426674075557,-3.9820601393580723,-4.42121314040037
104.0,-13.847005742641722,-8.329582012853836,5.517423729787816,11.106096714441053,-9.69647831530829,-1.444343059691656,3.3623026162261795,-8.93246215827844,-8.458532961818674,-3.363686491058072,-4.788739003249649,-3.4330197391373143
105.0,-4.851570063476848,2.2508305314374795,7.102400594914224,1.315231682102783,-5.985746499860381,4.642753592414605,-6.431496336165739,-2.663298050592868,-2.7119615636388614,-4.76005215989247,-4.021132457021417,-3.048959707377176
106.0,2.3976530015433077,7.007876922423128,4.610223920879722,-4.686866285534373,-1.1135700046206543,5.7762748536854716,-5.8232016718572766,3.0721372835516467,3.962133055213922,0.9749808651986487,4.5628232905702415,4.695372858510728
107.0,8.3460188908888,2.8289391174393015,-5.51707977344962,-5.645000681669815,6.92162738417303,-1.2999905596850088,-3.035260360752048,2.2496806469422994,6.185060282770432,3.8605231669444353,8.31790742528216,8.170415717396136
108.0,6.888536922606562,-1.2469366115335854,-8.135473534140209,-2.79053478115091,7.574737624727348,-4.650719278829965,8.663801235208217,4.3619812996129514,4.120784729352348,3.9349987072447643,3.3000053999717,-1.1201517716925489
109.0,-4.667923943235989,-9.746268829723682,-5.078344886487475,7.248649250653189,0.18076456372556837,-7.454275916928728,5.879732667303445,-0.32379250078042254,-1.840942283408872,-3.915921508848233,-8.028045882229069,-6.740051978785239
110.0,1.519539198811589,-1.0426217449166604,-2.5621609437277737,-0.2642157761616586,2.0070019345274233,-1.7681285314091828,-1.7889378491919126,-3.6177560611869257,-5.255037640848757,-1.1698153191978997,-3.5761721570357614,-3.7554233696583954
111.0,-2.4170314902673997,5.7567408234795785,8.173772313747495,-1.6863021311673099,-5.259408520917486,6.920159489593179,-2.406423701561531,-2.9791654919306434,-3.7553684131764586,-0.643847069777616,-1.6039599896286432,2.1673299213338493
112.0,-1.4249481718924701,8.50834181989075,9.933289991783528,-3.5528464163949467,-5.728832872356398,9.255915670821517,-2.453872055687894,3.6129626618352657,3.5948734677382803,1.0631422480044996,4.33013899482993,4.144697568512198
113.0,-3.1349974912846754,-0.8738448937818983,2.2611525975026847,1.99356301836854,-2.6728430389620987,0.6532056199403504,5.756406349994812,2.1478577768561324,4.107202424544686,1.3374084180010934,1.5320251601247605,3.2918297816267437
114.0,1.3837061787802178,-3.489832606269005,-4.873538785049655,1.1163206123730576,3.1537958770887693,-4.13906410941475,-2.6715511403874883,-4.922927305692891,-4.720568960420541,-2.509910177005637,2.985653416372587,2.8641256998361726
115.0,3.0683897133657316,-4.094132645924935,-7.16252235929138,0.4888847813306768,5.144034887236959,-5.659902042906431,-5.51375282617771,-0.24551910718418357,1.004002201823639,2.612243819948177,-1.1955482884634987,-2.709114334391224
116.0,-3.4008600961655713,-8.843989960748004,-5.443129864583026,6.087924542939005,0.9767259452568267,-7.092594451940332,-3.0947054518166635,-2.1385959743634873,-4.070942632050502,-4.715006152313168,-5.153016860751937,-12.415076561062197
117.0,0.8072309394107031,0.7438523413999674,-0.06337859801090318,-0.7414661975384118,0.39748126810552953,0.3146107991674647,6.610369975280541,6.555179199901762,2.424118323422678,0.1875470862128794,-0.9038135744986722,-0.7289654323667341
118.0,0.13933016757949435,8.268271662475831,8.128941494896592,-4.25580461487449,-3.94790742201431,8.173096196022545,5.6965347633181755,6.76997636226407,9.572694645092012,9.34733177428397,7.425602609642214,10.303781636842682
119.0,0.14365891422488097,0.41309592701301767,0.2694370127886012,-0.25404517950663763,-0.09037413396119054,0.31410437280549974,-3.7720937776693795,-6.5319735152328295,-4.478223488420442,0.31343956950726914,-0.71960993334354,4.895906200783269
120.0,4.069143770784585,4.102955033806592,0.033811263022469173,-4.058281185411555,2.071226477666919,2.1174224420898082,-1.42145718203324,-4.762800614867389,-1.5920328786251772,-1.9567303796632758,-3.6517613724898754,-1.183753904460597
121.0,1.167916287084187,4.544738927546638,3.3768226404625468,-2.8199948273667035,-1.1294161887927476,3.928619338490755,-1.2175040470724843,-0.7528242235351925,-1.9762508400504444,-3.7870181709516273,-0.2154966503940654,-2.6672907065341778
122.0,-2.8876552133336144,-4.241696298743141,-1.3540410854097615,3.533582975107933,-0.7931861793388723,-2.7531283010530587,-3.935977872432968,-1.6342614117960597,-2.652492671228165,-4.767122562470089,-3.300332104899903,-4.724856251517053
123.0,-5.47056603858824,-9.040845623533786,-3.570279584945882,7.23535502512782,-0.9787952619440258,-6.262397968129538,0.570853543120661,-1.2092063049998565,-2.942783015062999,-3.000822279525528,0.7546009428606302,-3.525953742801823
124.0,0.6229585956048815,1.3633343825067437,0.7403757869017951,-1.0065635884095965,-0.010805190967223866,1.014039261006162,5.089488182818016,7.746950545050829,3.482971950648685,0.5622314294496438,2.9034078040057585,0.3596643786574121
125.0,0.567922909479961,2.833690631489882,2.265767722010051,-1.713193315434251,-0.8024155094590704,2.5082809200133287,8.90530526481507,5.894993853926167,5.762057745250931,6.272084575728224,3.203243859425707,3.09468698798451
126.0,4.869329182962134,0.0790683606190683,-4.79026082234298,-2.413129304115473,4.797163859759306,-2.4018020764797168,-6.7711897031408235,-4.254621516690707,-2.76113771492761,0.45310833114271354,-4.299848605928448,4.305999487235695
127.0,0.9380093118254063,0.5116949805281226,-0.42631433129718577,-0.7529088853452477,0.6498645474557803,0.07092247943119406,-2.154036950315167,-0.3381999363013104,4.495384348953305,2.6422102229700952,2.8309285860685476,4.55124424172062
128.0,-1.1143912271247214,1.1256418456675106,2.240033072792152,-0.04664355805421294,-1.708964818390358,1.7094379745529362,-5.018243536439226,-2.8015614062490313,-0.04776903895447426,6.0431434420594385,2.3347591002651242,2.7526891454932434
129.0,-2.779890579472331,-1.3255586408298103,1.4543319386422875,2.0780142244745674,-2.0698516287365503,0.09370573199434395,0.3449890814234915,-3.485766572476722,-4.764511513635086,-2.576404863967601,-2.2785114875334136,-8.253710133162253
130.0,3.095341822779003,-1.088216373918615,-4.183558196697745,-0.9872698005871738,3.686245841291361,-2.5994711754539797,3.4304931035622785,0.8384519924127187,-2.7411135782542337,-5.462880613719109,-3.037071281708706,-4.949719358672276
131.0,-2.2288852996942086,-0.6179326483302421,1.6109526513641392,1.4361281284410645,-1.9535038447967934,0.46379835141533654,0.5625421483534974,-1.0827849976858417,-2.3299294170079508,-5.18065521008228,-1.7253382746872363,-1.2654509310678637
132.0,-2.1877657260138728,2.931727655939422,5.119493381953715,-0.35687522468962785,-3.69033075912305,4.002076640697018,1.5707683525707077,3.2173423725247647,4.259355800179094,0.9160363714478175,4.049856299101693,1.2965856543321999
133.0,0.0018331974641585536,2.255275055763315,2.2534418582995883,-1.1847664850048043,-1.0882549730792703,2.23680887005349,-0.5523699460576579,1.5828964048662975,0.6028485814647475,2.29036377241558,-3.3847646119511063,0.6893878775030704
134.0,0.8471981959133594,-5.1332719004699,-5.980470096383139,2.176107316484056,3.3675094627575084,-5.572988495771744,-0.7415584593309166,-1.8201391609173978,1.245491840802581,-0.6583884469513235,-0.5424606772227938,0.918519207642225
135.0,2.3313759953999122,3.6174069804742786,1.286030985074155,-3.008801624170453,0.5506941927806939,2.432917865799597,1.7292910926858032,3.7688810909563197,3.2491055854824307,4.708977950357751,7.235954145047204,11.692585462297394
136.0,-1.2546192456927068,-2.6187803753511445,-1.3641611296590668,1.9908147230929945,0.0806435389773561,-1.9365833771053886,-6.215575015173272,-1.196835293597639,-3.6248617305069173,-2.585007962117542,0.08353038025592285,-2.237836224595939
137.0,4.962679087950072,3.5747472586434386,-1.38793182930728,-4.286751826124592,3.123706300870676,1.1428751438616074,-0.7564428350276593,-3.2329953922102077,-4.002475247120498,-3.775701816814912,1.2795428545366054,-3.3868644853097014
138.0,-3.2841891633560136,-2.9952995211182767,0.2888896422372722,3.124282223088212,-1.7543408833901113,-1.3868703638041135,-0.27621777557718796,-3.163465035664967,0.43779218375242435,1.3483074487914775,-10.552077885459573,-10.683909514476296
139.0,-3.713526862403579,-4.529287275709512,-0.8157604133057842,4.1046576639407775,-1.4085592863494787,-2.7090666265827297,12.263302361819678,4.43531369374471,3.887317471120905,3.58844446204989,0.23612812546109785,-1.3374928570549347
140.0,0.07549110084057231,0.3293057902418708,0.25381468940169627,-0.2232517509384968,-0.11794283411121809,0.33225834506819996,7.784699974548808,6.4266605603333,2.8547007209557025,2.820498146040941,2.867231660967387,7.186150902962709
141.0,-3.2931817064714535,0.9428804803710363,4.2360621868430695,1.2276337668656505,-3.7841416613646337,2.551101404362616,-4.147859865361262,0.6497340193780872,-3.210378816796761,-1.4770901809448092,1.509100160774196,5.1551766869923075
142.0,4.3039961302882235,7.453415410203146,3.1494192799154366,-5.831567156914178,0.5650640252074994,5.264066776947052,-14.884372548095575,-9.968143107329034,-1.188330303250297,-2.43223669990596,1.7591934272265868,0.38457485082784615
143.0,8.529428059322223,5.954281352343523,-2.5751467069779723,-7.277881210363072,5.544589746720689,1.733717439587458,-14.53381169473435,-6.466251904782727,-1.5793916339756018,-1.381619628055776,1.7022401770316495,-2.323410223307075
144.0,0.5280454088808413,-3.8510087505472077,-4.379054159427535,1.6223494056006098,2.4475793201367315,-4.066201543159114,5.874670706380131,2.353229545961508,0.27104976467259645,2.2221514610408533,-0.276362156840364,-4.817431101868734
145.0,-8.185999549006029,-11.816263107999069,-3.630263558993167,9.96040274417199,-2.2058425339795535,-7.747047465730784,9.061114377388844,7.029361926731987,3.5421974010450983,-1.0182539702479112,-1.3798573194960357,1.7555470019460802
146.0,-1.0045713647248706,-1.100727864372459,-0.09615649964820583,1.090741793259216,-0.4639802379687865,-0.6159067935009448,5.1467263851002505,3.666611295939555,-0.9162532332273591,-3.430951221391431,-4.414236210427163,-0.6774161529400219
147.0,-3.7936783639734486,4.391969734370727,8.185648098343357,-0.2594557160176405,-6.004860588369079,6.276103878356782,4.9649754993480055,2.2302823396000395,0.26806461574083723,1.1533405938465249,-1.5005980617177253,-2.4956152742630104
148.0,-1.9941230973897928,3.6402542173971377,5.634377314786155,-0.7810823044346958,-3.837271466446519,4.626165726451618,7.483966767494745,-2.826317170305207,-1.109719630713045,4.439928577530135,2.95193823520721,5.507373762630162
149.0,6.058576279062838,-0.03231375604139375,-6.090890035104701,-3.048452459693158,6.042046403050998,-2.996678811275426,1.0078212218881009,-2.23537313435287,-0.32360606655174645,-1.2906643073637523,6.396241821587924,1.8113905267565553
150.0,2.8100376149352546,-2.2431061586124734,-5.0531437735481965,-0.31984301321059716,3.9675561253455633,-3.668922465656786,-9.745006263988728,-3.058003577617869,-1.593880759439396,-2.1588911727614173,-4.645007284128212,-0.17469753707165692
151.0,1.7078434993092593,1.4115422232187183,-0.29630127609070245,-1.6004754506103045,1.0295344767985628,0.5266581434266577,-13.244804206432494,4.92455821663111,3.806288451821257,1.66218927182062,2.7538261879232033,0.6961832842074195
152.0,4.915117516632087,2.578679949653487,-2.336437566978381,-3.716118982443293,3.569583926398166,0.07904241136986978,-11.249219388054591,-4.9698264315818825,-1.6827185987347753,0.8030638303501296,-2.426940131198624,-4.98617810329675
153.0,-4.176336776926943,0.20414820287414964,4.380484979802092,2.0087656373199696,-4.255928510047132,2.3198800872878405,8.485598029230488,-3.5076170474826394,-1.6102622488945595,-2.513973038776212,-0.24243606048740496,1.2309942409529415
154.0,-8.308564660153795,-1.4047369743552558,6.903827685800144,4.872706828405207,-7.579048436464045,2.7727760446252043,11.364372635990835,1.3094995112670607,0.5920287782456569,1.7618958067659973,-2.7056361702583622,-3.381046534053145
155.0,-1.8225895329891473,-1.8952579736326358,-0.0726684406419631,1.8719363374060691,-0.8399722870373973,-0.9588243680222515,7.31110279993308,2.985204783160167,0.6432890175898928,1.3007633692368417,-0.36860237941517904,-3.512007039235262
156.0,3.4785877212205607,-3.5042291679649926,-6.982816889185303,-0.051243775118867685,5.195336248435941,-5.21078811739826,1.0034520002201726,6.100429027884811,2.2191928248413313,-0.7677679734330233,0.4611371225785662,3.835786018351661
157.0,3.8241946490476586,-0.4843789024377064,-4.308573551486322,-1.6488274343771865,4.037217524996192,-2.431633957581558,-5.079653380485846,2.2367270196250657,-0.364262106738899,-1.0900147156242517,2.0279099075659595,6.9712737018931525
158.0,-1.388715155784365,-1.5605181190222823,-0.17180296323958277,1.5057273535573599,-0.6354398338012155,-0.890477482365135,-3.72069700899726,-2.78671605775176,-0.5321461222641685,-1.2565926269624803,3.982705648305857,4.8829378562521075
159.0,-0.6470488378420263,8.790492047679214,9.437540885519757,-4.1077048873904864,-4.992572807546093,9.097796794013371,-3.564488461412877,-5.645601818218337,-1.1192607942186414,-2.13622120172342,-0.634950292199054,-4.925229692851185
160.0,-1.9906346252338558,0.8349384891952258,2.8255731144277867,0.6312873033825066,-2.4420226742550533,1.8182827899099534,1.510189102567165,-4.227209593120366,-2.0189452908225487,1.4303724838797383,-1.7770739622647618,-4.439552173239209
161.0,2.940541510392207,-2.437109662777896,-5.377651173170674,-0.2699820599351942,4.198520205075576,-3.9182188276021637,4.366361545659734,1.8814414726880186,0.16728703745246665,3.6949230636164443,-0.8287380826339017,-1.5728887250151473
162.0,7.52350489358524,-1.408233486984103,-8.931738380568886,-3.0743967236593845,8.184726082972947,-5.102123938147724,-3.506097747998165,5.919858231627138,2.1941942884141605,2.411024655018802,-3.110846057991886,-1.8112484504495951
163.0,-3.970559741398805,1.9939732448613054,5.964532986261552,0.9670493726832752,-4.931893086343509,3.9691228101536113,-0.6538332564270921,1.456730251414978,0.4173933385518813,-2.4606700664904975,-0.012798059132720585,1.7608774028294345
164.0,-4.895769639890406,3.0446729606429157,7.940442600535659,0.8951746245091339,-6.37907763749323,5.485048044443588,2.2297863326594904,-1.3287764451649107,0.4846572816444469,-0.21672255563612164,2.6690287047867676,1.7643921760935182
165.0,-3.2310303444156325,-8.431952264217715,-5.200921919800127,5.868871608951983,0.9510769772814136,-6.819788116629361,-0.45055906361520615,-9.130961549913815,-4.466593827134871,-6.190421075906236,-1.137194930497014,-3.327284053997463
166.0,-0.01823761663650858,-4.2923748512955315,-4.274137234658151,2.1830795697509604,2.1005211341679595,-4.282429575197975,-0.6218863842547752,3.0661342774694296,3.311269443136973,3.0544768084670206,4.364127007398486,4.951916552856025
167.0,5.485766957015352,6.859308993163473,1.3735420361477626,-6.1504075818166575,2.0337887813292976,4.119355230811998,0.5362668092445737,2.6001664467337497,0.15562279012846192,1.7171896791205037,-1.7981544524600936,3.9652811210123655
168.0,-1.2479578493366077,2.476590242825928,3.724548092161093,-0.6715259307379853,-2.4273951954156194,3.101652085347373,1.038342930157281,8.835840051811308,3.3673184909721092,5.006341275178104,-1.1306462644851718,-1.55324342997589
169.0,2.8108100390109265,0.4803024743343136,-2.3305075646785833,-1.6201086407020788,2.5500091829667837,-0.9307454255755281,-0.03995162557705635,3.7007299823404645,2.2684389823390214,-1.2708285809885287,1.997665823533067,0.4259670381601208
170.0,-2.7763434949825694,-0.3478938092845023,2.4284496856960835,1.5942048070426262,-2.6267767766702756,1.0235127761195475,1.394275819671396,-13.398421016894428,-8.640167450526677,-6.207095067771265,-4.782248383900101,-3.6672098621633937
171.0,-1.9348844656650157,2.7732573294739877,4.708141795137539,-0.45869099620072057,-3.273136735299301,3.710327167410921,-3.920367873071678,-7.90499754607732,-6.279644479465731,-4.817612861302483,-2.2703780526426045,-7.758422551174769
172.0,5.172539424878883,-7.2775895387092575,-12.450128963588554,1.0188572102765667,8.773668297045585,-9.828749895340536,3.059057556623502,7.845421419288749,7.501823800416267,2.23810997312117,4.225589456368146,3.29398313584229
173.0,-2.2275848687362063,-0.7011499958312588,1.5264348729059125,1.5130633691096225,-1.8434915463744055,0.43763622387974044,-1.2734902964170605,4.618272991401404,7.638292985742031,9.033327914814507,6.1088887285056614,5.04926201560794
174.0,-0.2700171579841133,2.353754437993084,2.6237715959788828,-1.0703644498685283,-1.4990244495135947,2.508636947650056,-3.1029449816868926,-1.3955993906116468,-1.1344988413088553,-0.14595048229062568,-3.3553522517166843,2.2328903905832713
175.0,-3.4166083263220437,-1.831126498030225,1.5854818282934757,2.595750502674184,-2.4799422006648166,-0.18152481944452492,2.0601190572733947,-1.5975585450075214,-6.36207293118033,1.1305093332548077,-3.539258101759246,-0.9806661078310133
176.0,-0.5034793313349171,-0.8549684164008307,-0.3514890850648451,0.7299855162918805,-0.05870844975696232,-0.5789450530878909,3.5560422621790226,1.3112784288895563,-1.2434654477502227,-1.0158224964389202,-1.3997344736956399,-1.0391482320119567
177.0,4.5883133376692875,5.122942951528265,0.5346296138595007,-4.804620081833252,2.0418160450356075,2.8591225949617955,1.871290687745694,3.2038031855713824,0.9079579627001335,-3.2631752350582177,2.8789264137347317,-0.22807847667838776
178.0,0.8944427564073401,2.7886098659095624,1.894167109502396,-1.869295333181073,-0.48633415195752505,2.298359744857859,-5.381296373348427,-7.165264518507676,-1.0533553103865505,-6.31094163860734,-1.6026708951209065,-5.562611782472806
179.0,-2.933920791791107,-0.9475747974626292,1.986345994327721,1.9119280561181982,-2.526668239890172,0.5579289452433502,-3.9332020628999915,-0.6121027627931777,3.3700628528978283,-0.5863556755930839,0.6782975537723027,-0.13586831302658986
180.0,0.21154814012520018,3.6973325928339715,3.4857844527076987,-1.9856746664057574,-1.6264597425062244,3.550970724844132,-0.686732337364341,1.8803508970290772,1.443895780563904,2.073629738880107,4.540564315824424,7.846304792292926
181.0,0.7538778541314922,-2.187591792478367,-2.9414696466109502,0.6824707688430403,1.856756959606761,-2.6078343913323923,6.293900476339334,4.712221045731552,3.3159663734921057,7.168802453325298,-4.407932271427752,-1.6169546023659724
182.0,0.7815476833196734,-7.6478021545846575,-8.42934983790477,3.4750399208413425,4.613615502530298,-8.006164874106078,7.522939095137037,1.5610787667729369,-1.8952598392489497,2.993402647020569,4.452125711759399,2.169324973861114
183.0,-0.8982559646935708,-11.824800756671634,-10.92654479197748,6.4030828956077634,5.022739351152568,-11.344397533734863,-5.059207973943792,-3.0254586318129686,-7.743586677092432,-3.9276260685446136,-2.156588759602762,-0.3236520915646196
184.0,-4.165159019998961,4.247679097886244,8.412838117886071,0.002383341915963122,-6.278361777549428,6.363582970928534,-5.47449555615532,-4.097971823956259,-3.4418443118758164,-4.328531963581495,-4.608766165088035,-4.240113147646398
185.0,5.838142623941997,12.235795847245457,6.397653223303896,-9.06862087601652,-0.2657454485866775,9.27614742418305,-4.355511457289266,5.55445415686181,5.84822433201138,-0.8167888616020234,-2.6103153388827938,-2.5664871392410333
186.0,1.7391712116606541,8.165266934060842,6.426095722399548,-4.981026942364309,-2.4041117208385208,7.339524459437711,8.45329222101928,0.5614564831758717,7.947877088993501,5.581490790737201,9.204867877334635,7.673195222798169
187.0,1.4179549948847598,2.2448970711140275,0.8269420762281952,-1.8597219153679494,0.3178787380342567,1.5048094901227618,0.9188420911933735,-5.92011985122133,1.860120507105972,0.9912118470907827,-2.5912273479643786,-6.21311741947637
188.0,-7.185435563273779,-10.795486867014308,-3.610051303741715,8.959905430815292,-1.7610007130139624,-7.234128000388747,-3.2320553301701165,-5.990381387466679,-11.239038567707068,-7.877099993170629,-6.70969954924462,-5.70706606480143
189.0,-3.770813743954507,-6.984609663961191,-3.213795920006526,5.421977703747568,-0.32586973916782813,-5.135504111836795,-1.8689308354954124,3.688681054759053,-2.3024784521400443,0.16467399616415213,2.4796850260244394,1.7534387492801748
190.0,3.245044376923256,-0.3030292079225889,-3.5480735848446825,-1.4302926452384814,3.4336145105590563,-1.8915984174015694,0.807969386827756,7.860280125537949,4.040419482267707,5.209434240623122,6.581361667248072,10.309445496584056
191.0,5.183225438074432,5.013612607404676,-0.16961283066863642,-5.1376808821643785,2.6418433828019334,2.4462387328203388,4.663727472393646,3.1980698980349564,3.822104372923803,6.443546445771871,7.710821071401314,7.963815321182201
192.0,-1.6602488881685904,-3.9775685316552747,-2.3173196434856607,2.8604639367987086,0.3812800617311376,-3.1316990229737796,0.8890664899240375,0.720705733812609,0.9376356912582025,-1.901097339694818,-8.13828960240905,-8.968203217986302
193.0,0.8690686807217197,-1.1920400807640104,-2.0611087614853205,0.12930030972458573,1.448393775055128,-1.6165209826014948,-3.3858464527469208,-6.302399352625287,-3.7643500159852294,-8.406003859999844,-9.506088084293328,-9.59863789733152
194.0,-0.3815858885066752,13.583333010051732,13.964918898557956,-6.626574391990871,-7.181256219748911,13.781667843169977,-3.7713334431891603,-4.085092532318358,0.5807136215359336,-1.8507074047667484,3.3948114924850668,6.858051651040399
195.0,-4.080650874052784,4.376238026310599,8.456888900362534,-0.08881905206680196,-6.270337603960908,6.345520497385335,-0.30380108489330415,-2.5665893362835512,-2.930278267913143,-2.525841823604548,3.059924806240992,-2.0948322152952215
196.0,-2.1433907747216274,-4.963274190832484,-2.819883416111767,3.5369922439777763,0.33948402439073133,-3.881777596784675,1.2871638842832973,3.9088524086108647,3.264065628698995,5.713720630906155,-0.0920538421706869,3.415427459465015
197.0,7.66313321463049,-7.843061571063665,-15.506194785694847,0.0733880038652166,11.584449573676757,-11.661326520965428,5.733626298209128,6.355785721345598,3.318474865889692,5.48055259811736,0.4541682586741296,0.28652245506430707
198.0,3.460435102574974,-8.954899409474715,-12.415334512049721,2.7267953478926374,7.932349251169456,-10.66716119400108,-1.4748685015522942,0.466636336839898,-2.867894599564214,0.9248340219291613,-0.5411928349496526,-5.784700140437714
199.0,-4.145066759892604,-1.0881073018687948,3.0569594580241386,2.590039896027733,-3.614386034017479,1.007948626977905,-2.0333863283297373,-4.3000294127444505,-2.937960950936782,-4.924801556020688,-1.3085021264257084,-1.6767061320994794
