Time(ms),I,II,III,aVR,aVL,aVF,V1,V2,V3,V4,V5,V6
-200.0,-2.872992605975562,-4.558175880631522,-1.6851832746559179,3.7828226560584097,-0.5728326260171781,-3.0761853289830094,2.8190193855075503,2.13298230362604,3.3332953503652836,2.587708078645721,1.391604237099049,1.614851903403966
-199.0,2.899616261328689,0.9646296489020614,-1.9349866124265345,-1.9516334839005332,2.3606286135663104,-0.4390020429514455,-4.8472489438935655,-0.13583497468342565,0.10067732037805444,-0.10003755607886577,-1.9425726158523724,-1.4615639742249258
-198.0,-0.2011947242461556,-7.504894191988902,-7.303699467742607,3.8242548759736223,3.574262683307073,-7.4357339632483965,-4.024896398293377,-1.5051570897275282,-1.2179337983728733,-3.768529887862095,-1.2184322722275134,-4.398575838885139
-197.0,3.778564568234982,-2.625405182510905,-6.403969750745788,-0.6140670755640775,5.114433594838328,-4.546081229195959,-0.2999471414961925,-1.454361438900995,-0.7068349282098576,0.48169212653248095,-0.6581556026768008,0.9720428514667736
-196.0,8.229258292003653,8.67929011925219,0.45003182724850577,-8.419492352657292,3.8331801280708326,4.5310258425498615,-0.5461537233134997,-0.11557442757195623,-2.4575592916779914,-0.9563438937831082,-0.5587965024639661,-0.062472496082443985
-195.0,-6.37775215603509,1.9226255992827594,8.300377755317703,2.259089288704849,-7.318257338188641,5.151841756472331,3.0434596741817987,-2.184589615684867,-1.5715269104079983,2.089969786327898,3.1856585568635913,2.9065944463769604
-194.0,-9.493521792735283,0.10513290693715005,9.598654699672252,4.7257240956474185,-9.52669039287445,4.885730467691402,4.314001895897125,3.870297971491578,3.2921708893504604,1.174472876293009,-0.29222591776287254,3.1696318707904267
-193.0,9.688843631355512,2.632858217642698,-7.055985413712927,-6.205723219750702,8.39133713535681,-2.2631695916403194,2.7385525590452064,4.724234148704345,3.5038951398593285,-0.5518527242800249,-0.4495484750576562,-1.8298435791273964
-192.0,1.4730554811698058,-4.00942640195561,-5.482481883125422,1.2266361961166141,3.4189601157997735,-4.723899914001073,-2.879320698910779,1.0473552864484128,0.70895397918345,-0.46726086365831304,-0.28195273581636665,-2.0852525991793596
-191.0,-2.972109280855185,0.1769650440212054,3.149074324876474,1.437934795541272,-3.038085521576151,1.6831911156981825,-1.6936037972055416,-1.2400949144876832,0.0710464236811032,-0.22965048405342636,-0.7067561044851973,-2.6532811591760783
-190.0,4.750104696237525,1.5433050983548222,-3.20679959788261,-3.1825457099213685,4.004537801817915,-0.8879347644316136,-4.195494271947376,-0.3827730276090191,-0.6368930083871421,-0.37594649922713397,-2.43866163986254,-0.581503258483836
-189.0,-1.1743654178382672,5.388578431388052,6.5629438492263645,-2.06205166568613,-3.838990101739292,6.005249971886438,-1.4417942817069764,-9.10313128685802,-5.026793490546412,0.8241777236834125,1.0858173211241982,2.670343484714892
-188.0,-4.775739824784848,-3.4293048974245446,1.3464349273603307,4.071090826592862,-3.1077699639843974,-1.0011918244699423,0.014173661383782066,-0.7116195674588592,0.6596750611300051,0.4662532754863945,3.50947321252267,2.1350893637334516
-187.0,-5.286044616512766,-12.856695907346813,-7.570651290834062,9.121462725131702,1.0959982681666753,-10.239245231803993,3.552152985626184,1.629708471833341,-2.1271768377185993,-2.5279995297158,-0.9478020754648826,-1.6007026106035347
-186.0,-2.4302032315458044,-5.1477567251347205,-2.717553493588933,3.763627280228131,0.17433780548365554,-3.9453884194558744,2.6367113963040723,3.0610262153959735,0.6215357352077293,-1.6105463962089015,0.9102457177648533,-0.8933214186710599
-185.0,7.725198093349325,10.543491864736596,2.8182937713872303,-9.156186281928694,2.4807733220266996,6.67854047433209,0.6628204516092784,5.29943140127525,2.2691790735227126,1.8970285205034512,-1.104810483274872,1.1108927138832503
-184.0,-2.105503538729918,3.325732643438813,5.431236182168706,-0.6287062042369138,-3.744954711256671,4.382199497783326,1.4237285438145586,-1.6146624254408555,2.132166622536549,1.239290842190017,-3.0481525409973047,-2.1489490487544947
-183.0,8.708383946968796,2.204045721204088,-6.504338225764708,-5.3934857694877705,7.547522720710173,-2.1456171852960537,-2.8387031489622907,-0.5411913120255964,0.9145972658801156,1.9465894704201516,-0.9823190782039917,2.3381180420903047
-182.0,8.397657260934686,9.138598909973533,0.7409416490388427,-8.782515914529357,3.8458536456929906,4.939984361027939,-5.977765883009637,-0.1579920164556914,1.262785342373278,1.4852904914348977,4.470569293830872,2.4364276168491834
-181.0,-10.146462284042489,-5.125462094561483,5.02100018948099,7.622252107306721,-7.567221517414084,-0.06036302804825644,3.8328035904643603,0.42594403161998584,-2.7596125047817375,-1.5683914512896298,0.8823849163192401,-1.2987505745069852
-180.0,-10.589210057407488,-6.685573757579475,3.9036362998279563,8.62373244327478,-7.229434257327008,-1.4096856833100255,4.03361098783347,-3.6084674879028666,-1.3049751032455488,-2.543217593262543,-0.6946838652478885,-4.379166437984358
-179.0,-0.6450326057771285,1.0780875955370668,1.7231202013141484,-0.23007209804060125,-1.244081807491236,1.4498838495402722,0.42218774900136014,0.8248545947768895,1.3232139556199773,0.3187199640987235,2.1794396588804146,0.8975057637366572
-178.0,4.4289643897536495,-0.37861723213253473,-4.807581621886218,-2.037729654778187,4.639737231796451,-2.6316119835606377,-4.161221747612294,0.2403395271117945,-0.5991773300129546,-1.9150372894944978,-5.105664364166312,2.5019818189092358
-177.0,-0.4312307218105058,-3.5422561032847764,-3.111025381474256,2.055213704364516,1.3646818219574945,-3.292443382148474,-4.162504091638983,-1.4545016493040355,-3.116141885528615,-0.32958506837335555,-0.5972506767945669,1.4504540650742084
-176.0,0.8777782035435113,-3.426547049871934,-4.304325253415427,1.2671753111021624,2.6193876727548537,-3.912538048031211,2.024633409418369,1.0852753075015,2.215070334307482,2.023574045895601,0.6856164889182464,-1.433123005496714
-175.0,5.380816467474785,-1.1632375515639628,-6.544054019038773,-2.1136540021543695,5.915522727304848,-3.8213835760310424,1.2359034374073679,1.1579209408408258,1.9552228200907666,1.8383856283149633,-1.4866408135759483,-3.1757873812035373
-174.0,6.147196982014522,6.26340023045854,0.11620324844393659,-6.210603186709531,2.971999699272164,3.2248696966293102,0.02622055582983185,-1.0410675216574508,-8.308428247682567,-4.717484408767072,-1.0255464844993236,-2.6300064300156696
-173.0,-1.4016450767205377,9.133491406807844,10.535136483528305,-3.876112324902912,-5.929540226779619,9.794353281500069,5.9356789474751865,0.5381375498430643,7.0820657097260185,5.316689925335703,7.39398464230043,6.868211912329584
-172.0,-4.674324371937061,2.6773418390555497,7.351666210992572,0.978648800253223,-5.969988346675343,4.978049527944064,1.4330193600669943,3.7265391763949696,7.027011207540518,6.2261717207981615,4.117326114179163,3.8767962891588166
-171.0,-6.738990849576245,-4.823359306684015,1.9156315428922408,5.748375550381706,-4.358230792389298,-1.4088770006410325,-0.9080314024441877,0.8157047645900327,-1.3298454821628756,-5.45779311804624,-3.3906356780948648,-4.826464556101108
-170.0,-8.982873997614824,-9.892575408894658,-0.909701411279779,9.470361287577076,-4.062457608676132,-5.432974060454309,-8.179737453322918,-5.793176364873882,-6.501336782770652,-7.391770391758202,-10.093342918435686,-4.424416610285252
-169.0,-3.5844114266968004,-6.7451359982167585,-3.1607245715199395,5.187181777919458,-0.15467928751875426,-4.904345729256683,-1.5899116112662566,-3.9783148658328003,-4.350666574461963,-1.405469328712135,0.7429068230831462,0.0677507429331552
-168.0,11.573321790017632,7.6541247448990966,-3.9191970451185365,-9.595748207375628,7.726952283114677,1.8393180477740048,0.5146419157823074,3.442018263888476,0.9332300476973758,2.9080086659876567,3.133415512595234,0.6545943760496549
-167.0,15.357430723786507,8.260673248482604,-7.096757475303963,-11.78862621734234,11.207014187425136,0.5565701413062114,5.831294727740651,5.977110901091239,8.247935780107797,5.4514808276286475,5.25188016338204,6.819481981257671
-166.0,5.653409306514861,-2.3288162494202833,-7.982225555935233,-1.7120028502521398,6.793521314032947,-5.098667644238617,-0.9454822567055374,-1.314113041600582,-2.778910133371264,-1.0302069675486862,-0.5085210882425168,-0.9360352185964067
-165.0,-0.24071372841469696,5.821271427941278,6.061985156355876,-2.8272561606999433,-3.104044848460766,5.923536563152383,1.3228450655776394,-2.072763980676692,-0.9310841486998981,2.1973066659000606,2.18040510826713,2.685385967119247
-164.0,-8.14417451821306,-5.9564005668435,2.187773951369459,7.10622840804527,-5.206179129240056,-1.8989871098357067,0.7137427734333113,-2.238160091071397,-2.1603674652744,-2.190060673397869,-4.911265991231083,-5.944421506805727
-163.0,-9.76560961654878,2.252812691465622,12.01842230801437,3.746513070749898,-10.862088485191045,7.1232227458259985,0.4559417788513546,-0.08159990945344586,2.562086503111605,3.7214524630799923,0.5421746414266231,-3.744543633265008
-162.0,-15.975798881851297,-1.3765010412314613,14.599297840619853,8.675628848470652,-15.264404245352026,6.599549219740009,-2.1121200959319637,4.678921804627849,5.209415261546346,-1.2492974415202556,-1.1402196993674516,5.204278305527652
-161.0,-8.748409547396289,-15.698125432827037,-6.949715885430647,12.226877597211436,-0.9586756036495094,-11.258563601990346,-6.188307704027151,-5.8344111384162884,-9.217012560547552,-9.027391209460207,-4.355251398646607,-3.8316747605929717
-160.0,11.370780205458752,-7.319742537911695,-18.690522743370305,-2.023772725293572,15.049929021757695,-13.022274388922472,-0.10045292441913523,-0.4585037632128156,-3.6478474140434667,-6.632094944742232,-1.92909663643031,-1.9773587918304774
-159.0,21.298206416376907,12.018736374657554,-9.2794700417192,-16.664201273792848,15.311274552902553,1.3467240067474986,1.2794659344572972,4.394214542489202,3.4145790690594002,6.568188362003161,4.12115657938726,0.6081574037427704
-158.0,14.827942973005584,16.728108389469444,1.9001654164639818,-15.795251882167868,6.491773607396281,9.284076205337191,7.250510925504326,4.3658226777639895,6.9276736855153604,8.706571727622876,6.569967103389558,3.30295584596353
-157.0,-1.1002070168334104,13.51491252451186,14.61511954134532,-6.2375540475363795,-7.902287023502453,14.106303088301686,7.028933926969065,-2.009688125483658,2.755109178247484,4.292004482558307,5.352232201273024,6.272221663427141
-156.0,-17.126633627252975,-11.233298477189255,5.893335150063647,14.216911307764208,-11.549129558734535,-2.7137101580695733,-7.3225827473553675,-6.6700051096386686,-2.4523558542748747,-0.8384246311539933,-7.6537317194995325,-2.130047392320936
-155.0,-2.549811723139003,-8.518364043922402,-5.96855232078352,5.563087375323089,1.752500492949972,-7.212456203031199,-8.711354256349605,0.6213573291113863,-4.1076604135409776,-3.585403760964636,-4.456326133944844,-1.2724364539942856
-154.0,-4.467278019133701,-7.016963647105012,-2.549685627971413,5.767828616085141,-0.9146803754574235,-4.753828053933377,0.6919072157769719,-0.2993324182985254,-1.754853684864215,-3.3899002353370564,4.110054616943802,-1.5881519093050878
-153.0,-7.160348540378774,-6.411399159774541,0.7489493806041498,6.733726565631591,-3.9907655692490605,-2.8015287843384966,7.675875472841769,5.658996139268401,0.5905983899644358,-4.186446713204982,1.8358992373118352,0.21086224847131918
-152.0,2.024337298823016,-0.1340061907647625,-2.1583434895878173,-0.9149209189499952,2.051991913392416,-1.1948810130196068,1.4269185970802027,-0.6750408203041198,0.48400197099089026,-0.8414653885334018,-2.7602683204019054,-0.7014099101414428
-151.0,2.1848199373681716,-4.144633330680171,-6.329453268048372,0.9362415747646584,4.292839149289312,-5.286753344122285,-7.877297909546658,-8.531766289029926,-7.714472927198468,-4.021291883732438,-7.3568185830592085,-7.66807627626388
-150.0,8.936140290529634,12.458350623704106,3.522210333174449,-10.735804600862851,2.6612878538477998,8.016361464283959,2.747151199268495,5.298128444008311,7.210355002188415,8.342438988581508,1.0348732476362903,1.2753520482514693
-149.0,13.88782755725265,27.793756208735683,13.905928651483013,-20.795353786955253,0.02365418213046544,20.87168694447126,5.7945038512986144,13.02907296420173,13.19715007868912,12.582628124030776,9.927952919363072,11.290112139950706
-148.0,0.05422271488542929,3.555184811418357,3.5009620965329455,-1.7535661136450873,-1.6885967733108496,3.5461235605164187,-2.5161623400721917,-1.0092566769423197,-0.7151421297058622,-0.18977484997535576,4.395545671150676,4.025930134502642
-147.0,-12.544579316493273,-22.011078688622792,-9.466499372129453,17.256529845052974,-1.5009354106451211,-15.800745196882149,-3.9335541262800287,-17.82899327831876,-12.647033103068761,-11.926056064643598,-6.71356280836926,-7.005232803130037
-146.0,-17.96276372563987,-27.154283496230956,-9.191519770591025,22.543828456098378,-4.423827698351318,-18.153147933544414,0.27898677833095586,-2.659168556508389,-6.601645596618771,-7.084995618120178,-3.859490504985778,-6.661587563512226
-145.0,-6.141181848703609,-8.19310822189847,-2.0519263731948287,7.158653008230184,-2.083389309845061,-5.095040980310056,-0.2631978565650907,4.250947850719566,1.3885505021856046,-1.2838792251166948,-1.660146031511045,-1.4422816554626845
-144.0,17.257152942770524,16.175441134436113,-1.0817118083344257,-16.71966228807382,9.126254482465349,7.585805801562788,-0.869270732013646,2.3395819747573756,4.704671595838738,5.2138950470538905,0.7449363991522124,1.7691138976650262
-143.0,15.81615621364243,20.744682196339138,4.928525982696687,-18.280068200898327,5.472101687872944,12.80950179827849,0.9527538907902032,6.221230857345174,5.225883782104042,9.129679506708177,4.699642491939066,5.856227150311798
-142.0,3.200494111477399,11.190948292875945,7.990454181398505,-7.192994146218236,-2.374366781129824,9.57429650503134,4.7492591948362355,2.4168125353536256,0.8572960061254409,0.384841750426812,0.4632428558640451,3.503351922163261
-141.0,-4.5156880497268945,-1.2091181744770312,3.30656987524982,2.8664528778752034,-3.8957571342160024,1.0381593837053522,2.6366226934147594,0.7005525023986432,1.6206356559859159,-1.6237833640887571,2.436559672285085,1.221529550736106
-140.0,-13.274878151168878,-15.014059519217643,-1.7391813680487715,14.149000749097313,-5.753418312658836,-8.387588632339382,-3.8387366183934724,-3.9957396008642574,-4.383293276258335,-6.767253318795328,-2.964619166963133,-2.9814697117332045
-139.0,-9.980837152606403,-10.720362550127287,-0.7395253975208838,10.354696350706433,-4.602723590140389,-5.7469592284907804,-1.0906285125837911,-4.650352424937786,-4.437932217985247,-0.24113362045194497,-1.490004040107196,-6.564046923464115
-138.0,-5.976752042314759,-11.320641512305325,-5.343889469990545,8.651057815910255,-0.37082913995664635,-8.279904436653752,-4.161511392588738,-3.217944185433223,-1.4398046444033068,-1.2449226212620483,-2.792265507716098,-6.579220389795545
-137.0,7.408298370920221,4.654955927710987,-2.7533424432091778,-6.0327791842064515,5.112056274838336,0.9149044265516357,-0.5655733887251693,3.0508615181820398,0.6290985717186235,-1.0873854896835409,-2.272041562929155,4.611314589980056
-136.0,22.44769014041097,19.055698970282933,-3.391991170127958,-20.758359061298307,12.877303667629326,7.868011162428432,1.9870714963538993,4.471768503377168,6.904830984053687,8.551711528980286,2.6684215784082195,7.277208209535426
-135.0,8.530680100601524,9.552772288896996,1.022092188295527,-9.0555509428944,3.79212007638331,5.24275991451884,1.6445357052201914,2.343365139973858,4.490199244731299,3.732261009688253,5.609946715016639,3.784646241277822
-134.0,-2.5574295809260903,0.12389534283808956,2.681324923764147,1.1951485530918111,-2.662218373932451,1.4392802938077751,0.7068395848074398,-6.717215663360472,-5.119829126785066,-3.082236859720031,1.7470833802989323,0.07322733329312525
-133.0,-19.834427889493927,-9.792427388615675,10.042000500878194,14.863557937284353,-14.906740454874829,0.16704034448504168,3.790734811668142,1.778416017670673,-2.5161314148785943,-3.882087357100368,1.8993680874978263,-2.6561712603749497
-132.0,-9.77457419356807,-11.167472134058624,-1.3928979404905784,10.437510795940295,-4.164594681952901,-6.310954254498336,2.689473432778217,2.51880600243137,-2.876987611809745,-4.569532585094461,-5.1968726957921305,-4.004765561902021
-131.0,1.5912067477061216,-5.548878008467205,-7.1400847561733,2.0219391709040426,4.30893632048619,-6.37233044703326,-10.794993371819599,-3.390485407460821,-1.5506948457215735,-1.6891576870276404,-7.8553393234958975,-5.289054419279003
-130.0,3.2914242868385113,3.25809606093029,-0.0333282259081602,-3.310108698880094,1.6826021864643514,1.5827870578249401,0.9565617163578644,-1.3539640447439518,4.0556261865848775,4.1967575448286265,0.6323382204375547,1.7564962394140151
-129.0,2.7932361396360696,3.845801209595767,1.0525650699597882,-3.2745981656871694,0.8916352911112426,2.4919416030998303,3.0690475549298353,5.9940414872549495,4.169194468383498,3.5271799478119403,0.564869480805199,2.0409735832250075
-128.0,7.588467355933969,9.61976815639476,2.03130080046089,-8.636832933564893,2.8033322753846734,5.780419401607737,0.5442926758922171,0.6891690961779593,-1.3899171270215436,2.4783264874928075,6.959017715224825,3.4380527655568973
-127.0,6.006356457918757,4.268527002054133,-1.737829455864529,-5.170833898875208,3.8225728571998605,1.2901802124256023,0.3162796423130251,-3.115988476499972,-1.3759175918559559,-3.301437859613855,1.6294709400167688,0.05916214408549392
-126.0,1.9402519786151662,0.18343883400301797,-1.7568131446120634,-1.0195508285211847,1.8816197397292749,-0.7673647899843631,-1.3732794130602466,-2.240097607039565,-0.9950978231244361,-3.065079480667886,0.7713507634834378,1.5605651311976236
-125.0,-9.204527010160456,-5.393971532465119,3.810555477695317,7.257744583461625,-6.551266148616252,-0.7728417938149237,1.3021977902383404,1.1055969572280009,-0.13225103339449917,2.7519547756971834,0.2938990560398745,-0.13927172543698874
-124.0,-5.747858181524594,-7.8735216780139305,-2.125663496489463,6.842081899792756,-1.7764636559187146,-4.9761925570457,-2.1283765096445615,-1.601411788559367,0.7077816121608822,0.0660719706473297,-2.955751536746852,-1.9880596093165734
-123.0,1.0726907122639773,-0.9625907530437363,-2.035281465307899,-0.02884353587231203,1.5077739690821295,-1.5464811134130798,-1.964165173590921,-0.5035898167328333,-0.3630463484621549,1.3677571927409413,-4.861861929945335,-2.130603059747682
-122.0,-2.401234061464005,-0.37598908572474765,2.0252449757390756,1.3327795915756833,-2.183129324236324,0.7855746998946125,0.23608613293167258,1.3614606891164052,-1.577315132879612,-3.5217292538403773,-2.0651282385861127,-0.8921109464405692
-121.0,1.388483339690392,2.9854516050204483,1.5969682653299553,-2.1648371558786086,-0.07537344003262192,2.3375928326544613,6.210040414497391,4.016794120478139,1.2057808198110198,-0.31580176641989066,3.222366333539501,1.822116624493171
-120.0,7.133966628354328,4.174430449868545,-2.959536178485756,-5.630527584622773,4.997814131414684,0.578231386168526,2.191604445101238,-1.3476848948941567,2.341308886526118,0.775101181609262,1.9091930234824004,1.0374724553513448
-119.0,0.3938352485203205,2.2882262571419347,1.8943910086217453,-1.3143288614030886,-0.7173171911342853,2.139720821843643,-4.532723554558276,1.157843811380665,-1.1844086051514373,3.6254236603540653,3.5771804675672554,-1.0266074161127208
-118.0,-5.184094525557324,-3.9247878650559755,1.259306660501533,4.505782890797558,-3.184417612521024,-1.3682932022362868,0.6181699095769364,-1.520779539501676,-1.0962075407499745,-3.7508006197192896,-0.807692113629177,0.7504494841119577
-117.0,4.701693371636894,-0.2037702111443277,-4.905463582781004,-2.29478537947462,4.765893507523163,-2.519777408785687,-2.694740243991326,-1.3355524958985114,-0.8048398879278356,1.1837622512041777,-4.151630945298078,-0.452205914350706
-116.0,-2.2009928271840518,2.7964800134270202,4.9974728406112945,-0.2628803846497746,-3.635384662500315,3.8431437479473676,-1.078272035228265,0.7525765495909917,4.004851757202548,0.046645936000089316,1.6480966780976294,-0.4261436250302157
-115.0,1.537493484210194,3.951999077804727,2.414505593594629,-2.7086722482026344,-0.39758726085428764,3.198695719265449,1.1623641024150344,-0.40838024646781906,0.8540405545716365,3.481365050828117,1.4892335565953472,2.6711815843936377
-114.0,-0.3755874584031226,-1.5889782872098464,-1.213390828806789,0.9403544098609644,0.37640729245786514,-1.392677919971291,1.6934403115644892,-2.9550921580882377,-1.67784543178636,-0.7910373508015041,1.0571261472388682,2.0258081128751897
-113.0,-9.818978852694345,-16.962385964899124,-7.143407112205004,13.427693596802525,-1.307794935647077,-12.047137300309762,-3.4068722388920754,-2.478747225213325,-8.096789253450403,-6.526170499265442,-5.89706686412151,-6.787378264522482
-112.0,-3.468572714834691,-5.813967264849868,-2.345394550015434,4.677330660016862,-0.5373966150952352,-4.071767251749689,1.0020112032395678,2.6415810661305894,-2.6255536761809606,-3.454044919271822,-1.6353647027888691,-3.7426652731998904
-111.0,14.24991429804783,20.570548898528372,6.320634600480302,-17.45576702527184,3.906821807065423,13.460067983002308,2.1987742050404737,6.339798945479326,7.38072712500715,6.116208060567796,7.344787273383724,8.04866517631284
-110.0,4.449586995459221,11.144158491289073,6.694571495829704,-7.847479474359927,-1.1008794985815011,8.864458658302363,2.9548303252009,0.5447739605700326,8.128480888518789,3.5514262059606976,-0.1401769948615348,-1.8226052472546366
-109.0,-8.62434306259684,-15.09614897810661,-6.471805915509833,11.881681686212655,-1.0497993766182958,-10.750257387461197,-2.6103473055014836,0.48973766528272916,0.9925238930904015,0.7051831406295448,-3.1602891174634125,0.20492663196360233
-108.0,3.4212424821646996,2.1102938768163977,-1.3109486053482524,-2.751168370921439,2.400485631324571,0.4413893533553712,2.0408968427221383,-1.5160184219065274,-3.319895763647984,0.6466386829821249,1.7689509776218129,2.9388590649038266
-107.0,-2.2334678268743238,2.1615652987718335,4.395033125646368,0.04545192871962245,-3.349787091604696,3.245561883475642,-1.0260329178416954,-5.840938719930572,-7.005535702402396,-1.9687801987492008,0.8642933369107897,1.1643016573287175
-106.0,3.11863439598211,-0.701544795292772,-3.820179191274635,-1.2009908250998058,3.441136959838935,-2.293658572107199,-1.678335114399422,-5.207656899021153,-3.397388311502598,-3.745185880807366,-1.7512114468850641,-4.430723687936636
-105.0,-0.5129883598744717,-2.7747226498751134,-2.2617342900004367,1.6529909087145764,0.8499670206721535,-2.554622582904814,-0.4554238487305666,2.794001577919107,0.6530111858639733,0.22133343269433814,-1.941282143357332,-3.5146454657196013
-104.0,1.140493770227895,0.2534491737497053,-0.8870445964781573,-0.6834696566233234,1.0679607304224739,-0.27955849229191454,-2.005643940037826,9.547112457682434,6.849644342608592,1.668769513558996,2.13418678027248,3.044433854706151
-103.0,-7.588809432612878,-1.9399819826101286,5.648827450002616,4.704874085086379,-6.646845201255649,1.8873674453729803,-1.0544516501612249,2.1080505751638774,0.49494389961592367,-0.6140542350418775,-1.445942282707366,0.7095198959380524
-102.0,-3.8397192732356467,3.08561934198547,6.925338615220873,0.40196310742826724,-5.33693504085598,5.036515228372318,1.6044291572767841,1.2801397519116318,7.099697349074534,4.077799735307006,5.906402029195269,2.2154901503171542
-101.0,-0.14134412396522678,-5.76224525882493,-5.620901134859896,2.9815978929293214,2.701912716127214,-5.738736263038809,3.6789348189815767,-9.384158441902187,-8.141902814358879,-6.437947514133432,-2.7799976421676402,-1.7754231770285518
-100.0,7.030411497447508,-3.7711359572104275,-10.801547454657998,-1.6743063954083865,8.875813388895295,-7.253107786045564,-3.677998850456971,-12.796281269169448,-10.872494342689388,-3.5565992217365707,-5.852100924179258,-3.674749412467462
-99.0,7.493480753335616,3.998180670773916,-3.495300082561628,-5.785872763552554,5.53449022174248,0.2066122001976245,3.3714214686409045,9.07567020552558,3.0593782588857454,2.818005403801119,-0.9378994243966281,0.8041372692254758
-98.0,-0.7042860382132359,9.64551755317487,10.349803591388222,-4.4257810227474526,-5.481247622111757,10.029580997474646,5.85347432271117,10.84072558843294,12.438430034193145,9.472481848175562,3.6496722012117955,5.011063232586513
-97.0,-5.745585224800168,7.247454460279146,12.993039685079419,-0.6979670385251695,-9.39332269566733,10.068143790006262,-6.473516553084272,1.948651295105467,2.564743227018873,1.9724457291169468,5.343836033900941,1.3699112728184215
-96.0,-4.0605164520993835,-7.484696567933986,-3.4241801158345417,5.756133910310202,-0.3320629429063553,-5.435468359342302,-4.134287778850621,-6.993968956174605,-9.772220819866519,-6.908555783290458,-2.0716543793336015,-6.847549876927975
-95.0,1.5452272725259486,-5.9762146380386,-7.521441910564613,2.2072626815466783,4.528138842779551,-6.737928764752586,-0.1735689076248912,-2.346261373662923,-2.7464050948277836,-2.573312867222704,-3.3077613714286747,0.154418439500426
-94.0,5.367945170109279,1.4250011006894496,-3.942944069419951,-3.400497408671153,4.655239616152242,-1.2541655616798533,1.128526473010624,0.37654930565729616,4.427975898658621,2.629319100963439,3.029684607736465,4.716794726045821
-93.0,5.112629571439507,-4.435294893110944,-9.547924464550553,-0.3450137477798779,7.330023098808418,-6.989100080211146,4.448252932981185,3.8940487816222573,3.4007516359909227,-0.7820466085691898,1.0799825921886628,3.1415085329508328
-92.0,-2.517659037870361,4.770934804498719,7.288593842369016,-1.14269579102247,-4.9085442675223865,6.034365918396134,5.617624634835973,1.7300508121874687,0.5439972380493137,-0.2327031666863696,0.5488985108947146,-0.8249099470461725
-91.0,-8.460692347016597,0.9319501909624694,9.39264253797906,3.732612488684032,-8.941286651595577,5.172539121227109,-6.0096666449534935,-1.8395426393556522,-1.8759141451885633,-0.43527812213058115,-2.8464151809167637,-2.642388637743024
-90.0,-12.99749256183516,-10.418118042937326,2.5793745188978567,11.73658020519178,-7.7357116031381725,-3.901866695719212,-6.27167191712205,-8.896587040192815,-7.059754462674734,-5.5065610126348625,-6.50185386462909,-8.37130277208989
-89.0,0.07391306580915913,-8.84651217759425,-8.920425243403388,4.398919017346616,4.459590631840549,-8.938083206657106,-4.869162262737334,-4.119790209743225,-5.091266407758691,-2.123627606987435,-4.247581109996817,-4.890292884880078
-88.0,6.830351971017332,10.793401816953873,3.9630498459365233,-8.809074622268959,1.4649885091484165,7.406679739442178,5.5848519105261785,8.074490473897558,6.9636953438947256,8.277339887705901,7.215494979851913,7.219762776591838
-87.0,18.819242456206712,23.008381966451587,4.189139510244815,-20.911831853792453,7.260896002889782,13.55001709163934,3.7272338092133586,8.209804575029827,7.083934381797253,7.873457444768329,8.411885501940919,9.820728685222905
-86.0,14.22661624093925,9.610247296685436,-4.616368944253909,-11.908029876770122,9.443180463201237,2.5266178816283995,10.307844927239573,4.410167301783453,6.40179998698809,3.632567380633275,5.889061278318508,6.212466262039288
-85.0,-2.974835160877973,-6.827153132760156,-3.8523179718822615,4.926869759599751,0.46138105095138027,-5.310509434615184,1.5040527039265559,-2.918568467573272,-3.1347128152455355,-3.7600066064626034,-2.6259861051024034,-1.7777735970394666
-84.0,-15.069005576213518,-22.364617105765088,-7.295611529551619,18.68253592174126,-3.8599689706550473,-14.878416407279579,-10.32510459217891,-8.821167310548862,-9.274119147021839,-11.423415406675705,-9.809012143840494,-10.98666624820006
-83.0,-14.656503563944895,-18.831283998794646,-4.174780434849845,16.726862856991357,-5.286970606224008,-11.468662113461322,-8.84224784361346,-3.0794745164593493,-4.769232516577876,-6.550649377093427,-8.417758795208323,-7.996771727301242
-82.0,-14.504627668158378,-0.9931818826529906,13.511445785505298,7.743964856346065,-14.047970020186774,6.299889441428434,-1.0671341926853817,-1.1972213742386142,1.2959484097109186,1.6533286652284298,-0.24532191279175297,-0.7345031126631918
-81.0,4.169199749057634,18.355682676232124,14.186482927174463,-11.262712387904365,-4.964834148317232,16.24047715281013,2.0667576325434442,2.1116282667885957,3.2280003228610856,7.280106119924981,8.610352632090176,9.45834237347038
-80.0,11.748930567843518,11.54611841795171,-0.20281214989172103,-11.651040739122662,6.022366563339301,5.64728700387045,4.802215573185196,2.723948953991978,4.289437747439161,3.837034337512611,6.010276652904656,5.498178001526961
-79.0,9.514403479265322,4.588542571372415,-4.925860907892763,-6.986370040372364,7.1875779944934415,-0.1899310324336385,11.204387286627263,5.801349375039713,2.992403844449393,0.7678573068077941,2.702584537387178,1.3133771268574796
-78.0,5.203673414075384,-5.63830455906764,-10.841977973142885,0.18874246326098731,7.98688126895818,-8.183837068165722,0.08171297976892955,-0.22473313107630455,-2.2956620678255333,-1.6923520117734987,-3.7127312116857976,-3.321380595643826
-77.0,-1.8533341579609042,-11.006245132280103,-9.152910974319163,6.384253997177721,3.6867834774806676,-10.107378006481987,-11.11536476877329,-4.359421866548198,-4.55902284139147,-2.8625837214479475,-8.298104104980295,-9.253774363959183
-76.0,7.745975761471506,4.3167742361434485,-3.4292015253281245,-6.014038368588486,5.539085228916992,0.40764988632089416,-2.419213103252856,0.062236301483057144,-0.05461628944127073,3.934821242308252,0.690761168281671,2.09798345166646
-75.0,-2.874196615333751,5.5646502671326346,8.43884688246628,-1.3395884755023761,-5.631969848611921,7.0349187485470654,-1.122371386231308,0.058433260970562007,1.6805776547444038,-0.13926439745872166,1.112335876047943,2.9504624615110564
-74.0,-4.370277419428798,6.3613867011048235,10.731664120533544,-0.9949500782385439,-7.529161439313242,8.57109281912987,3.050203913344939,0.30647229388429464,1.8242206066571693,-0.6485552961716397,5.817407910985129,5.784056631980067
-73.0,-9.103307693771715,-4.703487465705285,4.399820228066416,6.906851000124109,-6.728387194961342,-0.13356948454763273,3.443540795642585,0.4128676325344122,-1.4052667757287807,-2.2704229671206257,2.029652443906564,0.6601705583852291
-72.0,-8.13850406181265,-10.090250834576276,-1.951746772763598,9.128056148485594,-3.1434388275941103,-6.084804778238661,2.719013222738316,-5.50254827020202,0.6531771347407085,-1.83958268255129,-1.3707491437831147,-3.4642075422909784
-71.0,3.3542317773613926,-6.147683722900842,-9.501915500262232,1.4257680000729707,6.465375664079607,-7.810235097757197,-0.8880337575676616,2.6915619759006466,-3.1292975073260783,-1.4799443718255434,-6.222478257824813,-3.8338441553168887
-70.0,-3.8704885228952373,-4.780617731715545,-0.9101292088202939,4.292915408967108,-1.5116698843095606,-2.828789804288077,-3.945896539846247,4.147028222620432,-1.1504290372584318,-1.0584017694121512,-3.1192719585284987,-2.530736902402326
-69.0,5.928674139735483,9.455187123067866,3.5265129833323874,-7.7094579503439125,1.178912607783702,6.511025709892568,-0.1362264738102843,0.11451812081719037,4.679471194487924,5.165205347268042,2.2985747841715485,2.068560528124592
-68.0,9.267602834019243,14.605319231533148,5.337716397513951,-11.943718020465418,2.0284023301627943,9.917154916408133,-3.998965555364731,0.1728580748179268,5.2174035024511864,5.222112287997182,5.010516459191062,2.1579237560108915
-67.0,2.6983016021966915,-1.3328533517456158,-4.031154953942254,-0.6859750225811787,3.3525160580942224,-2.653727511110474,-0.5572207477387521,-4.58227648682253,-3.308103235860812,-3.615827925774547,-1.8998805134099641,-0.7370043740483965
-66.0,-6.879694115610299,-6.914171839069839,-0.03447772345952971,6.891536361332097,-3.4361881607279186,-3.4432726316382123,6.552535179991374,0.02515055481765538,-5.8711922793206295,-1.0441809860487137,1.1059974145479332,3.458177758616083
-65.0,4.310867505925623,-4.840632583649414,-9.151500089575066,0.3311662836805076,6.712082612697857,-7.042621970651584,2.683553971614427,-1.6960470490359318,-3.2573748046022457,-6.566839518047839,-0.08453451496606851,-1.2308416799507147
-64.0,1.0854033288559155,5.174874317775738,4.0894709889198175,-3.1528446276136,-1.5294943924820625,4.663734178736856,1.3345544150826347,4.490329748420023,1.6277795184630495,3.691295922737274,-0.32830074351815197,0.010067223858748753
-63.0,0.5037936615668119,6.509796324440169,6.006002662873367,-3.541051764316899,-2.708937380877923,6.208583544557214,0.4108535225937829,2.0452467234480487,5.242088656837228,4.702698612864426,3.4252253556479078,2.2939723619894723
-62.0,1.0021335579577153,2.8130296118565403,1.8108960538988605,-1.8741418178239952,-0.3698699082965473,2.338381286667213,-5.972921500977669,0.32221014707670337,3.4272477887216364,0.8136325133198516,0.458115882028925,-0.4074628370733058
-61.0,-7.483788223681186,-11.425060059528944,-3.941271835847703,9.400263202811278,-1.819991515507545,-7.659971546787425,-5.896882462630414,-4.457240507478908,-2.71144847757693,-3.6956961637531256,-4.725855825973489,-5.032051363063831
-60.0,-11.441970025549878,-12.964547997108154,-1.5225779715582464,12.22261255281179,-4.930311697829353,-7.223328397249904,-1.5055821618525074,0.5107200520377924,-0.5155247302710311,-1.1031271065535146,-6.430904702844212,-2.934539768322426
-59.0,5.308521472082164,0.803588041951306,-4.504933430130862,-3.0375958268372445,4.860197729207465,-1.9117357862384767,4.972046606332896,5.065802976003275,2.8206617042911866,0.9113855041362547,2.764153162613203,0.7664706961218273
-58.0,1.3716192691877862,8.354996438440208,6.983377169252401,-4.841782199161351,-2.7686616149145764,7.684668228633814,7.751743591006392,-0.4595723740588875,-2.581933486793214,0.08983932482614523,3.9105748042841295,4.429304876495901
-57.0,6.306048092922953,5.672492807687486,-0.6335552852354849,-5.962316597441131,3.5123317252692443,2.533008420029269,-1.918351975762274,-6.693592116233965,-5.187707264116743,-3.091834119453762,1.4562484332462011,-0.19551107813610447
-56.0,4.335146445682982,8.953554121716795,4.6184076760338115,-6.6907552939006045,-0.17404821579592333,6.797916538418449,-2.1841749098087098,-4.3829465812728765,-1.4006564107409976,0.9795472330719408,-1.515517647838453,1.0028038291300374
-55.0,4.174629585261259,0.018789837209990612,-4.155839748051216,-2.140094337475995,4.133992612099648,-2.057545415059857,-1.075597752872874,2.808048747231532,2.6995187134948417,2.155085143180771,0.19084266049754578,1.5494516678712604
-54.0,-1.3239724142396923,-2.5945304581410538,-1.2705580439012865,1.9938877750799868,-0.05924181475380519,-2.0000443002995905,1.3903078862694485,3.1904644473039974,2.281064930979214,1.961344032461116,0.2825476331972269,-0.41953628979665647
-53.0,-7.739410043807651,-8.01703103317529,-0.27762098936754764,7.908431109730228,-3.6869502506036254,-4.133817021718414,0.29031304587865736,2.5253221993722934,0.5473222193250136,3.3597582904661216,4.806423948976362,-1.1150677029054705
-52.0,-3.8180130090528617,-3.7437457476202676,0.07426726143264628,3.725602008858253,-1.9820243086141545,-1.8163557412315794,1.5508634882952905,7.496240841381136,8.949746315030357,1.8569202509815181,1.731625575539004,0.7226833940296677
-51.0,1.0680138029568873,7.449170992624823,6.381157189667982,-4.242001193378841,-2.6118668712878,6.941027370273924,-3.587188982674816,6.489138213250462,0.7264620846374927,-1.0972769750952494,-3.8845175840361126,1.958575636557382
-50.0,-1.4113075260660048,-8.053692552763579,-6.642385026697607,4.744247402555562,2.665233090952067,-7.313105819980237,-1.7955396010871723,-13.085825033554888,-11.818956106975964,-13.996062890254406,-7.809229235637372,-5.584872320737125
-49.0,-1.0330578985352274,-10.217797332519144,-9.184739433983953,5.635794587657353,4.0532921870547565,-9.73631188118964,-3.5147882477453845,-13.698620733084262,-10.895949258223496,-9.526654016756147,-8.422629545165705,-9.09873059774743
-48.0,0.7408585709745958,3.563793724374183,2.8229351533994826,-2.1397099564439275,-1.058480711195108,3.1647527906860375,1.4725872196347403,-5.0725872842905835,-1.2376929330232542,6.315959313944145,2.3365612625805183,2.1183601636577376
-47.0,-0.18816554652295547,11.650303388354512,11.838468934877227,-5.713676255455167,-6.029942867155507,11.718598605099858,0.4817703844976924,3.403357279389392,11.320279939533359,13.749059695537415,10.830875436126686,7.921572052222179
-46.0,9.709818544900452,17.414236800307574,7.704418255406571,-13.61791862890068,0.9811530572131586,12.611646762872958,6.629525971935324,15.355721319313217,13.57333456877844,15.690827965084472,15.264324016237758,12.012385393365776
-45.0,9.414038130741934,1.8754849474054627,-7.5385531833371004,-5.617470583066171,8.44487158472953,-2.8605604290150843,5.0816822506752235,11.05199711206114,2.356081855479018,-1.793079413041359,-0.33748051759869746,2.074037740030149
-44.0,-8.085742670760173,-14.927428542038449,-6.841685871278676,11.457667245181385,-0.586744350128992,-10.915907131440425,-0.3567948016786373,0.6864878304467608,-9.007316023095175,-13.58148884903575,-10.45300581656133,-9.873691718615746
-43.0,-3.822791111301231,-12.569672553119709,-8.746881441818244,8.22702710063883,2.486793639158924,-10.610997922842916,-3.9180377235343933,-4.312750461060023,-5.249804966048907,-10.199159141468241,-11.698055583064445,-11.34520338570067
-42.0,-9.424058381162258,-5.948332193920006,3.4757261872430147,7.717611519596087,-6.43109123583641,-1.1862381420903754,-7.784381858239126,-9.350652514796682,-5.453330741427051,-6.648353585323935,-4.826805746753525,-1.0835162029242218
-41.0,-5.739912373583969,3.5714271408205294,9.311339514405649,1.038718976835665,-7.506794575699663,6.417430954428603,-3.3151477116979358,-7.127994221205935,1.7376898126484521,4.46586349305477,3.4147506904678324,4.169442618932145
-40.0,16.57921477651844,17.501787606212627,0.9225728296954188,-17.003130866422886,7.77383735412577,9.192612156434334,7.1443585098387485,7.099440218666748,7.921375861186519,14.459894830280259,10.780853032040765,8.238602275747073
-39.0,1.7923752966904418,10.314483512341603,8.522108215651636,-6.088072069955361,-3.331742604576736,9.400113056450403,7.350485158804865,3.141161869384212,4.33312800131145,6.193914015285922,7.793037089819315,3.7210639605586904
-38.0,-11.072576062585934,-18.606630838409828,-7.5340547758245355,14.892227871938974,-1.8050240110095552,-13.09200379060286,-5.488721523220832,-8.34111992753129,-10.232560319301394,-7.617559249298034,-4.703530591359077,-3.257354766832093
-37.0,-2.1484842871499565,-13.567869654548439,-11.41938536739992,7.84063940247712,4.608586006227516,-12.445201839888487,-7.620343133597866,-8.751326015278593,-7.575220050735158,-10.253256831871425,-7.154230918992205,-6.313605057091783
-36.0,8.744631885372163,8.54530808804651,-0.19932379732755034,-8.655929481862717,4.530717867065051,4.130144228713275,-5.013951898628887,-3.514526805176183,-2.9932650825775244,-1.377967379842448,-3.335083192578284,-3.8158625369997816
-35.0,9.336517850987644,13.308395069637053,3.97187721864781,-11.330570248578121,2.66686746295204,8.662154313482844,7.799159695460855,11.285363284421871,11.896366711346502,8.10432344880916,4.28284666924163,6.508023034887824
-34.0,-8.018313234795954,0.7729642846856208,8.791277519481124,3.612967123815074,-8.4177914129742,4.79178857505359,8.531199257444527,13.900625791757106,11.593328596784978,6.695808771423176,3.7093632039821713,2.0493065462610884
-33.0,-4.266454386659775,-6.881652946151352,-2.6151985594904543,5.55891887716696,-0.8380457771587251,-4.747085029205568,6.297045236841228,17.308681888742,6.254316237910487,-1.0368428333123467,-2.9323047570663836,-2.350345886457009
-32.0,-2.3827458594221933,-1.8269531781473085,0.5557926812766532,2.1609326079487206,-1.4042685895350957,-0.6370333242522239,-1.0906730307675399,0.018497379722858476,-3.907850257152033,-3.6981890102573765,0.28372693730548737,0.21389580713850737
-31.0,4.247121129649493,0.7610859560671575,-3.4860351735807824,-2.534125029178935,3.84929485366052,-1.3608875396701476,-7.849711120132807,-24.42372990170337,-18.948530817752843,-7.474925051717325,-2.7140544182574695,-0.4084111458259665
-30.0,-1.361372227278676,0.3786763735538289,1.7400486008334664,0.4562689568919046,-1.5739794199826593,1.0690233929003343,-9.634946321752466,-16.634340300681597,-6.225645206835628,4.067608626392665,7.958511288296517,4.552060369433708
-29.0,-2.016944181007332,6.301874207301842,8.318818388309275,-2.100236584267486,-5.199293728730187,7.252777857597011,-1.3297730376877066,7.396369835863619,14.174203968504433,9.82129101305364,6.662583423827262,3.195731923374148
-28.0,2.704981203139219,-6.759372564142659,-9.464353767282587,2.0717157794482164,6.122915604738209,-8.07773446989962,-0.5573269041244353,2.120344305517869,-2.395422668051193,-6.264007021810913,-10.856847955412572,-7.63932224285662
-27.0,5.217336246948578,-7.029731777324002,-12.247068024273819,0.8769170931374377,8.68372020539382,-9.592054757359518,5.414321463866123,-4.934831305489445,-7.488252687045369,-11.412849306052758,-13.202378421297398,-9.86570295319984
-26.0,1.086362541900306,-3.0144559383757237,-4.100818480277169,0.9405762261232162,2.619281561155012,-3.5805594563667524,7.551098728070293,6.68007595598038,2.583422051758871,0.40648109921639275,-1.2442745739147982,1.6285180910425257
-25.0,-5.4059617721518585,2.486531833711881,7.89249360586335,1.4411694889106361,-6.6230922746507375,5.1718814614893205,2.007568518032313,6.561600788299944,3.489896210761057,2.558336118647916,6.120997130517502,4.279305648037597
-24.0,-6.364527384385903,6.135025376165205,12.499552760551744,0.09920369165603793,-9.40030042766948,9.300288527509007,2.608157473687983,6.801893769317216,5.511031153923154,5.64131682799318,6.508843015618279,3.2682950878969446
-23.0,3.1820918494425046,15.655027104718597,12.472935255277278,-9.35442278252165,-4.683294273271153,14.043709896536937,3.332799002852018,6.800308091943897,10.506592929511584,11.976492373186112,11.09286456161608,6.314975289156383
-22.0,-1.4897699867006136,-1.8106788627912138,-0.3209088760898924,1.6349914448405927,-0.6126135969141782,-1.0127164810690488,-10.964032374172755,-1.0534787381312234,-0.7466719482021649,0.5315629721100801,4.702066488823499,6.359439828033125
-21.0,-2.581385208032982,-10.34770719678253,-7.766321988749944,6.4478629603597275,2.649877727126322,-9.088088902436262,-12.372327285900749,-18.126108377499804,-11.784672828145323,-6.74565802380785,-2.990265570382849,-2.2445465585142497
-20.0,16.825409003820468,1.2268476842567324,-15.598561319565157,-9.044498141091783,16.191929372875823,-7.141885541567475,-7.367579646863425,-16.882670396285704,-11.169113867864205,-5.11753928620834,-11.28976670385054,-7.427417202838213
-19.0,2.673939171081299,5.396391550853062,2.72245237977085,-3.9764007434265927,-0.04967833703070035,4.0233407815616165,11.61505313585687,16.099817663048448,3.7674139951221193,-2.0949621800280873,-6.385472858010174,-4.705253428468402
-18.0,-6.430489002592138,-8.31287675707849,-1.8823877544861873,7.350173389415111,-2.3104892074494954,-5.054257863367887,16.690607417114602,13.17723885339487,10.662144321218928,2.5458945510720845,0.6324352385372434,-2.0736312201282234
-17.0,-3.981012306215156,-19.738980561046485,-15.757968254829857,11.836915530686776,5.917017853953619,-17.782285091758684,-0.6209048310563485,-8.200736768380342,-7.180987951557827,-9.968128033276026,-8.659185810335487,-7.0371769799367225
-16.0,-8.49195757931528,5.041549108747196,13.533506688064316,1.7003888811524366,-10.99683675259125,9.254835123951525,-5.409313667967118,-5.503494917334873,-5.452846375366656,-2.864737939975955,4.237943325519323,2.409894099444941
-15.0,-9.828497515171371,10.272243152997538,20.10074066817,-0.1698333507215447,-14.956708375353092,15.232318602558273,3.154069913751518,1.5794891824699477,3.2551740546237222,8.995820922602105,10.615494613582928,9.65557972123931
-14.0,1.28808531256551,7.600359254238558,6.312273941672798,-4.472943576520912,-2.5055449523778117,6.921611032965881,-0.5108184555698232,2.4445647444532392,3.629790681512929,7.391655804746484,7.331583839294224,6.343283273488194
-13.0,11.632513503336133,4.899688399997722,-6.732825103340174,-8.218258432900905,9.194266601984197,-0.8753987692163552,-11.635654326056802,-1.6098595160238545,3.8152244947450704,1.7065389550750174,-3.8826092621641726,-1.4813754754692807
-12.0,7.921002116311539,-3.4164161250207727,-11.337418241334996,-2.285760180163817,9.65010119118316,-7.417602689530424,-8.192028340446386,2.6660611972321613,5.517891393745486,1.0367032994704062,-2.688885817963019,-2.59953317424593
-11.0,4.880157891104885,-0.8202722423421873,-5.700430133449685,-2.066525440909553,5.242809636247912,-3.224691375075018,5.893211047908802,3.017495401061356,-2.801670596288412,-3.008732306909156,-1.4881196027266048,0.014261748049524847
-10.0,0.9148570161334566,-5.17703080815102,-6.091887824285498,2.1696459150115377,3.4644370770043307,-5.678567818765607,8.166410196353011,-3.280051384933389,-8.833984315514385,-7.555911131669036,-1.742035120968107,-3.6778585563958126
-9.0,-1.1716670604017931,9.044442765440177,10.2161098258428,-3.9014828354839164,-5.648975796064653,9.665493043263968,5.73957011410346,5.5285346197495375,8.285897879102333,6.201364053505958,4.606428818693213,3.529088281705538
-8.0,-6.908362525281191,-5.348583039834396,1.5597794854493863,6.081746090148441,-4.266239046725966,-1.8573736357367394,4.050410858872942,9.427016043026567,4.992120796128927,2.5923543895177232,-1.7003702119971043,-6.7220160929142265
-7.0,-0.6212679142138189,-0.4077284383592028,0.21353947585725752,0.46668903479175494,-0.37125790479985543,-0.13654820479393265,-0.7207413725394001,-4.944852640921708,-4.5561373934683145,-2.5761117332625902,-4.391056355131975,-4.512499975853508
-6.0,-0.5098494525645174,2.8760305569973115,3.3858800095639268,-1.150545787653885,-1.9811637434916944,3.0933869910085825,-6.977347996904429,-3.051049252643714,-4.086402658794755,1.7749006220454668,4.973950933445035,10.580402723479548
-5.0,-5.457888875909629,-9.51916643572714,-4.061277559816366,7.525571304261931,-0.652247471432453,-6.7480413934166386,-9.324145708737012,-9.568806139912988,-8.37998817258613,-4.592641675645637,3.567449922355528,10.640578820065642
-4.0,-3.1959191349468052,-12.190125772898597,-8.994206637951839,7.736506522106831,2.869090641753108,-10.62862385085991,-6.582567235760823,-16.658926357067926,-16.33165481034967,-16.890708291844756,-10.64170586208296,-6.348599523433674
-3.0,-6.8046320261691395,-0.9767860414643185,5.827845984703978,3.8617164063048395,-6.341890546160506,2.4673753862928995,3.33294258108202,-14.918898465002254,-1.162433414332504,-2.3329647226022763,-5.383307851841166,-11.83741058316538
-2.0,-9.282846067640204,8.577992226103852,17.860838293742205,0.3270050275677492,-13.513679154675245,13.181772257901509,7.163191495615291,4.5935057282142004,17.08817000965357,14.043300185478852,3.827527045925284,-3.4697847180637176
-1.0,20.16417785289506,22.00737402118597,1.8431961682884728,-21.112124109784475,9.144096724573076,11.96521842764151,10.155767869545986,29.124641793272474,25.290551677689134,18.255296558166336,10.705641729614513,5.465877101549955
0.0,13.962145626152786,9.370787483277061,-4.591358142878747,-11.69834182240387,9.262239898310247,2.427416228577605,6.208635751087078,34.19630144650478,12.694307077839543,7.582813146721861,4.6099547231885305,5.401632202639398
1.0,6.722637742158233,-7.685476503003755,-14.40811424516376,0.5199166527580479,10.549629514898761,-11.091904682621626,-3.9999630268636537,8.379574472079554,-6.6048577517188125,-6.911886881121391,-7.365223522198371,-2.552553924283864
2.0,5.185788093606824,-13.395912764356265,-18.581700857962883,4.135229036555405,11.863809367037208,-16.040109652622533,-11.110395341799661,-17.271642329891744,-19.722348447440325,-15.320385685099849,-5.071345829360588,1.5936768320196921
3.0,-7.107019714705741,-6.004055338033236,1.102964376674623,6.580314835936105,-4.052244668963368,-2.430731888560784,-4.594109339623669,-27.159971771262448,-11.414583875042274,-4.907517117941568,0.3112604096176357,0.4235425212971843
4.0,-18.95831542437293,-8.53853974052959,10.419775683846495,13.693916380406792,-14.721444165427897,0.9530768157761691,-1.8452727568457723,-20.02949068765324,-9.500627396378464,-2.2440657056684357,0.0886942934943491,0.14192138338436266
5.0,-5.912874798257715,12.131065184269072,18.043939982529615,-3.080059926734644,-11.937342993141955,15.095047702026644,3.3712625869719317,-3.2038909480268263,2.6607357474264273,10.294324253300648,10.72194387011998,6.068906634342696
6.0,-4.67450334110902,-2.196699450661889,2.47780389044817,3.39515218674748,-3.6171473074733607,0.1473246132903956,7.084518092225402,8.506187622528774,6.092346617080576,2.2880856639078875,4.247788501742917,-2.3725297490163384
7.0,-9.692289424199343,-4.719061099955871,4.973228324243108,7.255850736883934,-7.296196612154285,0.13770202065885861,6.080351023145823,13.258166469742958,4.641198842175601,-5.035286031042955,-11.289530673241995,-6.191317748989983
8.0,16.985413769072398,10.152150811917128,-6.833262957156405,-13.585273118754092,11.867572515763424,1.6775200040929803,1.0267957648925479,19.476611594993386,11.812223687565918,0.7532108437503362,-5.868508737149058,-6.274460291808601
9.0,16.81531390209237,8.326817776929083,-8.488496125164382,-12.577705894962419,12.690048546772172,-0.13260919448426223,-9.430985982987188,10.07501663656097,8.367689494016492,5.467313580728769,0.7663950792658945,-0.5731943719635861
10.0,0.9310105197528387,-6.6747954939465055,-7.605806013701309,2.8709028231109226,4.228718336712435,-7.105544782246161,-7.422184615239528,-15.324548204600747,-10.808422661365489,-8.443562682529244,-4.9353751067039004,1.0573904369933729
11.0,-8.345417931485681,-1.898161219071048,6.447256712412601,5.121198154623724,-7.357465071800947,2.2350698114693195,1.8695355728595449,-14.299824366838719,-13.471704127553577,-6.559392064028754,2.0876207070728365,12.91633573429928
12.0,2.542157016843027,4.605245724277754,2.0630887074328568,-3.579045647541012,0.1977551019048831,3.3736459113099686,-0.7367734079943579,-15.529347344810748,-0.934671027143855,8.373045720803969,15.544721177109375,9.96453040178029
13.0,-3.709606607257566,-1.1331581567092206,2.5764484505480802,2.407342549919101,-3.109965440766953,0.6785630960630247,4.082726448785741,1.2012772801418787,7.486492468657272,11.08459506046172,3.8829785114125617,-7.49769249624374
14.0,-1.835021563475424,-8.146114870261421,-6.311093306784567,5.044646588290053,2.265243014396467,-7.199262634174351,-1.0110442599405558,7.607652016495939,3.940835735906064,2.6718438623256704,-5.378605726629172,-10.25815252804561
15.0,-3.293360584380383,-12.630079651544168,-9.336719067160763,7.926812475705815,2.962817686450135,-10.960617186802562,8.897516646095017,16.815878519197206,4.421635513828653,-6.838695531134221,-10.7691276787341,-9.325748337850506
16.0,3.6115602368626787,-0.2457022748954798,-3.857262511754852,-1.7255420761162554,3.7464883092826953,-2.111764938558056,9.512723308550896,26.80484871458179,12.47785364750582,-0.9882940916720004,-2.9811075803869302,-0.44801821851872514
17.0,8.600748394467443,10.966843586627538,2.3660951921626117,-9.751410039446585,3.122511968597978,6.6849135812926415,-7.474079406528453,8.110765362239727,-0.8291994922896704,0.6184437003030498,4.855787027824163,6.538265525673952
18.0,-5.8334787608228424,18.07725047352369,23.910729234347308,-6.089026581402967,-14.871306710762823,21.017748808733906,-15.092716842373669,-45.21141942419053,-41.46030787904849,-21.30462396241592,4.858588060002101,9.625042506701398
19.0,-21.626958509062874,0.36040524915257066,21.987363758214,10.669765303023233,-21.806957671080852,11.207961183623151,-1.3112683096262465,-56.59129874774722,-48.28873018871123,-26.864292288668565,-8.484667114073105,3.0859784241392365
20.0,-3.3010475589796444,-19.736814993932878,-16.435767434956205,11.481382856257035,6.5712800420897395,-18.117359145868175,12.807240704954117,-6.550595576686462,0.8512192695016623,-4.999358137156527,-15.45135122608833,-10.646466135784982
21.0,23.085207919190715,3.653913454141316,-19.431294465052872,-13.403510346568313,21.26964728671386,-7.905477563169866,0.127989273738355,60.02261800736359,78.64357632584088,54.88303166589712,14.147580776507374,-1.7904891492644284
22.0,23.72156846808249,16.752032973407402,-6.969535494678418,-20.269555634316642,15.366609576475497,4.886710274188371,-1.7745944585786448,76.69134388961898,95.25029332415473,68.80030682637788,28.3900211161747,11.712308074921209
23.0,-4.0821178539410745,7.362353553158602,11.444471407098181,-1.5951252679698618,-7.811318172037363,9.40705207684696,-7.247385851953163,19.249867732253726,23.636839847461736,19.223060181544433,15.53112584748236,6.662008806751934
24.0,-17.985096124265823,-34.338125852189286,-16.35302972792319,26.126145663875455,-0.7777387902664328,-25.33875687935396,3.063396272348461,-51.99256657105964,-93.01111599092629,-75.9936214297795,-33.37332192919773,-19.93931122354191
25.0,-15.411952068022977,-27.539980787771032,-12.128028719744952,21.518740577768085,-1.6783182410282005,-19.828750785261764,-1.1667928895168496,-68.36735005147175,-97.78566753594916,-71.55299805173362,-26.39867126263134,-8.307449977497154
26.0,7.432145072124106,29.682492921321142,22.250347849200224,-18.51256971530356,-7.445083374701053,25.96658115164594,-14.965752322418485,-46.02580747354479,-39.57649237598205,-6.406433419796912,17.84248495441031,23.717683838891013
27.0,7.829285243133695,30.1016863414225,22.272401098291404,-18.994972716822453,-7.181384768339206,26.18045128660165,7.251164017457617,21.254814603391633,36.98059549654772,31.54130751982509,21.63133135606821,13.64012241621698
28.0,-9.148705315646367,1.5027414666881285,10.651446782335233,3.7994317918320757,-9.86420407821935,6.064200338034146,16.040653242426558,44.40735077988406,54.28371447605143,24.667098073935357,-10.394879801419874,-15.588580630445056
29.0,-3.4341303376444676,0.5022749330838847,3.936405270728085,1.4480616205733599,-3.654195853859229,2.202482210336842,10.278218308258484,43.46867792650521,56.15243428973013,24.044367313876084,-13.319784980432619,-17.21244976616005
30.0,9.088783723939848,-12.435808536357051,-21.52459226029791,1.6595495908515923,15.254626332409783,-16.918790335862667,5.485702636018921,9.981359523789344,9.451121257285216,-1.188879123820854,-9.418932029768117,-11.342400392789724
31.0,9.852121946041395,-14.560258952483686,-24.412380898526365,2.420019583444944,17.077020524642467,-19.50066090028972,-5.48090329133176,-14.020663027544616,-24.374453508940693,-10.261176963976158,3.2437477081247046,2.4212649620866578
32.0,-1.6470254054231885,-9.524693807924079,-7.877668402502101,5.571171953304535,3.1378197936527394,-8.7102640053544,-16.80153373045858,-23.233282517586876,-24.806408082246513,-4.77102871905638,11.434142977489643,16.450850694033036
33.0,-4.552468561334006,-5.309414949720163,-0.7569463883869474,4.9115716075378035,-1.8731568093610846,-3.036821854350534,-13.625024629717705,-19.463066115046495,-21.50332038923169,-1.0796048196934285,14.85544492088525,18.070950131671452
34.0,-2.454487140169936,0.29781024378375776,2.7522973839532634,1.0522637328109217,-2.573039026954029,1.5248000911216817,-0.36021289056711225,-5.211166664185466,-14.218430257833473,-13.737209301443848,-4.007583440350416,-1.9116825467471354
35.0,-5.138590083509561,-2.388985785609215,2.749604297900424,3.808941347870456,-3.983612274776605,0.1797310382495425,7.360247856817816,13.933537084408771,7.217619544581073,-14.810128523662073,-21.46081740152696,-18.139696038599894
36.0,-1.0518292088081886,14.897458541633428,15.949287750442135,-6.9633233017945475,-8.451020332477846,15.418213517911507,4.809827357430282,11.420302968881591,12.86472200459586,4.43252482935537,-2.8626510261122373,-5.206557221821882
37.0,7.142247845005617,26.48435724088643,19.34210939588147,-16.78004840429711,-6.11991797718361,22.899960517334247,5.447431830443083,3.6849207849829932,17.751428339661494,20.27147910008394,21.702447432390745,13.837021766085703
38.0,2.5162365882284514,19.218608186367824,16.702371598139745,-10.836340153588983,-7.107330459411865,17.937288222845716,3.859004076214788,-3.8439494871391737,18.142968555606934,25.092242288436257,16.981954995570717,11.623282889201233
39.0,-5.403510762697691,-5.373496657355714,0.030014105342057285,5.341804533238895,-2.730181504653609,-2.625877949282909,-0.3586005548235347,-10.36712347032595,-1.5815642590161598,6.154645674211117,-5.5950577253276865,-6.350254367111894
40.0,2.0004288859663184,-24.69729344014933,-26.69772232611581,11.30564439073608,14.331898217162333,-25.659452715358217,-2.8782244355331983,-4.602321944308634,-18.1520403454539,-17.726455262084542,-16.029644232977063,-13.74140551073321
41.0,2.5383659110027725,-23.612503554459938,-26.150869465462982,10.579248719083491,14.320940745265064,-24.92762960777179,-6.198114118493069,9.230786102733552,-9.05051292070243,-15.815963704194216,-13.794612197370784,-4.212873340476386
42.0,3.3923101135775644,2.5918602860811504,-0.8004498274966814,-2.9424466262830444,2.144841715982311,0.9255527854198782,-3.1997220820565144,4.936107056962074,-1.2108380707901905,-6.178330065672325,2.024160868840198,2.353166459214514
43.0,-2.540205078305668,5.444614865024784,7.984819943330286,-1.4740828138789142,-5.218587173434525,6.664392865829365,4.186269152643179,2.873532574536571,2.487562487661143,3.3185368279556346,5.7067659066152405,2.798073840087197
44.0,-10.85287989525154,-4.53924608314917,6.313633812102345,7.679589676208058,-8.61980252896773,0.9151179201474635,5.494566905596721,0.9656258117144353,-2.13947925535936,1.847461411961464,6.434177916907025,2.1481832020686777
45.0,-5.27248532227753,-0.2012722455352458,5.071213076742465,2.7227575969978326,-5.129516665308806,2.3844515040096574,3.334377293079655,-2.147882023711078,-0.7570174430750969,0.30056987890399967,-1.0767647794638036,2.3780211584239552
46.0,6.33803713198575,8.521996425060596,2.183959293075157,-7.4451960664184345,2.040545450695747,5.3826345168102065,-4.963252715237385,-13.931583610532343,-4.745708082516752,-4.239599727303508,-2.6247462504083208,-0.8240377135156951
47.0,11.13853008537921,10.119716687085813,-1.0188133982931085,-10.648168762693636,6.039923779106434,4.582941343743094,-2.165415777244722,1.2681946902180243,5.528837088476973,0.9754011158111568,-0.530591278196002,3.836006148338063
48.0,6.371192844973481,3.5093033262592517,-2.8618895187141336,-4.886062724712348,4.651331608645195,0.3602453028301742,-3.585292364579777,2.612793128741834,4.99341509340899,5.9203755934431666,2.6868400067184393,0.08392323515889699
49.0,-0.07832463637697806,1.8651500887967956,1.9434747251735844,-0.845340458710834,-1.0620927638864448,1.8666075865168428,-0.4383645916122383,3.0805955374008405,4.408585430815087,4.698157646427477,3.5353885105526857,-1.7786256576382287
50.0,-10.786715001814555,-10.393020952301098,0.3936940495131889,10.553023368177765,-5.56958531609809,-5.033315266285582,1.2502100232940774,3.409913783808914,-0.40972318654899675,0.06007059657671299,-3.136895472405645,-5.920288860020454
51.0,-4.458386641635771,-6.571215814759739,-2.1128291731242164,5.47185916999011,-1.156145472703309,-4.37253171682411,1.9649289073176797,-0.7137381604987079,-0.9472489472062092,-0.9445330276135792,-3.621736736599925,-2.0689692564636726
52.0,-2.8786028507113355,3.371328755286071,6.249931605997334,-0.2163829794868759,-4.546972211645832,4.861413928184353,5.7343868211457085,6.132988207750083,2.198594687955409,3.0067721502840143,4.862662246528027,7.293493693994321
53.0,-2.126929321664668,-1.2461581622255986,0.8807711594390562,1.6329126291657479,-1.4814556442583313,-0.2078881767864893,2.888452294273205,-3.810388253652347,-1.4519441844635463,-0.3498790781646237,0.20469070630075054,-1.1037514949603127
54.0,3.8244597532427393,3.591916387999402,-0.2325433652433535,-3.6858224149732886,2.0582280446804297,1.7369559393047955,-2.8154184920017933,0.17240421421980479,-1.5562573498390213,-4.063100173556476,-0.24154014999380646,2.833927524419319
55.0,9.724346062179466,1.4089573028551912,-8.31538875932426,-5.543912084349824,8.977114450083086,-3.470003370728113,-10.90653969413817,-7.082923853236319,-9.010774438917066,-5.802983909951668,-3.3126906110767953,-2.966364784939562
56.0,0.7417210050338987,-0.54887122000737,-1.2905922250410633,-0.07001920904095815,0.975774294960619,-0.9316187714135225,0.5326353390178626,-3.1943463003734696,0.9283324106504391,-0.26060878721510417,0.5801162594109455,-2.623234737731581
57.0,-4.766268815996005,-7.287350463416459,-2.5210816474201003,6.059100813875405,-1.165471098691045,-4.912221958847591,6.292474613160243,5.509741930970987,2.145891582563985,1.9959057207372362,-0.23384492798705725,0.7407623823562397
58.0,1.7219353870942435,4.030663216302543,2.3087278292085434,-2.916636393847973,-0.2634641074346642,3.1634510004320786,0.3288574749848361,3.16584650895307,3.567034923912444,3.524614057573615,1.703059471155857,3.482494016605611
59.0,5.990103299191045,3.2232320485091686,-2.7668712506818602,-4.642583874416349,4.402138473864547,0.22107399676137884,0.39196245659645945,-5.720813212708919,-3.857650382562158,-1.993263225656705,-3.2291880056577122,-2.2971780760629645
60.0,-11.293025683157147,-2.858873821479004,8.434151861677911,7.041906465974907,-9.843313487240742,2.777279590422322,-0.1273197228576597,-0.1492282935643781,1.5236718266888383,0.004515186325777187,1.0964991418633492,-0.04673351939210779
61.0,-2.2624895440331674,5.760827119876687,8.023316663909446,-1.704430269762931,-5.121262930845557,6.9556025357775235,-2.5255792426133707,4.671702116101573,6.909497017981142,2.7528040091926558,3.764630541876944,2.6185875701878993
62.0,9.667799022687507,4.843066583023002,-4.82473243966483,-7.289438744547898,7.273669593272505,-0.011493685397025777,-1.5987907695443384,2.3113197504998753,0.6460443956071846,0.26350402743139867,0.8232494744134202,0.2788963085618893
63.0,2.1108873972846496,-2.138825296431457,-4.24971269371627,0.060489513357349534,3.1369438336605313,-3.2199079071625736,-1.2948694953002282,-2.328782945551843,-3.6758418859177278,-1.8383520066344254,-3.4356706544709334,-4.877394289194576
64.0,-6.253191299029914,-4.769963695495157,1.483227603534763,5.562255840631303,-3.904153021512025,-1.6725443992899671,5.715802646961021,-0.10108511154467847,-2.2027275156582116,0.4957679000946147,1.0608466462910875,-0.9713268356534774
65.0,-12.178032412645909,-10.60825811033997,1.5697743023061452,11.370494882172926,-6.905093152357457,-4.4709522932078185,9.218738991469433,0.7810221125964378,0.032568643688483334,2.2731713266152997,-0.947587865567932,2.841716613769978
66.0,-5.1523519886818665,-6.509108286027026,-1.3567562973449359,5.812345992140822,-1.8487303103325963,-3.9620131597161317,-2.0738359859753586,4.264150527527493,-0.5898694034821714,-0.1803320215326083,0.07832047552306676,1.0318139066557164
67.0,8.647548504047943,3.0434935847469404,-5.60405491930068,-5.863315722901646,7.095145254582211,-1.2268539702965562,-10.883321792527294,-1.7753909297529344,-0.29685657875799043,-4.380023946692527,-2.4766098524533606,-0.06165425377150724
68.0,16.33098221777846,11.029579870717212,-5.301402347060861,-13.70246261775609,10.862127024217822,2.8438130093390397,-6.747704848504021,-0.6910980742315516,3.7892485086850343,-1.4557897490669092,0.5211161910379963,0.49769433816424524
69.0,14.371356857775863,14.83889976401587,0.467542906240236,-14.636013584085582,6.995414432848575,7.637636916343902,-0.08564696793504378,-9.102981254530585,-1.6614270751243092,1.4661821230376195,2.797387102129432,0.05305402391752784
70.0,-7.092840188774939,-3.428800504587219,3.6640396841877667,5.298042149171177,-5.41628426956493,0.10468909113211122,4.339037022538156,-18.32105222832963,-10.395585200677765,-4.525293394548699,-2.5309992151944547,-4.861690787554103
71.0,-18.40762945458029,-11.460187439611868,6.947442014968151,14.961561147755315,-12.718651107077973,-2.2698618130927346,8.896550880461694,14.683644076650847,2.4387307734971224,3.0594242104962923,0.5064711579542707,3.4962304452147808
72.0,-4.89704712133099,-4.377893810096813,0.5191533112336177,4.65894121462868,-2.6748292574568584,-1.868230663031381,3.108480802824684,16.877812289743407,6.0155252415906055,4.3360457145605515,1.0000675117193447,0.11410072547019945
73.0,4.959176518662252,5.544143960494507,0.5849674418317604,-5.232242718197439,2.1363977802987,3.039785217480819,-2.3595742749115054,9.438600936422667,8.724216127943933,6.041715157410565,1.9058472801906379,2.1185799607728373
74.0,-1.4741963346062215,5.6816679556473275,7.155864290253431,-2.1618068956640064,-4.292094266696148,6.385079034659945,-5.302821281646944,-0.3446065773000333,1.6749280507883122,2.649578438184956,3.2498308742999713,1.884665962918876
75.0,-0.2673898811299291,-1.1067798086324006,-0.8393899275020804,0.7107692883330055,0.3052676682347659,-0.9368662701591304,0.31786624618608794,-15.584745910955217,-2.1327674910787726,-4.354858607509689,0.5698432143168229,-1.0435486903253965
76.0,0.8624954375945375,-2.587084352628295,-3.4495797902223124,0.8107040059205946,2.174060291474215,-3.067613441806147,0.5123425885182531,-6.005194656577491,-2.7671340178591164,-3.2715344566372617,1.7279427255610715,-0.5888261027427801
77.0,7.29659235041251,-6.33326740950523,-13.62985975991753,-0.45084026517457954,10.482584846128193,-9.955070453367076,-1.6807322213167646,-4.591767503300717,-10.7428481882591,-10.556499936139922,-10.106816629181022,-5.884158264155277
78.0,5.408750711192681,-2.4414507433186228,-7.850201454511443,-1.5270323267617296,6.57330656241958,-5.117795578570318,-3.5607493843845264,0.9261791535892376,-5.9000889183886835,-4.77652289850727,-6.764819982844376,-2.920663452988873
79.0,-8.47394655494727,-4.115790742533952,4.35815581241296,6.336649069651962,-6.389496749084837,0.1546779517944482,3.077514986208931,8.850014049454693,6.301112702347853,8.433206834360801,0.393506492566289,2.728074255384189
80.0,-5.415788824911879,-0.603419093084681,4.812369731826841,3.0599692514615433,-5.1625724860888935,2.066822230476379,4.474748030090863,-1.011139592484791,3.258757641738667,2.490954121257797,0.7589973102385557,1.1777403803820343
81.0,6.1354804629732484,12.238039431966364,6.102558968993066,-9.205448343292897,0.049568646393677085,9.140041761062637,0.24738558400764044,0.47808113249457307,3.2968083932669554,3.427391524095448,10.082125747401282,4.002036474074789
82.0,5.387427772926561,13.698348845130504,8.310921072204168,-9.553153362512727,-1.426780656137943,10.979541149453562,-3.149521488833984,1.2020478170513647,5.129467609218166,4.435686378334012,7.549449801622735,5.005882113804345
83.0,0.16667807558576442,4.323411518014725,4.156733442429562,-2.2510490480977543,-2.037861530323117,4.295561340867872,0.13821371946206684,3.5282348757161834,2.1352431955638154,4.917916668604217,3.1328818117578114,2.5733860105090067
84.0,-1.8946920236497282,-3.3623208278343855,-1.4676288041840104,2.620421283927845,-0.17744373889611106,-2.4398000486223843,-1.3374017784224441,1.4827971322430789,-2.1915182617085858,-2.936099232049018,-2.1786796713059164,-1.7373339363971625
85.0,-13.249469615027534,-21.86844683385871,-8.618977218830926,17.542023014933214,-2.358375855412297,-15.194050704854387,3.042957635453634,1.5772290984373656,-5.675232649330187,-4.168908468683492,-8.942298542130997,-7.930314207930935
86.0,-9.612332542228657,-14.674983082349165,-5.062650540120938,12.112821637918533,-2.2401205438645357,-9.903745970364659,-0.05044105509795416,-2.70690073282427,-0.534344869977756,-5.788818231583475,-6.997908979843947,-6.242743037474753
87.0,11.662445009988655,1.620735548890348,-10.041709461099108,-6.609214996616656,10.807014728621253,-4.251515317469489,-5.110909903194133,-12.79796877690369,-6.205243770814112,-8.6757420400377,-8.537418833337227,-3.460968854462417
88.0,16.62924386257567,12.821755666901279,-3.80748819567526,-14.70633485005067,10.251200200615495,4.539834637957605,-3.3149516978236635,-5.3170433282583,-3.747157456684824,-1.9534842907206649,1.3663964546367615,-0.5181412085961759
89.0,-0.7089922935681017,12.969416016832891,13.67840831040049,-6.118774145997537,-7.161353914605862,13.353769963139086,5.71226335221826,3.9167522978015867,7.791857482157227,10.033429659111054,12.627328953235757,10.446200985361404
90.0,-9.934013708358957,4.900645787333011,14.834659495692048,2.527226159775176,-12.430878931336837,9.818628560485346,5.442190030360879,9.65705778025541,6.199397009306304,6.023313110852407,7.595854589408382,7.9736027482646294
91.0,-3.048069631801252,-1.785764574460328,1.262305057341461,2.4327124317142954,-2.12290180737621,-0.22968740135810606,1.618707656806867,5.294402884961452,0.9072457227072404,1.2187756325641592,1.7078956568300914,2.1868251870211353
92.0,1.1093345990649341,-10.300624652117344,-11.409959251181565,4.541934265206308,6.213429912610533,-10.8195083860268,0.4530303933904262,3.289693560873215,-1.5454024595899272,0.9634902933744922,-2.243980123930875,-1.695740066090859
93.0,6.146783174698193,-0.8855867915107716,-7.032369966208373,-2.673739485725263,6.622706179013227,-3.998207275623355,-1.7015585403123836,-1.1581753982325658,-1.3043627172064443,-0.9025150953575077,-5.1905888987692705,-7.103264031106943
94.0,5.290110900450516,3.2827809684760725,-2.0073299319741054,-4.2412596610301,3.6043718551620216,0.6009720993767722,-9.389860442999023,-3.469678411818207,-0.31228767244093003,-1.2201494234786567,-3.268858287974248,-3.517978422215693
95.0,8.019344777438599,9.784184426999884,1.7648396495611438,-8.84954389096285,3.163760625255056,5.817177019870032,-5.132152629961315,-5.685755907110469,2.840445262641692,-1.0113442518431115,0.761184023586579,0.6973623138390792
96.0,-14.032746564166743,-6.599546930994546,7.433199633171731,10.293381867021123,-10.693902102201726,0.3799975143262868,3.871054508004356,-4.092392816396082,-3.652784754993727,-2.870298220142878,-0.9035747737347435,-2.5293506726148443
97.0,-17.60083623125297,-12.44672825805024,5.154107973202282,15.001594579818752,-11.415193879909133,-3.6054212301554682,3.718027235375145,-0.4491981455906777,-4.428782815492371,-3.8642316353216972,-0.7817735660724145,-1.0677573446593491
98.0,-1.1140005018982073,-5.9438768116544525,-4.829876309756456,3.505051884351169,1.898869703391032,-5.424737015974057,6.139625581625324,1.6768457568251465,-3.6334006883867254,-0.4120145263731094,1.6911791606403281,4.219198032053774
99.0,1.408630084891544,-5.103363569926627,-6.511993654817889,1.8210957850116487,3.919209024943188,-5.764843681333183,1.4580404762769774,0.6807565708270724,1.4753555803455576,-0.7658056835552451,-2.476962063598846,2.2375142831825556
100.0,10.139366286035049,12.491381878962457,2.352015592927828,-11.264220880215648,3.8460380831258982,7.389733024765176,1.4530498755760395,4.984287700933822,5.516523442786483,4.704667527914372,2.4668881949743984,3.2422940218055842
101.0,11.342060967196574,16.021809048083682,4.679748080887341,-13.629946669116961,3.3538471243658474,10.402616011003087,-3.587254086509641,7.099141688273941,8.427367613087625,6.996456351655121,4.377293632805903,-0.525746949088306
102.0,5.137608963060687,5.354085490103053,0.2164765270422322,-5.269753020757377,2.4753724192646613,2.7629677897487523,-3.581953277671005,2.708672107032243,1.8804959344879708,-0.20872634070781082,3.0746107294252,1.8462446188147847
103.0,-2.5809608032345768,-5.177344938747577,-2.596384135513506,3.8587625315563243,0.017682081866181032,-3.9066178330888466,-7.211900026518911,-11.65627474417257,-9.026454452200811,-5.570898527227111,-4.97736893161755,-4.996143129881014
104.0,-1.4484938008112969,-9.620662090120524,-8.172168289309708,5.516449744366822,3.3714885852651886,-8.916570877426283,-4.0345419086751,-15.312503802231154,-11.347449532235043,-8.464099214191084,-7.409779805120117,-9.762004569182404
105.0,-5.250452024126551,2.2113284225437226,7.4617804466698505,1.5008846558557112,-6.342566382067149,4.8131612894547375,9.452194334251681,11.204415796421685,8.603495774213183,8.794435265488758,4.294683130296906,5.746058546290593
106.0,-4.294884992636996,-2.851569327636862,1.4433156650002226,3.6293864749250613,-2.849466868754844,-0.6538139119352316,10.245503107916642,12.631069311340449,5.326933881903755,4.783672927205388,2.2719192064837714,5.059262049958166
107.0,-3.2201167487385716,-9.031671770211691,-5.81155502147279,6.096626066583127,1.2419065780740839,-7.376799999388478,2.839465631138242,-0.8899586073496843,-2.3775147751053454,-2.5029425875892195,2.6394754621108123,3.6025499348364933
108.0,-5.989078732820842,-3.516288912968638,2.4727898198525313,4.715431081906605,-4.204125171773741,-0.5605804970222328,-6.957590256775239,-8.180250593041505,-2.3123174720853963,-2.8019977651173513,-1.0979496181831585,-4.773689607867005
109.0,-2.02324112816389,10.709393570802957,12.732634698967153,-4.309130748073195,-7.43262346413818,11.67838173868764,-7.166589558990669,-2.3444634877197847,2.293950013388943,0.8876863291227604,0.2704864212785318,1.4870032244296225
110.0,12.067986535850574,6.538519022358459,-5.529467513491971,-9.2750566729057,8.816276548082216,0.5379382941406936,-4.787059650320913,4.117986604746804,2.7440046577298998,-2.843415527541978,-4.030815474216544,-1.2287537978539682
111.0,9.647425907358079,3.7430817538767682,-5.904344153481417,-6.670482482058959,7.785742197273352,-1.049059969649576,1.7541103100946853,0.9578361712870024,-0.26103129441610806,-0.3650571052856322,-2.835283988920157,-0.04901488789159347
112.0,1.6570344330120683,3.0549761308400405,1.3979416978279544,-2.411454597630464,0.13386355624852353,2.1780606326834224,11.425502633953956,-0.12793496184040132,-3.9602909485438405,-0.7684664794787133,3.8528207200596176,-1.0141696171314238
113.0,-3.7721016013862196,-11.22605486144986,-7.453953260063568,7.522024562740328,1.8445977273828065,-9.310336583983188,-2.0403141101460944,-8.233636396434543,-8.390738513168241,0.06645872114191276,-2.986261215232612,-5.318964188571586
114.0,-7.9272743563097485,-14.654684984039719,-6.727410627729872,11.23524265792996,-0.5909856839134708,-10.740132679469653,-3.0264522121918063,3.3414925554113126,2.9241889487514223,4.316078411819657,0.31915697918201225,1.4463058364055488
115.0,-13.038113959226514,-0.920292646419969,12.117821312806448,7.0025282597101866,-12.559037924163002,5.629407236128825,-1.2231058136693818,3.061297597709152,6.111088514714578,0.5268541397610012,6.7015036116298585,3.2849269608572147
116.0,1.2724177415030997,16.114347783837097,14.841930042333908,-8.669238309874803,-6.754262643899615,15.510938592984779,-1.7400040892121096,2.2509468616204176,4.298271074009607,0.8223822099180411,2.4866298699745943,3.843497208893827
117.0,12.723044830410904,5.154602031061301,-7.568442799349473,-8.913071324879187,10.106696375795352,-1.24971744343111,1.6504032069981212,2.3703884200661935,-0.7422305973039389,-1.4758505027732813,-3.776117216121884,0.7741387421792658
118.0,16.078209579569567,7.701512484728566,-8.376697094841017,-11.94057608588991,12.192064818753401,-0.29816457539187935,3.1964923265285066,-2.001004604488563,0.8326381198953944,1.481697797096819,1.0413455404967031,3.5543012773267044
119.0,-7.472735827524196,-0.7834823287895503,6.689253498734295,4.158482438680959,-7.119396185348684,2.916356223629046,2.5102979865166053,0.26919902431660514,-0.6388878902108086,-0.5156421002616821,-2.112000018096813,-1.7600912993347486
120.0,-5.268133699789428,-12.05280747113975,-6.784673771350626,8.692357948367857,0.7903598918712866,-9.375357368196738,-0.7205448092212362,-0.7145925087984815,-4.613564210872544,-4.5203978339897395,-4.659473053000321,-6.076035661914741
121.0,-5.263635574437128,-7.022917745649047,-1.7592821712120612,6.09642998297814,-1.7302521839153218,-4.427383819859742,-5.986166147266837,-0.8259123064174536,-1.9616327893767513,-1.5197859555373887,-0.12051074249701044,-5.444830489842665
122.0,0.48263373827865097,2.8605559261264055,2.377922187847932,-1.7199505672233903,-0.9339508499715974,2.5803140487525593,-1.7479743016794966,-3.7800861520405213,0.01883582795853611,3.001383062474699,2.8921667742872676,1.8365657241994895
123.0,1.0044082054766168,0.4783854553830116,-0.5260227500932413,-0.713292071689891,0.7754729754204774,0.012786296979483636,0.4599321020661542,-11.778332355125073,-4.72146742962613,-2.3012032293652407,-0.48221623948778225,2.6644209605688127
124.0,-9.394670704086634,-4.404921275809903,4.98974942827706,6.925989545013209,-7.179626960856455,0.32675843450459885,3.661773011146749,12.676764935562304,7.250453463832959,5.599631323460545,3.466727451608657,2.3775967193241447
125.0,-0.4566732320277779,-1.4686608918578705,-1.0119876598301478,0.9882307039005616,0.21856233209046083,-1.2847130733360115,1.7304966460333102,8.924752944129462,1.6959329698333931,2.5772487810881866,-2.1335234589681087,-2.1094032112410823
126.0,14.09451333349489,18.224438918133107,4.129925584637806,-16.13313044689722,5.011374201383342,11.214404136205342,3.222970918355035,5.049551580686804,5.554015254287582,1.5572108113128242,3.778770832460392,6.719804030738458
127.0,-1.5747124885673758,-8.577056438912491,-7.0023439503455185,5.025063709895651,2.7518535185773927,-7.825934686084181,-5.394301623093794,-9.478091091080051,-5.18628802855088,-8.124764597117428,-5.440336055836157,-6.7933751934024045
128.0,-0.7889330370297398,-8.775333027563294,-7.986399990533686,4.732894031009799,3.564239778543989,-8.331887966792364,-5.448337484611469,-10.044680705280644,-7.246612578814807,-8.745013549959758,-4.536882878879362,-5.166977919151255
129.0,-3.9202202144835496,1.0956572293334688,5.0158774438170965,1.4430005253766365,-4.500022016107758,3.0319165539092063,0.8284265929788672,0.21548173195444598,2.7192400582294276,0.5409819733379533,0.5466227779871429,3.6878639126121673
130.0,11.386655431859408,18.283574166759422,6.8969187349003915,-14.803271668168358,2.212369641411692,12.570169443468643,3.157326351166963,4.020621717914926,4.077301655221268,9.04065138533899,9.594282610673886,9.435502499465626
131.0,-1.85116156582604,9.118983695149177,10.970145260975686,-3.679110648214112,-6.3660870926229,10.025131373511472,7.251850900371611,7.536808727709908,1.07658672464632,8.794023422919206,4.449893527299574,3.9507180086158824
132.0,-0.1467177539398894,-8.771505141693899,-8.624787387753727,4.495454746542912,4.282891458512872,-8.641411155984533,3.950381456325511,-0.8251970717308206,-1.0433252874087775,3.731505559207357,-1.2954974062203053,-4.3020878671707425
133.0,-11.883666403440069,-17.90087991552306,-6.017213512083192,14.932407178344235,-2.9666067101965314,-11.98615305946489,-2.151346239764994,-2.7357167351425744,-1.3238249140088982,-7.106066364771202,-6.180033421093882,-8.368040318539196
134.0,-1.3878975623067573,-10.12046902230723,-8.732571460001038,5.719623714965257,3.7211275065238962,-9.460037742438786,-12.622479591024051,1.599038068776122,-0.13370446270301795,-7.541166273043156,-5.9060370752052105,-5.126754902938616
135.0,3.9589558736650066,8.193193983549262,4.234238109883687,-6.107351600810177,-0.1640103976647065,6.252434994774657,0.01981163772296579,0.5122051511285177,-0.6185323243638428,0.2265187465835483,0.8085208368636518,0.5316321226527885
136.0,4.650001070127326,9.912970746804199,5.2629696766766365,-7.311111055242345,-0.33139840593841274,7.620908278780837,-1.2718260679244935,-3.5891515247372103,3.211973519410864,1.3128965277864237,3.405907314651584,6.122954983145784
137.0,-2.630019974629338,1.510290745675638,4.140310720305039,0.6086242209153099,-3.4125032290005155,2.7746701722343374,-0.654886741504489,0.7190225544484312,-1.34079270613753,-0.9749506658356506,0.8856531929851554,3.6730109896277314
138.0,-6.611106766772695,-7.6958078780612595,-1.0847011112884055,7.199870223686867,-2.718424354161578,-4.366286996071756,7.818823295695695,-6.712476868480734,-5.668201123863374,-3.2919517231968953,-2.7682620389438695,-3.239049662370058
139.0,0.6353999366247525,0.8453629191265857,0.2099629825020376,-0.7767940716946145,0.16920839737663795,0.5476830699843991,6.966162202206748,-0.6759336089277603,-0.8867957758483583,3.6814454573525355,1.6510099053007707,-0.7016727637265734
140.0,2.584561188944191,1.6714132201682845,-0.9131479687757471,-2.169806237934077,1.774161100099124,0.31648021473692367,-0.931332590787326,8.855463104279648,4.039073371220975,4.385252438468388,1.5546560874264683,0.9886067457708726
141.0,8.536750511207995,5.262079644285301,-3.274670866922122,-6.86857358759249,5.923567008937234,1.0062959491541865,-3.80744140549663,1.8090608119201113,1.1278318854935785,-1.2919544350869416,-0.7934648685915795,2.3328736769864378
142.0,7.1901181937078045,5.065559280534577,-2.1245589131727174,-6.10278612375276,4.672580238507894,1.4809035154197412,-4.444668840551084,0.5354075225413872,3.0016136087982828,0.6467320786758488,2.1393100054139156,-0.20443513141006656
143.0,-1.8810891195082324,-2.982360932873166,-1.1012718133647335,2.373755827583111,-0.4500255644331639,-2.031297409849326,-5.815024573997591,-3.547821244742439,0.5308035889405511,-1.3510303702184823,1.0673392812739966,-2.488225868675605
144.0,-7.18354957577719,-2.9494878265283933,4.234061749248543,5.0856947078460735,-5.681075182786126,0.6557281843005227,3.85835364536109,0.15674559833430735,-0.8015686752018183,-0.771578755924005,1.6079248441634852,4.254745740102229
145.0,-7.398867937833995,-6.173359406473114,1.2255085313602048,6.807035983136864,-4.271366455358796,-2.4551125478274964,5.3095870622808565,1.402144950262147,-1.74008143572511,1.5226212827739891,-4.871590542342788,-2.0086895990976155
146.0,-12.072482981031545,-8.607618908989487,3.4648640720410584,10.365941555937122,-7.792278493927856,-2.6246764860191316,1.281383353073963,-4.094573130317838,-3.4014775185975665,-0.6912561253337757,-4.543282022063034,-7.828293476686339
147.0,12.009806743838174,9.186121551737262,-2.8236851921015322,-10.643676303082223,7.4055315556710966,3.21297148017333,2.330151810340502,3.654618942399268,3.003127564516222,1.947509341734579,3.1071704764363774,3.0540676756887883
148.0,9.312094393019954,7.564329766422424,-1.7477646265975664,-8.397536127831398,5.526432045842992,2.865769899443448,-5.418521680749827,0.8798518052042019,-0.05778684521086433,-1.6798528027155788,0.6116713059490371,1.0379770552979966
149.0,0.9552743927263041,-2.618961799448698,-3.5742361921744976,0.800127439588266,2.262734745819608,-3.058637948842122,-2.994125274660415,-3.117224319062101,-2.0079145677685792,-3.4926833213399933,0.8493992403937979,1.9429888374984183
150.0,0.6809322256252641,3.621115048662356,2.9401828230377283,-2.1789102227490638,-1.136405115339715,3.3173863797575223,-0.05233201788262254,-1.328058133300671,-0.9925380306402024,0.42396395410105114,2.2572339242187622,2.815624609264519
151.0,-5.880355466839948,-1.2295124454487802,4.650843021391887,3.6067589788919805,-5.281899068067522,1.66511449070337,2.20202500010327,-2.7346829477335906,0.9775794833498316,-1.3263145465217416,-1.763778975660184,1.1024073223082178
152.0,0.25613196796692517,-0.044905397608108966,-0.3010373655744787,-0.13386072744959576,0.3291626322728112,-0.22297659462354563,5.661423520688154,6.524064813153813,5.687509127019984,6.734017418054369,3.4604514665203046,1.3128513253661476
153.0,1.4270479220821444,0.4344431953205069,-0.9926047267612882,-0.9614207157803902,1.1700055331738555,-0.2538287037493453,-2.361056335313947,2.54834818731665,0.8656213363345255,1.5421332155602934,-0.40055547217165544,-4.2245846856517115
154.0,-4.211584934237315,-13.614527701616641,-9.402942767379397,8.958846818639266,2.625217248871547,-11.484287544253943,-4.13123996158904,-6.374951925779367,-8.975448348528626,-1.8379666065816136,-5.373764718153415,-6.706452497648066
155.0,-3.755043862429311,-3.1963921787122582,0.5586516837166995,3.5201855119333736,-2.133359754553495,-1.2917705379293052,-1.4734430796534785,-1.9428471100841858,1.2342812274738657,-5.34324598357205,-2.470479079421466,0.4862755443947786
156.0,-2.775930897643028,3.2680076477414404,6.04393854538389,-0.28052790722337,-4.467790235621815,4.688473607364618,-2.3130828630768794,5.80013182868744,3.238711559374467,-2.081773027281864,0.990437905827436,0.32154760648532366
157.0,3.649828715681321,8.069611968852525,4.419783253170609,-5.893651233725079,-0.36376496896421373,6.204608885172426,3.1219221482971156,0.13460300414783766,-1.5920199719839665,0.15021757628272614,3.9747363488715277,5.490220895174692
158.0,10.052362229793445,9.146121674765991,-0.906240555027912,-9.632317484086414,5.502958940481384,4.084398548691981,3.702909136061043,0.3256717120108408,2.699053458631624,4.101614784009587,0.08484976925799881,2.732491506352366
159.0,1.4468564349434443,-0.5506042199209356,-1.9974606548647889,-0.4016275675346028,1.6709488433381425,-1.3082985356286696,6.336960533170619,-0.24306211209654782,-1.6119171041577876,2.739250368785875,2.2948126842132752,0.6876032120305502
160.0,-0.10436694693741932,-5.555206314546872,-5.450839367609693,2.876833179781903,2.70562072788129,-5.460803341326768,-0.5747456747577213,-2.802397506478056,-1.2381514444754218,0.5306207872089665,-3.601567182137982,-2.6166996944685037
161.0,-4.937873714043547,-3.102127730917469,1.8357459831262917,3.9882063879699445,-3.4277478537885955,-0.5957391023402718,-5.565167719487287,-1.048645233493254,3.2316159190931035,2.2214171947338595,3.5357223515707843,-0.7941918862479351
162.0,-5.664887477058054,1.3977415336588805,7.062629010717659,2.1005391289502455,-6.32049157782736,4.183314825621704,-4.092096591918864,1.2968215870746325,1.1561167685545086,-3.4663415795930836,0.8918205386810595,-0.8313872137994123
163.0,-1.6267061633093212,-2.3000424715601584,-0.6733363082497161,2.006288652153523,-0.428899493780488,-1.459579393824116,-4.443467127512955,0.7599766902656315,-2.565682306061979,-6.347105947976857,-5.7248268331502565,-0.2218331055644791
164.0,7.492672574090962,7.601789680211139,0.10911710612101999,-7.587415586984113,3.6631181352516067,3.8796078084411283,3.405226770573652,0.08999799709903378,-1.4163662155179582,3.6625737355495556,2.502900124877432,2.793407728430016
165.0,9.088834011141278,-0.6215571683218262,-9.710391179463066,-4.200342111847552,9.369987673868778,-5.221437623486114,1.4355653742640708,-1.697363186696437,-1.824604764859417,0.27456491480258155,-3.6112990347222964,-3.91293947059802
166.0,-9.627540337814615,-12.333817165239122,-2.7062768274252784,10.930180695831758,-3.494579854627011,-7.495852583169166,3.2638121821119768,0.24968541644657133,1.5993031288030983,-0.07443621628032071,1.6185402238751987,-2.5564346886379097
167.0,-10.333338694786857,-3.490558761807358,6.842779932978421,6.936679993885247,-8.549599482219676,1.7023874192860444,4.173729505073814,3.6785349979837636,0.3676332590197062,1.7382805385755138,1.5272789732991594,0.9380578497551773
168.0,4.95292628823606,6.020228744559433,1.0673024563225866,-5.462919140492253,1.896687383552436,3.493955098488652,-4.36447750533068,0.49384833248821725,0.23976756109256236,0.22246258891416337,1.2641291086877535,2.1495074971386257
169.0,1.3760325496580244,7.716207044379598,6.340174494721541,-4.521002384273668,-2.4520025760630446,7.059983776994565,2.7751454088993652,2.153413075816831,6.024834737292541,1.2872893896227113,1.3868848192569638,3.6518356740343094
170.0,3.0579513505821208,1.366519196967344,-1.6914321536141843,-2.2627732960447804,2.4072404077015426,-0.20651633945536174,-5.320535081830411,-10.981934782478785,-9.026897301684123,-7.093855728070698,-4.89548547090385,-1.0456044839796161
171.0,7.055571590737477,0.2604161442279711,-6.795155446508886,-3.626633533982483,6.965223940155085,-3.229786382679689,-1.140410525898944,0.8099552740038924,2.599039661036761,1.9371485033104672,0.3601435722017545,-0.005433656194445496
172.0,0.382150967757692,1.8343047215171655,1.4521537537597093,-1.1540950204476885,-0.5640490942120255,1.6835201896222758,3.6952641491172926,8.24574129139495,6.136885337339672,6.508832576025883,4.368968211403665,1.260514499198731
173.0,-9.474657737124746,-8.9377848451517,0.5368728919730403,9.23782044563035,-5.025981390710627,-4.236841565988906,-2.943306323446865,-6.085059741714435,-7.8659916363329625,-2.7569430921793003,-1.420546827932526,-1.6660257208482794
174.0,-6.954915166841972,-6.465320737002529,0.48959442983948864,6.737341845972848,-3.737946191421495,-3.023423402830806,-0.48918953718578384,1.9327722186766756,-1.4814137755704724,-1.1881948844473522,-3.3529028376374805,-4.0836842586209015
175.0,1.995561359712859,3.4536751778858044,1.4581138181729665,-2.7828654248878903,0.2515990479135688,2.4981479519965393,3.77964786666823,3.8041571083999024,4.922628834569247,1.6023544977333786,4.557018988211226,1.819390770687697
176.0,6.737677244955238,8.090590261268936,1.3529130163135759,-7.401030534761372,2.668528239127958,4.682356056560931,2.398692726963584,1.3833401158781797,3.8648037692077484,-0.5870867718852032,1.1684833562177726,1.2103018580612337
177.0,9.489066092859407,4.945200563646524,-4.543865529213421,-7.209881115304691,7.061982059265682,0.23529382725966674,-1.9175008708520112,-1.75833154421439,-5.7125357786800155,-4.344024479702398,-3.8908185905571857,-1.6483570389480209
178.0,0.7069572226608973,-0.12181307382290996,-0.8287702964846542,-0.2874236691258769,0.8048721041589295,-0.44686221807347637,-3.0313389390173002,-3.06820204091767,0.15504598839357553,2.4573805898792402,-2.892866749432986,-0.4635576599873605
179.0,-7.765144797350995,-4.276446350460091,3.488698446890201,6.029092374721483,-5.6732272377452375,-0.45135807707366665,-0.9434024689373541,-2.939640139666955,0.8696599501013828,2.2427468942943443,3.6001647577854112,2.294157331096902
180.0,-7.414762752982274,-4.87254381157393,2.542218941408376,6.160663763037576,-4.945043303263006,-1.1513725381037372,4.548875046947939,2.4564456499564518,1.8596673141906415,3.4894853196457083,4.07912475569119,3.4994578434892767
181.0,-10.714472492767609,-13.846533565344433,-3.1320610725762292,12.23201668578238,-3.830155014028339,-8.482456434361438,-2.3618732799166424,-0.7187451032713154,-3.3678924973713986,-5.424786430776962,-5.9863367251158115,-2.568527237931068
182.0,5.255198254045948,-3.471419359197463,-8.726617613242384,-0.8459692074954344,7.040547508517129,-6.097638373236537,-4.696041417861267,-0.2605168402169955,-1.898846371188434,-3.3015959269098225,-5.7916270959943175,-4.073912219790563
183.0,13.731425182771499,20.574591597781854,6.843166415011452,-17.1705284748629,3.4254566227704784,13.707188175744223,2.6832455745437196,3.066991756536343,3.2718053369046736,1.4961839539259767,7.53998422550478,2.0973411527147396
184.0,10.960242853537522,14.252252410794316,3.2920095572576904,-12.611550653727942,3.8234515615003275,8.77037897717332,5.440800549258236,1.265839058043207,0.12223253130043932,1.554144558057532,3.0759883743657337,2.335338175847515
185.0,-1.5249969543177322,0.9201493624282389,2.445146316746432,0.30411595125286706,-1.9924115617190057,1.6840084410652585,1.218102298343498,1.2826341395943648,4.425721440664723,4.826831776025514,-0.4093679764703051,-0.4399389998026142
186.0,-4.420385106566789,-4.007693353582189,0.4126917529840335,4.21647513920594,-2.4260359449131546,-1.7902226287666432,-6.035025250226472,-1.8685839873310905,-1.976575126912554,-2.5859251413732824,-1.8961792071471126,-3.932437870653005
187.0,-8.414319215404788,-15.46912345997118,-7.054804244567747,11.938965611189495,-0.696052350837099,-11.24682161461436,0.46361059658739334,-0.7259919253831488,-2.1203809518833765,0.578288777392382,-0.12606188572460364,2.361702829899677
188.0,-8.841954552918018,-12.855844602186934,-4.013890049270316,10.83661619690741,-2.3608870279411973,-8.48985587789609,5.075397514363076,-1.2192808184899442,-0.19971415219027144,0.8801362849237838,0.2040167108615738,5.822156337699276
189.0,-8.606488287084215,-1.5737194462353319,7.032768840847928,5.066449916277718,-7.854385468182581,2.761351431631586,-5.660779480440551,-4.131267223949503,-3.683289192784934,-5.150854778528176,-1.348271550179597,-6.606775765426683
190.0,0.566874257017733,7.53677912078253,6.969904863764747,-4.00721651258148,-3.1641167809153843,7.2914561580745145,-0.9047295871937662,0.9137164729439298,0.8027522323273886,-1.1710175945901917,0.08701828522219823,-3.051666634230369
191.0,13.521751088536831,10.551720535078838,-2.9700305534572293,-11.999508431018354,8.202020272606969,3.753753213527109,0.47408533178996515,3.2499361707578425,0.6315281191839696,-0.30047896938386665,-0.9887677410397544,1.4561789288307434
192.0,22.833769870432572,15.61368975905647,-7.220080111375115,-19.268371736773727,15.063706914548527,4.159966899145245,0.7267633410576877,2.6918764609832464,3.0355426973195354,5.067241452942701,0.6772877939508943,4.3208386287742
193.0,4.164679966337326,3.21854128302828,-0.9461386833082237,-3.735172071655752,2.5189491560762125,1.1750541025597938,2.9739880064079856,-0.058830034911880436,1.2605281384051044,2.695452576394553,1.2101236805691622,1.9450077391342053
194.0,-16.070060684356264,-16.43847810462895,-0.36841742027234803,16.293610832991217,-7.801152023444645,-8.370492333380893,0.7100214836309982,-1.9355457482837086,-0.013735783881017705,-1.9294526507869576,-1.4365604757861168,-1.0010754797425407
195.0,-18.621978983337797,-14.800301389345229,3.821677593992424,16.75582528394333,-11.243877607505754,-5.543007741459748,-3.056146862633826,-3.209869643323596,-0.7505584938438756,-1.3668042876351403,0.6286585060739533,-1.157661961579311
196.0,-1.1221871190932795,-0.16258601148687468,0.9596011076059581,0.612625316274805,-1.0584134444276083,0.414704153722099,0.388046559537804,3.7044309837778644,0.4957003302349461,-0.360148905660435,1.2198502867921879,-3.492839542874526
197.0,7.030703634861825,4.416337434031277,-2.614366200830896,-5.752027870902833,4.805510858891145,0.9085285764873575,-0.8422257956270927,1.5255513770119433,-3.8614441746407873,-3.6569055893540185,-0.6091931178195813,-1.3926023181826213
198.0,6.817402352313531,9.224494394110446,2.407092041796748,-7.973596878596896,2.262800097357207,5.816068188809818,1.7358112223838122,-2.2426631750583064,1.1676737199576126,1.9718353848074266,0.1951188369455641,2.405817110161011
199.0,2.19320859758676,-0.3396674383137208,-2.532876035900607,-0.9648187943887585,2.333823377603974,-1.4407868120334384,-0.8091238649402593,-2.1985511941559452,-0.4930123772446901,-0.9582906426982224,-1.0615625702233156,0.6467726747304522
