Time(ms),I,II,III,aVR,aVL,aVF,V1,V2,V3,V4,V5,V6
-200.0,-6.088525204462369,-27.42551574737829,-21.336990542917228,16.729368858165287,7.65774755551586,-24.41065633135381,11.220199502184318,6.717715808301492,4.763570015838756,-2.166437965245543,-21.647461244876343,-23.64981567118086
-199.0,-11.07538822701657,-34.546703569632385,-23.47131534261719,22.862998985584994,6.1570069726890315,-29.04234267197729,12.340907053664248,10.384566872058848,5.794116737264741,-20.71669330106844,-33.076883343937205,-26.368857252666757
-198.0,-5.05724305279454,-33.743023495647826,-28.68578044285347,19.373892942195397,11.856423780990774,-31.252455119547964,14.809078179377467,6.89854903906963,-5.323788225893895,-14.175521914873057,-13.732005214446007,-23.42061848600018
-197.0,9.19909986067457,-28.65177966158685,-37.850879522260335,9.699694277565252,23.49212832319482,-33.21505082903691,3.640471184980157,13.266411440595995,7.283322083969807,12.278274292008188,15.590452433085312,-13.808396492505183
-196.0,20.58696565369577,-6.280681412348301,-26.867647066042746,-7.1816550219564075,23.696960607780998,-16.54098074950177,-7.905130286411895,7.390255797829309,-3.027607201743858,2.5477744153688633,16.07081951414386,-0.20700562181126836
-195.0,-5.148998607875511,58.26337539479544,63.412374002672436,-26.51035007935317,-34.23133602019433,60.86978745099652,-20.628775097652923,-34.67169255853548,-40.75925385270968,-34.08855489673434,16.361808785765337,43.385264053803546
-194.0,-11.022494106375513,104.28811673073454,115.31061083711052,-46.59053597316895,-63.19674009548039,109.75287514250633,-34.19145044817582,-53.3080574266901,-53.655930612198695,-20.20706714113184,33.93375269346029,76.22032434169182
-193.0,3.541025140927765,66.60165025601623,63.0606251150882,-35.11286195753249,-29.713884614822742,64.78595742486708,-19.574737423541738,-17.29701004614976,-0.005823717017966246,26.74284867522706,29.884749145165653,40.9244081337821
-192.0,7.392897324794477,-31.929201399331745,-39.32209872412706,12.221998381164362,23.31999959294124,-35.59044551811825,12.73073484226731,48.99134428763047,99.68585347315168,82.32146870811306,-13.324056797977043,-36.132210115259994
-191.0,2.482602158171575,-96.01882879728498,-98.50143095545732,46.79757546009806,50.526518001270816,-97.22322632744073,40.014069745103555,69.992347246705,84.80301429165249,41.70449071479614,-50.10642198222411,-79.28280258413324
-190.0,-6.547686025436141,-79.65396734042973,-73.10628131499398,43.12967812082194,33.22649623608123,-76.42005755272606,33.9134297866843,23.305863401491912,-12.693436632626756,-47.95782733080745,-40.55335743186669,-44.863899441425005
-189.0,0.8410909736211183,-24.650648263444715,-25.491739237065666,11.857363739620613,13.182870212579541,-25.108629195571723,0.2374740242398623,-16.756009735178367,-45.49661183005597,-48.8417930747017,-7.621084945433278,-2.185041844258201
-188.0,-10.111963409073308,18.332620051398003,28.444583460471794,-4.073713194466247,-19.27081693748584,23.43328293549279,-7.461779039755896,-35.159339096367646,-53.62730588375729,-42.887797607869835,10.131820610455613,21.81184922939991
-187.0,-0.44724257947402357,42.51592455252949,42.96316713200405,-20.990949115103348,-21.704542144542746,42.7883497024487,-17.166933851861415,-34.54021632990323,-33.48008410287585,-9.249603898522295,17.14214327820184,22.45394307694508
-186.0,5.137371695927361,36.979658800387085,31.842287104460254,-21.087572657748524,-13.354888829898268,34.38526814445265,-19.896326005695226,-22.649101614116454,-18.117632913300874,2.408559774540443,12.383974524102328,18.774650377482324
-185.0,-0.08705844809682084,22.229245707618333,22.31630415571557,-11.096212744933514,-11.202717882975929,22.25050557060095,-8.587964439245063,0.5195862520361842,21.875487377016505,38.49256191936524,20.928963019751357,15.706044085443796
-184.0,6.181731908082778,8.208759833833682,2.027027925751092,-7.219714804976926,2.081952336241649,5.097570721296854,2.3797771976557787,26.32573853514319,39.89309795767636,51.7111888018669,17.878504837074267,-0.3660710446298374
-183.0,-3.64442062792531,-17.076680956996274,-13.432260329071074,10.333970095248475,4.90706982368803,-15.274325045836012,14.242640352299304,39.46384531829328,48.42139004427349,33.30830629968634,3.525348560814951,-10.63056969367991
-182.0,0.23443895288247307,-9.334151197724362,-9.568590150607196,4.598886664336258,4.924013245322902,-9.392753493580702,1.950563524809171,2.3130600969435164,2.0158375225444587,-19.30232860563463,-15.699312829872909,-6.623212730174567
-181.0,5.869405730146302,-2.905339206519429,-8.774744936666234,-1.4351058038667386,7.273713629166588,-5.860197751380152,-4.9534341292310895,-20.640136759133462,-34.187261898694544,-47.35493672180018,-20.362586213774392,2.551134140141034
-180.0,-4.233078984589049,-18.119488602048666,-13.886409617460172,11.144774048138284,4.861898799389291,-16.022227303879056,3.4949973858104215,-15.854012613684212,-38.47914256430016,-51.39002526651675,-20.72931830091031,-4.406349764043773
-179.0,-6.672198180952056,-7.309702118769142,-0.6375039378175025,6.962279070400487,-3.0592994524891326,-3.9125114562114156,6.507970659069882,-5.347423140283945,-15.741267902547888,-13.698636521052755,-7.666259732815687,-5.269896835802953
-178.0,-4.657904701130835,-3.587278630248689,1.0706260708821556,4.17693832753679,-2.906649188081996,-1.2746001835203775,7.805341307614011,9.078050685240614,14.888523905651414,19.679026674252025,3.200464645373024,-7.240095022315828
-177.0,-1.9328412596948876,-0.1900141611930528,1.7428270985022358,1.040999149840409,-1.8016257682736798,0.7599387686313608,-1.8722038452272098,6.526092310800026,19.03756636700781,29.45062952641973,14.373053655589285,-2.6839073120730674
-176.0,7.273017429146388,13.687610542723238,6.414593113577447,-10.498602010743287,0.4676688081216276,10.031896561117751,-6.191851706070395,4.792144288403709,18.41759811047854,31.909449888661115,19.74462549628028,9.776657906693107
-175.0,10.306942291060441,12.605997072048321,2.299054780988458,-11.475101734749394,4.047863196769155,7.428112544538031,-13.486402605272588,2.319764606688689,9.630347266305295,18.35845007032072,9.91268958009027,6.187375439919916
-174.0,13.986138425006413,11.84872119963947,-2.1374172253665797,-12.93834514884026,8.034531124261248,4.9036253206289535,-7.842470848065931,-3.6995830439215798,-3.4824001634136263,-7.362028470324704,-4.758662484238027,-1.0118454082450494
-173.0,-6.826165560686119,-4.167403450169233,2.6587621105169,5.55185778407604,-4.762590043681798,-0.7904468553678976,6.8078467729485315,-6.539631391340974,-15.589217175483405,-22.70474395564075,-13.252915539096783,-2.3197057551071434
-172.0,-17.951212770040822,-12.886817659689429,5.064395110350985,15.393728097779576,-11.524157713290034,-3.870702229590422,14.45667948398765,-1.83203612866585,-9.559562642013134,-17.249205138510792,-6.830215018133011,-4.327534462114188
-171.0,-7.41711526367518,-6.364629733898836,1.0524855297759657,6.9448555333438495,-4.252604135285384,-2.6917874234788535,8.045118809153845,4.197257405076137,-1.1918707170352878,-4.010078291456892,3.0973768805167747,9.02690219761071
-170.0,-1.4296147907941474,0.12110760251718489,1.550722393311137,0.632021477540289,-1.5147532666607852,0.8860973509723529,-5.018938877719165,3.607989282547827,7.136298234244178,2.4832906457256385,5.906909529530203,5.9890696324443145
-169.0,5.64295373022125,4.4338142741469255,-1.209139456074321,-5.057146273130092,3.4696461044257014,1.5939529784195194,-3.5712327343696817,2.0101551906687503,4.945107311492747,9.014658778904389,2.4023469521244225,2.7628018185290824
-168.0,14.012669900477096,6.013362950615594,-7.999306949861477,-10.028849860286837,11.037639689181944,-1.0009139957714188,-5.327168845383282,-2.935564090613802,-2.049005731304062,7.537598454090697,2.4456883435732695,-6.520244549385089
-167.0,-0.6754037464430933,-7.169711121458097,-6.494307375014957,3.9078771044138323,2.930070582584266,-6.832424546701222,-1.6551523957457714,-7.981050497932841,-7.443904187810243,-4.9663654307263565,-9.797536385976088,-11.868873403466184
-166.0,-8.156799076142569,-6.800177520185667,1.3566215559567985,7.541329589731054,-4.8233700862280005,-2.720204526321113,-5.559121060451745,-6.022045471582611,-8.258221712836733,-7.953924256439757,-9.652014370906853,-8.221541025520361
-165.0,3.9947693183306616,0.009765286778386145,-3.9850040315523687,-2.0216953322038362,3.9967429878387644,-1.990850935065502,3.428507893732099,1.722539948690212,2.3630045593408844,-5.3995314230196545,-2.9990509013921054,-1.2921513115827756
-164.0,5.832282821669346,7.880640794521984,2.0483579728526276,-6.881035813667862,1.8970741015247752,4.9502127892445245,4.0280406390592285,9.077015048973506,5.368726728979611,0.7993201686141956,5.994177013535289,9.476334579407581
-163.0,-1.3924250272670011,6.448452655648467,7.840877682915588,-2.558327305035452,-4.6100253145412395,7.115322514630819,-0.08196002370083022,6.921957200522252,10.355942040087088,10.858129042573252,12.585943742415136,8.579852436727958
-162.0,-10.348374178316238,-0.6622510008108655,9.686123177505664,5.548515958269256,-10.006471029167914,4.545597480716518,4.377101872995445,-0.06239967522434409,5.038940801492445,9.69078101554565,7.414849295320869,5.1997351106700505
-161.0,-10.573048192384356,-6.357479810056878,4.215568382327715,8.50452229241653,-7.377742119849454,-1.050375587948583,2.519243284495411,-3.985575378178014,0.32857266147796627,2.949989947920797,-1.5068652404452267,-0.057835827614680646
-160.0,9.082405218589711,-6.6690165218222255,-15.75142174041186,-1.2486588454002696,12.360907701607822,-11.19767115461401,-3.441196216953244,0.18713790879840575,-5.769567862044911,-4.218410329858218,-6.463472018034959,-6.049197566585973
-159.0,12.177254556837772,2.8300225580979657,-9.34723199873984,-7.468210799084735,10.790316315243837,-3.248208468344438,-2.4482286846259127,-1.307339496927371,-4.865482268053003,-8.538616642056052,-7.162721222305787,-4.662935326448612
-158.0,-0.7422011915255826,7.825512018159542,8.5677132096851,-3.5857224948787145,-4.623357957628469,8.131313989953263,1.0404710199225775,-1.446367319807107,-3.8938353339759635,-5.522150875730512,-1.3414104657645183,2.332713338615071
-157.0,0.03994334011072831,7.629709216069314,7.589765875958535,-3.879221648840804,-3.820793112520282,7.629794962731477,0.22594833784990564,-1.8493433713672176,-1.5903823788700615,0.6674926600910167,4.901408244962478,4.447626263658465
-156.0,-4.66669727182985,-4.149943042417863,0.5167542294119092,4.443012142425667,-2.559673426681797,-1.7883854860170632,-1.6774716414201858,-0.8866325143359253,2.8561259553052265,-0.2583233554452834,0.17179632357629027,-4.761206330427039
-155.0,-3.259376671852602,-5.881127348158681,-2.621750676306231,4.606335228381456,-0.3675985635449186,-4.2941762652755635,-4.364655743712124,1.3757641883349727,2.1754632897254886,2.117198792209618,-0.1672254867515124,-2.7234289173251223
-154.0,-1.6773362448214384,-5.296878517567922,-3.619542272746617,3.52566167884446,0.9989863254852795,-4.416285963988779,0.4795743851398242,0.4557456578105836,2.182792091100052,4.739408790941782,-0.8053272772340367,0.3751012350931957
-153.0,-0.3235729268047458,-1.5049631876258562,-1.1813902608211162,0.8770470526877514,0.45608116798344256,-1.377078508560142,5.2007756205218865,-0.8791636189158356,-1.8830433438280259,0.9024016785748072,-1.2309156715258303,2.5455584675447813
-152.0,-1.83664927735747,0.6839050110763452,2.520554288433898,0.5417157337168789,-2.228549674888403,1.6464296340926148,4.198461956455914,-1.3161512594010318,-2.9013830473890687,-5.047337934248587,-0.9236759417332376,-1.7710660423113271
-151.0,5.125435710107418,3.92559074600684,-1.199844964100448,-4.558715237406462,3.1956079263282104,1.324111610124122,1.8848523407646356,6.207390892057698,2.324315185497962,2.0912942457059494,2.3522315044772335,-2.8617851865808674e-05
-150.0,8.84078852675051,6.622598482635405,-2.218190044114957,-7.6859192910787275,5.568462670428449,2.2351156543788346,-9.379105656572513,-0.7651830599897198,0.11894870018949666,-0.5732753580995247,0.3949157003185486,2.289565159998576
-149.0,4.018665231835471,-2.233682450513175,-6.252347682348553,-0.8473311996632003,5.102217220578744,-4.2973858520152,-4.993391763900567,0.2318126867100456,-0.5228494409499929,0.10515021636626176,1.0433660966283624,1.0517552148191824
-148.0,-13.851697162032497,-7.232321042785678,6.619376119246775,10.50749244537177,-10.263362937348854,-0.29012869445831935,6.381666368419657,-1.3280573262225577,4.895627586727719,3.401980742574998,2.9277585682206997,0.7495358720721645
-147.0,-8.845887334578325,0.6885885699256407,9.534475904503813,4.043237979764044,-9.214654990327476,5.1223799015089355,3.8917908657376774,0.1479146909596405,1.2760554160576154,3.7986074476725227,2.622747109586339,2.3865014483410096
-146.0,7.15732195167936,6.650563417798394,-0.5067585338811913,-6.861425952309696,3.8871989170992105,3.0812914669255536,-1.9709159871111317,0.06953566148473778,-0.7394489813279894,-0.4909407646478502,-2.8174279325918468,-1.4295920914970597
-145.0,0.7941582729779004,-5.549299100686688,-6.343457373664759,2.3403284953106906,3.543893888942796,-5.934010132526194,2.0404727179926065,-3.450949987563847,-3.141875256666543,-8.398536471964965,-8.387763216336438,-4.425444112879379
-144.0,4.84779995530932,4.990990270138857,0.14319031482948796,-4.879593885180996,2.4031773143067943,2.5860054192399398,-2.9214623513838305,-5.770980815247238,-8.205446428292229,-6.52110392486361,-2.674586828778767,-2.873052230785988
-143.0,4.5682588576645635,4.222052875747458,-0.3462059819170542,-4.358370312523501,2.4253554466825493,1.886404622576245,-4.012768383663393,2.80694266085689,0.8659952588635584,0.37901182694320434,2.918319278308882,-0.21400884904352946
-142.0,4.559256212377619,0.350833701166034,-4.20842251121146,-2.5016924404432843,4.347544672007666,-1.8934894693347177,0.4713832916219829,7.751498843447798,3.5467889515143574,4.520495606453628,4.802952927877689,3.9614135795931915
-141.0,-9.439481216274658,-6.937566000001609,2.501915216273143,8.135892105514513,-5.932358277822123,-2.25491028121386,4.721317227325844,3.685307205678742,3.90267415341315,8.06276368798817,3.0992381381486545,3.7446335598370526
-140.0,-16.591836610396456,-8.28910701325811,8.302729597138386,12.460674646686943,-12.490699084369664,-0.02612979759758316,6.290627794463281,-0.9794505077701916,2.8344730266033284,4.401068603344447,2.7386505554792997,-1.2347483728101674
-139.0,-2.8534272348315044,-2.527358357946737,0.3260688768847744,2.706867771090465,-1.5556498752819943,-1.052524888763442,-2.035960157889104,-4.316291406990896,-0.6476474623345339,-3.7079481053944465,-5.651945333653954,-2.7353258198200843
-138.0,12.549854345121494,5.455186187657262,-7.094668157464211,-8.985515152311704,9.857072922925619,-0.7703621149924339,-5.027593259889201,-3.6477416279755674,-2.210418359693391,-4.2532506068381215,-0.337019660293735,0.6453761729329379
-137.0,10.829564087843844,9.45736781475215,-1.3721962730916284,-10.120611546704898,6.059116922463036,4.01406050578939,-5.33185150756319,-1.520291258453672,-0.786050016859764,-1.9155538916216863,0.1361785970635141,3.342885131647175
-136.0,5.20161116417464,0.05605212262218018,-5.145559041552438,-2.6741204918648798,5.213209287612152,-2.5725879131837677,1.1888997805125836,1.7932581962915253,-0.9708648944640095,0.27858554886707587,-1.381825419274736,-3.3495755731162964
-135.0,8.022090906758715,-0.03889523968590969,-8.060986146444648,-3.944935917555031,8.004470975212593,-4.077249821600792,-2.305185966114715,1.8204378636315037,-2.6885785114405363,-2.5062335427318967,-2.195767045113223,-1.9534518429923502
-134.0,-0.08735187305330311,-3.4391824868973377,-3.351830613844093,1.743833534267633,1.5960936233629337,-3.3437735745055073,1.9337271651724945,-0.4482558773308867,-2.2639784144603703,-3.967902456241907,-3.7747924989794623,-2.9871940304310804
-133.0,-14.965058505281844,1.920575857964956,16.885634363246798,6.511781439936392,-15.882777104999356,9.376095773168162,6.279513049260538,1.7842984803486883,4.0612632208382236,6.15840571665999,3.3730421470390075,2.5479423188465713
-132.0,-26.86033780558015,-0.18380553239263353,26.676532273187558,13.514782880950843,-26.804900923671912,13.297748103324702,7.5815730673582005,4.645199695136376,8.062338861411678,10.61392645438594,11.64781407673066,7.644631453673768
-131.0,-6.302532114995554,-3.2568755700913723,3.0456565449042428,4.769360057910547,-4.631687629736488,-0.1337836645395698,-2.058601247377605,-3.6053790356007633,-1.4122569841796482,-0.8449499653735071,2.075173418641679,-0.8624632620312052
-130.0,13.648333959238638,1.3629874327840132,-12.285346526454584,-7.523900274276254,13.009800303449,-5.490554012674617,-9.201210462619331,-6.163555924892817,-5.059916633484795,-9.410652074835522,-5.891963181053006,-3.5637188462626703
-129.0,22.454571399855073,-4.048223546142091,-26.50279494599721,-9.152723295769814,24.44306375140039,-15.306103467001199,-3.7212256423445886,-1.8895144553641434,-5.82912217855781,-6.8443618513791264,-9.638879644523385,-2.5910686662141833
-128.0,6.172911077201098,-5.535579010688961,-11.708490087890143,-0.35616388602647486,8.903573563677135,-8.574507493188971,2.6957802758218663,6.532177107435279,1.3868015241452398,0.8112807735636611,-1.429055805715917,0.06110743955294873
-127.0,3.456745460963,2.304071000635691,-1.1526744603274004,-2.845111814587825,2.342087498032865,0.6236939084056434,0.494985084643075,4.083563265311278,2.8332447583618525,5.184061811469829,3.5551522761535415,-0.05675061541848225
-126.0,-15.613582337657746,2.899182487438563,18.512764825096276,6.3908645837463,-17.111701988708823,10.676831274963009,4.977671319290061,1.5314567497910587,5.860252290288069,8.069825804924454,6.446081952502472,2.946810309966714
-125.0,-5.433056604976855,8.3700541278769,13.803110732853808,-1.5112032747086777,-9.59698793570898,11.059724885457637,1.4670085531218837,-4.207541471987042,0.9227575493616511,1.1717852636393604,-1.3820479840895943,1.524211370795522
-124.0,3.9174676556694923,8.903243993319942,4.985776337650542,-6.447937122574372,-0.5223895273754167,6.919899586610677,-2.91060892475799,-6.18094914897379,-3.7570252901837637,-4.4519960383180255,0.33018207309840353,-1.2190297653097018
-123.0,3.7685259277763388,-2.168961062926965,-5.937486990703213,-0.7523113071077429,4.857191730032258,-3.9974788707198012,-6.972727806923952,-0.3816625356455763,-2.9033760347803907,-3.949207208415862,-1.2252041127075732,-3.4905109860147343
-122.0,1.9995980458857516,-8.046021671892262,-10.045619717777955,2.998090142638704,6.022438385569663,-9.068192103115884,3.0621406001837874,2.289067147847594,-2.6020483975967856,-3.7101111834068705,-1.2098083716839674,1.1785219068695945
-121.0,-5.872261037747899,-9.08329592754491,-3.211034889797009,7.4577837745323245,-1.3313756507675651,-6.169977596277304,-0.3810332867426204,-0.9272838941136154,-0.264440241147085,-1.1019963272554683,-1.2156931289694146,-0.33896031494439227
-120.0,-6.359637973930293,-5.349658228197312,1.0099797457329478,5.916972719580311,-3.6828843836894607,-2.1154113006840385,5.607948187232447,6.999471257982084,2.868094766415127,4.0180411945831045,-0.4398335021195163,0.920909410571097
-119.0,7.188655437179436,1.9818989585848037,-5.2067564785946905,-4.600032660433525,6.204334480328599,-1.6393025187343697,-1.1602519964538147,1.629022306308281,1.2718534430082793,2.24922677757569,1.1385585443419393,-0.6009425610373591
-118.0,-3.8104777943901134,6.71806687996473,10.528544674354777,-1.4690096347942387,-7.157726223631804,8.592878936778362,1.561948675239967,-1.7399874928417194,4.8366127606434866,3.9434095685456683,0.8173046054543859,3.2930199736889394
-117.0,-4.264185405821957,7.193679305668599,11.457864711490473,-1.482596190668318,-7.923716579498954,9.369627538567347,-1.7453909887079582,-5.352334349914054,-4.381031327617352,0.8339084101293439,4.624896814527901,-0.1333745591061699
-116.0,1.6968720582271728,-3.1400879167917592,-4.836959975019014,0.699178900858688,3.2856308403073307,-4.028660687229241,-1.4371130630799835,-3.051705010729281,-0.17702300756839295,-5.762594766910448,-2.608595655305364,-4.068711572423595
-115.0,6.159960994862617,-0.44643208501844356,-6.606393079881122,-2.8065274009282684,6.402842123020779,-3.493667147505992,-2.7406088955305288,3.450865255906732,0.7924134278496651,-0.27468247089244446,-1.7631663924447094,1.6660478191695858
-114.0,13.132557955408366,4.7909463963293835,-8.341611559078995,-8.918637139868224,10.756290855256662,-1.7489543853211846,-0.28869454062967215,1.4901020123938937,-1.3158571131486725,-0.7766638349872272,-1.088725476270719,1.5417470827109279
-113.0,-2.8498761377364907,-4.925690806633761,-2.0758146688972414,3.8443837250246595,-0.36932899073001657,-3.5598270963643843,4.936856085639541,2.5917058989801998,-0.4108692184047672,0.02076366925558004,-3.06236727582235,-1.35963052739416
-112.0,-7.718914817384701,-5.09399105032985,2.6249237670549146,6.355116850905072,-5.235208487673624,-1.2215512902554284,3.2726085467152046,3.437871928862176,3.057794915987353,1.1036007976698916,2.55811613503783,0.06026898462051561
-111.0,-3.6827224619127703,4.09249089725272,7.775213359165555,-0.1847960828873827,-5.716130079168992,5.9407719123891685,-4.233814070838419,-5.0944849755586485,-1.118805536986976,0.8498351928782044,3.2548619738497466,-0.21190898101472372
-110.0,-0.9971756356388664,2.38238086374608,3.37955649938497,-0.6781346253319338,-2.1780077227115777,2.883278770222888,-4.223881771507554,-3.988139823745778,-2.943948923480086,0.5978739350619178,-1.042000688203085,-0.3334434983895319
-109.0,0.5576930321838662,0.9923680638288637,0.43467503164497767,-0.7634225802031646,0.07019617688379487,0.7134564840480297,0.31690869313484615,-1.4762016194168361,-1.0620348838302334,0.6520544077966309,0.8836050552954351,0.09728304865888973
-108.0,-7.500928329264558,-2.4701132746649304,5.0308150545996,4.997558938970501,-6.257409422635654,1.2806104817833386,3.249433831434005,1.0893957507695804,-0.5010894475505665,-1.4953366495392626,0.6439568475615876,1.1126372174650911
-107.0,2.0077297277110073,-6.7828501925313365,-8.790579920242386,2.4030650710949057,5.409304670589675,-7.783454411662909,-2.300362772075312,1.3585304820667348,-0.574069274545242,-1.437702062194432,-2.3303351203486513,0.11838617647520377
-106.0,9.792864134635888,-0.3801035845255458,-10.172967719161482,-4.764019648613975,9.918171663055025,-5.268102516574165,2.696850497133281,1.5724683703713762,3.468046644672791,-2.3930797705681144,-2.969238443899184,-2.977553734634422
-105.0,5.85409304179057,3.986110191133705,-1.8679828506569,-4.8923723725455766,3.8811016924970962,1.0740479509089562,-0.7391283274479179,1.7151700761018842,2.733204861859665,3.4654227033894305,-0.6434334602324976,-2.697512071029263
-104.0,-4.627079631497981,1.41969084325709,6.046770474755075,1.55933709136175,-5.30889682742645,3.676623462606534,2.9369553687795715,2.8314507852384194,2.4362211478988827,0.7417175923269826,2.364354872126439,5.1427426450822145
-103.0,-1.5584699459399176,2.46096143678818,4.019431382728155,-0.4108305109601551,-2.751843816857421,3.269618001272446,-1.2475649800524828,-0.5396997786093554,-0.7645460250804951,-1.380672405912903,1.4105667694087116,3.196195634514048
-102.0,-3.951784599110983,1.3709106230783439,5.322695222189433,1.3357097820569908,-4.669987089912505,3.3046958462552425,0.04631664624224063,-0.6944380448270797,-2.5334709049788247,2.1721604012820213,2.184419039177346,-0.8202057133117406
-101.0,-6.412546636977764,0.4826168083897074,6.895163445367594,2.934690678335609,-6.679376505013691,3.732552950552683,-2.5802346188784813,-2.9770674000525306,-2.2428218999373892,2.343761296177192,3.3909385011211075,-0.5205703686503819
-100.0,1.4577978247507501,3.701268277662165,2.2434704529114717,-2.6086386785817735,-0.41396914737831025,3.0223480444513453,0.47103422419285246,-0.932022427437424,-0.4829551040387421,2.244160486062924,-0.30132539736128006,-0.7731736363683728
-99.0,5.321348711515516,-6.078866019701117,-11.400214731216685,0.34874373729753616,8.419496396524952,-8.763714679192596,0.7570687819019053,0.928155578702321,1.7838162858414448,-1.9969642198080007,-5.301919681296196,0.9349036043127876
-98.0,2.939204456184201,-8.704162590704366,-11.643367046888718,2.9286404310344643,7.2693830872323595,-10.196255389898539,1.8003169486999602,-2.0518268199773186,-3.4538005397503286,-6.968359329392257,-5.808523729500671,-4.838288403936069
-97.0,1.0706455804944277,0.895521247581617,-0.17512433291301388,-0.9404271376381648,0.5970529158337654,0.33579716317913366,-0.5772277561688,-2.0918859459396226,-0.4255645040638712,-3.53471033047884,1.4547836737734903,-0.47061742130639694
-96.0,8.302261843818865,11.74177257032131,3.4395107265022493,-10.061760516329683,2.4794818499085762,7.5611551487072655,-6.171341323559022,-0.3894901526171567,0.17561449615873803,-2.0195081712388925,2.588768705947475,-0.027787116820174873
-95.0,2.5955026127503853,2.797863474963945,0.20236086221343097,-2.7395500253763236,1.161421857250645,1.5426686554885594,-3.9025097242860465,2.09122171961868,0.7995531189695122,4.947100476503386,-0.3980755279897594,-0.09969404193500941
-94.0,-13.09443234312919,-9.8598115372615,3.2346208058676593,11.510923299513022,-8.124108822761603,-3.2762810845499484,6.247820261144623,5.622304212778813,1.8141724726381923,5.260973372017776,2.9303230002259038,2.3297635431491166
-93.0,-10.444335362369594,-10.493362498575248,-0.04902713620553989,10.501936792691524,-5.237096454544929,-5.317666038783671,6.851154696209214,4.754812488901679,5.710080545801797,5.612190926782829,1.2811509742051832,1.9062316820974898
-92.0,0.8130933815484758,5.56473633962595,4.7516429580776265,-3.2338746788080943,-2.0073357186137364,5.1893708114500345,0.7896220797627262,-1.479861776983834,1.1156116524033555,0.11366891641249843,1.3256603897066452,-0.6586029481676634
-91.0,2.9997261244803153,10.245950550592127,7.2462244261119135,-6.587208684390292,-2.07874857479118,8.77868791120035,-1.4049224714010677,-6.291214240664932,-1.9957505479670667,-2.745390903343064,-0.37952271521234826,3.359317960119882
-90.0,-0.39814693721907624,6.2783543601034095,6.676501297322502,-2.9807756607604494,-3.4873415718423155,6.434041650919816,-1.43437809885362,-4.192905961266422,-4.845754258665494,-5.889006119412501,-2.6890413373609894,0.8091652121446822
-89.0,2.5428541201878208,-3.516961055494523,-6.059815175682374,0.5275809212897324,4.278182319982896,-4.828877739725048,-1.636721822309608,0.391619946129127,-3.3630149047883284,-4.179700477457169,-4.644759310296218,-0.6442295901479033
-88.0,6.009423285543329,-6.10706142050728,-12.116484706050649,0.012539395706268719,9.04354059236775,-9.071088152514076,-0.43360332254212963,0.7894663300358516,-1.3691541290208593,0.6482628550670473,1.3909993284379571,-6.455897352447078
-87.0,6.254025855978313,-3.4040553866345444,-9.6580812426129,-1.3813461089593013,7.936691941251844,-6.566961495087196,-2.958500354267403,0.4774158946561309,3.341491212740415,0.8080163246920897,1.5819872997564848,-1.731526161412141
-86.0,0.42818071286375425,2.1619253794060245,1.7337446665422371,-1.3297180401571194,-0.676703110142125,1.993346520320035,-4.414926356378738,1.5990381687451551,0.17307941298053198,4.708521255322637,3.1291988606472887,1.1979833382668108
-85.0,-2.736771002530194,-2.559694243992276,0.17707675853788984,2.613644421237377,-1.4109822239912324,-1.2207807437198628,0.41342310286158235,5.435545431779062,2.0954302211905578,2.277998853172286,-0.5602658817510229,1.2205101791390391
-84.0,-3.2982591538739783,2.7455834280297258,6.0438425819037,0.32071021971308467,-4.6369792614775935,4.448825939960832,7.199774451716611,-0.1316642482319299,2.0025057535380357,1.3552648542347472,1.172237946292903,1.093640247959161
-83.0,-6.704147114017016,0.8234976805230347,7.5276447945400795,2.985438885908051,-7.1734273681938525,4.155925424822744,3.3980535386844797,-3.279387976945165,2.0690540744788395,-2.908094919801205,0.8846361248218645,0.3556927990281167
-82.0,-0.11959267444473021,5.3311811551227155,5.4507738295674955,-2.6380489068150093,-2.775558470209856,5.374981885463171,2.7034123815392967,1.1588857683700637,0.6925349270111875,0.8465183545515125,-2.4139720276852747,3.849007875499925
-81.0,5.537236270482411,0.19040415282497003,-5.346832117657394,-2.894186794309922,5.443452475090416,-2.5933710458585066,-1.2918076241440708,-3.5865928064253625,-5.035512612278594,-5.03527500389535,-2.642114467102643,1.1809106998419299
-80.0,-5.584052067700854,-6.1976167592398355,-0.6135646915389534,5.862702610388457,-2.487013382382778,-3.4235591498846274,-4.263850477817496,-3.9708993633013594,-6.431242986620119,-0.30142670497994084,-1.509160139158736,-2.0611555997124285
-79.0,-4.973630521269468,-6.574730363379416,-1.6010998421099445,5.827299447950202,-1.6855024801490428,-4.0335050426671595,-4.810528403950999,0.7307311558101501,1.1206513242272464,0.054051266266373355,-2.2136120909833394,-5.315434163695798
-78.0,1.9327235347088956,1.8701050887958806,-0.06261844591304033,-1.9244367491079615,1.0061043594541976,0.8704006066369838,-0.4977751546616447,5.1010240151328,3.499958833344297,6.288459389020051,3.8366341066199685,-1.5993754941238176
-77.0,11.704504710562249,7.020268005023975,-4.684236705538307,-9.304440862970722,8.21367374351285,1.2032349697337827,-1.363173106367609,1.1893123808840294,4.9020438175958665,1.4412623430411808,5.974419647376559,2.534425859888188
-76.0,2.8349408084675396,5.303895293771193,2.4689544853036316,-4.089269135888283,0.21345614607653474,3.833119763908473,2.881224862388706,-0.559425358698447,-0.18734858374458607,-4.346177066352883,-1.0211886595288835,0.34099049790942937
-75.0,-1.4825798377650363,-2.7043740895119748,-1.2217942517469564,2.0724362002530845,-0.17024328614504347,-1.945582237754238,3.3972541370624576,-0.7137545408029812,-0.7849928279552875,-2.9644894333168925,-3.4913734763770954,1.7798548057633308
-74.0,4.454130437721551,-1.9676600885570732,-6.421790526278631,-1.2678831537868054,5.40179891403561,-4.182413559057888,0.005309925715071717,-1.271983915317624,-3.277910015790508,2.2148271623217903,2.7320030296837574,3.9393859986673743
-73.0,-9.027278678249889,-3.0151451514312964,6.012133526818596,5.991290318853916,-7.557147727321656,1.5085332175292665,1.4923598737790396,2.7441594451674405,1.56019923847571,2.439193224347853,0.5548729728083066,1.0386553808576737
-72.0,-17.056946801702495,-10.956603126590965,6.10034367511153,14.050305336381474,-11.541976039400748,-2.418095711598404,4.65358347752429,0.2556615397611038,-0.40216231614376285,-5.6683866629440205,-6.4399061544009255,-8.183580546691157
-71.0,5.323953691776289,-0.8940014225692536,-6.217955114345529,-2.1749318768272303,5.802206898592003,-3.5448655726976814,-1.927940322508066,0.9791699968197426,-1.5406399001984414,-3.118187248094786,-6.919040123898614,-4.3799969951865485
-70.0,10.550279549725177,7.178323661286724,-3.3719558884384218,-8.903517934415468,6.988442565038492,1.83656360749506,-3.5780684524284787,-1.2633683886594669,-0.32573553743841355,0.5119867857659857,1.7181884429591956,1.6996157548843729
-69.0,6.717800634306178,16.481738085296303,9.763937450990174,-11.557817253388517,-1.4971948778288189,13.135407189478181,-3.943669120543538,-7.308653200093916,0.8654186646051722,8.601339377948797,9.384055578317414,6.505020545708487
-68.0,-1.8375084070743473,12.44739611251649,14.284904519590881,-5.337599460735393,-8.113470576587313,13.378960424429863,-3.965485892788408,-1.2684375027208639,0.9002429259998077,9.331895525558744,12.994804571976777,9.559300210596291
-67.0,-2.6392700231949444,-5.163110590336787,-2.523840567141819,3.872579507533721,-0.10844879053971512,-3.8295693140753255,-1.6583100671310076,1.3520426458104589,-0.47358902372628375,-0.13843367372646176,-1.6315985102234754,-1.1370701273009143
-66.0,-1.2566949287310938,-19.2227764131172,-17.966081484386084,10.292108008027107,8.384182877316041,-18.577388025367533,6.491443782576624,7.802713614310184,3.178362855767229,-8.793862753394482,-8.013451324564674,-9.704672059412818
-65.0,-4.044899849533398,-15.211137555093849,-11.166237705560402,9.601056385708356,3.5913200721463245,-13.24448030797253,6.035397724669497,3.457761258024255,0.9108402546868934,-5.2978694196517715,-8.793957347311908,-6.766151725653617
-64.0,2.458133286349586,1.4451828579359365,-1.0129504284136157,-1.982014624549051,1.688714983211169,0.24771123974932951,-1.0789616529414365,-0.9135494376624336,-1.3364791658877995,-3.9816581521574057,-1.7213410433373815,0.8570393261192706
-63.0,4.526668770153173,6.300052687019085,1.773383916865932,-5.3701910802178,1.4106086931117359,4.078723969519847,-1.4267374971506395,-4.419289163852623,-5.504578259431874,-2.0410905803747657,-1.4127332424156422,4.225781661640158
-62.0,0.0058933232390332435,5.4466042591436645,5.440710935904615,-2.767300280824897,-2.6802225621437037,5.417477130272873,-0.7032916213216558,-1.2622222008914212,0.5806586240182021,3.599423877969631,3.1628446448367504,1.2930168918474352
-61.0,-5.22496337688626,6.329148067044299,11.554111443930495,-0.5185083741018968,-8.42682427612246,8.924380113203561,-2.3755397681880033,-3.079834694978178,1.192979219410755,4.678106815863019,2.421824872126342,0.9132170635666008
-60.0,-7.513083381819225,2.3945102131795695,9.907593594998716,2.5911700854907243,-8.742885468499086,6.139783779727778,4.127392776844475,2.9361325358324573,0.5361006267266282,5.611466280125517,5.762921779261962,1.8010327234515378
-59.0,2.5878512606949853,5.051482142395065,2.463630881700028,-3.8656173970218375,0.11271931889531706,3.7489308331038664,-2.7270121418205964,1.6500177030815713,1.2089032411107772,-0.9727996829279784,0.22943182293413233,1.9649645394951372
-58.0,2.973002198399972,-4.535954692120519,-7.508956890520493,0.817231436965056,5.216193884738921,-6.0312289311485445,0.10281218294253325,2.7215349512746894,4.544197073314852,-0.13585207804481436,3.021043336125059,-0.09334725832553115
-57.0,7.7417722099049495,-6.831724701261,-14.573496911165918,-0.4940040989614476,11.134669449338608,-10.63450870159515,-6.634825584338876,-6.091069428224746,-5.253573194024609,-7.472007756024384,-6.6217190631055125,-5.498855058128775
-56.0,-4.588233957894429,-8.111473450172726,-3.523239492278277,6.31497056199123,-0.4766569520325685,-5.830599741002508,5.283663458122131,-3.603760128676594,-4.329119282364133,-3.732286186470415,-5.933420887939308,-3.4222696986067622
-55.0,-1.308195578950978,-1.5242272758217332,-0.21603169687076385,1.4634906214291834,-0.5707228195449143,-0.8860837754180997,2.325732378818459,1.1733179946118446,2.0943875465181416,5.042636352980184,2.018664580152562,1.5793066469561206
-54.0,5.759637987491024,9.488560579416463,3.728922591925405,-7.5746951361344905,0.987350884309006,6.590195611554867,-1.9351322835942235,6.508112050589472,2.180690561319204,3.9177055046007294,3.207514094842122,3.2737374517088833
-53.0,2.7015290291278946,5.601364688351635,2.8998356592237053,-4.180471859858195,-0.05308883307834211,4.229690698584319,1.7169060000894363,3.1580297201847496,1.3783663987746069,3.1144302716996606,1.6477553955165112,3.9624518954859402
-52.0,-9.864961281632825,0.6556022350181316,10.520563516650942,4.573858283486626,-10.2309504125477,5.643932739266571,0.2769206424622162,0.797962118030064,4.957133502436222,2.0555369017600724,2.5624315133825166,0.9262752694010978
-51.0,0.41973503649512,-2.7249116187822295,-3.144646655277322,1.1180224799776028,1.817037879602931,-2.95917766907614,-0.3683028398935356,-1.6136887728422546,-0.6084094021493861,-3.3199719537940267,0.8025817398858837,-3.4345241103038733
-50.0,4.187031547201056,0.4577774077178631,-3.729254139483146,-2.283126014565921,3.908949620713434,-1.661243534761351,1.7914021446412294,0.3581817867311696,-0.9360026081457617,-6.078143447899673,-2.3063853432929644,-3.203035332666772
-49.0,4.427411772464155,-0.9877845603244908,-5.41519633278859,-1.685427415107668,4.946516780495879,-3.1494337472991365,-0.9847360245302965,-5.072245283625041,-6.039964396143818,-3.290617773541856,-5.857093199646914,-0.4508144109210701
-48.0,-5.409091728961669,-2.0994120927439237,3.3096796362177914,3.706077429662087,-4.337316858093528,0.5763415803065359,-3.706735078925915,-3.7199215131795453,-4.081337257623135,-0.30738930964451283,-1.1597063062118718,1.0124400880791171
-47.0,-3.709466971895901,0.7404013368393989,4.449868308735329,1.5129013851647388,-4.05962072377571,2.6411476911935754,-1.6473656251493887,-4.439702687586146,-0.7875708157050323,1.9382243690726029,4.391169678340619,2.286138191079734
-46.0,-1.253203634325014,-1.0786391045240904,0.1745645298009213,1.1935203600472506,-0.7737653142395783,-0.49114231919809703,2.5735494343869902,4.876754557779424,4.082106945130728,6.851317078428275,2.0755939968538604,3.0431128106790153
-45.0,-5.250738104791743,-7.048482305124835,-1.7977442003331388,6.098467228980175,-1.7081352818551714,-4.470725924933624,-1.2530431061938145,3.136536910158934,4.184585426153539,1.2286945207376903,-0.6484543069405047,-2.169880244530051
-44.0,3.973454818099921,-6.598152726802792,-10.571607544902767,1.3399966689723637,7.291268107614111,-8.563030038680155,1.5291782995983665,3.5277836167591037,-0.21161057600694688,-3.919695417643724,-5.050789076344801,-9.233267633555432
-43.0,9.371081905691954,5.095351063800368,-4.275730841891585,-7.284679568903549,6.765267148209425,0.42370171778963384,0.19717280930824654,1.4940299192820583,-2.7064763165549004,-4.4364450257709835,-1.1538862284499984,-1.45367081956587
-42.0,0.32297187358698753,12.282122933198824,11.959151059611852,-6.2759891293854935,-5.793404898494046,12.129932266297821,4.523703006842151,-1.7080955344077806,2.5516433484239576,3.3388900305215357,7.681717981214007,9.755275339107154
-41.0,-4.728720527153855,6.565407990499572,11.294128517653451,-0.892534574273554,-7.980216931060395,8.938859066186552,0.8082581893934849,-2.0482161252789908,-0.9662199622668448,2.222229557364782,0.8443439514538071,4.024289110610685
-40.0,-2.3906286353829334,-0.48626451569324125,1.9043641196896957,1.4638440400852526,-2.1079763829448996,0.7218038076512552,-3.474322798781082,-1.5982951844480642,1.8758535383539352,3.6762745697384998,0.745613383331026,1.020442114941515
-39.0,6.744390633260526,-2.118734571899057,-8.863125205159593,-2.366067821617353,7.773040960971694,-5.472596085308859,-2.51644955058043,2.2074171253370007,0.8348339612461908,-1.8421742318494614,-2.2368871082090913,-1.5933234102884386
-38.0,5.5498696381013835,-1.4153707378717266,-6.965240375973135,-2.041014610473387,6.233592783005467,-4.245820007946001,-0.8315550583220641,0.7249518749700188,-0.12448842680944772,-0.2672316551724685,-1.0749591313950448,-3.0771782781842125
-37.0,-2.595779443341104,-6.807773563081703,-4.21199411974064,4.650778220201503,0.7876941246868117,-5.484553203676201,-1.6455984069656964,-1.2719424777295365,-4.465187767875153,-5.656198974635703,-3.6869453562472865,-4.029262789235747
-36.0,-8.361416603296194,-2.0772847034859296,6.284131899810211,5.249747782205634,-7.343105349792519,2.048560790691749,0.20763033846619516,0.4283556540188883,-1.2534347515299187,-2.8059431376936215,0.48013703199592506,2.1185318748977107
-35.0,-6.644987014597321,-1.931102120679777,4.713884893917498,4.3225276883910375,-5.62342104084768,1.4112671205084917,4.518289937764017,0.18306014754711888,3.837648830066588,3.24362994022727,3.8534846632273396,2.2350881571766004
-34.0,-4.4119240393084596,-6.956246401163867,-2.544322361855424,5.6453401770955605,-0.9597677351071545,-4.734786983874997,2.6116066195345713,-2.7612299357123424,-2.099799041892947,2.626308770075501,-2.5665899183575935,-5.550665414008365
-33.0,4.591491437309933,0.4344856557688386,-4.157005781541066,-2.4665024958467074,4.424496014528556,-1.848093969301801,0.28049491386550574,-3.942854077683577,-2.3776170459781722,0.8553602914814609,-2.030717706453741,-0.08530487660927871
-32.0,9.767301847306392,12.536096182594958,2.7687943352886237,-11.177337987094784,3.4696969275116443,7.666888354865935,-3.1505920857857515,3.7081743836438212,3.5065493795093445,1.6755016994170087,5.004389978795953,2.324466352418291
-31.0,8.957587957161463,7.916037281331447,-1.04155067582996,-8.456482661579397,4.970336700062509,3.456669096557266,-1.9929920520969209,2.6119976695642673,-0.28849386656993836,-2.652901202028447,-3.190725812212041,0.5984969642398448
-30.0,-4.574941233271831,-3.3570012261214903,1.217940007150358,3.9511639289605593,-2.845954357845823,-1.1214434404875617,1.2454567156351144,2.314352913440125,-0.12944018388816225,-2.9076391171648956,0.6680242644600441,2.815343928654905
-29.0,-2.9478336847799063,-0.9941489985555618,1.953684686224297,1.9598980077466257,-2.4783237719816675,0.5144695923044522,-3.1566968899677894,-1.1562809123959314,-0.4649078886737673,0.29022824718772844,-0.12524219478919055,2.097745481801014
-28.0,1.1108991536386665,-0.8292000494377039,-1.9400992030764757,-0.07055132046867874,1.4977000514256824,-1.4221742667401478,-1.9412970076462046,-0.9621300806311393,2.3807100360134674,1.4972126221382296,3.800178972503989,-1.2344334839894282
-27.0,-4.787122116131582,-3.3125437479649995,1.4745783681664677,4.0427354794450485,-3.08121080475591,-0.9522878744887122,1.6263637890868923,-2.612839876375468,0.3361278973566821,3.829130009461816,-0.7252209456975715,-0.5310564851051276
-26.0,-6.608922849266853,-2.5961147167993066,4.012808132467461,4.594829381003447,-5.341955410223004,0.7557277322021019,5.861364378973985,2.5411112863405187,0.7230257172121595,3.0889845162831207,1.9021985221119753,0.671045292497914
-25.0,-5.583291720491644,-2.484663818368506,3.0986279021231438,4.022962345892428,-4.373952532728424,0.3547107502041915,5.960597200208056,-0.43015277614497227,0.8568303307281794,-0.4753236085485828,-0.616638612841839,-2.162305693139633
-24.0,5.225130542587331,-2.6449017581843868,-7.870032300771616,-1.3074823903603368,6.59219914999123,-5.2888333951953,-3.9726713177826753,0.734406368943788,-4.086498223718615,-6.265920288086345,-8.764825476180883,-6.044181681755847
-23.0,4.289416081906717,1.4379696960483725,-2.851446385858195,-2.889723161680445,3.614895432566042,-0.7383614771301832,-3.2559290637547846,-0.46108398797023686,-2.671412434106386,-4.684494252893568,1.3500775859080192,0.702011167156193
-22.0,10.630681555159217,9.063161832451254,-1.567519722707837,-9.80342061431023,6.0652280715955245,3.7165911536384915,-6.804656635704425,-2.4708958871039606,-1.0155863910215626,-2.4520042323402995,-0.14099131743395843,2.3072812435406043
-21.0,8.086900883323036,4.564420886505049,-3.522479996817916,-6.368452586815223,5.770961835053245,0.5697938834261818,-0.3832682209187652,-3.1152871536459052,-1.1208087780399403,0.4084582741133026,0.6125831111322493,3.2604213163573452
-20.0,-6.313643783941957,-4.165187049964024,2.148456733977895,5.271298923808217,-4.1868627763983834,-0.9575306114705062,6.546356263849049,4.160742835751287,4.628404788670916,7.76047019431179,2.1596424042758104,3.211833092806189
-19.0,-8.624917519614584,-4.810541807490924,3.8143757121235335,6.7495057136202945,-6.256067281286341,-0.5240007463132605,2.5159002028148842,4.7164570070065155,5.224976763225814,5.90918440639985,5.100479075642273,0.5943452226905201
-18.0,-4.804053631156453,-4.384261743356248,0.41979188779999577,4.628667754941823,-2.6504242792855948,-2.007116970002582,-2.115000544776655,1.900600334636698,1.6042008019749763,0.21434554775696668,0.7028101792725898,-4.598167233985485
-17.0,-6.79965283522249,-1.6015395275129531,5.198113307709346,4.159639484335829,-5.95960530813291,1.772875951509862,-0.7740999999266401,-3.5502997391440667,-2.8246235203112353,-2.427449781316225,-3.319732910907811,-4.0009669589127625
-16.0,-2.1259857059923135,6.063857307593777,8.189843013585987,-2.00839599804507,-5.117343185410615,7.09953931118538,-2.0806866439785923,-5.229478270939688,-3.4773651534272734,-1.115776489093625,-0.6566805465255134,0.6156287256195143
-15.0,10.098501030957232,9.793371480454178,-0.3051295505030508,-9.986849672430361,5.167423948589635,4.793216641200192,-0.7444527887761334,-2.6142090434988274,-3.0649475491170612,-4.089420191553504,2.0030783983983875,4.348688601068953
-14.0,7.470585229990665,-1.5284011288657928,-8.998986358856367,-2.9370440341574238,8.284396110285524,-5.216292875109554,4.297162503096965,1.8096559585645275,0.8656782401447676,-2.7215604620076106,-2.332595221253351,3.47464602663102
-13.0,3.328931919804665,-6.156472025208576,-9.485403945013143,1.4437301824719266,6.382776721139552,-7.852744012912783,1.3632676003593769,2.6576931759274154,-1.1485005552645626,-0.7406431776792051,-2.6244915616143536,-0.3772050414207542
-12.0,0.912070048207438,-1.1588759017396675,-2.0709459499470233,0.1513753588821432,1.4693188670712596,-1.6461583322419449,-0.8729328034906807,6.513067937055226,5.098731607810906,4.431620456617745,0.25500246543713234,0.37275787814487227
-11.0,-2.1284825408999066,-2.8889554991305046,-0.7604729582305254,2.4596856160875724,-0.7076876916003041,-1.7764779671520456,-1.8248277656923897,0.36109175885349787,1.188999889229383,2.243835520655989,0.32280353447136895,-7.052659357659781
-10.0,-6.639966430040795,-0.31375387329559723,6.326212556745208,3.5122423145363033,-6.5116649326106995,2.975660054118911,-2.4410723046856453,-1.6054512412887367,0.2745147948849669,-2.150050867302628,-0.2098097690548506,-5.589340593019548
-9.0,-7.6644966567459365,-0.9779326881606976,6.686563968585199,4.2861284905595225,-7.132091178434655,2.8222973735393495,0.23083743294836512,-6.692942903194119,-3.8206258157896142,-1.282245998608694,0.3952404066890447,2.052530157068573
-8.0,-0.9777484935416836,0.6471805602307268,1.624929053772325,0.21750064339662467,-1.2644795561799471,1.1799420422530256,0.6367006858875488,-2.6188908869117067,-3.359269328503925,-2.520854849275826,-0.09628359715038548,5.053846207228215
-7.0,7.443889917484571,3.3317404075448365,-4.112149509939847,-5.408133790693918,5.809969713913641,-0.42879776477346265,1.8649100795446532,-0.1296655465099903,3.47555604515502,5.532088343073358,3.1283759292061877,4.882337121801704
-6.0,-1.9984912364606724,-0.4779846520606226,1.520506584399945,1.2198157530806117,-1.808968968461941,0.5574774136358331,1.4235794481237676,4.109246426499,3.1207961554469925,4.322158847386078,4.522190870172401,2.164936681838027
-5.0,-0.2696248781662023,2.9074673110730753,3.1770921892392208,-1.340378378499064,-1.7734511045477546,3.074813703983387,-0.7715453765879359,3.8841448412690576,-0.0023580435333221406,-1.7127888245683722,-1.391604139452988,-0.24603103571711804
-4.0,4.175137700812116,4.914009014814505,0.7388713140024122,-4.5729937776175875,1.7477876708700837,2.7768991633734665,-0.6867423368426078,0.5752754498423016,-0.9887455200075798,-1.729821923157536,-2.8595006347385654,-1.9209714958068158
-3.0,2.854467522938205,-3.605955829051875,-6.460423351990027,0.4173625638074898,4.689430722315305,-5.007069288141477,-2.3034323047800678,-1.2179940750778495,-3.5844771969047766,-5.890912945853698,-4.390581509965571,-8.45313670373355
-2.0,1.612817485121815,-8.034102635949546,-9.646920121071291,3.2441851664171173,5.586635241308249,-8.896026788059826,-1.0929707892428104,-2.366109447314743,-0.028912813160708373,-2.0908303880327233,-0.26969581764303197,-1.8356229845292256
-1.0,1.346019346989106,-0.5524167214329854,-1.8984360684220536,-0.3691157172570021,1.6622603053752054,-1.2046276558691935,0.03720737391621076,-1.757676551910672,-1.0131052321980198,-0.05270439102029045,-2.20536325329069,0.061768470836420786
0.0,-2.7887769007467837,4.235732000647417,7.024508901394226,-0.7778731300837847,-4.94039279337118,5.649356510022873,5.487471951331994,1.4148924024358656,2.9909492864070533,3.821034847919965,2.804716175948085,6.720025599579205
1.0,-5.025189356126422,1.9809627976780222,7.006152153804432,1.5449492877658657,-5.96617586414971,4.512390719232792,2.3438654541221515,0.31968495545619496,1.321027816912173,3.3968915817334326,0.9348447620693716,5.969593616623749
2.0,-0.3605971133100976,2.092905082058438,2.45350219536847,-0.9227878270196057,-1.433439463249905,2.292711925042193,-4.346217390482412,2.7411227296325587,3.3892889125557115,4.034300632708901,4.216288876198556,-2.1460086157025087
3.0,-1.885917322510409,-0.39233105965010084,1.493586262860225,1.1606790778222118,-1.7159318101142151,0.4927754311300856,-1.1250092958710556,0.09513600868219496,0.4308346649177538,0.13947600169204555,-0.0495003131723557,-3.214255730208937
4.0,-5.250883527180454,-1.0770409273654047,4.173842599814976,3.185114500967309,-4.662691984445244,1.5711203705731234,-1.788127693520397,-3.38564886641316,-6.1995227510897655,-4.128604432241081,1.0354337165107963,-2.0874492487592997
5.0,2.544386973877298,-3.0695556537822495,-5.613942627659588,0.28396342560826204,4.044525503772279,-4.39540247280514,0.5663137220310861,-1.7908556274232215,-0.6276731068776789,-2.3850722031209917,-0.9144161688804717,0.5637145510963162
6.0,8.047360369398959,-4.420095866991075,-12.467456236390028,-1.8695823745175175,10.215931645931796,-8.415252084576236,1.11150752249414,0.19684497614825813,-2.896686735405361,-4.861719735352394,-5.49603195043021,-0.5975653590181398
7.0,7.079204383735902,5.234405305890899,-1.8447990778449634,-6.131080010186582,4.493132403982674,1.7282331753927869,0.2701756917598378,1.286100558031551,3.0497970964879286,0.32387412371117463,-1.9311626433897557,0.4130779591181445
8.0,-8.593611202853463,-0.26285714073351985,8.330754062119976,4.458224603429964,-8.434626453369901,4.07359200752303,1.9283878422578848,1.4599830014932642,2.065022413341513,6.716142927748964,4.125146015171039,2.6561854254808526
9.0,-1.5773240592974167,2.7662599038122355,4.3435839631096895,-0.638328187208917,-2.9328816186686444,3.5223796785174213,-2.041229987497804,2.224873598827537,1.411029840387356,1.8950833345688114,1.973048336050804,-0.641187142563197
10.0,3.0232498034053714,-0.3355781468234813,-3.3588279502288287,-1.3045573142851925,3.1432118070138113,-1.874197374479099,2.3893169006734043,1.7103052266452143,1.858889199484062,-0.487962355742952,0.7427957517078168,-2.7438297443338757
11.0,3.778588511448213,-3.1276239317143752,-6.906212443162567,-0.3623720728794796,5.378609648072802,-5.040462167064535,-0.7022165706579098,-1.182479715809458,-0.7504964102921032,-2.8224031069001336,-1.6634990276512267,-1.091784353277287
12.0,-3.314088227597576,-0.02730580821524442,3.2867824193823365,1.7122808949821722,-3.337694392097142,1.6072496702359436,-3.116749249340434,-4.310339609856468,-3.8005302354254558,-2.9201663746534487,-4.741871045536727,1.0656231300498762
13.0,-7.320875575678125,0.42242346169829065,7.7432990373764,3.4085200935237654,-7.565833032090834,4.138205550846337,0.7400085956901525,-2.9680787335840195,-1.9166132626102002,-0.3169726645916533,0.4047940460774859,2.002306898995905
14.0,-2.4324642966802896,2.9368770306661136,5.369341327346369,-0.22044545883178723,-3.855245218702125,4.206183146895186,1.285035873350712,0.23191503307679628,0.32597487397938485,2.28734916526364,6.127413730579274,3.8218517068662816
15.0,3.335913916557123,0.762021222593705,-2.57389269396349,-2.103503964305737,2.9980869567360005,-0.9349232783150405,0.6877417007628476,3.6491426412852728,2.406105689352295,4.495688765681712,1.5576412491708913,0.32260508269710075
16.0,5.925925661649685,-0.6679647823349164,-6.5938904439846775,-2.6114581800848926,6.219229018350272,-3.6643230333672023,-1.646501831446548,1.1184209716007945,0.06728700854864833,1.08995892465126,-2.697093070571147,-4.20265486857249
17.0,4.208678648350423,-1.6237116676987484,-5.832390316049228,-1.2786996103728434,4.973231681031214,-3.7670089639368918,-0.7665353644401257,0.9994991665985948,1.1319967336566503,-7.094400433110096,-3.6717391838874525,-3.375396135450135
18.0,-3.8424597211321725,-3.608667742755077,0.23379197837709897,3.7398276372484256,-2.0132163365113858,-1.6540440502054445,1.9720825818561796,-0.5655137197075353,0.5458261293487936,-0.04466959604219589,0.9452423348595103,-1.5697944071256305
19.0,-4.717352737093192,-0.5206595420063596,4.19669319508688,2.6378233221008434,-4.436849107271702,1.8649087371523443,0.6038962484119204,-2.219297886971091,-1.3750373908423585,2.5868682941067513,3.7404730207633925,1.5251469342784434
20.0,-0.5587226658005635,-0.9137189752772501,-0.35499630947662064,0.7621173334817952,-0.08329525135397553,-0.6132163689196137,-0.5059947806379266,-0.04114495936856222,0.13853753775341127,-0.20174315543321453,-4.505243155645941,2.1644870227606723
21.0,1.753132100373346,4.016077890803044,2.2629457904297645,-2.930111418313266,-0.23427589283124917,3.0775594048705206,-1.6243012951285696,4.3460787274357235,0.19442179177451602,1.217055471236077,2.692162816861691,5.193154520961977
22.0,4.212584376889305,5.34553708325108,1.1329527063618545,-4.818855109681262,1.4871358679294773,3.253417729313315,4.343022610386405,1.222389426988328,-0.0968325878514496,0.7972306401281993,2.9570667053768402,2.084474061657301
23.0,2.977484577433208,0.3201982148780713,-2.657286362555074,-1.6852693552212752,2.7726659630386044,-1.1553048037770546,-2.9210061517465102,-2.8233780900246495,-1.277734677068826,-2.7048433339625464,-4.847074492771867,-2.729103270834059
24.0,-3.611616392527477,1.7375219198129839,5.349138312340521,0.9809364228747038,-4.436997142313697,3.557003330081649,-3.0710402034484927,-3.644193770709725,2.525658457395877,-0.061581490515802195,0.01621117126179117,-4.966223640566513
25.0,-1.767977052898618,-4.356129505726962,-2.5881524528283766,3.1067535251023637,0.46287024480535943,-3.4571994734371616,0.3377376804231209,-3.53452382813846,-4.1144859477437405,-0.7321285486266766,2.0218882906346836,-3.661625767083159
26.0,-5.856942183924571,-6.414183862227589,-0.5572416783031398,6.1808229242686865,-2.6679308847306675,-3.547974062107297,2.0340312358043615,0.25325349124761387,-0.47968253134651406,-0.943974556611003,-1.056501174777832,-0.46287169160379404
27.0,3.609472345640832,-0.25468552349696294,-3.864157869137906,-1.711147778405544,3.72348764862737,-2.041447933573153,-0.1399274942637796,3.0838098488591865,1.7039977006919318,1.574659855979296,-3.2785450674802386,3.3103829911997336
28.0,3.720134785103996,-1.7809379212041343,-5.501072706308147,-1.005739033882654,4.597730805073556,-3.6216097003465473,2.593425017391507,2.9563479758239883,1.6362419062503752,1.6765722483488614,0.9945618096002149,3.3566409999847573
29.0,-6.728493334146726,-1.4838148960867457,5.2446784380599984,4.064439070005182,-6.003445221114351,1.9014503402962095,2.525803164168764,4.866365136139828,1.3250004845163623,2.803199655579659,2.7981016596536636,1.1807863763307442
30.0,-1.8058089503976755,4.501342007008983,6.307150957406699,-1.3194680199571687,-4.080657830235469,5.348673168979401,-2.918423797825894,1.8093807699568505,2.7232746362701343,0.4588271044760447,3.9848971323281814,0.9744534655329151
31.0,4.182530462079804,7.230222917300502,3.047692455220718,-5.688646039674742,0.6133663919163144,5.1650477125492475,-3.5380548103348293,-4.529229404100295,-0.880830461612065,-2.736113812965363,1.6193721577895603,0.7866371241415995
32.0,5.913781289026066,2.300304464694435,-3.613476824331624,-4.09955033133612,4.801832609218181,-0.6268367590205379,-1.474046837109637,-6.905514437571636,-4.742167749620705,-3.2046475118354962,-3.8940008897893184,-4.22057331788747
33.0,6.783301041530204,1.6013645642288337,-5.181936477301333,-4.192538393122509,5.9367892759595575,-1.8351579022078675,-0.9479016017615424,-2.3996600299596382,-4.6520404793378525,-2.740886107928879,-3.5845653493561143,-2.2305155545471993
34.0,2.6246625637871386,1.8660639399495609,-0.7585986238375164,-2.2491299295565867,1.722307901301334,0.5917251491499558,2.2333977075537117,2.816648972507512,3.1446918991288686,1.4736335563683525,-1.1265587222917377,0.10820527755639153
35.0,-9.154645637814317,-9.563560998815129,-0.4089153610007439,9.356567569933393,-4.420484344168017,-5.0234212874377535,4.184281612374915,5.281975995447367,2.571204695118162,4.085574854169602,-0.08623762605921814,2.0312796712062022
36.0,-10.405216350309543,-9.391570824462068,1.0136455258474792,9.90158741586563,-5.67606049481358,-4.144717215271904,2.2868361207633363,0.20893127134486722,0.638967671950023,1.567552868733261,3.060509851407035,-0.7796498948759608
37.0,-6.308536238716614,-1.6829776199740447,4.62555861874253,4.008138702121219,-5.509521275622755,1.4385586739228833,-1.0574364630910063,1.224393363376801,3.1034401354557373,0.33195589964284,-0.6408824844166352,-0.02518418714526649
38.0,-0.2570676921986932,2.969489845208114,3.226557537406758,-1.4114381258589448,-1.7030773021322263,3.0665498086945693,-1.6612916825701949,-2.044912085202327,-1.1715312708105947,-2.5065504121673654,2.413877610030204,2.4559955402870646
39.0,10.62656626932739,8.16283012848951,-2.4637361408378915,-9.35979057704133,6.584914999545055,2.8982217930133984,-2.068849261171988,-1.7407587950146013,-2.2318744445233603,0.7503943262168282,-0.8340550589168283,-0.4975709264003846
40.0,9.207596701967514,5.796417384176195,-3.4111793177913103,-7.457181661795201,6.269314986266712,1.1646797181266755,-4.951460462395013,-1.0121388719511568,-1.0946051616019832,-0.8478809873784077,-0.7028775382737393,0.32719814402635694
41.0,3.578990316626517,3.6217678139058487,0.042777497279355314,-3.627346489520523,1.7247287692966005,1.8861320071348493,2.5623207764394067,-0.8973777693857067,-1.336139308455706,-3.4690315500587428,-0.22727525907132878,-1.4586044501115163
42.0,-2.9176950253003984,-5.460704858121584,-2.543009832821146,4.165269922779874,-0.15676908829055525,-4.0231954833744945,4.132787375362451,4.25126397883985,0.8450345682745173,2.5111975684134835,0.9007249196880922,1.465960326054729
43.0,-4.831572932260108,-9.33717224460394,-4.505599312343857,7.0594836718254745,-0.137200464073564,-6.939489380313277,-1.9541251713518784,-0.8208089287746718,-1.0636759214626408,-2.5372383108166625,-4.550600196643913,-3.5587692460669405
44.0,-1.06575153780945,-0.4813811146875837,0.5843704231218261,0.8234237805724538,-0.8809402193195459,0.03547724598099178,0.7015774033143171,0.6124408797883243,2.782667943739823,2.298532617207531,1.5247435375487857,-0.2006281309625635
45.0,-7.905613851961407,0.9959492251699023,8.9015630771313,3.420642360800696,-8.380223314181595,4.933193466648145,1.4581700930307138,-2.1495983914395387,1.1425510278699518,2.4156457016253556,3.1265267399607843,0.7493213053240798
46.0,-3.336944409036176,0.42065557306420837,3.7575999821004293,1.4981303393653995,-3.5194513874656583,2.1510814807856353,-0.7305606297842545,-2.3700454473690593,-2.48837464703467,0.5136848047035567,0.6317679179715681,1.942316700922057
47.0,2.2710468925059843,5.161553798907205,2.8905069064012894,-3.757235202384904,-0.2743026924668306,4.006502186464545,0.15738743126818022,0.7850947905595913,4.5851178027466855,1.6172179533715796,-1.5401370147833346,3.0306086013326534
48.0,11.059051827596509,9.75880644148821,-1.3002453861082544,-10.369997840294007,6.145066730332433,4.205744527563737,-2.758354984160107,2.5198037865022402,-1.6867081303165057,-1.9547780580834333,0.6616977222398546,0.4972319187832763
49.0,10.84198665861024,-0.09013896127444943,-10.932125619884708,-5.411460734672797,10.859843540444398,-5.4609964676934855,0.398865464573942,3.7134119775648533,-1.9862512333456062,-0.3325157239991343,-0.5273949955587705,-2.8360035273982005
50.0,-7.70224334199714,-10.48132820611144,-2.779084864114373,9.141393529439092,-2.4848158366371917,-6.664644004568606,2.4483688224731845,-1.3563381529791947,-1.6995284723843074,-1.010481142356626,0.9122152773931279,-1.475503530861046
51.0,-10.534150824803799,-11.32646967557025,-0.792318850766462,10.908032873316941,-4.815611412410123,-6.099774844787479,0.4563034855621452,-0.5272194618149482,0.6930933327670374,-2.839363891940575,-0.7921554125522746,-2.0997587677578466
52.0,-3.7614238862307037,2.258731132575477,6.020155018806253,0.7347029539024748,-4.917995108324343,4.172708076005078,-0.7571615458314601,-2.687955239877614,0.6037810348808537,0.6046577602283877,-1.0710531852988943,1.7093628369679066
53.0,-2.2052924248945027,4.736676036287719,6.941968461182366,-1.2791548439918325,-4.606446086045471,5.869386881685196,0.40469975722528784,-2.2153919592859133,0.8832155189964718,0.8465204454663661,0.07694478756627582,-2.517824240472381
54.0,5.5268529261988615,2.445591876940434,-3.0812610492583543,-3.9993994571760565,4.344603402196295,-0.36705648480839326,-2.3673205819470815,-0.9565907320872343,-0.6653507642677718,-1.6637449395161181,-2.2259218450468623,1.971359348439092
55.0,9.179849267448324,2.8794394113061994,-6.300409856142152,-5.9664022251046305,7.7771867588979955,-1.678749443769612,-0.12219311646984365,4.033837803304623,-1.1151399457804818,1.6357465305157275,0.4836517999889092,4.176439619857826
56.0,8.716461064774139,7.51082578843087,-1.2056352763433291,-8.133429403249673,4.918507755226184,3.1885638116964126,-3.1793519857566648,-0.24165373823750258,2.470815025928372,1.705321617928472,3.1449976454116952,1.7861648281483762
57.0,-1.2064042594436444,2.4533578549004815,3.6597621143440104,-0.6487524961823228,-2.3953534535152223,3.018743309914167,1.930688235748145,-0.9686298167284104,-1.6777375857628185,1.513068291693347,0.9357195995090068,-3.738057053854382
58.0,-7.483020107463792,-6.387442664328223,1.0955774431354888,6.98267456897471,-4.3273440401251575,-2.6794133685223387,3.354476070667524,0.6628446677325405,-2.4538304001498785,0.8427936622420432,-0.39817273980113754,-2.7140079572918365
59.0,-11.553384199716973,-10.935483072555165,0.6179011271617602,11.20720681933166,-6.120230167253973,-5.110678546035915,2.549773947467262,2.6121950600184682,3.535138468787316,-1.4645969262675405,-1.870966750671717,-0.9414662148307418
60.0,-6.596661936910734,-3.463412961386278,3.1332489755244137,4.987694565467403,-4.817454562200911,-0.19439619688259446,1.9690087202988802,-0.8534759353803484,2.358463728067729,0.02514042617429535,2.347018759796702,4.157570798337339
61.0,0.22576517873494906,3.6932198415366013,3.46745466280169,-1.9267751774198216,-1.6490374677759232,3.5515796403705306,-3.6778340819325797,-0.5087690429773221,1.5585671920558417,0.3621293566372161,-0.6414981285492783,0.4391635025821785
62.0,4.510308407665363,3.208335126162698,-1.3019732815026104,-3.828633902434123,2.9595214320284593,1.0040646769048398,-1.7275715524337583,1.4943402029812365,-2.495387918831959,-2.839956068796661,-2.0260060610441775,0.6066945699737274
63.0,7.056061311700427,1.7290880852867119,-5.326973226413715,-4.362733574700994,6.1687250041213035,-1.8247545954353006,-1.0402469962297591,-2.3943817692533593,-0.8267956628570161,-0.7635678508089374,0.4610886662493623,-1.6954580902692062
64.0,9.039878584262924,2.3220974051184426,-6.717781179144535,-5.730745285985137,7.858188918983445,-2.1416485189251837,0.45459762089877553,-0.2597528485736763,-4.31242282193202,-1.06821091819187,1.5006643670070074,-3.815595949815533
65.0,5.39807859808964,3.705648826129056,-1.6924297719606518,-4.525121455358034,3.5260708876880233,0.9876504257417189,-0.877351187972181,-0.6491671255227361,-2.045678828597007,-1.189656942134783,-2.362789350299019,1.496499465380416
66.0,-0.8750158464335129,0.7701223767259856,1.6451382231595086,-0.0040651278603534985,-1.1999790853664196,1.1912794617931908,-3.575823569236294,-4.868829525033307,-0.1585285535769281,2.8263165651168656,-0.5022006117717679,1.7821999368066939
67.0,-6.329519358181782,-3.9858224159621534,2.343696942219718,5.17344191723312,-4.355788747582562,-0.8368300226607455,0.9365536951969776,0.4542555962053002,2.2276045545434355,1.7732570990230452,-2.20201269599303,-1.3681245276615566
68.0,-6.156470353309709,0.11060043379793161,6.267070787107765,3.0317712452024344,-6.232550635095954,3.171562871635687,4.003295836929578,5.681653995111683,6.748416911502646,3.4868988688664575,0.956826758086224,1.8856549961036078
69.0,-4.5605165398990355,-3.6984669089764424,0.8620496309226944,4.133100966361045,-2.7346116422670192,-1.4380184810942669,3.262963739747864,3.136954115193488,3.601407932859014,-0.6514881858564254,4.178440261604034,0.6939777436813356
70.0,-2.3246463821274976,-6.433044220187255,-4.108397838059675,4.380923670024696,0.9440038632934384,-5.213696031357777,1.3767902803592003,2.2221629302236794,-1.766297188668052,-1.3694261037122173,1.5656352232019248,-1.593749505720925
71.0,1.4205016773185142,3.7422038551673635,2.3217021778489118,-2.576139694745847,-0.48111886550013505,3.010231330802756,0.33523899736591967,-3.8435278632279033,-7.003061519620883,-5.573121850261357,-0.4098480914228783,-0.8396215433704446
72.0,-0.8171553919451426,4.151789216928841,4.9689446088740015,-1.654823362973561,-2.8493802124626577,4.61940566813486,-2.6643590627266978,-2.318575947917482,-1.6271706077825252,2.5450310262400064,3.7654703999469725,3.6604412129787125
73.0,8.286380594185625,5.357768837700558,-2.928611756485097,-6.800087228521904,5.566952196762955,1.1975357941671003,-5.067729051546752,-0.2792081096193266,2.007944045171875,-0.261707344724858,-5.5789516515597075,0.11878945557796941
74.0,-0.024677288201225167,-1.894510636216288,-1.869833348015142,0.9118241098174256,0.9542497542090027,-1.898080887386676,-1.7241719977961223,-0.32964486660321546,1.945501884444831,4.430535379348896,-3.898615723771514,-3.184164950309518
75.0,-0.4013488355005195,-4.5250761445493985,-4.123727309048912,2.5001733336683234,1.8067403163208384,-4.3425800130359615,3.1388323082858687,-2.0482171701734773,-1.6542182740501932,-2.6137064466661557,0.635268370811076,-0.9175216925602088
76.0,3.2969316974017033,-1.7387504105399865,-5.035682107941728,-0.8192472355373411,4.18323157574522,-3.411464303899476,0.9962676743227861,1.0476788918354254,-1.3176018051949985,-2.6536688152242425,0.21518613863852315,1.8671756148573624
77.0,5.442427191017423,7.183934339446147,1.7415071484286972,-6.35568231185386,1.8613121378712838,4.430170711067737,0.7154579961090133,2.8871892723399326,2.899397399502317,0.8903482548031756,4.305171882928473,1.0109326735249597
78.0,-6.5204558789958655,2.025575892300999,8.546031771296889,2.2792496053892397,-7.52578511031559,5.3245144162459415,2.1818941071079134,2.2654418423517564,1.946543376412393,4.027124319687544,0.870681762729546,-1.824718541076135
79.0,-16.68268292289148,-9.640166588864286,7.042516334027264,13.189204180995247,-11.854917459611546,-1.2635584016440298,2.080814308553891,-1.3054734120123481,-0.5212684200364743,-0.8051604904611089,-0.9983457176307304,-1.8374820044227556
80.0,-2.3366015157074633,-7.721344229444702,-5.384742713737173,5.055072431231431,1.535751692748959,-6.515206138649887,-3.8989424683719944,-1.4759100248932917,-2.9636838250507465,-3.658842277440967,-4.229187594341025,0.9916442619993975
81.0,13.833141625228532,4.867103989429903,-8.966037635798532,-9.322804916037853,11.33961483973489,-2.0819609942168094,-2.6147353883538904,-3.014668263049202,-1.3929473419924765,-1.8507526470340745,-2.2704137118728447,0.3885699892894925
82.0,9.114441084611233,6.900481232835565,-2.2139598517755332,-8.055653394389571,5.69180058642384,2.3228358353919707,-4.895024758475845,-3.239046369625349,-2.155167071736312,0.27111294744892256,2.0467770997589336,1.1490820137518374
83.0,4.150831564870093,7.457024317441222,3.306192752571234,-5.8484361180197535,0.45865790929784156,5.373588612338122,2.74026925356351,3.9918490499109076,4.784821024447998,4.122071634460533,3.754756732287724,2.3268219532839947
84.0,2.9361568663640973,2.806527399508142,-0.12962946685594634,-2.8342856596468584,1.497128436169974,1.3399179396570386,4.856495035258963,7.40221038232161,2.2916536592756076,1.3132352385061945,4.731241305390891,-1.7485123477149012
85.0,-2.1515764321574364,-5.243793659118017,-3.092217226960679,3.657494182279502,0.5160408121892108,-4.162208655761395,3.2477847268286513,-0.8154633057225906,0.9655701957716272,-1.5582417772629817,-3.7156265904348293,-1.6638671013356283
86.0,-14.267195569243068,-7.215594843414131,7.051600725828738,10.780548195058731,-10.694726163714353,-0.07779891105521397,2.831999351017206,-2.1486277520123283,-1.3366981818977925,2.585139494333234,-2.093685799048083,-2.05984725801546
87.0,-13.894001753161772,-7.418852338341761,6.4751494148198185,10.696016962413996,-10.227155884548125,-0.47444375641012004,-1.2130629987935158,-2.0657239749027605,-1.6434782006999795,-0.5204107993986911,0.34792987261561903,4.848601684135601
88.0,-4.009015629787873,-0.8205708232227695,3.1884448065649416,2.376439116685442,-3.573276028464374,1.1712729001095301,-6.256508585936155,-4.686387725320702,-5.3305782710695215,-2.8810494251728493,-3.7111966947786525,-0.8629680565097149
89.0,-0.024154474509440194,-0.08185555809804904,-0.05770108358864978,0.015791632226956898,0.030651742722466624,-0.09328304670069343,-3.083801117325336,-1.2050030179613098,-0.08886412810934097,-4.349566092730534,1.5282393610220377,0.9365935407769312
90.0,15.565083564560902,9.647088825851126,-5.917994738709677,-12.56369468489736,10.745944574142326,1.910577556433005,-2.6610198663042306,1.7324334548522553,3.0958619137572825,0.6934599363938632,3.20261575216903,-3.059027462898429
91.0,21.03836371004236,9.56891934929712,-11.469444360744996,-15.261696726245251,16.253368312588798,-0.9102147961283417,2.1573945161126225,5.212987919166123,3.5572592621872023,3.822061820386819,-1.786232728437349,1.1142943434860892
92.0,8.148645952230497,1.99642444604466,-6.152221506185557,-5.112150689095826,7.150706432035671,-2.1188844556952846,2.788604226896453,1.8347906400430047,2.195939428329032,2.3611159607960244,3.4629036615025797,-1.792331082319908
93.0,-6.661193330765059,-0.9037673581128397,5.757425972652365,3.737053353252163,-6.202726401246998,2.3867118978123214,4.629248865396066,0.8055419278170679,0.04254591448003875,-0.5139294906356902,-2.400787857557604,0.32944735278683723
94.0,-16.41834275953393,-6.661390902834826,9.756951856699086,11.564587329416767,-13.070768746331817,1.5893343864684208,2.45402550140028,-1.8150808440910264,-1.5017811523967177,0.42844192073796816,-0.3305538093503364,1.263281602358644
95.0,-11.277963033492108,-9.388267262740161,1.8896957707517776,10.347617970427454,-6.633668403074639,-3.78268418575436,-2.0155737872718715,-2.8399055688655905,-5.075720487988955,-1.967971969762032,0.04846790729714423,1.7990110915110749
96.0,-7.348106179575337,-7.788697843123377,-0.4405916635482683,7.572929216814303,-3.4133660747623855,-4.0656039377582385,-0.6702275952367105,-0.6117852750507051,-1.1332768947492737,0.39892557391858063,-1.8586386885134998,0.7329857245444794
97.0,6.141843880004728,4.576096136651119,-1.5657477433537876,-5.362159882899873,3.8246318084122923,1.4783292996866075,-6.252563219124947,-1.4839795579866184,3.163858350274685,-1.4798072724864755,1.6161382429362745,-1.6674805311224143
98.0,10.804693259953222,6.306245899263171,-4.498447360690072,-8.562458727831459,7.628451456807583,0.878649473103642,-1.1582021115949659,0.8659314611020994,-0.6396753928933945,-0.4674188547991663,-1.662805257482645,-1.9142710009066597
99.0,0.1801447530282818,3.1305352438296206,2.9503904908014755,-1.6612944492721464,-1.3266304522866292,3.09411664587767,2.017597350631002,1.6133352962191332,-1.1473135376022525,-2.945936697748609,1.1730001129273746,0.09666820530306708
100.0,2.754150833712294,6.27574418583812,3.5215933521260157,-4.515114402466004,-0.40380366631635,4.8723773633953655,0.7826595269949271,-2.0938588326109504,-0.35422176355712565,1.1295371337789113,0.6337278726514213,-2.7217178677171896
101.0,0.05192273655505408,-1.7834446777695168,-1.8353674143244012,0.8749300646643374,0.9217245543165848,-1.8379073839373739,5.490042898937468,2.5865297657346202,5.714067393327471,3.0716604252071624,-0.759175831015253,3.3103251132644402
102.0,2.484537559528981,-4.316178560179715,-6.8007161197086425,0.9356248941845047,4.696226191120001,-5.510895463220669,-0.9248091450182132,-1.6060134726350084,-1.311270963898135,0.3051156289677637,-2.601603209765969,0.23861452608074774
103.0,-0.6920278192865903,-4.751684479089231,-4.059656659802705,2.750712439220879,1.6545906249604458,-4.439410964856817,-2.356501914567837,3.259036262757201,-0.12229039150240173,2.0598687604187855,3.079329949743947,0.26896490074159873
104.0,-5.212250558214681,3.314449201825086,8.526699760039705,0.9037444799405199,-6.903006661083961,5.96385295587328,-2.434137929124274,2.274191560156404,-0.86111987124578,3.055348228678441,4.238011420974017,3.5083047916961885
105.0,-1.3588842986234413,4.12281939371518,5.481703692338584,-1.4283164861497362,-3.378808452917494,4.766461718110174,1.8358355999728753,0.08447975232006794,0.5387249989734935,-1.5658327104955732,1.9390581598259398,0.20879232103824402
106.0,-3.049725008932764,0.6970014656143692,3.7467264745470894,1.201854876358195,-3.437645485669847,2.1875890747542153,1.0676654315017036,-5.086076783686,-0.30853487227887044,-4.023851883195231,-5.40625090305587,-2.0112811751213915
107.0,6.944152999604417,1.3076775293380185,-5.636475470266471,-4.11092835205017,6.330042652414603,-2.1163904775104094,0.9356732662359943,-2.0307434797324295,-1.2711000410490998,-1.4097042191326787,-1.6715861923935371,-2.5466471212430895
108.0,3.784956698429545,-3.049597840988141,-6.8345545394177725,-0.3634166035120232,5.27428133311796,-4.9676803036240695,-3.0163814024147704,-1.0777525912490662,-2.250113622140143,-0.006491186021923889,-1.7923244364259643,-0.8416043074900852
109.0,-5.944658233862623,-7.227530330555542,-1.282872096692972,6.5830083881351715,-2.2810204707588984,-4.196512816594385,-1.4529176463962576,0.26385580408292547,-0.11048552233581177,-1.1401315862301995,-0.451166819315052,0.11458532514525233
110.0,-2.651254058109796,-5.39980093828743,-2.7485468801776136,4.021221116908139,0.028506531356569442,-4.090222881223666,-0.12127988518471028,3.97327485451885,0.5444663157098061,0.07097270020859636,2.5702019314142612,-0.20392081575428234
111.0,0.9931284171246055,1.9911620146797526,0.9980335975552643,-1.4903986408624545,-0.013266586781966683,1.4788737646647176,1.7954311079943543,1.5774149531749462,1.091101199806983,2.45632248230254,1.0258957061989742,0.5302276231641094
112.0,-4.082662853584191,3.872968581562448,7.955631435146758,0.11912004281759048,-6.02185060648852,5.893666498632637,2.914356879276334,-0.829905337064446,1.7794341274007046,1.265387163334227,-0.6386437764188595,1.6669164691590985
113.0,-3.371799943549961,5.222176095539205,8.593976039089249,-0.8944938912172269,-5.98029906282267,6.87711342582733,-0.10458681876116649,-1.1471467824033257,1.1054603031736925,-2.76041653580786,-1.326875797030981,-3.610288319781032
114.0,2.9739312209169046,2.115566618720721,-0.8583646021961795,-2.576161289910724,1.9201551673269268,0.6620627762324909,1.2984655079419771,-1.644930507216662,-0.025434353132326448,0.9927682698798526,0.809505983313941,0.5067618439008147
115.0,10.111221889645087,9.438413714560724,-0.6728081750844437,-9.793071200744926,5.393226913253161,4.400577781584052,0.25769230424999495,2.678686080488843,0.751973964262004,4.065448051151429,4.17578129281858,8.681355819984063
116.0,6.031452926593002,-5.9091599546320515,-11.940612881225157,-0.0723730190249956,8.9806261773212,-8.921121524461297,-3.491023514964244,-1.3911557208498282,-2.908874592338432,0.29987567301152085,0.39496159926292873,-0.5856529828181314
117.0,6.24647755433394,-5.968080525444334,-12.21455807977836,-0.15041080053854827,9.215691908463135,-9.097261609168788,-4.26507266407781,1.071391563018359,-3.132091998333933,-4.203389192244924,-3.6000784596084996,-6.473537460380326
118.0,-2.3541719821321956,-2.3647074781355766,-0.010535496003345024,2.420950200567377,-1.118636599898446,-1.1972788962587302,-2.0254945132135003,1.551279524822383,1.6291506166635594,-1.7030967108667814,-2.7931984619414636,0.4359481155542717
119.0,-12.323066090476921,-0.22974270971313882,12.093323380763874,6.249456410651822,-12.244124473226357,5.9249655152984415,2.1485612200654916,-1.7242372204119851,2.0609298014376454,-0.3471905561935069,0.5152457310371514,-0.562453549975876
120.0,-15.11797479207738,-1.3198712475739065,13.798103544503617,8.181598888179579,-14.502284270512666,6.241108888463841,6.402671208842816,-2.1016378149509665,-1.069717920661398,3.795233808141563,1.3612166533494057,-0.2982617371110051
121.0,-6.980957721857113,-2.471548895105174,4.509408826752042,4.759531777905479,-5.715662726262688,1.0341751787323,5.132475249482441,1.8894365490736893,3.225817872216491,1.2813940612685606,3.5023726803045494,1.454829503871652
122.0,5.954004342032645,4.162267656336338,-1.791736685696279,-5.028678040978975,3.901221462237055,1.215923308154855,-1.4639123361421382,-1.7592088941246047,-0.8489875946066463,-0.727417445726031,-1.5044096240305325,0.4060116446960418
123.0,11.361468768002915,1.75148410768018,-9.609984660322766,-6.604451103733785,10.516069061895074,-3.9623109961979273,-5.260946839467048,-1.5242380447844133,-0.2345198272246335,-2.0306015734482132,-0.7247911378381733,-0.15196942168361305
124.0,11.97570864256721,1.2771435248179754,-10.698565117749283,-6.589845296716644,11.292141673171052,-4.731319390842618,-3.7340085160381733,2.4743804369983455,-2.0841838454830506,-1.925525600813962,-1.6998038825456228,-1.6765777726255662
125.0,6.9443348508628135,-1.542629371273077,-8.486964222135907,-2.734640566209939,7.752015361805764,-5.0268594369742186,-1.0462030134573075,1.5431233665967046,-2.197354766584029,-0.27732846992300586,-1.0677485999834861,-0.19558104201022947
126.0,-0.5920178798218072,4.327724386613136,4.919742266434944,-1.8145859132760231,-2.7981929329617916,4.616012009131497,0.21972918211915882,1.6499979406232599,1.9377572770627913,1.6768730822547395,2.842338122540764,2.2943201027802576
127.0,-12.450030110371568,-0.4443152740019072,12.005714836369679,6.427274205264906,-12.273048847068083,5.852295289315112,5.467897200853213,-0.8696790460813415,2.300167832877361,2.8418811568070703,1.0038999548760463,0.614410018329228
128.0,-9.52541344408005,-1.522339263564774,8.003074180515263,5.5050339633577785,-8.73524639352436,3.2306497617066436,-1.6653082298146906,-1.8257416556344774,-2.0914006405655154,0.7712514632887217,-0.8459321091018646,1.0309639701899647
129.0,-5.075598792918834,-6.039781696497156,-0.9641829035783998,5.535070544945566,-2.0306693764177552,-3.516873732224015,0.3714695019031772,-3.6353127681949426,0.8782315604389922,-3.3515653158262673,-2.115804567725833,0.48350812201353954
130.0,4.186926354659524,-2.9416223404259916,-7.1285486950856445,-0.6525185652783483,5.681804781539546,-5.0573364962392695,1.1438029835533796,1.8577689486435125,-1.933766186765829,-2.8565203862528725,-2.3935509893595546,-5.492316520142432
131.0,12.539068705643022,3.8330133547765395,-8.706055350866622,-8.14537654635546,10.571199816431387,-2.4677501197161367,-0.5627364094517247,0.12305266546774057,-0.3271890255087502,1.6322346452722893,0.8281914047850861,-1.2986086003360782
132.0,0.7516063170893155,4.76738587712444,4.01577956003505,-2.725474010640083,-1.597504439959617,4.429333710506469,1.693172660455648,3.495046318342009,5.337660138891019,2.6394912090523923,4.969257885479319,2.7437714347109847
133.0,-1.6714191246064787,4.235248357894541,5.906667482501048,-1.2514544532445315,-3.745505445422274,5.099083214672002,-1.7104658177642729,-0.5455596085519783,0.203255304595376,1.7186325161553504,1.5064688458544282,2.957923481511485
134.0,-2.5493928565481117,3.0079370278886373,5.557329884436845,-0.2780901883443492,-4.080954445783306,4.302072672086426,-2.6672804938404453,1.1681988286343565,0.17531720282324137,1.262890196478373,2.282020244247586,1.7745309636029878
135.0,-3.697316215072851,-6.862469870915238,-3.1651536558422677,5.311076369930007,-0.2902794054673514,-5.080286588170104,-0.3110451514118635,-0.35022870811653717,-2.62182636350551,-1.1159283908892021,-1.9744138524049901,-1.9231411835150325
136.0,3.506222653047214,-8.368103309081993,-11.874325962129097,2.3848790413409393,7.66382166257902,-10.114047122901123,0.4336447733359996,-2.9277456894999836,-5.554038116685639,-4.633679608488646,-7.459000494971851,-4.148052769055421
137.0,-2.5678958332820114,-2.953067681946853,-0.38517184866484566,2.7153236760448367,-1.1249652915448176,-1.6643408616310733,2.221864506340225,-2.7602193619005937,-2.669072873782351,-6.065301531558442,-3.2857173825046315,-0.36855868349156795
138.0,-4.986036720707864,0.40036496385176656,5.386401684559557,2.326945402159979,-5.150443160708047,2.8992154462820565,-1.6083780961934266,-0.6810091924824648,2.6490128216317235,0.8622928986984304,-1.047759936068879,0.3125522262186998
139.0,-3.82822318758823,2.1906325725892946,6.018855760177449,0.8540095883470942,-4.895935782213298,4.115522923060456,3.0125657523824425,2.683580047749068,7.9253509923546135,8.660564258620258,9.040075637537194,4.425447653667207
140.0,1.8652691423765546,8.215530041818946,6.350260899442322,-5.002507392853564,-2.21923760409571,7.3023151524770284,3.3312072568046993,4.149741716486215,2.4509939005097165,6.169102292547928,4.26952696936975,1.1902966178138696
141.0,13.267192868922322,9.41483081651823,-3.8523620524040956,-11.377238816165429,8.583258010065709,2.7332020605947687,-1.5745754498675744,1.0459719573438933,-0.8253327906834418,-1.2037595188589747,-0.9218987050975751,0.809962076014232
142.0,18.514216140612202,6.714697276375743,-11.79951886423641,-12.644457045872805,15.105113702324836,-2.499513560594172,-7.463870482875329,-0.29789468861301116,-2.564260290900234,-3.2238630172458205,-0.16221489494780858,-3.8699505490787103
143.0,-5.089860170575755,-6.139009980147149,-1.0491498095713325,5.591437677458991,-1.988996990717994,-3.619060692139369,-1.8517014374231886,-2.9104418875194322,-3.3163305370527043,-4.475007822234661,-2.2591869994965252,2.470446889782898
144.0,-17.47092513494455,-13.481586684668255,3.9893384502763323,15.53883034309334,-10.774615506207525,-4.763713921936882,1.6680251547265337,-2.8375169238538396,-3.954684166676851,-3.966688206238239,-4.222350151101608,-4.132964490114414
145.0,-14.285498645516986,-16.159190413829197,-1.8736917683121983,15.211862403925313,-6.2499748217010636,-8.953077784667439,4.2847879125674,-1.7940011754150131,0.9049568656839182,-0.9769952806941635,-3.5357170578163775,-3.6933387253859014
146.0,0.15263291699121773,1.6136866534761527,1.461053736484927,-0.8899735054896247,-0.6210301105804872,1.5182035440786246,3.0820430866603825,3.112468441032548,1.796363990186955,2.0949793955377656,0.4738979048620138,0.4437057072411038
147.0,4.124511771908031,10.632616780912176,6.508105009004154,-7.384477406887181,-1.1603174346677008,8.541950404634344,1.3068345313777578,1.3863004633301148,3.114604144083086,4.609561867305935,2.285043045293083,4.143124219766187
148.0,6.477220085228021,10.157324240064401,3.680104154836424,-8.325450223802019,1.429935166553122,6.8776346183686945,-2.0644664165110287,2.4471203023761685,3.7510286923637945,5.583561129415703,6.516637324385298,5.122978011853446
149.0,6.407869430818826,6.412490648835189,0.004621218016428896,-6.423688803133193,3.1567061259675984,3.233434067129666,-3.452993392109934,-2.7267781794149015,-3.65036794748691,-2.767995887004633,1.5730133849137529,-0.20205827084685035
150.0,1.2378645832829482,-3.265916202708592,-4.503780785991473,1.0714714762204052,2.909406176098195,-3.869180613736168,-2.930749273877817,-0.8549168098240834,-1.54497787428652,-1.3637809783829602,-2.2077372627121736,-1.6642286473548344
151.0,3.3342022321647713,-4.5799517426158065,-7.914153974780546,0.5922837586132012,5.589840403510404,-6.23414969483549,-2.5814921277469,-0.9396271143654191,-1.0078779913069262,-4.501615542845255,-3.4234272194321216,-2.064275731380987
152.0,-4.443759265912029,-6.158907837820774,-1.7151485719087503,5.261136023907944,-1.3932990621817498,-3.9195143289107257,7.351909843803494,4.172115760716348,1.005925790345225,0.4321379743915257,-1.3241247328334196,-1.1384188882705188
153.0,-5.807197871152964,-2.1681566844325246,3.6390411867204,4.017480333293637,-4.669801054929807,0.7635420772359165,0.9978911450582366,-2.986375029683254,0.4507461480275614,0.45822971874667584,-1.049653729416653,-3.1510752745282247
154.0,-4.848885418768284,1.088143848223563,5.937029266991843,1.9032369701541838,-5.417284321067857,3.4752988205060076,3.899521875611624,3.092041048338168,3.3959973322148107,3.190020314764869,4.409472732994255,3.3312549211210687
155.0,0.6181154581430128,3.641431350538705,3.0233158923956536,-2.1115067288667744,-1.228280033488037,3.3074768015716747,-0.5257764386546686,-2.1606227779066707,-1.660582769073397,0.11797568896671295,1.1716314462886632,0.8571052095953914
156.0,7.844279317649754,1.8777427738319805,-5.966536543817831,-4.923719513622873,6.955179963605934,-2.060769874260354,-6.317957257769344,-2.6393983906960035,-2.182594537355476,-2.2524504932212936,-3.325024441033881,-0.747984752017657
157.0,10.787868772891347,3.2564492221721406,-7.531419550719242,-7.006281539650009,9.126182759329517,-2.150321716703293,-7.223466225142717,-2.0464289019487008,-4.425898072117726,-4.509593155183723,-3.018401872854094,0.2579482080448425
158.0,-5.464568305914655,-3.9687762451701154,1.495792060744507,4.733988208329431,-3.4397915229582363,-1.1712740847162701,1.3089580139329384,2.2095177051303745,-1.1929511139000688,2.1323861489382594,-0.6568210935724956,-0.4791443801754632
159.0,-13.040616063051345,-4.249176789057398,8.79143927399394,8.664778659290999,-10.959042692030144,2.254693121621367,7.257868915109248,3.971714420985504,5.541727867371796,4.888043566183906,6.169365764889628,3.740630769033403
160.0,-0.9612661449529396,5.666909335255429,6.628175480208411,-2.4084463016658857,-3.7628150023778484,6.1283613399585635,3.1373759679782434,1.4945422394689132,6.394045724394187,2.110119304715824,2.3036403858798256,-1.2662686209176415
161.0,4.77525315020865,2.6802008689298247,-2.0950522812787615,-3.7011011356936327,3.385862078475282,0.2727027605383925,0.18198324470971539,0.11046538960037344,0.24349751821034804,1.5793823448272697,0.5457221874592619,1.0222658833303448
162.0,-4.40506300215813,-5.841768733664164,-1.4367057315059404,5.153407445449991,-1.4552603318387298,-3.578173214172398,0.8950857211491516,-1.3968760076220634,-3.365898959120176,-3.3145418601868704,-2.8374933396751465,-2.6852541627178805
163.0,1.2149173113890912,0.23343187650326547,-0.9814854348857569,-0.7700856199389807,1.1288331337469282,-0.38714148432818174,-0.7083024072315707,-3.566594680019456,-2.341114686574832,-2.5142522761738384,-1.6682823902605017,-1.9925783569872044
164.0,15.031410064017377,0.614743297490847,-14.416666766526467,-7.7882846668101005,14.679886273740202,-6.9087524877875675,-6.803704676049268,-1.5527669788939267,-3.1013924993144,-3.769453377725136,-4.613995070754526,-2.141414100429156
165.0,4.029869609411803,-4.651157849322502,-8.681027458734242,0.2674089762388623,6.3958298670193745,-6.669977139710568,-2.206625685991548,-0.009632715212269272,-3.4261998152436295,-5.635752785774071,-4.437803845468219,0.5132567212120283
166.0,-5.350984621974151,0.9124754253302565,6.263460047304493,2.254014388650785,-5.838789125297652,3.5847240140378496,-2.027982005999905,1.5374981905128393,2.046950854077213,4.3260465102794585,5.523604023891051,0.41088758801085357
167.0,-14.105072939214123,3.7071112731667775,17.812184212381,5.231412334523495,-15.983380367638077,10.753039502818533,6.692248049880675,2.765247251448139,4.6958734308534575,8.37829001738818,6.586310687612838,6.543885859952676
168.0,-4.721878254658593,4.886988567268739,9.608866821927355,-0.13258940578792755,-7.105615659069228,7.234715554012858,5.60388870858471,1.16089607764024,3.93481723561493,5.603184354402783,4.903122677826534,3.406260136763841
169.0,-0.5924724610742826,-1.221470172823429,-0.6289977117491636,0.9312444520612326,0.002937139348263784,-0.9461848977739855,-1.8827566457975675,-2.4178404597357255,-1.9290591118018452,-5.2684667120459405,-4.095065307399547,-4.166864622732211
170.0,10.584642180089897,-1.1820673872813916,-11.766709567371358,-4.759687848743612,11.161049263420937,-6.422734722497624,-0.6019762007538412,-1.7565164437376364,-2.0733332143438443,-3.6498236597447598,-5.1205273148628985,-2.5834156800707557
171.0,6.735490789095363,-4.594793734092817,-11.330284523188208,-1.0517765293517334,9.015471303629283,-7.991859576149563,-3.9294376472974593,3.518268363393039,-1.497268355588059,-0.5139423262761986,-2.747517985000578,-3.844605509854026
172.0,-2.28668411700177,0.13566644713757503,2.4223505641393874,1.095847811356475,-2.299393572754955,1.3311294931822388,-1.4050852504610862,-2.9157634206042125,-1.8986093030237452,-2.780931441627275,-0.009727289186495014,0.7337764263644253
173.0,1.6468186215277294,5.934134482531659,4.287315861004014,-3.7644487861915064,-1.3526954247855678,5.090922410765696,0.40156385466674327,0.9187345948987924,2.9643424058121033,0.03983629865263261,3.0934907594495678,2.463632260936552
174.0,-0.24855101951339553,-1.494150627259831,-1.2455996077463833,0.905838312710195,0.45618535488915435,-1.3810352733844318,1.5565058018864961,1.6279244145870797,2.599032879323505,5.338713091832802,3.4563561542776773,0.1447800452396577
175.0,-6.96616313460155,-4.68680732024923,2.279355814352299,5.790966049742776,-4.595286273396761,-1.207474618675544,2.144570166187287,-0.519603900327138,-1.5103398758777113,-0.5672341351608035,-0.43789845269653926,1.4152346684469022
176.0,-9.640627729165285,-2.4282955739806704,7.212332155184563,6.005066053732763,-8.404976772273004,2.3917161626569006,1.6311068949354128,0.12092654283896903,-0.41584537044335274,0.20925154975278593,-1.912055089775486,0.8025663738404765
177.0,2.7408561829905604,3.934751946211869,1.1938957632212435,-3.3657971758043006,0.7933539974306019,2.561982576165598,0.6154704342134343,-2.3771289373633167,-1.2689045624184705,-1.013617307274374,0.3880819351339103,1.922821662595937
178.0,11.517133284829711,2.7089699375011116,-8.808163347328637,-7.066019569282674,10.106726632473634,-3.059295625085161,-5.725722581903758,-0.2654199072132932,-1.285977867845281,-2.789303813417062,-3.13029123398629,-4.052360935296245
179.0,5.1390784429948795,-1.1383096548975717,-6.277388097892456,-2.0395043360707974,5.737582718255849,-3.7284326744073173,-1.8991361441553072,1.4327046893290671,-1.2888371295457162,0.31562295095845005,-0.21847050615986519,-1.7824649024428887
180.0,1.057748436686838,1.3737491879512183,0.31600075126440164,-1.1844479084373165,0.4082951279739855,0.8914619379912871,2.4173479096346915,-0.13984205386596515,1.3353863804843515,1.1660138829764495,1.6219845048469943,0.1069456772159243
181.0,-6.251254506268124,0.42448055788961364,6.675735064157762,2.9385289674203943,-6.497643144223828,3.508617436298965,2.4211833882872105,0.10339361506330824,3.732053277057394,2.5442296982165495,2.3401998420627352,0.6931304043196658
182.0,-3.877126476027519,-1.4890276599391106,2.388098816088413,2.6279637690276454,-3.1625861678959373,0.4818015666162889,0.14297811483933942,0.6477379488335223,3.015313918824072,-0.2073727616963239,0.6223097849168995,2.6172070555607423
183.0,-0.14997028958584568,-0.44547726324772097,-0.29550697366191403,0.32568407473460237,0.12165873978512876,-0.3383599713539528,-1.9579679247980728,1.0544499858452163,-2.6588692831482934,0.025564309354823733,-0.774860082442981,-1.8514133449831978
184.0,-2.0708809825224663,0.9952238011537354,3.06610478367618,0.5755106461303598,-2.6018559309598484,1.987597997200206,0.33940578200669796,-1.2061650034297624,-4.1423512958742785,-1.6194086270639345,0.9046066362522679,1.08541396874005
185.0,-4.623255728184904,-1.5632579814539456,3.0599977467309776,3.0654077077419295,-3.880220120509896,0.7888972496748098,1.4704741112050517,-0.6700065630901537,-2.0321447857308943,-1.2968127764594573,-3.658700076519094,0.56391950713667
186.0,-1.7525320276288447,-4.126418860236233,-2.3738868326073184,2.925509424718543,0.3466232946845812,-3.2849061865633096,0.0884926559466978,0.3855094763909671,2.1737369992856053,1.458539504319368,-0.5325647347881648,0.8998435075368358
187.0,7.503068685540134,-2.1474738074378568,-9.650542492977895,-2.6801931579858804,8.612174127370379,-5.9335644219679295,-0.5988424519275402,-0.8042526688319366,1.7876421698340175,-2.2528497293517056,-0.40844221660559504,-2.326928287589664
188.0,8.406589939754797,2.313573765477373,-6.093016174277357,-5.355576286634969,7.210909688470849,-1.8490196290053953,-0.965216945200772,0.3773107838229114,-0.030987958906055324,0.759091668872559,1.8226980378799702,-1.129341814081359
189.0,-2.815171282168428,6.440876541138007,9.256047823306467,-1.807341633813369,-5.986629274429285,7.804388776236288,2.986496400904392,-0.002645031949064569,1.447934885203189,2.2232392587072214,1.931061331923544,0.34512198389241133
190.0,-0.5754210646436642,-0.8462507503234189,-0.2708296856797956,0.7115336076824483,-0.1706109482256526,-0.5302357418235428,-0.4507909816207687,-1.0707667094323048,0.1925932779141426,-2.3266066628525186,-0.9978319159811324,0.3056308728707543
191.0,2.7695885519631083,5.388840365340986,2.6192518133777867,-4.0878797230214925,0.06713521071478201,4.027927836846696,-4.594148214079607,1.4084458432329203,-3.2560822604494466,0.8654501336244245,-0.697775571202317,-0.5502298150711988
192.0,4.691589621212586,0.6428792633562043,-4.048710357856476,-2.6876835308974263,4.367653379309868,-1.6799763904235299,-1.8118074430059468,2.90162696714734,1.1109214712213922,2.4842305215564853,0.8229982908642903,3.2924515258708595
193.0,-6.5260047931909755,-5.137787226202291,1.388217566988653,5.87848126415635,-3.961267732374505,-1.9277580563236938,3.708567088312842,0.5383047666562913,3.4106480402510253,1.835986233988588,1.0333311760376853,1.0468863878353056
194.0,-10.00539180073676,-7.038746976920969,2.9666448238158716,8.480526577206557,-6.499507524531786,-2.0045100734721837,1.8842820141065628,-0.9788702045178858,-0.666541943913313,-1.0795656428558074,-0.6776598390363529,-2.377249415572771
195.0,-9.40471455719425,-2.310269604323693,7.0944449528706865,5.889200298822452,-8.278356867352185,2.352022295466382,2.3332217584347434,-5.330217178279074,-3.289892867300892,-2.8906131237764257,1.210099927072625,-1.7444315064278237
196.0,3.529300152472117,5.596147436316064,2.066847283844073,-4.532092138562804,0.7633571223694209,3.8770159231071357,-0.9539275250926929,-1.1799742060196652,-0.7775885838003055,-0.6213591517707462,-0.7353251195305381,1.1828504519971723
197.0,17.52917547046137,7.071892540048122,-10.457282930413186,-12.345707280594192,14.008966161593257,-1.7208074350405242,-4.410239753994844,2.721843412742417,0.7746215951550217,-0.8636372505213703,-1.1057873614053753,1.010880320950142
198.0,2.16412481060315,-4.287454462327493,-6.4515792729306085,1.022417666055932,4.311990615525934,-5.395124851377308,0.41935780601791395,1.4148342405485292,-1.7809137096844696,-1.4830833897581905,-4.419743290115134,-5.441311521940459
199.0,-2.7870162382905965,-5.377574463688654,-2.5905582253980626,4.1293550472434895,-0.09916132184151039,-3.931405915587153,-0.49659028825456153,0.8519683921729555,2.2771698251747106,0.10155701136826645,-0.7207542815281884,3.5063343423395548
