Time(ms),I,II,III,aVR,aVL,aVF,V1,V2,V3,V4,V5,V6
-200.0,4.01982908593995,-3.034887093285924,-7.0547161792259985,-0.4393108926146505,5.574058173539669,-5.003066697430085,-0.35905765625618136,0.9498565070210878,2.216577474657873,-0.9420966228683265,-1.8923648501345531,-3.010847541322481
-199.0,-1.0399932987853657,-3.937979182288848,-2.8979858835035657,2.4633863510099605,0.8861846927515664,-3.379179697714085,-2.355589408050878,-2.974492563161747,-2.534043161771144,-5.832473808263673,-1.6822256935370437,-4.4296468583601385
-198.0,-3.0832344247853767,1.3486235602878427,4.431857985073201,0.9195229364560704,-3.802278180361254,2.8472903281309603,-0.5679302675276565,-2.2424717688770794,-0.4731061131155265,0.9570578092795792,0.4998917863315162,0.3913286044713322
-197.0,-2.4807001243900872,1.4281545007029501,3.90885462509307,0.49682487287735566,-3.164575951428251,2.622712310713952,0.07350710955782885,-2.335284792198995,-4.074209417697393,0.3963167079124219,1.5900141135658015,2.068046333093323
-196.0,-10.833900862518222,-4.222784622104669,6.611116240413604,7.493291942603479,-8.776129974778433,1.225006800533131,2.5660820212057027,-0.007772901326672577,-3.4125000866443704,-0.6198825123395766,2.6554184595764814,1.863549021114439
-195.0,2.30028951163046,0.20576481563925686,-2.0945246959911565,-1.217423188986015,2.2182470326776427,-0.9141400053238357,-2.0626829929058603,3.3480486255036457,1.2871939560375432,-1.2523389029994325,-3.4939883025721947,-0.6153277781656334
-194.0,7.870605236986594,-0.029814775491388584,-7.900420012477952,-3.9727745832053416,7.905409886171713,-4.012085635686226,-0.0331569148882398,2.626200669462984,5.1106905090082355,0.28569935847602773,-2.6489622230171532,-2.4043275183293473
-193.0,4.540594003307961,1.2593731250132756,-3.2812208782946453,-2.881737208125137,3.935025992229497,-0.9754472726456267,2.888172938638777,4.9285346414540205,5.304824331639259,2.0307674651213654,-0.29199167106441193,2.3248909890524727
-192.0,5.447816762025398,-0.21237018208156755,-5.66018694410691,-2.6041243875663285,5.587566696779481,-2.895785204527191,-1.983547549273018,-2.4431202752360104,2.2240752110706854,0.8115951145242628,0.5730067241551087,-2.0085160878872923
-191.0,-1.341304757309318,0.5608659388067847,1.9021706961161613,0.40415174346166105,-1.654185666466432,1.1981123704215557,1.4385049936984133,-2.7536693837816286,-1.9238084021781487,0.8164450480723252,2.6386537402718355,-0.5996847032061203
-190.0,-9.34729261867606,3.9604908982923517,13.307783516968449,2.712546865462474,-11.34723317965484,8.603834300006474,1.8948349162405975,-3.680632023563638,-4.3275597530634435,2.5474207725558795,2.217125792096688,2.4183190208756686
-189.0,-4.589904974652164,0.6949221750267314,5.28482714967889,1.9749390767424975,-4.947717043649376,2.959920625706003,-2.9422345458796655,-1.7040271638999602,-6.525318883918164,-3.4165314347348335,-0.9118541317554361,1.910594611243
-188.0,-1.7484058324094587,-6.425410891204326,-4.677005058794921,4.044210067478759,1.45745007848295,-5.504855535750803,-1.8295573026055996,1.6028469398472271,-1.4508077123134027,-0.2281746002606977,0.42855730511765433,-0.5390347315340228
-187.0,4.565723001202782,-0.6974667757604256,-5.263189776963271,-1.9704980484390955,4.904440557295959,-2.9383529405169337,0.18181837922286936,1.9128244803335104,3.940990272903533,-1.4926985249265203,-1.967691870605396,-1.3224761217627847
-186.0,3.3083994707241833,-1.427757467452532,-4.736156938176775,-0.9739115032055722,4.081944462278011,-3.123675088429647,0.9843020883507384,2.1191111424390767,4.798190420445794,-1.56018365282665,-1.044897671027824,-3.427866299277364
-185.0,3.0134050248788737,0.12489496731092448,-2.88851005756798,-1.5243266323220632,2.9188226167668687,-1.4275954023835067,0.7633077751310479,-0.07659758048637544,0.7131496801015289,-0.23794368453060905,-1.3416631723548424,-2.559719324731423
-184.0,-1.4785665852284273,4.259083686715332,5.737650271943778,-1.3472136861586672,-3.575984151319787,5.029261053066749,1.3209115202649409,-0.9172956962717875,1.7068057689802125,0.446091308080425,-1.1645446828286325,4.1696531296618
-183.0,-2.340891502553766,1.9304635741278968,4.271355076681751,0.1682290308505816,-3.3659253834237655,3.1321950063229664,-0.7430666617593513,0.3957097711945223,-4.60129787093738,3.0449672035404087,4.078706136534049,3.8377291710562687
-182.0,-0.00036545555970146637,3.691632254039625,3.691997709599456,-1.8033204171798562,-1.8364768326989183,3.7254883357631225,-0.20165696619197954,-0.8046437870070757,-1.7829864120299728,2.2749080673285906,1.032908398358777,1.8240986455035786
-181.0,6.271599784196348,2.767274522561459,-3.5043252616347806,-4.55317135802217,4.894403202945793,-0.41050887455903706,-2.4326453187080532,-0.5970426651990511,3.339839888802739,-0.1034138641481872,3.395763798651421,-2.294633287345423
-180.0,-2.7335869238071164,-5.992623826907157,-3.2590369031000153,4.3336721301547305,0.2727847483267629,-4.665598896888697,-0.598236620192239,-1.555825890754166,-1.7435860509968157,-2.0551051882249487,-4.46803807301827,-2.3926254712893305
-179.0,-4.397390427874414,-10.264607158081656,-5.867216730207282,7.38516670873212,0.7547459405178352,-8.026747215337068,3.0647727243403264,2.0744152154317526,2.6269642825635624,-0.5637115028707449,-3.857167146256213,-3.012387655229433
-178.0,-2.0162139329370454,-4.804641382250376,-2.788427449313402,3.3901275735449183,0.41943951795667805,-3.8382002413698673,0.8363629227886592,2.6481795615274546,-2.0817780694438577,-0.8133039328992775,-0.7551959550517289,0.09387445390561844
-177.0,-0.5094906627314458,7.437454070871933,7.946944733603344,-3.481442767033038,-4.2599326697676565,7.725641829627427,0.2921170783675851,-2.1390707018980173,-2.807947020361001,-2.708014672622756,0.4705322475000213,0.4547675725589564
-176.0,-0.8575896215439303,9.1262182584105,9.983807879954426,-4.150835270680596,-5.4419589916212905,9.584500230226801,-0.2356665415030066,-3.576288288521947,0.9938215085721305,1.689783286077472,5.522615289057754,4.775860237886291
-175.0,-0.658358680061012,3.526048467241731,4.184407147302748,-1.3726023984391964,-2.437524300602133,3.8029668693668395,-1.5023964890651325,3.266026656547843,1.8776284382301929,2.4739665843773087,4.126183299775951,0.7442185707118014
-174.0,8.401408529878408,-3.3696151699610493,-11.771023699839454,-2.536035250023861,10.069916046497056,-7.544982102612288,0.5271808554227089,-0.6222660706722265,1.8298503441404872,1.6188998981522364,-1.4717936342048898,2.1963015316875225
-173.0,1.3762203557625452,-7.167971076022067,-8.544191431784611,2.8719028993054803,4.940529345954472,-7.829722872001373,-1.2981528234087436,1.8117902979222102,-0.06177332304579308,-0.13073084561826565,-3.6758988983640237,-6.301990102400076
-172.0,0.10218929705706425,1.1227795920487083,1.0205902949916283,-0.6410214417507749,-0.40371465280132846,1.022275568226299,-0.6978878058047344,-0.26031861791083544,-1.1572389788647144,-3.9005814473108815,-6.436194985562493,-3.097214607150725
-171.0,1.7581893416919514,-0.08113179605380227,-1.8393211377457657,-0.7932598062577116,1.8529365544267273,-0.9265316724728824,0.14108480997713158,-0.3292307877202254,0.36156095005872746,-0.3937521413105567,-1.0706644078873806,0.9622601729755969
-170.0,-4.832143815575382,0.9283340159135566,5.760477831488957,1.991905113506343,-5.319031127081651,3.304307724720695,-0.0445311286488701,-1.1350270528072164,-1.855314304133729,0.49765953072525426,4.258855801104486,2.1734928032105847
-169.0,-6.910954521034599,-0.583384693195931,6.327569827838709,3.7025452992867063,-6.637931476471889,2.915496543661737,2.8812322185876154,-1.4115067157516406,-0.8615476313147112,1.3188178601150506,4.263308086254915,1.194847784756102
-168.0,0.3623398052621023,4.936117789908819,4.573777984646773,-2.6219311820552433,-2.1201640039259435,4.723365736647545,-1.4852197290998244,-1.87081276861628,-0.6628333200204646,-0.17027069691633678,1.2442940034151992,3.0835517416075793
-167.0,5.555244352884823,1.9866784390488608,-3.568565913835925,-3.830101709572951,4.5499171564256375,-0.741703552587698,0.4349815545316489,3.111062779673505,1.7011644083811108,2.341079565871574,-0.21346946545581114,-0.5739863391560265
-166.0,0.1745064484201304,-5.654411372823103,-5.828917821243268,2.751963057323187,2.989486655770228,-5.771276125672965,1.4539599921345012,4.181420750596617,1.1314950221140658,-2.6084139098140957,-1.1187836379935385,-3.3023913918530283
-165.0,-2.387903099524681,-3.0307407357858946,-0.6428376362613091,2.7155976114309075,-0.8873523392064189,-1.8687101691569419,-0.05243115009920052,1.3908849059120945,4.41889793582314,3.3381757915360364,-0.573711745061819,2.6446268847274292
-164.0,0.23095650041519755,0.300279789044561,0.06932328862927939,-0.2611730647578664,0.14094965456367592,0.2277190034629959,-1.9733518962727452,-5.557422227273642,-3.3145328163720356,-1.1936333800671717,-4.294900242704214,-1.3141521137767043
-163.0,2.368473643029859,-2.509484070997603,-4.877957714027512,0.0784649622983693,3.6007572968057278,-3.7338387725916706,-0.5986752278969457,-2.2918790131081406,-2.6626027526232248,-2.255473369026929,0.23084416237733585,-3.1162297229771587
-162.0,1.252503009710653,3.6541142229374097,2.401611213226757,-2.4363988756296058,-0.5216432264322919,3.0633880799685267,-1.282262385232923,-1.4621991252050752,-1.7674243808911343,-2.1652598462206996,-0.15011728007822944,0.4827672225073967
-161.0,-0.05812092753505027,2.935871593210292,2.9939925207453784,-1.409100220721114,-1.5550821564365211,2.9211498835859597,0.45854153091639044,2.4575505370883426,0.26688182712263675,-1.055077453686165,3.5901652190760642,0.7696012619274246
-160.0,-1.1663217139544093,4.28727798974949,5.45359970370396,-1.5953957563091046,-3.342553458420974,4.9080500966669645,-0.3210245989877021,3.177338784870542,3.4520667504228464,2.934655444589599,1.3214017312413615,1.60047288074822
-159.0,0.9222573857675513,3.1679011583189096,2.2456437725514253,-2.0677403755962485,-0.6984314735731421,2.749815387888537,2.720200575217782,0.458175970296556,1.3678575171325449,5.071007580913778,1.0167658320248643,0.7489522933620159
-158.0,-4.821581086990053,-6.372058030936708,-1.550476943946597,5.582390125640209,-1.5976726158619445,-3.990171925928969,1.6286886297954712,0.37488417369531923,-0.4458460426750279,-2.423822776475754,-1.8215985242157582,1.192164161133061
-157.0,-0.09461461889955869,-6.445564676220816,-6.350950057321211,3.259056079346879,3.163156242509874,-6.420876349460296,0.9154590915688983,1.1596891896305555,-0.08715506374849964,-0.3164590107449985,-2.400753063039226,-0.40301266830904936
-156.0,0.1949957110585624,-5.6996467575289955,-5.894642468587514,2.8191987592163548,3.000683152731623,-5.815564023210191,-1.133987609255509,-2.777778446905137,-3.363856844076125,-1.8658641547021872,-2.504990478225092,-3.895630859787947
-155.0,3.2945624853926962,4.68929226161336,1.3947297762207094,-4.007401362552582,0.9873442140594031,3.0250719439655107,-4.322714279461912,-4.209742164044866,-2.3493736280465196,-0.31545257510909974,2.4304338094579725,1.7611988181389917
-154.0,0.40095498102123783,8.394976331508174,7.994021350486978,-4.418080081521851,-3.8321805244217217,8.255474165639985,0.4975037022332671,-0.9783265621920396,3.1902266213470734,-0.9767859548570257,1.8648947427848548,-2.107918735584497
-153.0,4.252053227124371,2.971666117116518,-1.2803871100078528,-3.636238036484922,2.8165091250114185,0.8257448474615892,-0.4837045122296123,1.160123963803553,0.7103609746088545,-0.7510133393004936,0.33017758793081464,0.48228157173679165
-152.0,-1.555165925366728,-4.08981643166549,-2.5346505062987905,2.873789125220791,0.46793978474336917,-3.3344870226596566,0.6813507517035973,6.409144881995354,2.156790611935999,2.8532221152630193,1.1555861523705835,2.7789553675585714
-151.0,-3.3812622907115353,-5.032554649343772,-1.651292358632281,4.177626688579047,-0.8827904471125287,-3.2874441650662254,1.0156423962202479,1.2695700583037537,2.0426407342086685,2.2090871717355527,-2.3656293630409895,-0.21255951047819088
-150.0,-2.4239367946756576,1.429675629690586,3.8536124243662564,0.545349060028776,-3.1567982786186306,2.615655279815061,1.1551633665577148,-1.8849655893510602,-2.9891437279003723,-2.834498359177741,-1.2751394320796465,-0.2735097896316286
-149.0,-0.24524474019370945,3.579472149467499,3.8247168896612194,-1.6993804161214663,-1.9791464824506528,3.6741894129371646,1.7892762652057277,-1.1601815050755313,0.4108345448466071,3.3893288143415443,4.06162982969918,2.780927574099344
-148.0,2.7025559969851436,1.6649109600728098,-1.0376450369123311,-2.2191472168776536,1.8384392873988684,0.3617878451296964,-1.8992048044089946,-3.318288501590938,-6.1125260692561065,-3.037221636536734,-2.7592172513771014,-0.39653845724306075
-147.0,-2.1035897942395883,-6.203953706281789,-4.100363912042225,4.192288694473685,0.9560367015514799,-5.186481246860589,-1.0111739192806268,-1.0075253016962982,1.463020120649484,-2.713664462501831,-0.2673031885563121,-2.736915608491085
-146.0,0.27360850868345044,-0.8499519977883552,-1.1235605064718337,0.24207573936550486,0.7248191636367709,-1.0255840876623066,0.025990672457734565,0.3407942716294613,1.9469776536386743,0.8173356737293527,-0.5947948604465929,-3.315891245957399
-145.0,-0.2862938003459915,3.651735284843072,3.938029085189039,-1.6556723232035846,-2.0933309528264035,3.8302207190878566,0.2130915027772612,2.7932872148676284,2.399940084191754,2.1861064615447456,1.081373790834594,0.9060020478929327
-144.0,1.6717044592573485,0.7373175186681087,-0.9343869405892129,-1.1813802842123344,1.3184320506599345,-0.06705899320286712,0.6123868442746497,1.8158706080996612,1.4835671151064231,0.9454874180487394,-0.10872275757902838,1.2086185258587274
-143.0,5.8078639362407944,-2.4114494802474793,-8.219313416488191,-1.6763212734596675,7.029216685047649,-5.286523750215159,-1.1312382240430836,1.633806408244396,-0.8507355251237652,0.748193099221734,-0.35584323753453456,-0.14915406011131505
-142.0,-0.4866146313498263,1.3523002289662043,1.8389148603161272,-0.4880530492833617,-1.1447131651183142,1.544472295010619,-0.06290633736487156,-2.7513212065257173,-1.4860871216678508,-3.4355080654074737,-1.414017801403497,0.6317702209509082
-141.0,-4.0444051631639235,-2.191169210977183,1.8532359521868136,3.1453897619228113,-3.006760783634217,-0.2200320934753357,2.0692389987367545,-2.2269572932286215,-1.663164371576982,-0.9156386839390973,0.8311354907778642,1.0320738113389276
-140.0,-4.66458225542208,2.3531908993735424,7.017773154795663,1.110071491106472,-5.897141396312932,4.714546967909981,-0.5129928628411854,-0.6110184915748369,-2.2018548277781145,0.5326698444665319,0.8794928375579009,0.001187922505023642
-139.0,1.1132280063771411,1.5470093649725645,0.43378135859541356,-1.2911720880575996,0.3639268851780142,1.0221965692889916,-2.3510361027486786,1.4473560914922685,4.255504417573558,3.3234171569171913,3.7689996432335153,4.098097023986719
-138.0,0.09816485451219556,2.2921746727441294,2.194009818231862,-1.1513221904608004,-1.0215847935772882,2.2788043898818886,-0.4702360720915233,0.9565125514172341,2.2371138841705234,2.73404288805167,2.137628969325418,0.8131878213724697
-137.0,3.553275189062957,-0.6792235065070629,-4.232498695570098,-1.4690343322155335,3.923383868050341,-2.49443067727859,2.5983452955122317,0.43559746077476813,0.5554461692602557,-1.0914826273252636,-1.9136795442975347,-2.0354474387987707
-136.0,1.2939720114246303,-3.249587529304671,-4.543559540729389,0.9460329071129124,2.9556991317765133,-3.931046614277512,0.3555171435054889,1.4371486176252097,-3.2472376297306247,-4.8026949601700135,-7.3644855363364545,-7.123162521276682
-135.0,-2.0151793680792416,-6.591316666867368,-4.576137298788182,4.269121672803713,1.2461261667407362,-5.536577686141207,-0.05762316329656986,-1.9112887809562837,-3.948651775713719,-1.761538932736822,-4.535269841530117,-5.104980184775207
-134.0,-3.780376171244834,1.1637637872970563,4.944139958541889,1.3488011965905462,-4.390415739850301,3.023576272875633,-0.7079940049092399,-1.9438647858552343,-0.12178313345275593,0.040255453063040125,3.3541381581064025,4.607245716529719
-133.0,4.195705312003842,6.449024832115865,2.2533195201120817,-5.28662661215394,0.9456584268772692,4.320459852804663,-1.0454373912376491,-0.7522071466592037,2.359877467189418,1.5660178302209598,4.787840240750393,5.040624939775279
-132.0,0.24941918543046016,3.0503803774826634,2.8009611920522786,-1.6185779133325884,-1.224794794034334,2.9721846191951133,0.7050699635105451,1.9368029318465276,1.878219367508026,3.3360170894598737,3.8417786592502305,2.69472164585247
-131.0,1.0421670405883243,-2.370918524328785,-3.413085564917052,0.6134181325887433,2.1930140316311344,-2.8478880792661427,0.1657928319482445,1.0189128218442973,2.6912415390619877,1.8438131995368763,-0.01237271096793835,1.0297982551185703
-130.0,-4.263009486582175,-5.027384533905604,-0.7643750473233969,4.591904160911823,-1.714843010634572,-2.9337627832477793,-0.41740431054567023,0.6382423738869014,-1.0391448893775916,-3.5875113821714124,-2.3902083966877026,-2.7810990585579014
-129.0,2.4194788874525357,2.8376030579515406,0.41812417049900286,-2.603849676850067,0.9466987945252436,1.5857363258470485,1.068018707261348,3.015296628754326,0.12829553715693953,1.164604582445702,-1.3631290601682249,-1.439804154593752
-128.0,1.0529086504530323,2.340973481379604,1.2880648309265472,-1.6709719672153038,-0.09954327465572532,1.845917554393109,1.1065242136314875,-2.0485228820479975,-0.807951604414155,1.3003643698311858,0.6106564470633924,-0.4011099171029704
-127.0,-0.0036578164869351393,-1.7771771293477192,-1.7735193128608127,0.9199514680425682,0.9014933736128747,-1.7496567915420054,-1.3913711504280772,-1.960875241542477,-1.9680422593829316,-2.2386514603899808,-1.9218025216131638,-0.5737816591801479
-126.0,1.4040007945169768,-0.8061087010077331,-2.2101094955247165,-0.34269017542675495,1.8281842411516602,-1.5663191751455057,-1.920369889818665,-5.838435369796205,-3.833513042216776,-2.770164200209221,-1.7232151206846535,-1.8527473781333224
-125.0,-6.456954993989524,0.8184022441700531,7.275357238159579,2.8605529488072188,-6.8355396792276855,4.064175892632058,-0.3023070612335992,0.06845224088521529,0.54090323633464,-1.3822050413432772,0.05495324537296786,-0.1015862871915778
-124.0,-1.7985485601515794,0.6941431618747584,2.492691722026344,0.5202414978284878,-2.182022998864981,1.610601121198877,0.2268407965210492,3.7709972511440975,3.412060134675276,3.434111611027129,3.6009868448338036,3.2075208070641033
-123.0,6.689722744430349,0.4032764193486516,-6.28644632508172,-3.575224065969751,6.462376649459969,-2.9208136724243365,1.3005000777936584,4.7052390490078775,2.3845386406461717,2.3211966512391875,2.6578833141496343,3.4567646147816444
-122.0,2.1067107278265507,-0.7345126866744861,-2.841223414501095,-0.6361488785967444,2.4551764028273855,-1.839050934389018,1.6300856822064909,1.4490596403410612,0.6046692317758353,0.646834351729656,-1.9861916420826171,-2.11635903672929
-121.0,-2.9651028040424023,-3.1080458866583682,-0.1429430826160254,3.0040524431418234,-1.4281806621352606,-1.5895640092988985,0.7348979937076303,-0.3093797052985333,-0.38652883292034557,-0.11782404841583949,-2.3521978247745823,-1.8132812365452684
-120.0,-1.4897092482561773,2.318725081114237,3.808434329370341,-0.37528363209415416,-2.59104370437297,3.106973810685923,-0.11277640165649497,-1.5696186384982989,-0.7867072940187797,-0.9524254019261216,0.6923010585281413,-1.719174760446387
-119.0,-0.01785746884424011,-2.5831360564381063,-2.5652785875939235,1.2516188509800763,1.3236556631544962,-2.605580970537526,-1.6143053683847974,-4.509360742208035,-2.1311782705054467,-1.9036848649778597,-0.16603373202192073,1.588665612553456
-118.0,3.560709249160544,-1.618996200408565,-5.179705449569121,-0.9513699761079666,4.33018282655011,-3.4319733175973357,-1.6364227573487606,-1.6064850285882573,-1.365426638035388,-1.6894729517904494,-0.5525830630267429,-2.573240255917239
-117.0,0.7210380531959982,7.108972007753625,6.387933954557658,-3.905472258210208,-2.8861540096426017,6.709254450765746,-0.3332148182680942,0.6814318214783825,-0.3848458809407983,-0.018792693229309987,-0.16076482001625475,0.9777396151390474
-116.0,1.8623673429337115,3.8772294518341703,2.014862108900516,-2.8684311646818337,-0.06221350405981041,2.97548453911925,0.04753953786774073,1.7632980137441474,2.7988450581046007,0.9749154538979736,0.6869261163578132,2.3587768941661755
-115.0,-7.512550826459903,-5.094494735601021,2.418056090858959,6.2995419719725625,-4.960075084112195,-1.3193464114622697,1.9248366254241713,1.9506032230034733,1.899818519312039,2.815361254848011,1.4825050416946801,2.638863915566183
-114.0,-4.962784610208984,-2.5088946985560794,2.453889911652981,3.729913036624289,-3.7062774009784984,-0.016458346799958057,1.1579013521842512,3.2953432403779557,-1.4622168021615172,1.1656861118120294,2.308489401730086,0.919297699244951
-113.0,3.3847668902904893,2.0553701359831695,-1.3293967543072887,-2.7244260396650732,2.3631157292080744,0.3710370419304223,-1.8192299051208554,-3.71514467602959,-1.7269706341926712,-0.503432087407867,-2.757389895327443,-3.4035552057338143
-112.0,5.899699499667327,-0.1333598793358707,-6.033059379003272,-2.8828016941762273,5.983347500547954,-3.072964454011638,1.9095149391744202,0.1449798614310871,1.3085737736849818,-2.0805623589259823,-1.183252700635343,-1.4043612411246076
-111.0,2.9391295817770495,-3.9454572695105954,-6.884586851287806,0.5105870108572996,4.944562399942127,-5.398647883869015,-1.923847522527892,-1.863892560925188,-0.3395059930232542,-1.5667826210510705,-2.0984770195621825,-3.995499368727204
-110.0,-1.9421843958665934,-0.6225117026226411,1.319672693243819,1.2979180028547346,-1.6601513979472071,0.294189543473945,-1.9441424608714564,-0.037468038371976764,0.47059890142952515,-0.0700902221703642,1.205668088437983,1.873564641522847
-109.0,-2.6649503975418,1.3379281376089567,4.002878535150728,0.6868842507147827,-3.349434933406893,2.623932454538594,1.2228539021524991,1.159158091668976,-0.7743646597494118,1.0397422461197885,1.0005888463434702,1.4777698683620502
-108.0,-0.8203000339042881,1.210730467054692,2.0310305009590492,-0.24437101830762217,-1.4339663349354423,1.6598932847917989,2.0266373922237793,0.10000784560531223,-2.1450221833045555,-1.003575691849732,-0.38260217709333877,0.04945801568518604
-107.0,0.08086495092224699,2.3819206339443504,2.301055683022212,-1.2765284932454923,-1.119100384181838,2.3857298065202803,0.6907415966587376,1.2960440504694444,2.0311193560766756,1.8665539672431877,1.968035165827694,2.780059772010482
-106.0,-1.8611863823813857,1.0131135329624992,2.874299915343979,0.45963335433336705,-2.3845006631436094,1.9129379638979878,-0.40212479797905176,2.0109495117333855,2.2484484094159414,2.35791994617623,1.012577237832165,2.4437896038149693
-105.0,3.327930285250287,1.8953131685622724,-1.4326171166880035,-2.575396964660089,2.43024706678068,0.2814645850214032,0.49200840337063295,-2.1989467922110144,1.697263074077271,-0.1388641347032341,0.6112932317057238,1.9363178007685218
-104.0,0.3172168766816703,-0.5423885691102011,-0.8596054457919269,0.1487830174156809,0.547034941267811,-0.7294188541006995,-3.6556484869175168,-3.5822543584785382,-3.2356837713038926,-1.0833183038220677,-1.8856706618401813,-4.655879238732177
-103.0,-1.466515733730925,-4.273932210866546,-2.807416477135723,2.827381765222844,0.6980385872868198,-3.570999676679677,0.5376337938423308,0.8271131193556793,0.24735287043274257,-2.362723969595574,-1.3590972498805605,-3.042044562616565
-102.0,-0.45401207827556933,-3.576898340514888,-3.1228862622393985,1.9722468905440798,1.3571917743290927,-3.3838833583252974,-0.37493589653348763,0.06295032504888395,-2.9948347992195514,-2.4531329184308452,-3.4133403910054088,-5.8045911966558315
-101.0,3.686524295648833,1.1990907283426449,-2.487433567306252,-2.407399828224289,3.1103139485270495,-0.6038432077802152,0.5406716411229333,1.9264327179285508,-0.10090863993580235,1.4047284178412236,1.020012433399171,4.849368816115165
-100.0,0.7776111118020971,5.588646197673816,4.811035085871705,-3.22577816489758,-2.0671152538980406,5.236240854390809,1.2309252407218865,-0.646424341593486,-1.4248861483756006,0.25714110158097636,3.5223630381691393,2.543727325500487
-99.0,-4.485195602865524,0.8321337597963736,5.317329362661918,1.8647977380822505,-4.943951811226879,3.0298664054945186,1.6061926920070912,2.633000893800727,7.264380160175454,4.546492621942531,3.154980960137428,4.80734565340503
-98.0,-4.02671722897445,-4.306850457758421,-0.28013322878390934,4.20890025611031,-1.8285568915295138,-2.2606281305178366,-0.11972587485838238,0.32581529495801953,-0.3504394027747426,-0.533614046748166,-3.3817937119602983,-1.0743093361385805
-97.0,-1.0913682210672595,-4.27717497512128,-3.1858067540539228,2.6525670604544853,1.0214618482183917,-3.698921515163537,2.039067869669939,-0.21428529545146008,-0.14167531541937584,0.8483365169818418,0.5753583831630144,-2.2053473610948324
-96.0,3.3332290253909886,0.9224800050433128,-2.4107490203475876,-2.1549294492198405,2.931768795521187,-0.791052553466193,-3.1312085014614697,-1.4150116958237358,-0.5102293434848999,-1.1908251176901656,-2.0610366399228925,-4.3279833884712025
-95.0,2.944163995045832,2.586043862504413,-0.35812013254138564,-2.71076996024234,1.6365782817121592,1.0649683826889964,-3.7901010726541084,-3.4153567803430738,-4.348839649354961,-7.694804819906054,-1.8062150998129143,-1.3960423668396464
-94.0,7.098221926783741,4.081110435827879,-3.017111490955918,-5.6146515566074156,5.04435897379409,0.5582385693557124,1.318238805503504,-2.2738655075966925,-2.509853769881405,1.7707832244063657,0.5206574657555191,3.158274327031729
-93.0,2.3855545368375664,4.843478826128645,2.4579242892909323,-3.643519602981451,-0.0517597783815642,3.672703605902904,-0.43756623327893385,1.6668030792510344,1.4834940480352097,3.4172140435097766,2.4113457383895054,2.1994259341359115
-92.0,-4.821308281646772,-3.206375856143019,1.614932425503578,3.978446116041183,-3.2391505630279265,-0.777561083346983,3.267480513375012,4.793166664407737,2.7175748853061443,2.5477256963645516,2.769777328428628,1.3584297402795968
-91.0,-7.271368593833186,-0.5057969402725782,6.76557165356048,3.9252182303898846,-6.968265149922091,3.1455537525449317,0.8011427340623056,2.62827600854623,2.3465125240121365,1.5002640934850928,1.7460287136619201,0.26006131410050437
-90.0,-6.921709210763778,-3.9782467861872064,2.943462424576553,5.481752989525089,-4.969037838056877,-0.5811539088554835,0.44681871613308066,-1.260246694667377,2.6304779767053375,-1.9580914859375707,-3.2982351534522776,-0.8232544146071462
-89.0,1.4405924837310593,-4.228099574450723,-5.6686920581817,1.4238659334382633,3.5903625161153596,-4.9322838205220325,-0.16869861520753054,-2.9635996679271632,-0.15282794279207912,0.2212731816805673,-1.1324211761407978,-1.1875276396791947
-88.0,3.0311105674890078,-4.285714144496312,-7.316824711985218,0.5801337584652999,5.126953831010478,-5.782584235975287,-2.3841139010132713,-0.19396307612810793,-5.068491017379363,-2.8251053874415133,-3.6970314446909045,-3.8333928115242237
-87.0,6.898024998608973,6.832196897630027,-0.06582810097887393,-6.830230136812183,3.512696515948193,3.405326984277597,-1.4022107974916642,-1.9450725026257063,-2.9277880259994915,-1.0790513086552762,0.12209803503171734,0.6812241271338841
-86.0,3.386083026680252,4.965243781704922,1.5791607550246987,-4.216184250040847,0.9357040340896177,3.219262735692305,0.37160109574381295,0.399456839172073,0.3482783561368341,0.03460932052044652,2.2732632429477415,1.9693066451137684
-85.0,0.7631382660183621,-0.4416205799280988,-1.2047588459464529,-0.19924304149120564,0.9399076906765524,-0.7941299855771229,1.0588385189320952,0.7862618584705849,1.3901788884250357,0.9011432206768688,0.9640641620436543,1.5818328225063225
-84.0,-2.5418474661101063,1.9748732964598208,4.516720762569949,0.3240979993302723,-3.4929642832894787,3.277300503253189,1.490034381055754,1.1267255901528799,2.778903589079412,2.45455155503902,3.0611087373015184,0.01512991124373797
-83.0,-3.789465952063423,-2.2972061810339826,1.4922597710294756,3.0832190750390174,-2.6841032073214484,-0.4480635609278565,0.12986028372729308,2.2518239213994766,0.17926869515481902,-0.046213574322089945,-0.7298875391134765,-0.36362827379971163
-82.0,-4.38001800962769,-2.740222278120039,1.6397957315076916,3.5206587168859085,-2.978250300559348,-0.5944919412075533,-0.9593536170301475,-1.971732256129856,0.8315748883157026,-0.38158746372552366,-1.8728613484627525,-0.5477824953722937
-81.0,-0.22612441063848943,-4.993720313698796,-4.767595903060305,2.5712362281279617,2.217418462251968,-4.84458362924913,0.26274187881827715,-1.831389966321161,-1.2141956132146248,-0.12997838831451985,-0.5859049038046258,-1.2709145255145082
-80.0,1.933611952676308,3.8523627422863846,1.9187507896100393,-2.8500192801606143,0.026089762698375485,2.923873616389472,-0.6225165350498584,1.2961399009406194,-0.19187222236874468,-1.3986512426474835,0.05037627771758035,2.0483115635766636
-79.0,4.803793403731647,4.702100078870485,-0.10169332486120597,-4.705018870986156,2.4664065334857637,2.3410010639089136,-0.6103793608148953,-0.9535069944404685,-0.7674925362925803,1.7271137827122536,-0.4929573351866594,0.5835798539396941
-78.0,-1.1495072621521036,-2.080654122108237,-0.9311468599561838,1.5903071139055154,-0.09681432686766,-1.5423030163855502,0.6580668189280618,2.0610617240259126,-0.019505118362254104,-0.7085465783898988,0.7836972788177173,-1.7352127207747348
-77.0,1.1212160252295695,-1.9011486168331828,-3.0223646420627674,0.3708438145531556,2.087291375184644,-2.498889032453517,0.5743986105625923,-0.639788588115986,-1.727227576934352,-0.4773094642529294,-0.6161178655547427,-1.123494541510536
-76.0,0.11021053601220898,0.5258620615031064,0.41565152549091877,-0.3331986252664615,-0.1303755483367992,0.4299524633141405,-1.260823208591725,0.8877485991924837,2.6969787521783752,-0.7636598922063912,0.6165535283271513,-1.1867631364528215
-75.0,2.604315310146504,3.4351600921604883,0.8308447820140377,-3.0330703197033047,0.8390783090344378,2.164886653139061,-0.23196977641743854,-0.8849733188435409,-0.9361809175776192,-0.7447590565729809,-0.1272845429630598,3.2835992763019957
-74.0,-4.477542277828663,1.4831004782263213,5.960642756055048,1.4842003631789407,-5.258175733755369,3.7468865091884225,0.8205093237924663,-0.6783313664039272,0.45175045064612757,1.5314165909336275,-0.24415702370680747,1.7117758899269362
-73.0,-5.793112138494626,-3.906463528891543,1.8866486096031336,4.915590825083437,-3.7933832008171926,-0.9906996068260889,2.133849480049892,-0.21902843387505827,-0.4022061327046147,0.26509543338432817,-0.027229928362684924,-1.882131265636827
-72.0,-2.6069934334719775,-4.282873000210939,-1.6758795667389457,3.433046722559763,-0.4934115110977668,-2.9635258598133514,0.25325538159546435,-1.4651778406637608,-0.5856432014177998,2.0065443675533974,2.044906764338945,0.7351121733655842
-71.0,6.00351914176191,0.7605180800395905,-5.24300106172234,-3.391307124365677,5.6762033241979175,-2.3045040991128536,-2.487043519107206,-1.6005969898447476,-0.11119684788572182,-3.830284795009856,-2.024594167109964,-2.993554661676495
-70.0,4.20249020101731,-0.08075775931960771,-4.2832479603369755,-2.066360888601835,4.217255107268675,-2.164071714097465,-0.11774344161257533,5.012404846839653,2.1646069449607723,2.598945886507213,2.5665483584580775,1.5089983694542248
-69.0,2.6523393486089226,4.2138030090006735,1.5614636603916885,-3.434613241759287,0.5187480609734498,2.910215599183126,-0.7843711407677882,2.986766130198861,0.20135595153192037,1.8319624254348768,-1.501088472938217,0.38315472861364674
-68.0,0.7536487668464413,0.1749729302836891,-0.57867583656279,-0.4630637618269109,0.7163877324822655,-0.25192387694536356,-0.4250619049810521,-3.3255003694398297,-0.13165310972296224,-2.15530379871987,-2.5108505192730304,-0.31678238893696353
-67.0,-2.9259851635151533,-1.8298399115662318,1.096145251948921,2.379593742877332,-2.0418005517624858,-0.33147831974842035,1.6197952963397544,-0.5170664977064932,-0.6804222288633825,-0.7792849735665216,-1.2630300758429258,-1.4242751444117157
-66.0,-4.348375175977594,-0.32135906569171435,4.0270161102859126,2.3338739119203806,-4.220775351559865,1.8945486617845442,0.36005382684299336,-2.757213481428903,-1.8002686232642684,-2.369499291268604,3.561588731475081,1.2679550506650998
-65.0,-1.2037253484228745,0.5598705179387653,1.763595866361663,0.3149962008579972,-1.4403931982833824,1.1297591268919727,-0.24027656231932348,0.403829004330444,-0.8873647155870145,0.7680551372883094,-1.1833756142339114,0.5835791457186796
-64.0,-1.105407548502056,5.118458131574003,6.223865680076089,-2.022209873030395,-3.623941487597049,5.642194213065959,2.3210115567095104,-0.5132911045661254,-0.7194514579517671,1.293071089795196,2.1898031679670584,0.13753674283103778
-63.0,1.9275814149373982,-2.1126162129465134,-4.040197627883891,0.14493524582503162,2.942880390362236,-3.1047193375456184,-0.35220494394149937,3.4923338642309196,3.7324815617726665,0.7051343249240549,-0.8375145191423393,1.5731619868300033
-62.0,6.480481377033887,2.1119074725688765,-4.3685739044649825,-4.333869336447551,5.38011012814113,-1.0793892669075695,-3.257447797113441,1.9035185975592224,0.3500554729329277,1.5595673312596685,0.34065134774048733,-0.13208521640635484
-61.0,0.35426556354416006,-3.16280703290168,-3.5170725964458023,1.4346162258917345,1.9664763415613646,-3.2941554862079956,-0.8613221340533956,-1.4787767438565438,-0.6611237726902671,1.4507767299682377,1.3362469091358697,-1.0132725144291397
-60.0,-7.526353297391434,-8.851227520656124,-1.3248742232646267,8.131565973407403,-3.07277254633875,-5.125364606599804,-0.14906066293125586,-3.8065925639974196,0.9161426430077182,-3.0297322853795667,-1.7278090637935852,-2.8553567613493147
-59.0,0.8848221080856411,-0.6134765477114117,-1.4982986557969935,-0.11993614686346099,1.1396289639598938,-1.098347495625276,1.5646336246716177,0.4647528813141726,-1.523140885986981,-0.6391631792935066,-2.857822373417158,-1.9698017550432692
-58.0,-1.7649389294848603,6.265961712441986,8.030900641926861,-2.2368864672234663,-4.8697926327116905,7.179218296670229,3.6714033559787946,1.9567102882312148,-1.206301553525547,-1.1662533007641112,-1.5928551230556467,3.5484865359855853
-57.0,2.7608097426422313,2.40784042819696,-0.35296931444531676,-2.569334120922836,1.5888902712803574,1.0529948784522851,-1.8740538507603433,-0.1693040197533453,-0.4681017236108177,-0.10963895958476544,2.3229261254090616,1.6298809055415562
-56.0,2.6265657384164283,0.5926387832404783,-2.0339269551760215,-1.590994741388027,2.289191491214809,-0.7780038387508528,0.13972276946877032,0.5056910167158748,2.179855741962036,2.890437923953308,2.2440419434153567,-0.9365020754680042
-55.0,4.2455636089883795,3.0871606921194945,-1.1584029168689502,-3.6438584530267373,2.74573812942336,0.9833707862448063,-2.9923114445746686,0.4681690469141352,1.1721527110399372,-0.0851366859133591,2.481038409560293,1.1178849370098047
-54.0,-2.1697652565697507,-0.6578855610469532,1.5118796955227713,1.3598292127693938,-1.871091481407202,0.4456965486339327,-0.20640792801354046,-0.8244393310914787,-3.6922756669808203,-4.029608866801242,-1.7665606898689923,0.3459735916913316
-53.0,-4.997228248048825,-4.039865597903708,0.9573626501451357,4.4642323588554795,-3.005486656658961,-1.5210114129339551,1.4444154954879787,-1.8919195787759733,0.5971692589737936,4.054266323139585,-0.3146940178901316,-1.0127903271350163
-52.0,-1.4390663018772374,-2.3831603326762854,-0.9440940307989957,1.9332951029723837,-0.19790081331904052,-1.6408552891305908,1.6594392608110669,0.6051437421506392,2.4368890236047758,1.6476782918921118,-2.277198787718767,-1.3612606829242755
-51.0,1.0298576795776568,2.4927175864807802,1.4628599069031798,-1.74138724803241,-0.24897805185921984,1.9243331052190586,-1.4854154643552955,-0.5946127340501567,-0.2333810515681598,-1.7307473998122467,-0.39947702156678466,0.1628233207459734
-50.0,-0.8153381130723234,0.029044512525791086,0.8443826255981631,0.41288745641792846,-0.8663780910037362,0.3852070908151674,1.6741665995273123,3.8700509197378614,0.6939139209567698,-2.473786193271172,2.219290986649959,-1.3176547669841359
-49.0,0.1216774658209483,-2.3976866959990546,-2.5193641618199876,1.1609005679802307,1.3598954987601597,-2.4296803146050765,-0.8363672784870902,0.4385152276465234,-2.478062498282261,-0.9767952537493596,-1.8727956270404547,0.4246790900641249
-48.0,3.7940049306224757,3.991556023216571,0.19755109259408754,-3.8638400611481947,1.837348617518655,2.1254532416765204,-1.338438147363714,-3.0943501779689155,-1.40518769453936,0.5765013625041532,0.07309200598263663,0.9387791944033727
-47.0,-0.13134818108294244,-0.25612212528551526,-0.12477394420259846,0.1510581251409131,-0.04029353230823962,-0.15633530207025925,-0.4987163280864588,-0.0464348671763406,2.498691455394882,3.404474232033064,1.7566186921108375,2.3554119564794957
-46.0,1.1661177636151034,-1.905901865692255,-3.0720196293074027,0.33324331659981854,2.1652483158552096,-2.529246990286449,2.784191506322731,0.2584470277155514,2.6530030961469593,1.255690320710448,0.7946737649887479,-2.7292479372071066
-45.0,0.46922218989341014,1.1491158333011993,0.6798936434077308,-0.8423539878567287,-0.13360335200692647,0.9575821743594825,-0.5658628671616371,2.0003027853458506,-1.4850108836530798,0.9134169119114466,-0.6566198344445974,1.8077152469127742
-44.0,-4.0894776618391635,-1.0877899059550813,3.001687755884034,2.6349815988164815,-3.5716362196269826,0.9248832274741382,-0.9628336575247864,-3.097820557426462,-0.7699060423476075,-0.8791581344060013,1.913346015418328,4.303649096730669
-43.0,-2.667671518581025,-2.5643928746621203,0.10327864391887198,2.6615450675653904,-1.4124835698221596,-1.2609369168478548,-0.38796349195620805,-1.1309884514695634,-2.015509488174734,-5.504074502365154,-2.8604350902635614,-5.640075145126371
-42.0,0.34444894465697673,1.442155309471318,1.0977063648143426,-0.9274351249425941,-0.3287668572028022,1.2393237629452982,0.20664023861444117,1.254505489960636,-4.216622537267082,-3.735392834717609,-3.5967257848622434,-1.4839588022529637
-41.0,4.9160511293408575,3.5595495232283603,-1.3565016061124529,-4.271575948885678,3.099974848386417,1.1484745134062864,-3.225077195302828,-1.0146787650090832,3.442282277766626,0.9334751432589081,-0.6623920159849643,-4.595835912096274
-40.0,3.8629190666459405,4.6071124078181676,0.7441933411723101,-4.187849859827943,1.5967471876388797,2.721785684928273,2.2820694275765705,5.005757304531181,4.631284471145581,6.818484067105141,4.64228300430314,5.502844643742378
-39.0,-2.500264487929767,-5.280900335776687,-2.78063584784685,3.862672623955568,0.1744760841522902,-4.062850181377685,2.6947510427023813,-0.18732806667817958,1.9221930660873117,3.0085229438893553,3.070225732065492,1.1145965966829408
-38.0,-4.103448322135151,-3.1059795260892407,0.997468796045938,3.6595152719719035,-2.595180237961628,-1.0843283716871885,2.9216415145091856,0.278386273508923,-1.5235524400257534,1.0520714779199576,1.304369093279247,3.9039660541737495
-37.0,-3.7218881310912324,-3.9417681088650323,-0.21987997777381704,3.8105029691317673,-1.7931628943654947,-2.0294247715397633,-2.1669800893392894,-3.7603051236969023,-3.328104388347522,-3.6480344630201285,-4.6569327830870275,-1.0077824130703192
-36.0,2.45393174482473,4.6432899510934975,2.189358206268712,-3.5699951591830374,0.17354659951577978,3.391117824392813,-4.530543141129901,-1.523954939603594,-1.6329152230614485,-2.917021700264308,-1.0767019076571094,-2.0259668872485745
-35.0,5.763124625489182,3.6746626292794344,-2.0884619962098165,-4.743345981433981,3.972629324566647,0.7681611305998016,0.7454589290005145,1.6266311241458749,1.3913651721216065,-0.7046654402830623,0.9411429044427476,-0.5247664836782331
-34.0,-0.9480721117784898,1.6333298548994046,2.5814019666778476,-0.3721123968658846,-1.7915659210321297,2.1587729125774198,-0.23734341745066267,0.610740045190308,-0.07007166628858197,-0.9981338599925339,-0.1334893588798367,-3.3330643405641998
-33.0,-1.9463937932361093,-4.950064117817035,-3.0036703245809298,3.492584193592612,0.505202778178809,-4.009204015165086,2.0308074349126017,0.6965003807877334,1.7046082790815213,1.037169857021758,-3.004989733977526,-1.7136677522194843
-32.0,-0.6760365361780272,-0.4600846957843623,0.21595184039369975,0.6098097757503272,-0.4682937302588126,-0.16092553746494298,0.26732219211428787,-1.4427601855745595,-1.349525620576081,1.852489702064086,1.9276310449619518,2.3351965188198966
-31.0,-1.3224544136022602,0.06501653585273748,1.3874709494550532,0.5926546713258732,-1.3781344378821774,0.7598909994723779,-2.4150237515245645,-0.45624118497162425,-0.37119672263051573,2.513917404952904,1.6319808224477277,4.524122589303363
-30.0,2.057892436257782,3.5630615398591594,1.5051691036014119,-2.763609672472751,0.3298202757447327,2.5637855439785353,2.713902715194811,1.8885962828578322,0.6102526133696841,0.13755401450102078,4.31619836324437,3.0821296439408776
-29.0,0.0014528388787872215,-2.0002617794959354,-2.0017146183747165,0.9732879608244007,1.05230129999139,-2.050335259826625,0.8363726412008119,1.4039538712334267,0.5399262910338487,-2.5149525116036613,-2.338495117272968,-3.476302011011129
-28.0,-1.0638662879102279,-0.8735009459849126,0.1903653419253052,0.9476983932898578,-0.6585397131200011,-0.308420570940704,0.37104694786616305,0.4617468849732311,0.6798003120145297,0.00616367157724107,-1.695666432562105,-1.034323192615085
-27.0,-1.081976009503466,-1.5328578776640256,-0.4508818681605775,1.289145414358336,-0.351676550200317,-0.9520149930536279,-1.4788688107554768,-0.9483405836598258,1.611062782665097,0.14053982405351917,-1.1757179754769047,-3.5826204495454976
-26.0,1.2926474956986835,-2.4081924423885246,-3.70083993808723,0.5391327067727731,2.532610620785727,-3.085839373400224,-3.074110692293335,-3.2759405874890946,-3.20561736817444,-4.224905592087379,-2.589798754130392,-2.300469294622626
-25.0,1.2480085243014285,5.043750421504454,3.7957418972030244,-3.088703975466097,-1.3256360532112963,4.394449790454837,2.0245686611593126,-2.0191901176399063,-1.4148695632859776,4.401885475404181,1.3256193100257705,2.1228507706232977
-24.0,3.076583393984105,6.024139985019201,2.9475565910351254,-4.576236758932161,0.08146181407855935,4.463211975955065,-0.44530529365245664,0.13227617325733776,0.13315337941568384,-1.9949639877342182,0.3771595516957741,3.307640917495444
-23.0,-2.947689941667695,-3.6158786964084575,-0.6681887547407246,3.3301965969259717,-1.13203163222773,-2.0872061789626435,0.35640768513727,3.146450398730357,1.1974699214717683,0.77584445884007,0.34076264603134465,1.0002524115873044
-22.0,-2.3803004460857444,-4.887277474949427,-2.506977028863663,3.599562592179178,0.06495189636160859,-3.725480955309184,-0.0013149551383652702,4.5128611120684035,1.8054057524477611,3.6635112795166673,4.097525764626553,1.1140173194397067
-21.0,-0.29657841854100897,-1.3957666695288768,-1.0991882509878703,0.8088101231018463,0.40181774807768117,-1.281604412302682,2.0358513488392327,1.0754664099034728,0.4795044332689383,-2.119854721327763,-0.08934400000419185,0.11357156781121683
-20.0,-0.2628946503540992,0.762162545921045,1.0250571962751205,-0.2108208392949915,-0.6388336924174096,0.9332109306884637,0.6526027618178157,-1.8020256904958343,-0.26135858656842575,0.5913872073407945,-0.7535196109223767,-0.2537527185905827
-19.0,5.635986947641548,5.031429455780762,-0.6045574918608234,-5.297200155246862,3.13499739184744,2.250354849274482,-2.1629835157719834,-5.083062495255743,-1.4324517774004715,0.49622857627883776,-1.0723351427229588,-3.5071060980403326
-18.0,-1.2903264119538433,1.114349050934314,2.4046754628881275,0.04355996178280508,-1.8203505000090106,1.7178360911774668,0.26665025219759064,-0.6372909744958837,-0.27970315373922894,-4.266834409144118,-0.2741724601185438,-0.2958721460641094
-17.0,-1.2663619368082142,-1.145696764138403,0.12066517266980525,1.1596975081728258,-0.7326226025721732,-0.4731686867254967,-2.0654305213791115,-1.5446841026732852,-0.14046046256529965,2.0146634672120047,-2.4516718665652397,0.7164122040895681
-16.0,-3.754761564042457,-4.17580356405522,-0.42104200001273634,3.996570272180546,-1.695918085795612,-2.3349862399801715,1.8229535272418533,0.8956571345033599,0.7807304603730738,0.7200424516028252,0.7173117707276968,1.900483006492656
-15.0,-2.4184459595559407,-3.748750352656045,-1.3303043931000649,3.1150842507702334,-0.5669651933007818,-2.574395984461939,0.2775602691944838,3.6765122118883897,-0.8145212357097551,0.02656020598648423,-1.3452619052408317,-3.041669730967215
-14.0,3.0812372255220017,3.9050737173078733,0.8238364917859228,-3.459918022559984,1.186688078299359,2.4076557399031397,-2.1147222249863487,3.1294751230345232,-0.8950296667343194,-1.1796885329828461,1.1974192932714425,-1.9182899495118197
-13.0,6.181465357968613,1.8455668958529634,-4.335898462115611,-4.05605670648694,5.236811795711903,-1.2053869815315605,2.0479197229334294,0.3364617327011601,0.8334331756780645,-0.6001753879735277,1.1446640794895921,1.0000706488524413
-12.0,1.4837365716571274,1.9029175942178005,0.41918102256069334,-1.7324201742087584,0.5858831431620768,1.1165382391958378,-0.20650626777769288,-2.8290566085301885,0.8760808121402366,-1.263595069931612,-0.5343224648062788,2.76280691227745
-11.0,-7.13663362110899,-0.9569642734905779,6.179669347618409,4.089586006268292,-6.6878765885449685,2.560714209076329,1.8583269369528845,-3.64967916275053,1.5108332359492316,3.3483395396575326,1.3875552586489,2.686510006518116
-10.0,-2.456213554037798,0.44831945105160576,2.904533005089382,0.9702239146027074,-2.7154267455175223,1.6999212291618293,-0.29726808304349717,-1.322146797612775,-1.0461936432046526,0.7173293886538719,1.1959998072934006,1.486513460061739
-9.0,2.3205146833690242,-1.2449190396856582,-3.565433723054707,-0.4917683453736419,2.981066714109311,-2.382811294353999,-1.0523224004907066,2.617738486136042,-0.2506642309068903,2.88395377539431,0.4970150985195481,0.5226804328290571
-8.0,1.8340702375159252,-2.0581792110953705,-3.8922494486113366,0.07882297220224321,2.8172432668802325,-2.9495211321126416,-1.033887134426453,2.7191005942413975,-2.3481201442513178,-2.0277789183067148,-2.4324038227800746,-4.9884047013759965
-7.0,1.3931005343384648,0.16852511031610762,-1.224575424022398,-0.7376303900766167,1.337548487649428,-0.4951994461901901,-1.230279921324433,1.2460535212160433,2.331200422147811,-3.253911883203304,-0.09504106922758448,-2.3108671216744163
-6.0,0.6018244412488368,1.4214563794489865,0.8196319382001149,-1.0516313522576726,-0.0824345283912713,1.0833633824710351,0.5000561430160798,-0.6493092624309893,-0.2878278800975458,-1.2981763719076105,-0.22800033966383193,0.07390038450232628
-5.0,0.34963877262942233,2.8887828400412356,2.5391440674118226,-1.5869157269273335,-1.1470100736289643,2.684241446785097,1.6935086747327774,-1.477174334934557,0.6572309687684049,-0.2960415382920617,-0.357882227927076,-0.6873013008884042
-4.0,-2.112774162701838,-2.5555645648127303,-0.4427904021108555,2.279848426798253,-0.8064335073997102,-1.5251576972367396,-0.20231997310431682,-2.505099272393196,-0.45214967861137173,2.2266388868019473,-0.6793494809483531,1.6020105282927517
-3.0,-0.901808179204642,-3.0700787786407084,-2.1682705994360276,2.0024300177276757,0.6650167618432119,-2.5674560575568206,-0.17321933599792394,-2.6816287758774786,-3.0402367991817107,-2.035958202341187,-2.026415514533337,0.9583563014797327
-2.0,-0.2746922796679443,6.519663943343749,6.794356223011661,-3.112241336785538,-3.5784550123818164,6.624663228868796,-0.33836067190200253,2.764264291999688,2.638676356850538,4.747281402744521,4.618463146058312,4.59012524356303
-1.0,-1.1755055655881292,-5.175331945303446,-3.9998263797154268,3.1828250776227662,1.4484058012590795,-4.548987233737918,0.884406286774071,2.4068220899549306,1.2922020978991509,0.31665187074752077,1.3493111314598114,-1.3794863067544156
0.0,-2.036921957187558,-1.2044543133204404,0.8324676438670229,1.6297056110309707,-1.4783175468393637,-0.23414927108017758,-0.6832961325115584,3.343113359020055,-3.031866225841484,0.5760132898021126,-2.071068517889784,-2.9511826314432477
1.0,5.541729148537015,2.5874613266703976,-2.9542678218666634,-4.049494399327244,4.279450115676525,-0.15889762838397337,1.24895908120779,-0.9879294003958585,3.103760365035064,-3.840654927939764,-0.36145640868507756,0.06374200746152425
2.0,1.5421525201985702,3.039797594042765,1.497645073844224,-2.3450674312779336,-0.030238108000673503,2.290322400921893,-0.7931593772704185,-1.9658556681333392,-0.0064519278422427995,-2.292521016393463,-1.052780315734055,0.42816206369112164
3.0,-3.8537405227823474,-3.9198013722708467,-0.06606084948839722,3.922741624405579,-1.872513620546457,-1.9708979725483138,-1.5601297849812727,-2.8079103527374243,-0.1458132957057065,1.7535634900316492,1.6889850028018052,0.4073133771646506
4.0,-0.9144125178314475,0.14511931544042855,1.0595318332719883,0.3529196461364543,-0.9684930482244125,0.5485340236938678,0.723972639262721,-1.9573084885611942,-1.333985432225643,1.4491029345449793,-1.4202221062057978,-2.051534903349646
5.0,2.2584902937313927,0.5440668790205556,-1.7144234147107542,-1.3453900323396506,2.0052365676677866,-0.5561357112236887,-0.5088088627043843,0.9590521748874927,-0.7933254287350925,-0.8702443274960654,-0.7570602581170351,-1.9844004178774277
6.0,-0.928191990580835,-0.33242479090722765,0.5957671996736189,0.6126414644429472,-0.7399642538989074,0.08600480367007138,1.2482288830838475,4.150040540235822,-2.160536325792187,0.5848733038474356,1.0101802580307297,3.8803206016371004
7.0,-1.2360146550864908,0.8895491142615353,2.1255637693480147,0.15639510532838835,-1.732768145802832,1.5439801305847682,1.3161157514081603,1.2274143190809166,1.9786481414488042,0.6679918226567979,0.5496892650308829,1.1437479094528038
8.0,2.4841853777747582,-1.378214327883851,-3.8623997056586363,-0.5729938632651062,3.2043699980305624,-2.6600932841898297,0.057342618348857455,-0.10722941940777053,1.3773423203335007,-0.356694957511167,-0.8057485375567768,-0.9052400651880577
9.0,1.7779180069225249,0.5210544904457999,-1.2568635164767388,-1.1752572185165246,1.471945152087047,-0.32706116931942375,-1.5133770458992597,-3.4265072640703584,3.201236391249317,0.1912317878481834,3.2453583248079827,-0.6603667900025111
10.0,4.371528940248605,4.6862432591430085,0.3147143188943684,-4.48227052327809,2.0612729872564666,2.5425230564635886,-2.6467647767522764,0.08667426292199076,-2.4783784116215264,-0.5953642782233026,-2.6272343913265854,1.1780694805785128
11.0,-5.675972992794419,1.3115577043876292,6.987530697181961,2.223654653514675,-6.3800747943968545,4.1130180772257905,0.6189342338677815,0.034488126210002745,1.139693777384445,1.913418487339038,0.41534875588992914,-0.22499602198634885
12.0,-6.54329824411882,-4.517508164665435,2.025790079453257,5.490034520213855,-4.256993785682552,-1.283683885039571,1.5807619782590137,0.07271166566317047,-2.182666909048011,-0.8412444246135208,-0.2341158359538879,0.10444038185227672
13.0,-2.4956728502188352,-7.038288674425659,-4.54261582420691,4.804218418349875,1.0494227723328442,-5.752438505754914,2.202009522994154,0.7527572405476672,-3.2066536744219016,-2.0376583757453353,-0.21846138768698875,0.0234902670074901
14.0,3.3283798554177286,-1.1697019247195737,-4.498081780137313,-1.1209649272583846,3.9399607212115617,-2.878637739634838,-0.7879319528979494,1.0904032813529154,-0.2476672342808801,-1.4828126942979885,-1.8073843530211797,-3.6826893776855094
15.0,5.913304490029325,4.83671485006574,-1.0765896399635313,-5.416653543540937,3.4461541555509454,1.9100894195107816,0.3160688158269575,0.7660870900204557,5.058870540227477,2.2652513988593563,1.8501715711970548,-0.6421199547992714
16.0,1.9181308220853914,5.941847438733321,4.02371661664803,-3.8932583708394564,-1.0180000215327516,5.010229669380315,-1.4573474725411826,-2.2306479730336846,-0.18579540995972943,0.20267757431282885,-0.8756503199078214,1.7099540732039689
17.0,3.989521873218087,5.0316109943681315,1.0420891211501837,-4.474435519253417,1.4349578802841847,2.9854484430886856,-2.992568820802974,-0.7197342600586815,-0.061894388719417104,0.8480183662659972,1.1039436657095019,3.6994966910755225
18.0,-4.962548794774577,-5.449569191981227,-0.4870203972065352,5.163075578742157,-2.2720703430848155,-2.9381857110132863,1.693588061105406,0.2537229037048211,-0.7620924835412451,0.8795811926146327,0.7296524664891478,0.06379407776088208
19.0,-5.698059294179305,-6.946263834032835,-1.2482045398534867,6.358231788102089,-2.1774717159746793,-4.061988878763498,3.655397298165275,-0.37908000508954626,-1.6398866190153496,-1.3687292165170881,-1.1274189734217366,-1.5561317040763822
20.0,-4.421090176225556,-3.384809417154874,1.0362807590706398,3.8614157608327457,-2.679975083922656,-1.2114628568418595,-0.837327193752603,-0.0736822108793897,-2.7842406997458764,-3.731066315892896,-2.645450794577399,-3.969238771708981
21.0,4.947206845314202,5.341778211660536,0.39457136634619155,-5.105438816145323,2.245697272773836,2.8369260701445587,-1.6487317915422341,2.5431525667763393,3.4664464660521284,1.8188978768481892,2.382329590437436,1.140356043688115
22.0,7.073052165297608,4.783615260693008,-2.289436904604744,-5.965933899790111,4.648364773112128,1.2988304609289423,0.02481198922898653,0.5405185273825295,3.050427358106307,3.164379394060173,2.647190257094279,4.570691229500476
23.0,0.3046580222644515,2.599550845481875,2.2948928232173333,-1.4092149471725852,-1.0314303810766225,2.4219363362857935,-2.197079731603089,-1.6374666690565673,-0.12573936875089564,1.591564903130449,0.22260535115281754,3.432999686292366
24.0,-1.5906920058129652,-3.405365686422684,-1.8146736806096482,2.462915206413036,0.1506340402834602,-2.636231515871141,2.9509460280723276,2.2577614525439444,1.2191522741726872,0.48741570837961296,0.40426519463787236,-3.3253944768568613
25.0,-2.903651116590901,-0.7797645478119932,2.123886568779122,1.8846562984233288,-2.4784979334472124,0.7214528526677089,-2.425202271104565,-2.803336249148883,-2.9398344079613903,-4.179855544059797,-2.0270755943606016,-5.970293937154671
26.0,-5.090284914125112,-4.184244526399076,0.9060403877262209,4.599319838399711,-2.9655183953358693,-1.6730995278444383,2.1518461705042884,-1.235471272472224,-3.5802484873840195,-1.066106249987503,-3.77170587353702,0.5577815030388917
27.0,0.8507642437065961,1.5834940257573407,0.7327297820507819,-1.258152795115189,0.010776380006928044,1.197466004652754,2.8993922592790637,0.6067911919358424,-1.9966125472087017,-0.2144217814963454,0.7817056445986845,1.5960444914062526
28.0,2.06174977024789,-1.5306663569158037,-3.5924161271638364,-0.23090140805166798,2.776696619233392,-2.606542534937174,-1.912309375191105,-0.9956763301144202,1.3813939158599255,-1.530120566170348,-0.5945202669219554,0.5412776077484303
29.0,3.7153088801029814,0.46547743479513515,-3.249831445308075,-2.05791662003578,3.5085280146523243,-1.3638943945041506,-0.9701268125691148,2.2844889298496414,4.689951790542711,3.119228056569324,0.539592646622206,1.117222781403741
30.0,0.9922541952305002,2.1330334114828626,1.1407792162521924,-1.5309369673084776,-0.05072219552269641,1.6601180139171927,-2.141096076178581,0.9920424975388967,1.8131315033035418,1.2938387634735602,4.4892087696321745,0.166339724207357
31.0,-1.808414403670631,2.2324828564618637,4.040897260132426,-0.2586074667266849,-2.9029566415718664,3.076823418465467,-0.448848814595031,0.43794277456682706,-0.8810721129548014,2.088250801469252,0.2954728649881715,0.6177426464659158
32.0,-0.7463264201254212,1.562546497823327,2.308872917948859,-0.453495562568932,-1.5853614338352773,1.951590750559743,2.406525060053087,-1.0592803713931302,-0.9635420504899594,-2.3595559300713838,-1.2727340019237978,-1.334577834352066
33.0,0.08849370254418831,-2.430544703407568,-2.5190384059515525,1.2058628131036433,1.3253663683909822,-2.4597765864351517,-0.09597951099689217,-1.6130924530254545,-1.4864519571557742,0.45646959045786184,-0.1711172089462194,1.5448431665058893
34.0,0.6314428694099016,0.7724705064692079,0.14102763705950216,-0.6654141236486684,0.2684175020034204,0.4738586856461986,-0.7721799562860304,0.00028531360847394716,-1.305711377483907,-3.6450698079652986,-1.3572333198144064,-2.2226617740874794
35.0,0.20974392090690452,-4.20321004090086,-4.412953961807668,1.9567574637122416,2.3363689254052775,-4.364165537862121,1.2095325004154178,-1.314934446759568,-1.1629393242640602,0.26260189931613365,-2.74760300066324,-0.43326149781636225
36.0,-1.7561867538574278,0.05155996809494767,1.8077467219523338,0.8154687627245703,-1.8346669595246201,0.9611968139442393,0.7700441984835795,3.180877136060781,1.8502149564505799,2.0500548418869085,2.159229989167793,1.725436096730577
37.0,-1.625943879526745,1.4000558454395888,3.025999724966224,0.1589699140138235,-2.3003603997236017,2.2558004515089216,-0.47717822709922547,0.9272818683393845,3.4137595846760584,1.1694020073404343,1.3065721062409725,1.0805898544440158
38.0,-1.4843324460535035,0.5064728876367882,1.9908053336901887,0.5395594389741698,-1.7925791854290232,1.2245155645685637,-0.9627701879101067,0.27453985549104776,0.15185122544743956,0.49311554299315485,1.8724046114297137,2.0244619605404277
39.0,3.5373666910176085,0.5357715224520673,-3.001595168565607,-2.060764564426789,3.290749606020739,-1.2466532244591835,1.0529078456031686,-2.8773894274636147,-2.330788305049362,-0.6148207736375608,-1.7128776349089538,-4.231769469181569
40.0,-0.8378239232407363,-0.9480695059941115,-0.1102455827534079,0.8705586883068273,-0.3443620330647228,-0.535821215691904,-0.9656350432333667,1.1164129621421448,-1.074095012905799,-1.3853568685053779,-1.7761425384266252,-3.554416747045077
41.0,3.844221849695934,1.676930001335702,-2.1672918483602164,-2.7842769229835533,3.0249012407631883,-0.24904350498390593,0.10679670714177175,-1.3203966573382897,-2.0312487429581054,1.1923054485447775,-0.3866515972294907,-0.30877183475543446
42.0,2.4272552439346446,2.4051499938693466,-0.022105250065260096,-2.4442890038495193,1.2451554767935948,1.1863379096739592,-1.8643043857276438,-1.136878380311297,0.8793278268935872,-2.0749469141228145,1.5111232840002415,5.113015044439564
43.0,-2.137153235333847,-1.8536098242750372,0.28354341105883696,2.0397755898779457,-1.2666018643911106,-0.7945657883939874,-0.3131498451747339,1.1894526609720457,0.6877285073690709,0.35317948768176444,-1.5923176782085289,3.4539465948786305
44.0,-6.1364203252743454,-1.8883789837028937,4.248041341571466,4.05046205256258,-5.168499572783123,1.2432040967094986,1.2815205542020685,0.1610246467076336,2.5027339334162595,0.5751902899267755,2.7203243871006846,1.2631496618681195
45.0,-0.057503665531478454,-1.283200736537566,-1.225697071006099,0.6249534431111243,0.6069570613028632,-1.275764550046127,2.384710840167913,1.8878789624550218,0.4606593541057946,-0.4419306105365016,0.04223269833874377,-5.8657481277536645
46.0,3.802581000391007,1.1408001598732032,-2.661780840517851,-2.4404931656943454,3.1728102420248616,-0.7869167277980661,-0.022289023170127154,2.309262217300222,2.133451645459981,1.889342123914409,-0.134278401614298,-1.5562855724902884
47.0,-3.126718759500355,-0.3105469190759975,2.816171840424351,1.6714541058163874,-2.957513109022418,1.2224620433514986,0.4974831547435678,-0.6747006266866266,-1.3355349701338826,1.088964509797398,2.0790073536019635,1.2067124040234392
48.0,1.3397535313589821,-0.44760873061067674,-1.7873622619696021,-0.41247775642735984,1.5717344418374857,-1.0719743881295791,-2.0337542561353206,-4.474578990434492,-4.573338868505918,-2.4514617178426867,-3.437829233828522,0.7710298519224904
49.0,-0.36611221918398096,0.6560776706424398,1.0221898898265578,-0.10911658164165539,-0.6899509619900327,0.882206550968188,-0.9065562870370842,-1.1142948758569904,-2.3743071686526784,0.11636921865721117,-2.2573275568087636,-0.5919635972057448
50.0,5.043494514052264,1.1914043997601436,-3.8520901142920074,-3.1592847257121646,4.45149925753061,-1.3688594654627027,-0.9133884093557084,0.7587496533103342,0.24660402725840536,-0.34018453122134074,-1.374002948751614,-1.6320959851889785
51.0,-1.9894732873056973,1.787523738517779,3.7769970258235146,0.05792381039608552,-2.8759237683474925,2.739754765909976,2.1718739031535037,1.2167183944532625,3.424877211132181,-0.2058057617137169,3.1949417644635187,2.0408378250222543
52.0,0.14386579387571652,-0.8282186884070808,-0.9720844822828913,0.3741488839344658,0.5722138185550207,-0.8692231597940039,0.1914020293252534,1.1181423866417906,2.870329727609751,-1.2292160286437073,0.31885067675557544,1.1722026401323997
53.0,-1.0225129861559357,-2.170276263299138,-1.1477632771433721,1.622727522336171,0.08520359322560317,-1.6340455535718046,0.4812227529751451,2.9912003643815654,0.45575130370279915,3.640742301736652,2.22339078968004,2.100117789179013
54.0,-1.8789264070222111,0.11854047509841337,1.99746688212048,0.9001695769804359,-1.9869234268404645,0.9991177873942554,-0.5900742390677964,0.3004398463462288,1.014129538739188,1.583011125834021,2.0457261177067396,1.7131411724795753
55.0,-2.7000478337856553,-0.9375218622577612,1.7625259715278823,1.7543965791606935,-2.27524989031273,0.4299440842852102,-0.4509649317616951,-4.56646570153739,-2.4274771126666748,-2.5975304163002946,-0.8091518925552321,-6.345960104394047
56.0,1.3176340259500257,1.2142582133927675,-0.10337581255712996,-1.2550205059573776,0.7467627238998713,0.5746939351620076,-1.5097927474805721,-1.3341410760142625,-4.132346633484641,-2.4998528358699916,-5.793787378574585,-2.60651420202616
57.0,-0.49469497987205335,0.19988464181801902,0.6945796216902744,0.1582123953066763,-0.5595731927487815,0.4730906352010438,-0.3029192355045997,-0.1303337047677331,0.43793847778130246,-0.4841920450816741,1.0150295123313988,3.812966643503376
58.0,6.255823521610318,1.2886906005986716,-4.967132921011478,-3.757753414968301,5.565324184949906,-1.881562737545667,4.12185103647887,3.179671379391064,3.3466841485712386,3.9953968663487682,2.273171320718022,3.582272492675336
59.0,6.148070162602768,2.9801583057827927,-3.1679118568198685,-4.542552444668696,4.688307179512723,-0.045183571307320425,-3.3870802434240206,0.5018197435969136,-1.8030270965305184,-2.328609414333035,-1.7712394640532703,-4.986612101997129
60.0,-6.813729602448112,-3.116591383652516,3.6971382187956214,4.916929233202838,-5.226217637149842,0.2712506684611743,0.3688735745892151,-2.394129934561123,-1.0205033944430313,-2.0155319060466357,0.08942143819499394,0.23968131311082141
61.0,-9.559012736522536,-3.7297853961742056,5.82922734034828,6.683601135346745,-7.7432641018472035,1.037652203462374,1.6343174732200687,2.111301710977187,4.407857534472014,4.0453317002603555,1.9391839486456737,3.433628487151204
62.0,4.040786026776821,-2.966826051045293,-7.007612077822223,-0.5704232854630167,5.55543682636821,-4.998128544134815,1.6855716696930645,-0.6312266620789012,-1.6677077327951677,0.37435799570752293,0.21595814175286177,0.0742254660215873
63.0,3.571027902240745,4.416063923399166,0.8450360211583035,-3.946483300554335,1.3178628734737183,2.615011802345119,-0.2947591024612849,0.9725393448967616,-1.1508773077734915,-0.10920413867174655,0.13231641128583949,-1.0172531899064494
64.0,-0.9121933109186608,0.3017800153784924,1.2139733262970909,0.2702722962448483,-1.0268088363036816,0.7336132565420482,-3.215368431040888,-1.5249747523960162,0.34183120056576566,-0.4704279294078778,-0.7161150884217955,-2.240670710227054
65.0,0.25836803062283487,2.9328163163203316,2.6744482856975176,-1.6379855223874316,-1.2479376973650003,2.8479572184724637,-2.5957454596854856,-1.9365660274525303,-1.1382757808857549,-2.2146835449963107,-2.57749378280503,-1.2974428881962523
66.0,-0.7268111699295292,1.6263226853271173,2.353133855256713,-0.4229262295250883,-1.4989577537533532,2.024998331504624,0.6414301123010462,2.784107824447392,2.0826019572312897,-1.7595344702297162,0.7211762699164139,0.7769331473781577
67.0,2.2958725164320635,0.42474255813436645,-1.8711299582976293,-1.3421646839078745,2.125853808865515,-0.6943489193205024,4.081970979550897,-0.9915207638617521,0.9857569862833405,1.883360838524593,1.7765014847309066,4.638640101618995
68.0,4.099336825754722,0.9050098746115979,-3.194326951143085,-2.489122129800226,3.610565730247528,-1.1981087836377722,0.1346495055964705,1.4834224663455646,-2.5392845811422182,2.3813960013163222,0.7156068517859969,1.7618508061171458
69.0,-3.5509419236601376,-6.283177277648848,-2.7322353539887043,4.9303441573803,-0.4467203419433661,-4.562408481658409,0.6998615133103278,1.6831467541926806,0.7217848260345735,-0.39782512890581034,2.063741387237651,-3.4801035087187167
70.0,-8.375380047412001,-5.480780569492047,2.8945994779199378,6.868397017453114,-5.674055430107238,-1.2687497293124763,-0.8068140920455431,-2.7136481007117492,-1.6430946102490385,0.38201154249747793,-1.42890169173872,-1.1431297186119584
71.0,1.0250008126427113,1.6919216200900715,0.66692080744733,-1.3293459874057407,0.21761579018837462,1.2050769962654595,-1.3930538096588814,-2.598402438489442,0.7476978145381691,-1.3177480816777316,-1.4639916664864565,-2.244868745926424
72.0,1.2589593998776158,-0.11541855709154247,-1.3743779569691932,-0.530761532856251,1.3558311008727892,-0.7172728467352605,-0.8840076407771377,1.1554344375928323,1.985874066143981,-0.6137090812135058,-2.474398768518015,-0.9190190513033066
73.0,4.747301914896166,7.0709322188574095,2.3236303039612136,-5.936071914311412,1.2535061263663616,4.648304616607343,-0.4687192262044214,0.023076847457263516,-1.1132973633022347,-1.2247866635708011,-0.6543960828443245,3.19332152936377
74.0,7.632720320041482,6.130781334768985,-1.50193898527251,-6.901747085661934,4.533675067906942,2.3458289157995176,1.080469385134168,2.012548341442561,-0.08391124625872655,-0.060477929450916124,-0.2383609909041232,0.5989855095783223
75.0,1.0972425233227239,-2.5199697018925558,-3.6172122252152854,0.6927772457914614,2.3260976291087756,-3.0367747645927037,-0.8187952063131232,-0.5500507237527119,-2.261929152186808,1.540400169919174,1.645970340523742,0.025365184315547795
76.0,-8.833158296903338,-6.583855970175507,2.2493023267278325,7.764330396618353,-5.57242839651984,-2.2153574746534437,1.9698211915541513,1.2023423595287652,0.9875396753258264,0.09941507742421152,2.05666352930756,-2.079771032855475
77.0,-9.739014036438238,-1.7484741431195596,7.990539893318678,5.712124839879088,-8.820600252071898,3.070674437888861,0.9572122211986871,-0.8901321924883259,2.737424972374179,0.4921493257055668,2.816328651740832,2.809076249365744
78.0,1.9486829187027963,3.1259346149484917,1.1772516962456967,-2.579357493660233,0.3450122914589322,2.177786740435545,0.46239715877173143,0.7753717516690416,1.9099651784296596,3.334219936189504,1.1804267374164716,2.8549400151926045
79.0,6.209659594729654,-3.6421175424340735,-9.851777137163719,-1.2561638083339484,8.061347310358778,-6.7213608701483745,-2.370609346465951,0.33862771540870823,-0.6269771330391506,0.6194144302411736,0.1545884654599265,-1.3167324885501488
80.0,6.771032628817182,2.845952916394412,-3.925079712422751,-4.786093640239226,5.371664832685873,-0.5120038485297034,-3.667086165701483,-2.6930711653955384,-3.2414527903998525,-4.962925401489233,-4.717919749817701,-2.9655197984361665
81.0,-0.2053900997659639,1.9666281643084245,2.172018264074416,-0.8584081972978743,-1.170447689708784,2.101262268316098,4.233937516180193,0.7316286473243112,-2.8123350054559912,-3.3742557188118565,-5.470032776147992,-3.9235709550800033
82.0,-4.164072768011016,0.5782502698081082,4.742323037819157,1.8192805287947957,-4.516791494339125,2.618934521655859,1.9439936909410087,-0.9803210464901873,1.2408304999255317,0.6445378721929684,0.6245994955149294,2.1723324871129766
83.0,-6.642838142041755,-2.9607414443797007,3.68209669766208,4.755825249955967,-5.148146054420601,0.32407162950425095,0.8531492233574073,0.8923974240780044,0.659424241683005,2.690890074329713,2.8688175693874287,-0.8391105964925835
84.0,2.0252477518957863,0.055859914043607906,-1.9693878378521585,-1.080312926744499,2.0128033465831976,-0.9906890851425103,-2.6721207457096394,0.39018333307053854,2.3850491762008055,0.8260504635516697,1.441413101912962,2.14054961953705
85.0,0.5963615657051069,1.553195762173349,0.9568341964682532,-1.0314829385412314,-0.16189399751299335,1.3000643485321526,-3.1595047738506232,1.390589652238059,0.9163106439670479,3.0254836429973615,5.183806991875991,5.546057079096276
86.0,-1.0056791002500551,-1.9422077946892506,-0.9365286944391749,1.4406726180046587,-0.09067460404379646,-1.3961032427383817,-1.1453804903043658,0.5455142205028247,-0.6454124831074397,-1.2540065089200718,-0.6624019553510432,-0.06955690075107235
87.0,4.917108187745271,-0.20724837853189448,-5.124356566277128,-2.3869796023296024,5.048972841363853,-2.704319466006603,1.8149595849750875,-3.7827016282762735,0.09736756082576298,-2.197152037171939,-4.258331109567859,-5.668818565126351
88.0,6.2468675854167754,0.08908102640257204,-6.157786559014163,-3.1192689314307573,6.237276457977575,-2.9977805357583835,0.8379774024647736,-1.7881521128027156,-3.327538350230793,-1.8932601988978948,-2.567812520387692,-3.671597745529411
89.0,0.992778634972326,5.773063491728158,4.780284856755861,-3.3301934077021493,-1.9299766113458152,5.230578101710094,4.920898112488261,4.7529129927106855,0.3910837373041587,1.9292899339802796,1.3931169540748094,2.349750003780513
90.0,-8.372499823932959,-0.12625056556399605,8.246249258368959,4.229273029701609,-8.337560886620627,4.088781702020223,2.225939167856539,2.927571761438773,1.7807029971227917,1.4473031654130708,2.081014951334982,4.9483685809443365
91.0,-7.098853243872524,-5.050079575567065,2.04877366830543,6.06060382286913,-4.515334090239406,-1.5540073736923166,-2.564973706919999,-2.1800069578838217,0.349053348994424,-0.6052666417940753,1.0630385003589706,-1.8508572650882593
92.0,-1.317179697757025,-1.9002165360961016,-0.5830368383391091,1.5990507524566349,-0.380271466150119,-1.2185762226486108,-6.565804553453346,-1.3118264338429588,-0.4717210473687723,0.8863517325579362,-0.5269242563150746,-0.20754111575590084
93.0,6.48489156312746,1.1659785699770016,-5.318912993150485,-3.8348978834948078,5.894168359182839,-2.0543198661593713,-0.20403536838476954,-2.5467674216339793,1.624795942217174,-2.4765175361411975,-0.7085618238236381,-0.13380753167517742
94.0,6.891298993603241,2.2348613550916117,-4.656437638511656,-4.577122624408286,5.76941271294395,-1.1881960164925394,0.09816626097102787,-0.37045759684824175,-1.7833775028981826,-1.2586671426567593,-2.3030664489383925,-2.320315046716673
95.0,3.8026201904256958,1.0879787868107038,-2.714641403615011,-2.467805110740582,3.2551042498707683,-0.7896080576251338,0.7275729509604385,1.1914835399394792,-2.426355265821783,-0.4956553489128535,0.1455550279862352,0.1280235509621901
96.0,-4.180974328090177,1.2253840327565522,5.406358360846735,1.5238312822322357,-4.798232937448857,3.2618145940168968,2.268923664901471,2.09206272280142,3.0937176098909758,3.7324148795114556,0.49913839491660733,1.6641937470013803
97.0,-10.182860439835142,-5.934321663707114,4.248538776128054,8.095249284487133,-7.222483201433216,-0.8965152935772415,5.84231103816894,1.4926553711448594,-0.08109821507604342,2.205627993511055,2.0734891092137766,-0.15292838568878575
98.0,-4.221795919866945,-2.388869763559078,1.8329261563079,3.256857322273444,-3.036704609886162,-0.2524119711448989,-1.6084928436951618,-0.6890254730909191,0.13509694403197403,-0.9909504017410928,0.5635754154748939,0.6521689387748839
99.0,-0.7001403280684759,-0.8507286202553017,-0.1505882921868078,0.8035667610597481,-0.20784783219214864,-0.4733908251840961,-2.397860068309262,-1.404368727786894,0.5626673540489573,-1.5024585727475501,-2.139982984212075,0.33873861527928595
100.0,11.293320391954,8.479831610763785,-2.8134887811902125,-9.93484563259681,7.038933331039289,2.8646692933717306,-3.4302208442531925,-0.7308472770188654,-2.272403189916245,-0.6095497534451716,1.4150924233708382,-0.1993011816660961
101.0,7.676603969330959,6.418157605981337,-1.2584463633496357,-7.0106559105812405,4.449437892516275,2.5397196215646822,-3.1603671536028255,-0.7241751117309976,-0.3161956836508538,-1.837884801590827,2.071215153016103,2.892088101115663
102.0,0.03488879635057618,-2.971892524350046,-3.006781320700625,1.4353620278694925,1.497341065858572,-2.941676148115701,4.065519718013215,-0.20152296950575838,1.2851576628668142,-0.8354195623623557,-1.7779635466436894,-2.38921178727922
103.0,-3.2887612841963376,-6.626820032605063,-3.338058748408727,5.013157311826131,-0.006326094365211199,-5.004607585916753,2.1682035412186593,0.9880910792447007,-0.07946091633043328,0.5889291835686042,-3.4865543377873016,-5.389997987411856
104.0,-8.326294569184856,-3.3989322255841556,4.927362343600705,5.847788783189864,-6.588114889528071,0.7484230971630903,1.3047187219142349,1.6039554013517732,2.265416560738536,2.263023833221247,0.5554096860273876,0.15005652141989034
105.0,-0.6830463910135185,2.127431313471709,2.810477704485228,-0.7316275856884498,-1.7176429131135467,2.4551209496780544,-3.3158345133957337,-0.08977001085620251,-1.718351071192018,1.9308700839739226,2.110545656187369,4.417202321912844
106.0,-0.8750864699192191,1.3306735146337338,2.205759984552954,-0.23633210009108074,-1.520269453554052,1.7512746126616099,-0.14220868765313344,0.26070771774029045,-0.5074509615619456,0.6911362926588388,-0.6761832935130779,1.1219578600512932
107.0,1.6174509980651424,0.624494816188383,-0.9929561818767516,-1.1332971114944554,1.2392467873422857,-0.12984336138922714,1.2086867088973228,-3.4433914260006944,-2.1137476292100756,-2.850056951019968,-0.040945019914080116,-2.3740938772049125
108.0,0.5837883374461466,0.6109445391773163,0.027156201731190266,-0.6170686730904764,0.2861146563975674,0.28479738448970593,-0.4481634946137083,1.5533806165803539,2.3029516579308575,-0.5763618758454103,-0.09338701763153356,2.889872520298044
109.0,7.126219700618074,1.9872532605062492,-5.138966440111803,-4.506629947452072,6.138375927218474,-1.5413808706839254,1.0309380977913059,1.0424475944501999,-0.16160693136315918,-1.5803767311622376,2.1925315839430684,-0.2696644341977683
110.0,0.5443182695085644,-2.3935096485958516,-2.9378279181044027,0.8877004117475433,1.748213709732164,-2.7178729507703623,0.07262057078402347,0.7980806594625073,1.8185643982249104,2.37361131127604,2.323206742938624,0.7672049203113886
111.0,-5.583280961237016,-1.5768830940413463,4.006397867195668,3.6160678126251056,-4.783013919217552,1.2370656520728054,-0.5838229110260055,0.7634761441083999,-1.250958602942909,-0.7751269581433791,-4.274117418984554,-5.0527034799135775
112.0,-2.6121049277198463,0.5445271254499324,3.1566320531697745,1.0669214597943015,-2.8652021182846594,1.8729659533790806,-0.8731961694164202,-2.7183978976155236,-0.4535734004331724,1.97453088689646,-0.7599104609349321,0.8575318041483295
113.0,-2.707289321164418,-1.101387177764935,1.6059021433994796,1.858441084798196,-2.207433921935924,0.2785454244084794,1.987987067776641,0.44767283588520446,0.8548143903535947,-0.29954614166893057,0.9491248819612186,2.5142965156772656
114.0,5.26366110617748,2.471326820030898,-2.792334286146586,-3.912196464913179,4.0645203245597985,-0.2066713495791076,-2.6982897989666386,-2.5795748661733438,-1.2707317363009247,0.7211456258208184,-1.6626924155813383,-2.122300976354081
115.0,2.9393962318120685,3.5681305103186207,0.6287342785065566,-3.218246860848896,1.1201529106218158,2.0590523279388053,-0.8416207688142676,1.2197028160500323,-1.9032594287092315,-4.242714242783668,1.5906560876927416,2.5985042814812154
116.0,0.24070651431209478,-1.223608109043543,-1.4643146233556295,0.5277863396307392,0.9005976403880268,-1.299128100812828,0.8875801643463694,0.26429181304768934,0.4538690920082169,-0.4824557330380075,-0.31513043757858883,-2.3219502014412936
117.0,-0.19719914687472484,-3.0912965799685357,-2.8940974330938,1.6014644281559651,1.3194509778619326,-2.9450422165398265,1.7794949349256044,3.5033924199678412,2.09162000188663,1.53472144622514,-0.15232217348305638,-1.281340975309795
118.0,0.5391783815372265,-0.896651114171175,-1.4358294957083881,0.2129784830964787,0.9577079723455975,-1.1977075621590985,0.8884335733158086,1.4749607450547768,1.4488480010655689,1.2346996922163536,0.8771559223935809,2.4934382527860097
119.0,-3.4806669144036317,-0.1364127307412728,3.34425418366237,1.7611450705499208,-3.3657987435194903,1.569304901171827,1.2591517721842558,0.9819275666877173,3.0251191103505466,3.4706066328609206,3.187273312947732,4.257644060682692
120.0,-4.179330054625469,0.6478494257400651,4.827179480365533,1.7935835534654543,-4.537881743609221,2.698420390654986,-2.3391522977079684,-5.211945446391865,-4.648457036686054,0.07741324008090511,-2.3638083262214176,-1.7530732043723607
121.0,-2.6122333429258116,-1.1726795774158285,1.4395537655099764,1.9169514513239772,-1.9834272599959117,0.1694288488726612,-1.9355496946826074,-4.241819428843335,-3.9057038578306345,-2.9940867976175727,-1.0273677630993248,-3.6671483130868454
122.0,2.0929725255496616,3.2140470543444173,1.1210745287947481,-2.7100885341697154,0.44956315844940486,2.202731954853716,1.0304632198124528,1.1889679186428603,2.660014622584583,-0.23198679188400861,-0.2291134304662864,-0.863181006741859
123.0,6.836664513671696,1.8503072438083492,-4.986357269863342,-4.321902136016232,5.95541288635317,-1.5298673279752066,0.010011261122331541,3.046810638640267,1.0415085157226358,-2.217454891164087,0.27458348223712636,0.9862631913458682
124.0,2.565606288306579,-4.985104690387331,-7.550710978693895,1.2328369130805559,5.026099160426583,-6.302333324090574,0.528153683614392,2.696423164419488,2.1835667502292453,-2.1881546607129785,0.5624479304448456,-0.30440337094678704
125.0,2.3075644883236204,0.3755299829821337,-1.9320345053414663,-1.3149828634576362,2.0911878027466058,-0.8053113656854962,1.2732619416699507,0.40485536078990303,-2.311312441916468,2.1950834407231996,-3.5567518913075786,-0.8057042244203858
126.0,-1.9802932713968624,1.301227932176905,3.2815212035737957,0.2922686861606054,-2.577180217262157,2.270378910519285,-0.7280432379020559,-1.4189811623610336,-0.837846794772672,1.9764057103026391,-1.2339667687480997,1.7163870226550475
127.0,-7.602493838116325,0.7079810176765584,8.310474855792913,3.4056612925552896,-7.9780776528505895,4.56967001240883,-2.1038736303720986,-0.9127866078897775,2.132052165163903,3.2444822370726385,3.865702142827588,1.4000266447331344
128.0,-3.4343398015769737,-0.8412791890530423,2.593060612523959,2.18074989695774,-3.0321244880616383,0.8559303716038862,-0.25418755806757376,-2.0864874304783467,-0.24676955797151578,-0.5120336251538118,2.5891250019209644,0.12424816358839119
129.0,0.6301362838931679,1.4971187798579793,0.8669824959648182,-1.015276720335115,-0.13399082461781742,1.156516722988203,2.673488908235946,1.7497389467942637,0.7718431378527951,1.0436702793883819,4.8004251201332355,3.084640457884184
130.0,7.1214689439478995,2.729618729841748,-4.391850214106162,-4.951292127674744,5.822169207211488,-0.8644743725798882,-0.41632828243304965,0.5935225277345967,-3.3802392937182892,-5.941941476771889,-3.750402229339361,-4.312115871408731
131.0,3.55707261152736,-2.1159971205773624,-5.673069732104731,-0.7426097021602687,4.603087425711363,-3.8568404829300067,0.45052910436809634,-2.0231319278249,0.6359254020078097,-1.1410068523830175,-6.0323420461899815,-3.1279780408204716
132.0,-1.2176755459952169,-4.021403448410254,-2.803727902415029,2.6003041498083217,0.7804281520977177,-3.380209127390623,-0.13337203358651964,1.6449185181586699,-0.14521839866838787,1.667095596235504,-0.3644497915481395,2.3297472935594565
133.0,-2.8461417159106834,-0.9972604540330356,1.8488812618776724,1.9050178162467857,-2.363301391364355,0.4564776647508797,0.06130962440336701,1.0055845725491097,0.9569409085769195,0.9030908625517526,0.787357599546159,1.2412393868722265
134.0,-3.1253453031278955,0.834157554394928,3.959502857522849,1.2106498169895683,-3.5641350747064933,2.350696630685364,-1.1848084285340577,0.6644887236579455,2.1874693213866694,1.6237591410196128,1.0546894512235108,-1.0628685005000682
135.0,-2.223541491145528,2.296648723629644,4.520190214775186,-0.04643192984662359,-3.3227977497748764,3.3668444185033017,-1.3629535189352868,-1.4561837247844216,0.2579402675438516,1.5978027404924524,1.6539655326321676,-0.48353963556446267
136.0,1.161163719849488,0.17204421698563777,-0.98911950286384,-0.6721896717529694,1.0368688953277043,-0.3656207712425883,0.6461269865304564,-1.4852828834292526,-2.712927733328981,-2.114684399956692,-0.3143497007520446,-0.2115662889450332
137.0,3.254415887394681,-1.1148136196300316,-4.369229507024704,-1.0717213641186927,3.8448794877447097,-2.7722044061720497,2.52644099951508,0.04085792704850433,0.3775450338355273,-0.23738578487281425,0.30897653714277984,1.0162939955151595
138.0,1.0470392697609048,6.482330821002588,5.435291551241692,-3.765016936789278,-2.244460380576887,6.012064193763546,-1.485665628613492,1.1992729382273428,1.683259852807361,-1.0010395069097675,1.250402673335455,1.4706118226478375
139.0,2.3984050894568494,-0.9758072474289579,-3.3742123368858086,-0.7132922183502128,2.913747621410325,-2.197226628337938,-0.4510549252548808,0.42676581490855936,-0.4184747865496172,1.568197639901236,0.6904850880602114,2.5733527377115024
140.0,-3.17069220906824,-7.379431434112887,-4.208739225044665,5.2678193549015235,0.5489126788203312,-5.814464296965911,2.7232349265624385,2.5144538065834072,-2.5398463095740125,-0.02758057729134772,0.960864329676705,-0.01830168782230568
141.0,-1.468060239774152,-3.573155875734005,-2.1050956359598736,2.5052807298529336,0.35287422759898934,-2.8587782168417224,0.2844137577530076,-1.2198723045503026,-0.20584874175460666,-0.5891053588526209,-4.258360940061217,-4.960226168345882
142.0,2.9743030487446616,6.411314173078283,3.4370111243336114,-4.717401316652938,-0.27138002447297843,4.983454518128345,-4.74385901155234,-4.715997561371298,-0.797126003173122,-2.3790416839665767,-3.685258200181096,-2.7371432445915582
143.0,-3.234331161934123,3.6384896909548923,6.872820852889,-0.15642427166816764,-5.091258592560672,5.236457363001165,-1.2226808988912892,-0.5505994366712801,2.213209105291084,0.13072606953594024,1.6973390052093353,0.7877705833977113
144.0,0.909030316471227,-1.3328268565716401,-2.241857173042897,0.25124095848398076,1.5372376051287477,-1.8058413284984738,1.8898296429709545,2.233708473760665,2.560128196648755,3.0436643753442807,4.2967233861730545,2.477263447305617
145.0,2.525872303883714,-1.0592214793705153,-3.5850937832542584,-0.7765332674747496,3.0931940110218634,-2.3395219778144427,0.83414847313805,1.9951348684240318,2.075200418237995,2.591182229516196,2.597469121230031,2.4674249240932227
146.0,1.848043157064449,-1.744594892192281,-3.592638049256748,-0.0182870028114967,2.754396324949318,-2.606063784984064,4.2152900526240735,2.2047807250235723,-3.4948717911390936,-2.5408983485346157,-4.272196992533534,-0.5086599043779951
147.0,-6.024289887008107,-1.7952699050539456,4.229019981954162,3.8626492154768433,-5.095592310445063,1.2011636944824435,-1.6985021606905364,-0.41180197588422995,-4.599023024602546,-3.0236263038481717,-1.6276844453322505,-1.6437835755548371
148.0,-2.4762231697020773,-0.8079478812439091,1.6682752884581948,1.670991051081462,-2.1215583732754997,0.41348149234157583,-0.8326237731609876,-0.5787425522998491,2.96382630786684,0.8221091864009014,1.0641719997570094,1.879654017296995
149.0,-1.5399193721548343,0.36385569561042075,1.9037750677653045,0.5342795106265701,-1.6929121129858404,1.1142257673811948,0.7915041027846119,-2.8264685459895187,1.0720652780388404,2.5173337030281466,2.7847713005257684,0.824922350470631
150.0,2.3789846663540493,3.441539315142089,1.0625546487880981,-2.8895961984358003,0.6081594336471716,2.22770368691268,-1.3745607060261265,-3.1417118689393266,-0.0038772906221417047,-0.7952039287317938,-1.1607944148792657,-4.797021433922803
151.0,7.511007615847447,4.2781577559110415,-3.2328498599363558,-5.877202447793707,5.399795302156592,0.5710975382358934,-4.495695132729862,1.3091602373391138,-0.21112676159622207,0.16086948547679583,0.5577257259055866,-0.33548365268467406
152.0,3.2955872281077783,1.492391378234971,-1.8031958498727823,-2.3773890158446704,2.5754802427268544,-0.11325687527450345,0.4111702481560253,3.972817861735477,1.606022557906475,-0.9164376539492995,-0.7435639044480135,3.1928175238136776
153.0,-0.8223531789565128,-6.299501096221885,-5.477147917265388,3.5800327728579173,2.2723697968364074,-5.9307887634178895,2.9123939431320722,0.9803028438671848,-0.6457076384639096,0.24661952498924833,-2.54690190562334,0.11519631366972849
154.0,-7.371451408831503,-6.173561598990508,1.1978898098409736,6.718459222912831,-4.262851968577475,-2.5351799440229863,3.925564282693074,1.1772671804619326,-2.6606483766471367,-0.3985684566443157,-0.8855621282118374,0.9429565249371392
155.0,2.8131304556333223,1.9863765329402807,-0.8267539226930556,-2.367378724974908,1.8417761839812505,0.6076681687298737,0.024220871168551206,-3.3375156778059116,0.9797965851749348,0.19929354702564342,3.0210736913354514,-1.1893640645417483
156.0,-1.8815233559163143,6.97129181720898,8.852815173125297,-2.5829494201997303,-5.420776221642244,7.937868707369618,-3.5431618494361894,-3.478008539627062,-0.5275968514719112,-2.1691898136341603,-0.26976858846349505,-0.42733204039597433
157.0,-6.7822936047750355,-0.21843479069155602,6.563858814083499,3.548544312821816,-6.640618121306698,3.197923510351635,-0.7175106654852352,2.293069570378901,1.0419187783314632,3.5121901643263636,4.138010493340623,0.2611790169048144
158.0,-0.1835991569228781,-1.375090816334279,-1.1914916594113811,0.7542635173361512,0.5472927315521967,-1.3363204835488705,1.24713516974212,0.5684476150703006,0.7723010228224707,0.14320146447487836,-0.9085199448035641,2.0412098711497464
159.0,9.525437241642942,-2.6239867620215285,-12.149424003664436,-3.473103870350136,10.814755864019501,-7.359769173969011,0.267853878798149,1.24492864184211,-0.20372116587766725,-0.3245973618701965,-4.400763907095514,-4.564497396153898
160.0,0.09768079431667953,-0.5891232358424462,-0.6868040301590739,0.30171885952506194,0.3814424361797242,-0.6880957852426643,-1.1555982502790834,1.2692104019168555,2.4675428254792666,2.038135358810689,-1.275010305389962,1.5971147249191906
161.0,-1.013632836980939,-2.1232459333157623,-1.1096130963347726,1.542458244910161,0.045343805888387934,-1.585643861202658,0.7754788000750155,0.38365170308002894,-2.0205682489726384,-3.692449156362012,0.7106441541202004,-1.5802050089028716
162.0,-2.331355939475329,3.34115610825308,5.672512047728436,-0.536245872289469,-4.002237010629235,4.540387779259131,1.561724535398483,-1.5191588952329402,0.2860173739395532,0.7869018244976642,2.2415431769073573,3.3338943505635172
163.0,2.313673744139206,1.9747397801817617,-0.3389339639574369,-2.1031688449910457,1.3219664761753274,0.7759855765098078,-2.6159076784842097,-2.2964292096490393,-3.327841069553591,-2.6212187260061337,-0.1991449717242737,0.6417342216895221
164.0,2.012808051747466,3.7061525307643457,1.6933444790168806,-2.9032222724224743,0.1462058995347454,2.7398873687456877,-0.4144240338120224,-2.3990073673290233,-2.2829454949663655,-0.5360736131937709,0.09578579954323563,-1.5041411781475775
165.0,-1.5057675313628023,1.3185236182064597,2.8242911495692726,0.12412582908667336,-2.190194140970644,2.0353191548642946,0.9470046596170008,2.052572923142054,2.3051008805670214,2.541047147326017,0.9515868993726093,1.6559089426925264
166.0,-3.041705454397467,-1.8448720397266642,1.1968334146708342,2.4714651434082024,-2.076411663817492,-0.2804465149048155,0.38589599827192195,1.415885057539456,4.7941710544940435,0.9816506636032944,-0.8284830244384543,-0.4352398818111218
167.0,-2.319877226667427,-6.81055852542125,-4.490681298753781,4.514358228694531,1.1213956076778253,-5.686934006870641,1.1967144498901359,5.057080469546048,0.9134539133289139,3.535485949707254,1.7380298449820586,-1.2944312256512784
168.0,-0.009990067701011407,-9.860358831157223,-9.850368763456162,4.963931918661677,4.876072808052517,-9.894591066428793,1.2773467273057009,-1.2146189098588196,-0.9417924465936092,-1.1936473488652215,-3.7573307337737365,-2.3761629824565764
169.0,2.5444445492190644,2.0190016683489413,-0.5254428808700728,-2.2522545667144627,1.5736760199878286,0.7826151508975703,-1.336746275249089,-2.834653902337868,-2.841582719284153,-2.3392053501438705,0.5399720493954485,1.291553186227859
170.0,0.5371658986045491,9.983670110486242,9.446504211881733,-5.310336605282885,-4.48662923116243,9.747849655645014,-2.126513149123745,-2.7154108178670757,-1.6632108526617502,-0.7001732652999804,0.5587240646105521,1.08776163308071
171.0,3.214186737031466,7.443568826891646,4.229382089860202,-5.302533871552128,-0.5298821128230922,5.789234151973728,0.5074225255394438,-0.38261680279438526,-0.3719853502489425,-2.664243255606211,0.38484028285502003,-0.6916031381438822
172.0,0.5619464595362098,2.1835026716884207,1.6215562121522242,-1.4289130539611703,-0.5433251041010133,1.9351407441915232,-2.611579842499107,-0.772054971295109,0.18029466497007313,-0.00506620559424964,1.451383581578067,0.580786365896054
173.0,-2.8306433975907055,-0.681984077907258,2.1486593196834454,1.7753303726811667,-2.418833834022109,0.7691178115740428,2.558989074130705,2.894169005577071,1.5281391039811245,1.2687945988420029,-2.206554122327215,-1.4398050889811087
174.0,-2.6638233857844913,-7.646271416391526,-4.9824480306070305,5.172662016111966,1.1520620705263318,-6.35297467531501,1.876938078916889,3.351986913905849,3.273997071881334,4.147733150887623,2.9750428201351173,4.393120972816147
175.0,1.5533099667211963,-8.139382722154101,-9.692692688875297,3.3127652262681697,5.610619049627829,-8.950090833926138,1.4628134421855035,0.33012032703791316,1.7842387307869236,1.9579976534911965,-0.6132221166301131,-1.3197014114157681
176.0,0.1363650860667543,-3.2377394640958475,-3.3741045501625964,1.5761349507320572,1.732208079525915,-3.335855213759954,-1.4714241058394673,-2.1425754357180162,-3.3436202669496256,-4.031893434017365,-2.6683366908290784,0.6708105472156318
177.0,-0.09949382880827601,5.9162313075731365,6.0157251363814055,-2.953723579099779,-3.0949881293604595,6.018202864511766,-3.179890861457319,-2.93736337994991,-4.496904119484778,-1.593428520092932,-1.3396296246436274,-2.205500644774103
178.0,3.555636017532699,6.649499822005004,3.0938638044723046,-5.061318197617372,0.2573416414690297,4.926360085394904,1.296313936145566,1.600837148094155,2.05035657980506,0.7049718832388924,1.963295797775138,-0.6856664868079991
179.0,-1.7790501677587836,3.504358966913844,5.283409134672634,-0.8946789669567559,-3.5165632534238176,4.370717608039308,0.5228393788785749,-1.035844623686079,0.10261761782789358,-0.3091022374465232,2.378627738572226,-2.0327431698061527
180.0,-2.679158239311007,-0.5480365406224768,2.131121698688534,1.5833980460694628,-2.396091181881219,0.7668120377717145,-0.7079447620877463,-2.497653385259387,-0.8091022808111649,-1.6148315298671188,-2.1573770684749674,0.053715267500606845
181.0,-3.066345127830517,-5.129618705886626,-2.0632735780561067,4.06620272197104,-0.4906212010930602,-3.6259586650168365,2.5635341576461426,5.283772984805701,3.3230486539141144,2.8234754433660165,1.175535063176115,2.694923214564279
182.0,2.3398032251218743,-1.8592659338029454,-4.199069158924834,-0.196768567268508,3.2887805868859807,-2.9878873652576896,0.5098066938070132,0.7510888151693618,1.7870086238626257,1.0639429707663397,-1.516620380939621,-0.4469998186828852
183.0,0.1835026399939228,-2.7692311407190147,-2.952733780712968,1.3329059442878874,1.5208585659536302,-2.908455992491248,-1.2234175366288462,-0.0556343815734488,-1.5760944589137311,0.6394669994168862,0.8235902688849142,3.089036739746487
184.0,2.595922504426981,1.8091643721409854,-0.7867581322860357,-2.1646383081538008,1.7348976188883107,0.5324184305534301,-4.487349847828673,-0.6582989099205676,-1.2556592055575915,-1.5242718808742717,0.915833871583982,-1.3327811370826255
185.0,3.9505537944508298,3.088144615357135,-0.8624091790937088,-3.5607622718689385,2.379831061997402,1.1261711167389252,1.379587380586245,-3.145324179451397,-0.872012775617673,-0.8049819782143339,-0.6766615299373607,-1.736237120808912
186.0,3.083603657326517,4.67324548715385,1.589641829827327,-3.919382525957901,0.7234143097653372,3.140646435600785,0.776078335987071,-1.6667391129208982,-1.455684572486006,-0.7452923897447793,1.3490852445815467,2.411043860203066
187.0,-3.973967411160496,1.9433330598333192,5.917300470993828,0.9751595688970289,-4.97137508263426,3.939812912123771,1.3859255642619555,-0.3810058068811145,0.6309056298715162,-1.682601394378234,-2.4451905862710444,-2.389914645019781
188.0,-7.245616801179341,-7.789563744561577,-0.5439469433822222,7.556951150756491,-3.303091548839467,-4.153128942792958,2.77062282389087,3.826383046829104,1.708558113506689,2.24188653216437,-0.9210039710709879,-0.8977727627550479
189.0,-3.2474694681066687,-1.5322032894635047,1.7152661786431624,2.429753749554726,-2.517516390905444,0.03309958481163067,1.2293806578193451,4.579260158335457,1.7605419261449005,3.841366357409874,0.7930029367393004,1.634252151663715
190.0,0.5136960815620542,-3.7553267805313437,-4.269022862093412,1.6607036326489981,2.431892166919299,-3.98394913278062,-1.3379225420420429,-0.645183271027093,-2.074065823989355,-2.3401925529431256,1.2803700991009663,-0.8327873073847023
191.0,1.0298910197077702,0.5355179325188864,-0.49437308718890227,-0.8228849242412909,0.8052038519707287,-0.021747823921543175,-4.426199577426386,-4.356818440098023,-0.2547971605632934,-1.294994745408084,-0.36248532612906426,0.13156310499276164
192.0,6.650586030492105,5.190853857454373,-1.4597321730377355,-5.964142194286747,4.02625015231009,1.910078113543276,-4.269075664852959,-2.8461311376281158,-1.091618555735797,-2.114424133480613,-0.6446333516376632,-2.3991683930051853
193.0,5.34938673851552,2.7316718394729227,-2.6177148990425954,-4.010238988990677,3.963696240698355,0.030486847518485183,2.72155585639052,-0.5301118733454686,1.2270966505896794,0.7646438395520767,1.3460867930703946,2.4416529839727747
194.0,6.198003333911528,7.356652709229961,1.1586493753184182,-6.831311548569912,2.5086095283720184,4.316807078481343,2.410278424324688,1.714362261101963,1.2827995316203467,1.2485158026910734,-0.3287087125764083,0.7014684136266175
195.0,-7.479338814175902,-3.666650605289298,3.8126882088865903,5.593982243891614,-5.650666280677193,0.058498321849798085,3.9275761411223,3.9816357934867606,1.3441793232869141,4.403554340643683,1.7108296913992715,1.2651964385132464
196.0,-15.022529242997724,-10.660970843336095,4.3615583996616225,12.862931828494425,-9.693661723386548,-3.162203301124188,2.3987991706933585,0.8082980303646874,-0.25104731857835316,-1.587935270493075,-1.413082524599146,1.1876800153057336
197.0,-0.5532999927878475,-0.49869545116397607,0.054604541623881175,0.5524100034842041,-0.30579297092802804,-0.23642529259905531,-4.067169286897755,-1.387224603611377,-3.8479981750309507,-4.459450214102037,-2.9732969568044965,-1.0334928608258944
198.0,7.281991503207511,1.397997378995385,-5.8839941242121006,-4.304195087492063,6.578448301899177,-2.263025543060631,-0.6064111972802246,-1.618693464993582,-1.8204759148091536,-0.7441418978057339,3.3378405762837624,-2.219094900738119
199.0,2.466030752240026,2.7258308756360417,0.2598001233960541,-2.628065729633369,1.1729211819189325,1.4647208829381886,-4.1545201349510075,-1.9196727201231563,1.2643741637909203,1.0920376710797894,-1.7778706735843912,-2.286776063805159
