Time(ms),I,II,III,aVR,aVL,aVF,V1,V2,V3,V4,V5,V6
-200.0,2.1219453128799355,9.724050699226467,7.602105386346482,-5.941566027303734,-2.731593673382106,8.629247583383927,-4.934098912264424,-6.745449761641967,-2.111556891430391,-0.22458671395353758,2.8975100842674837,-1.6033346620970146
-199.0,11.657044367219736,0.7251864426265868,-10.931857924593317,-6.211444486271392,11.308451724195994,-5.132699576880145,2.6028810082300664,2.77897672581714,2.3768157240448042,1.6428683327583324,2.4919545773383813,-0.7344057655820004
-198.0,13.47169592749268,9.427678776262642,-4.044017151230442,-11.475273316245932,8.780583743489078,2.664906421910179,-4.85016933448953,-0.7858151783841745,-0.029104393762011238,3.2453813135043195,3.914943770275392,5.826401424725925
-197.0,5.827555564000734,0.5338989851528031,-5.293656578848216,-3.213395860038214,5.514164448732752,-2.3265433790148213,-5.2673515680048,-0.07974152558541081,0.494681866562507,1.5842292254582935,-3.7844013252496627,-2.1035980821404756
-196.0,-10.447469189252825,-12.490612757911832,-2.0431435686590875,11.508884163123987,-4.162196131142674,-7.2117698772794325,4.286465715829472,-2.3530342200784764,-6.082784360967845,-8.491537337689692,-5.816438434551451,-5.126787558256185
-195.0,-5.9864183366595185,-6.065064302817277,-0.07864596615718789,6.062747854056823,-2.9892067883650655,-3.092995231959535,-4.208846630817043,-9.506069616857381,-8.27886935334675,-3.607778411832485,-1.3363135312814478,1.455469514881003
-194.0,-7.575292727880237,7.5258685965979994,15.101161324479122,0.06357492054772695,-11.375279387926996,11.295098745780553,2.3301452693444142,-1.7988483777982878,0.31442527502938056,0.2663236606426065,2.966026076319319,4.077830795185276
-193.0,-8.678743402222993,4.666865554245307,13.34560895646913,1.972092031094602,-10.976823489455995,8.989725784593126,3.8696290891262466,3.6722479070030447,6.329786058029278,5.807740146196675,2.963507448118804,-2.903473278293392
-192.0,-4.594507729381874,-1.3476013898755137,3.2469063395065265,2.94550021691581,-3.894397321039448,0.9333816967661779,0.9266331553123424,5.210213455733461,3.8254802105521026,-0.07359046786506207,-1.2336725696191102,-1.119676831395367
-191.0,14.083667653058958,3.4584921160894493,-10.625175536970055,-8.788441238092243,12.371623294789906,-3.60119764307444,-1.7587356983648668,8.301254530153104,4.498089433824166,3.757896182670898,-0.481510986607419,2.6913920396553976
-190.0,10.50982293442442,-4.723120454884966,-15.232943389310288,-2.9044077728386766,12.80333589853371,-9.920076794376344,3.264495893116793,5.217337978132755,3.373156376632352,0.6792767776323654,2.060307897444686,3.795147816644168
-189.0,19.002823313888214,-7.741361423853712,-26.744184737742806,-5.638165201031275,22.882466568743578,-17.267226417460215,1.2203554690223906,5.458096565207554,2.3089685735953323,-1.973916001467822,-3.2961672657811896,-5.721851257659878
-188.0,4.633094565150409,-10.163634339874083,-14.796728905025002,2.8375085213521474,9.728026746017761,-12.429971805474471,5.170954379459447,-0.7358497255147411,-0.9784022046181278,-0.04444896538855003,1.3742564845864167,-2.462828700709675
-187.0,-16.73327088448743,7.351764223214904,24.085035107702318,4.682701814536584,-20.386317530753374,15.685124995097949,-1.9779511614960583,-11.737423030468513,-8.712156973463948,-2.445794366400805,-0.004156893252179092,-0.2836982720506678
-186.0,-25.567686604808124,13.404381148565095,38.97206775337354,6.069740173047763,-32.23374096923721,26.149109365671936,-7.770233445287819,-14.838802114636362,-11.58759566640795,-5.932681424522182,-3.0466623237404584,-0.6453296040197335
-185.0,-10.06573960326613,6.339653500332653,16.405393103599177,1.8450817753935636,-13.264624316579924,11.405016304227075,-10.914487146155922,-8.863128907558659,-2.6967021887864986,-0.9637367343620431,-1.5246378696580123,-1.775597208122495
-184.0,4.24628080496689,-4.271217362836489,-8.517498167803133,-0.013230640967091256,6.3629134788448365,-6.369833323772118,-0.03546855833480045,10.990079722555492,11.057507256731924,10.225210741917294,5.852158463545687,5.869099056584981
-183.0,19.279872534044472,4.681782205650031,-14.598090328394438,-11.93604639076889,16.923716069732876,-5.019928186261575,10.850757398916123,9.787003515967204,8.577426499146036,6.05959439376975,5.722465315520815,9.274730642239087
-182.0,16.41919244376268,0.36703038377971176,-16.052162059983104,-8.434138572301507,16.21668182422723,-7.830954664329578,-0.9922859572595719,2.8407873190109,1.4348014796848938,0.9444126994682294,4.413091052995239,6.528118712252681
-181.0,-0.7950141454994029,-11.807698764126563,-11.012684618627349,6.335110068355864,5.158500735580075,-11.400050471446285,-5.612553518960855,-6.862567710086479,-6.503445280011361,-6.75092307560477,-0.12172921608041731,-1.172197719213309
-180.0,-15.55517645985862,-12.365454228957255,3.189722230901266,13.91577528603418,-9.415188837387618,-4.574386488702168,4.999495084791608,-1.4747663951976473,-8.783539807622631,-10.133600080114242,-13.85477398928321,-15.755352489930939
-179.0,-4.300760321428433,-3.2653790645171386,1.0353812569111762,3.8223080049139044,-2.6457424144216457,-1.093869372608977,9.419021549921204,6.574419975557379,0.7883756681229848,-8.082964512946928,-12.574740757543719,-13.904028634323094
-178.0,-0.9935916408047092,1.9724470906089855,2.96603873141391,-0.4419900251255058,-1.9680252084375898,2.500326509730686,7.25967211637559,9.465948352768715,6.127000435030385,-0.25828428423715577,-7.1420081289166735,-5.615432528136543
-177.0,4.626740255038111,7.732329019977838,3.105588764940115,-6.202227419734147,0.7668736541758836,5.380645852873317,-2.1058749192957325,3.1770467548983277,5.174837870520582,6.29773349904356,4.722812837358669,-0.9604049502747347
-176.0,8.847954219821075,12.666542015968627,3.8185877961478853,-10.774146288377457,2.5207499688390014,8.210353023548787,-4.727083421664469,3.083488480695173,12.637266459221145,22.116244931172666,20.823704863410594,18.141255279071935
-175.0,-0.0071326515484000375,10.462820606134745,10.4699532576832,-5.244240579135217,-5.228751408809137,10.435769456295041,-12.364829747036389,-13.126833145210554,-1.6409774004432367,13.65825492636128,20.342205545726056,23.142127409929348
-174.0,-12.112888742184786,-2.3413046146805323,9.771584127503916,7.205337662535516,-11.005697558903128,3.76102418546194,-1.4444252494080283,-17.343539249346655,-17.857634217912963,-11.585407301571642,1.104967703778314,2.316541741720222
-173.0,-2.120547354073006,-4.146889612371269,-2.0263422582989197,3.102433799550492,-0.026801107183991313,-3.1233859946294897,-6.08168698984461,-9.427530438533868,-10.149327347936278,-17.646413963584195,-13.559010198182541,-7.81707965009924
-172.0,3.2118230359063102,-10.871931692821256,-14.083754728728032,3.8671592624273985,8.670920598029923,-12.438827866778205,-1.4985591467172124,3.657564499810217,-2.0268190675221422,-9.866749122326002,-17.65847219583538,-14.25125576923513
-171.0,3.9080644728993947,-4.207458089492932,-8.115522562392535,0.17913500567523633,6.03474540700501,-6.122760459420629,2.149482590643143,8.560370673184018,6.4895135331929525,-0.21414760611178085,-3.1239076491141144,-4.053243881192282
-170.0,0.36267886404970984,-0.5501098683013526,-0.9127887323508608,0.12036558751715043,0.5788386200439595,-0.7690106790730766,10.099851332586717,13.277073414529092,7.729699128139494,6.539247969681405,2.69659236256654,-0.01359460319597705
-169.0,-2.5242538568227504,-3.481330711974014,-0.957076855150963,3.031494467611214,-0.7688376665638403,-2.174412889748831,14.73568317033077,14.908007150705005,11.445319390069418,8.240058542306677,1.440717274490066,-3.540811156237214
-168.0,-0.9027883544875617,-7.7581036883279335,-6.855315333840121,4.285258947921635,2.9853758914190975,-7.338368568365813,4.98556581744085,1.3900308658241114,-1.2204362768989903,0.3242638511992686,-1.2020485617821084,-3.703740497900154
-167.0,5.1183492461237545,10.784796775839313,5.666447529715641,-7.991944782217744,-0.2695008011005422,8.19290956528197,-7.071590526066554,-9.753417666247966,-7.886495892583746,-2.3591668724395305,4.249555113946131,7.933180943200532
-166.0,0.6883349542689196,6.689505698170606,6.001170743901619,-3.726787177099887,-2.654108213148395,6.307613735735453,-8.243934716558446,-10.371462623426083,-4.731552991509154,-6.173414608838507,-0.7005891831967173,1.8664688924362576
-165.0,6.876209954318435,6.024304009434934,-0.8519059448836082,-6.409984685184212,3.8669815945184567,2.6194254396371237,-5.98348249318316,-3.9801811029036394,1.4595666207418452,3.6702011445666365,-0.2392472851890428,-0.2944678208694107
-164.0,4.08803648430202,3.884336614615075,-0.20369986968701026,-3.949005258224359,2.1519742917693168,1.8653502515224911,-5.920417150706881,1.1684968609020636,4.755711821088947,7.987602936723345,6.567441980186069,2.8495680951352247
-163.0,-16.991901168165526,0.6576922342571829,17.64959340242269,8.200153789959487,-17.30977651598411,9.17259631322783,1.6386433706848416,-3.1941191256533377,-1.2676800190841777,4.99316927307212,10.610418195397925,7.1204043674736175
-162.0,-15.523725797516661,-0.4429753690776099,15.080750428438968,7.934032703826599,-15.36457059209807,7.33548966542949,0.6125934207958017,-2.777511355876002,-4.1626297442307205,-2.3817703354967055,3.0043039814504553,7.993832568880679
-161.0,0.8610082259679173,-4.654688236313383,-5.515696462281349,1.8457013876879023,3.209845706341622,-5.145704343382898,-1.4505689939961801,-0.09951990337241234,-4.82618275651918,-9.698183009114002,-9.077122645377687,-4.356412383107857
-160.0,27.20704402423551,-4.897158918905125,-32.10420294314054,-11.126532928289453,29.6811710326525,-18.477713215932184,2.8911665119741015,7.0413750986189,2.330189177599013,-5.491190350244797,-10.756360234249234,-11.79856216178214
-159.0,6.1308321082207495,-9.743824563138077,-15.874656671358567,1.8384608975150938,11.030926504184087,-12.77992002748669,10.150691736074638,11.959067030342467,9.926775506007607,3.7505657214724057,-7.38046440870295,-8.021941506371768
-158.0,-18.025871547691757,-17.697401631310523,0.3284699163815077,17.89910941987406,-9.22674097549226,-8.727353852996105,11.678085529264575,5.834287334107466,2.4102441174500004,-1.5385065180257966,-4.418133675056557,-7.3568044489222615
-157.0,-5.133562131815575,0.9856233778893966,6.119185509704993,2.038418408618096,-5.597810587856696,3.5152572135743956,-2.0986528434068226,-3.9985756523873306,-2.0679216006859558,2.5990032071484848,2.3976640107140073,1.5829316830969762
-156.0,2.7745662898478587,17.18124836170058,14.406682071852106,-10.009675810315002,-5.868079574187725,15.840046771868678,-10.89432014801326,-12.424718177434785,-8.737116308662214,-1.68878139892325,7.1905928097718625,9.365692194062227
-155.0,12.113501154930029,29.41393912066576,17.300437965734943,-20.716625521629688,-2.569018850541509,23.406338413215522,-8.658237779218773,-4.647864547373943,-2.124964242683049,4.965616178750494,14.159213327276884,15.488727777797738
-154.0,-2.074843044580856,5.985623083159316,8.060466127739849,-1.9910815391328764,-5.045008869027759,6.994983664249956,-5.613114500244889,-0.5678071865504526,2.2224484712302637,4.6578625660536215,6.840655770686493,3.8015110659398488
-153.0,-11.189892208223249,-21.12030393583464,-9.930411727611098,16.112346030091352,-0.6077264206256868,-15.553575122386988,5.370158645151819,2.341537143206179,3.561729138938174,-0.6407345880146194,-6.710114198052825,-10.946379072818878
-152.0,-3.5657476436532045,-11.452895164449025,-7.887147520795225,7.537667725757245,2.104721662751084,-9.700141101712696,5.492486807855963,1.428744705966797,2.296540238934978,-5.0143206803087095,-10.094792759265365,-10.893977605148859
-151.0,6.4738229624961265,-0.4800960347584997,-6.953918997253991,-2.9739141092465067,6.73853445667342,-3.67178218570289,-2.2172749341241493,4.021226269831564,-0.6427424450358474,-2.2786082608132125,-6.921389093512057,-2.9595640070715854
-150.0,5.48424534930663,-4.65720971967736,-10.141455068983614,-0.3915952467280266,7.840037149222519,-7.358474463019098,1.916982745189368,-0.3701291563824318,-4.240982638083709,-2.208113824003167,-2.1663106852543317,3.7189698724034024
-149.0,7.216781043834089,10.497795141308039,3.2810140974740545,-8.83148357801056,1.919033570635225,6.846898601332527,-1.8680620017132972,-3.110002568356691,-1.3432150159057061,0.6165585324240594,10.3655701008211,16.694360236853306
-148.0,5.556094434623093,12.021758600974488,6.465664166351186,-8.834251058002257,-0.4221070789198356,9.197140819170263,-1.5393104017211987,-1.0049260799974882,0.6547725016513288,4.356974315661239,7.679952731051304,6.22505591218368
-147.0,-9.017778722417527,-5.114010462639098,3.903768259778185,7.029644120855914,-6.5037063887198565,-0.5756634180531144,6.737574450124185,5.226494381023956,6.235562524776491,4.691237670352973,-0.44003448190064276,-8.565785476614188
-146.0,-11.745137974189237,-14.171565454457724,-2.4264274802688117,13.00890607938144,-4.619439638128709,-8.2703157952961,2.3947465977348763,4.895052804599853,2.1744406401570386,-0.21398441443125393,-7.849931420442489,-17.666355369503652
-145.0,-9.152543356714286,1.30104571958472,10.453589076298707,3.9027256076299217,-9.836280465266618,5.907312216695804,0.8475967166262773,-0.8497754683989655,3.4912942779079867,-0.24313569853643255,0.9093952068354865,2.643885074961423
-144.0,0.9174803484360212,6.850794500265375,5.933314151829276,-3.9057205730289963,-2.455118238357164,6.346275691637395,-3.5707736817103792,-6.520876557121073,-5.7075111493212285,-0.3582080362747764,4.8125637320692976,10.827269313285235
-143.0,8.711855276861005,-4.642879251171285,-13.354734528032203,-1.9794361631985238,11.015668896728554,-9.040789774994163,-2.8670235849410606,-2.4650790381000545,-8.187760349101861,-7.5016567843839566,-7.2715834954052205,-6.11069264878012
-142.0,8.204861752760259,-5.339357453088746,-13.544219205848774,-1.4611643845252944,10.86507202868166,-9.401354746406518,-1.2491834668889994,-0.5641666647514545,-6.815155885797033,-12.62481531620704,-12.932513430268237,-8.758168965007872
-141.0,6.519026669447469,2.9231954216270477,-3.595831247820124,-4.755477850476689,5.054437363617085,-0.29316759234635814,-1.2265966605570369,3.7488582503496497,2.8085882647302034,-0.07431026281096198,-0.0795200182310607,-1.0649404069088053
-140.0,-3.3409238021443235,2.7086568357726266,6.049580637917218,0.35467321212722736,-4.694726900101436,4.344705845360491,1.6157460744996455,2.400548591769809,9.075388535788512,11.088663216766262,7.550883773849968,0.38137099441227496
-139.0,-11.495975367656948,8.555141781541037,20.05111714919812,1.5041999826353956,-15.773067133691336,14.268133442286794,-2.0273751488806604,-5.859421048630583,2.384380088643516,8.16059723195173,8.903387814007935,11.746098460207275
-138.0,5.744864185384781,7.222865643729537,1.478001458344627,-6.532121556705897,2.130587347133636,4.3920469815826415,0.3798760296497441,0.1477084943811771,3.5860769332126807,8.815073557337923,10.250351274143537,16.70857940746455
-137.0,-0.6334249869066766,-4.0474013512595715,-3.413976364353158,2.3688911054894057,1.3819394993818999,-3.7708535435708983,-2.7837891935577743,0.20523852157993094,-0.1495380828480608,4.220070281950146,10.74208090955475,10.713092530257589
-136.0,5.17704245490587,1.2498110732467769,-3.9272313816594,-3.264978582676374,4.537745806548642,-1.3030953604038942,1.2952417489457306,1.6236735924873795,-1.402277385800453,-3.1742952352133424,-1.2274211545025315,-2.3365844802909406
-135.0,2.1160953427650324,-3.6723669230527656,-5.788462265818023,0.8041531305107363,4.011640432288283,-4.696771371196911,5.862170265907165,4.546454869041829,-2.943165156855513,-13.425598921033489,-14.29667590891389,-21.66537549552139
-134.0,-5.15554426896779,-13.223131875865985,-8.067587606898163,9.213671672666203,1.4338536112025457,-10.690706955813074,6.3793845950850665,-0.3794403509871562,-6.824396133340622,-11.568417553634877,-21.48158053672035,-22.460008228075335
-133.0,-10.354034555086123,-12.522788788070098,-2.168754232983776,11.460048705129221,-4.114956570429116,-7.389169697762302,-0.6407802387539694,-0.34571086493652425,0.26370679847150047,-4.289115977295415,-8.530570176529588,-7.3173147898068915
-132.0,-2.2610171007071416,5.3754678346555345,7.636484935362979,-1.6183452167699923,-4.9689528290035625,6.545619990858797,-4.393561170941729,-1.515745361483135,2.5911711331954965,9.142739531475778,7.52546087600685,7.4106176491234805
-131.0,2.4476724804038597,11.401933649424723,8.954261169021134,-6.912359655069109,-3.191384869809208,10.224102672967815,-3.05483853808974,-0.13452521985611687,3.1253263917577727,6.922519718725317,8.913753895490519,12.972338587156074
-130.0,9.944653172709216,11.936009111393343,1.991355938684296,-10.933540814497295,3.9629812300478693,6.938528123259687,-4.319761992808087,0.24207881240969908,3.281803095678724,7.104419403590454,13.637261861381798,12.196509500288668
-129.0,7.286374526343838,1.1809775100213962,-6.105397016322447,-4.231794520499192,6.683696533723995,-2.4799117319138473,0.4308581568414245,-1.5872270689652974,-1.2850143085404224,-2.3300595487490208,3.844017603698747,7.506500628203005
-128.0,-4.666314956823216,-9.053149184476004,-4.386834227652898,6.858813863576717,-0.15325779253342642,-6.73197383457651,-0.5854087737590556,-2.1381514108119135,-4.707999016881926,-4.893317116134705,-2.5493586546403284,0.47286873958599696
-127.0,0.5979158741082455,-0.6597628385340348,-1.257678712642429,0.030379982489819213,0.9098691996565296,-0.9681514832911797,5.125841314079384,-3.159405002160626,-3.262925014946112,-1.2463591555939322,-3.619988172284028,-7.932857800594091
-126.0,-6.913598919011283,3.3334786630324134,10.247077582043534,1.7934449647102393,-8.52626089330951,6.857990245474708,-2.3916162344336414,0.6850052136507421,1.5552492470827195,-1.0172420295506808,-4.98615658812721,-5.58446250127962
-125.0,-5.983170149939884,-5.383810995473016,0.5993591544667152,5.69386465830158,-3.323410309311165,-2.409390763315214,0.45408872156552826,5.056855127269078,5.281212393417943,2.121327417336654,-2.816676220556489,-7.139726500553934
-124.0,-0.628615042758105,-5.66663825503763,-5.038023212279598,3.166780065053712,2.166350864638373,-5.379683882982764,5.004725271595017,5.308260233623852,3.5156425633264483,1.3507881262535553,-1.9627644564137663,-3.6567577129291555
-123.0,9.814164749911741,2.696383651022864,-7.117781098888861,-6.30597384373918,8.503165580786758,-2.2508471176942244,-0.9383860591601794,-0.5376034525504809,-2.7739365357910257,-0.5815401741151814,-0.6653151293665969,4.101953227272068
-122.0,10.449357135831475,13.073082664064327,2.6237255282329555,-11.725684999017593,3.9506243095887283,7.873984328681456,-2.409156579083881,-2.2072551726198406,0.194401630314474,1.9056143623696422,9.94230207837235,11.9726172412658
-121.0,-7.032364794683798,-6.269459715490277,0.7629050791936509,6.612879809454381,-3.9346920432408994,-2.738156389347531,-0.5044395740109024,-3.68211616380893,-4.639048154817901,-3.9828745248153123,-2.901445603138499,-1.608165148544372
-120.0,-8.099758271120388,-5.5285001233003435,2.571258147820098,6.857728462032847,-5.288539895457632,-1.4690671301790017,2.556051800230027,-0.17385830550787684,0.49623487193497295,-3.6963447945497734,-0.10382680983300724,-3.6085662097608533
-119.0,-5.6901057891019615,-2.3316817048333967,3.358424084268595,3.9771291256364707,-4.551957719703077,0.5233052699735654,-2.894323834637755,0.3150804375215275,-1.9355828108810254,2.313265417574499,-0.3605848056839488,-2.3741734043843605
-118.0,3.0198699227438164,9.957041197723177,6.937171274979371,-6.521112913920918,-1.985716353569606,8.46278427205321,-1.909150313614788,-0.2289167926348089,3.7664005979230972,5.3502381317883,1.1595553087038373,3.904734137777432
-117.0,6.830610343989254,-0.5985737568814264,-7.42918410087068,-3.068059812399512,7.0989668814697815,-4.067820558537976,-0.7505531385024977,-0.6919194255168646,1.9269738071606448,4.3649910849329165,-2.066230355815824,-2.507637787081216
-116.0,6.435509948439716,-2.7739944622961437,-9.209504410735876,-1.7798917144869306,7.862632150866532,-5.957095791262485,-1.2953676963161824,0.04091851205212038,-1.8113068675408268,-4.733345621577516,-2.001745446645298,-0.7180660975273712
-115.0,-1.829697637118314,-8.203915158143275,-6.374217521025011,4.992161457905772,2.302979032651065,-7.325144167970522,3.222070624060283,2.3385759910997175,-2.758435110318495,-6.319408579187907,-1.5181223861192323,-2.3715184807839798
-114.0,0.4095098220248392,2.4352134497570193,2.0257036277321157,-1.4448056036240384,-0.8644202072006995,2.277555607114785,2.3608390990643615,-0.9132624641901288,1.2066620942534674,-1.3403456535373612,3.0860532190687984,1.722611194750246
-113.0,-4.189059905314151,5.77317585465605,9.962235759970039,-0.8145773702688113,-7.057793672522774,7.836211038907917,3.468292347578721,1.9011220779861817,2.6863282555546597,3.7571838506482806,3.456363624493999,3.4257459639023473
-112.0,-9.723932081974569,1.2919157588049326,11.015847840779278,4.190800888774246,-10.35130953273699,6.1186758572798325,-0.7791631605080781,0.46539268181144805,1.4643684149820668,5.034372778813243,1.340790099767677,2.89200999791832
-111.0,-4.28885541316199,2.4038118827220116,6.692667295883718,0.9915898728034914,-5.466110645750802,4.585345103853433,-0.1242637369588484,0.5336582021193912,-0.4931225822832017,-0.7394501428398867,-6.393904114289341,-4.52104095755431
-110.0,1.7055134756306911,-3.879935154965958,-5.585448630596886,1.0528566254456726,3.6012545961167524,-4.703381137238901,-2.5743603757707074,-0.6929637067530019,-3.528383561694043,-3.2254944760445556,-1.7631347493924066,-3.8110392495248226
-109.0,18.207414085547303,1.100049101138096,-17.107364984409298,-9.612641147888294,17.7029283325417,-7.9823614202607525,-6.914615623090279,-4.35838392606757,-0.4391604547961607,-0.41891541492991646,3.4819376082541753,3.024548351069582
-108.0,0.9690386751265505,0.8591886734792034,-0.10985000164717285,-0.8741251561631329,0.51548313332097,0.3097337174492001,1.0760788235264678,0.546695269718134,1.843230528594629,3.4177410104227395,5.657244525079368,4.592176383081039
-107.0,-5.366054941625727,-10.742311200930152,-5.3762562593040375,8.016397599149434,-0.013552683121930365,-8.051854764540828,5.1759061620102615,-1.5245805228575116,-3.420822888194099,-3.487861057888572,-5.039412697148647,-5.545713821433695
-106.0,2.0229185556054268,1.258816845718822,-0.7641017098860933,-1.676376322593455,1.3754911142355772,0.2501637897933984,-2.3411806906514845,1.616102211352937,-0.4925865007448028,-3.098624856048424,-2.955802241979214,-0.8358964792568533
-105.0,-0.1932762734392952,8.124116656301371,8.317392929741098,-3.9982204490197937,-4.2765412982457045,8.221531282119065,-2.801706680014728,5.846836928950356,4.143403631319943,1.6728090698811293,0.4019512279445572,3.7529361816098246
-104.0,-10.597061922433797,0.7359489268511061,11.333010849284973,4.979051442023557,-10.91259594288323,6.036556641643513,7.0677647301237405,-1.9696813385219798,1.9580949068142308,5.633689133079448,3.7564770813395016,-0.7359956763236866
-103.0,-3.2079828594718576,-1.4276527055372816,1.7803301539341483,2.3683496375945943,-2.446700247086744,0.18326935866564664,2.379730145436414,-2.313305517075038,-1.8125146491987654,-1.5965911601586755,-1.9380146686173332,-1.3843917303788933
-102.0,7.1213097155442195,4.1011969024452,-3.0201128130997623,-5.63824636108226,5.035900969791301,0.5552703178402357,-2.083922899903927,-0.18517035943179772,2.5218445297295196,-0.8121811057899204,1.1073951542971046,-0.9332750596169622
-101.0,-0.40335931428763283,-4.448462678908191,-4.0451033646211565,2.399023503675063,1.7844001202680837,-4.22276111986715,0.16426164267375354,-0.032471199722056476,-2.326087771312242,-0.6794280646009939,-0.31256096781745246,-0.6633998488546011
-100.0,0.9755749746231501,-9.358183814590179,-10.333758789213498,4.163287551046279,5.696839056088486,-9.891818593693495,-2.279342556738368,-0.3521556121500963,-5.368752336128834,-2.690388695650533,-1.721304186977521,-1.2207675169295458
-99.0,0.27077970388612216,9.699078094265928,9.428298390380155,-4.936283833197738,-4.614381723302655,9.524546139429923,-3.7118790169439726,1.617218627433599,6.339139357946114,5.086856728079837,2.7051496341461316,9.505600860114475
-98.0,7.637288505370624,6.649583697831853,-0.9877048075382142,-7.175965477085646,4.278534393478485,2.8739875786735682,-1.826923442892111,0.3145531055337992,1.8336262128198477,1.3427983595454378,2.5787784421249285,5.419409617384112
-97.0,-0.16214522105345086,0.04198263856952611,0.2041278596234436,0.10422548456968306,-0.13620121361019777,0.16607014701396983,2.930759123574169,2.5173470257523185,-0.11580134129407904,2.1934309995303756,2.910788689916013,-4.697406613021465
-96.0,-8.145137630002427,-5.381426285225577,2.7637113447770316,6.7273819356775055,-5.405165195209129,-1.3475223755134311,-0.6107236959600724,-3.3394101511478955,-7.35054651427568,-9.297289103522878,-7.423396272679406,-11.764579091349274
-95.0,-1.3339599460083402,-9.079907745495257,-7.745947799487081,5.249314615816182,3.17842489296547,-8.45628253784599,3.5976639652805877,-7.141173234892927,-3.9500468807476787,-8.295132386550062,-7.56335522553958,-7.798423246390634
-94.0,3.959346547591907,-4.8963109418813096,-8.855657489473538,0.4322013651671792,6.38075706010939,-6.845620410671298,1.655797276255601,2.4050114515336305,0.33842552924538993,3.3263841132762892,-3.2816436534196094,0.6941314763029229
-93.0,-0.9836983208950028,3.5267050905414266,4.5104034114361555,-1.307513427463948,-2.774443035632474,4.044886234966972,2.246209246864253,7.132704858585392,7.50537265591231,8.370792655245431,10.003984838441658,9.471789935320615
-92.0,-1.0478439295555741,11.708980507449155,12.75682443700464,-5.2877007404713705,-6.8527592867044795,12.257093984188366,-3.0145266707940515,1.6735641999441606,5.336548391850044,5.480266342625127,6.932203995086454,12.050067885212005
-91.0,-8.579520572763789,2.2747459683006097,10.854266541064552,3.1949933752006445,-9.747935558015843,6.5099631428280675,-2.1107201048887334,-2.364784339114676,0.46322233356437303,-1.202353209741163,-1.2976277353487649,-3.195379212366784
-90.0,-0.2888084166812319,-1.483600636670149,-1.1947922199886944,0.8492336198791377,0.421326685599805,-1.3130497791095554,-1.0425641993056491,-1.432968472009111,-0.5325318995429289,1.8574909280356193,1.1414080943248823,-0.5774787819005216
-89.0,11.753284039390032,0.21987112430120437,-11.533412915088427,-6.024968293472612,11.691957024386397,-5.705937180755423,0.2460123002533674,-0.2690366440608374,-0.98992842819947,1.0906862482770674,1.5748886767320454,0.5047869310079642
-88.0,12.472959348810532,5.7300577677692175,-6.742901581041151,-9.06290823846756,9.6600609288705,-0.47231528005209444,-6.428440847902386,-1.073607138796265,-5.018564013921701,-5.364388962775801,-5.294393945869234,-4.311145317403167
-87.0,-5.418631859266243,-11.657395218428746,-6.238763359162482,8.496291506331525,0.38759497324531633,-8.908755810793634,6.22373484078409,-1.214806938992215,-5.680901895991212,-6.768287476294663,-6.014631639531676,-7.721507928230461
-86.0,-8.188795482204686,-7.587160146475996,0.6016353357284654,7.924161501206533,-4.414977693144831,-3.5267455608109373,3.953471902753612,-0.596717358670652,-1.6639900602876758,-6.093151473218754,-2.604950329967863,-2.888506476841128
-85.0,-2.4747443410551364,2.3790103654426957,4.853754706497709,0.08412155783834141,-3.684445733305595,3.587511936816285,-2.0866294276181976,3.19983037185708,2.6941972161881083,3.3615257864981034,0.4554221756242838,6.744478130531261
-84.0,-3.4065010215209948,3.559247346559723,6.9657483680807175,-0.11825357129533276,-5.210211109507381,5.316630072832429,2.5070159901894704,0.6858615580728964,6.174024445931686,6.137956030440391,6.677465492617071,3.725868286862735
-83.0,-4.9242675766392665,-0.2553864940441799,4.668881082595217,2.627087486353385,-4.826584000420921,2.18518331762152,1.5295306374799633,2.384247814222791,5.982848725153813,8.396085861288398,5.597735441539266,0.144892242970303
-82.0,6.201285114378715,5.180879877253852,-1.0204052371249084,-5.733101427003831,3.654177873273374,2.0604784617203022,-5.276324526625531,-3.715672465573868,-1.8340957691176363,-0.6718254942619888,-2.731041643740913,-2.3118827328992473
-81.0,4.804899248432354,6.833725553903257,2.028826305470612,-5.862929154495665,1.428850496823943,4.412290945093901,-3.8208768050388087,-2.218039705333377,-3.563717494308856,-2.2330704319661967,-1.2718859673460008,1.783198124756703
-80.0,8.308909545814455,-1.6760085671679703,-9.984918112982774,-3.2834554825875157,9.189024301164153,-5.770641781482017,0.8875038354022111,0.2445225232191115,-2.400900371111799,-6.084057686270225,-3.9164586763959295,-2.438471648738896
-79.0,-5.729115013738726,-6.884497336390509,-1.1553823226520556,6.337972095561579,-2.319400140829975,-4.039376669602555,2.5664325961737697,2.4149820982949857,-2.0867459360115057,-0.9282390692435114,3.1436478229413662,4.338937701514402
-78.0,-6.804233296408583,-2.473662973082414,4.3305703233261,4.669157142427055,-5.595354467923141,0.9077622312707305,2.431974090401943,1.6114016068135735,-0.18269943221437468,-1.0493097322304008,-2.3216080017998477,-2.137098569247857
-77.0,-2.665846083486552,2.8237197018432747,5.489565785330003,-0.12770082511559577,-4.102943946382766,4.212264965073809,0.9337416221634969,-1.7425023384171374,2.036322210208701,1.9081355612846467,-1.2276279785563178,-0.1257301079695552
-76.0,0.3900820662307889,-5.129121677534761,-5.5192037437651145,2.3992561618222528,2.9291503959919334,-5.351251205438377,0.5424059584745111,-0.5194518406602733,1.424969685518307,0.29065265678993213,0.5042304131725154,-0.3573205734033139
-75.0,4.916998945466666,-2.0379324335184927,-6.954931378984742,-1.4897079518925107,5.9866311463147985,-4.528801529310776,-1.1763182236421441,-1.055651839367726,0.922817393130039,1.6863193984146563,1.2157035963884726,-2.4414215988241454
-74.0,8.766434090070149,9.05636757500966,0.2899334849397295,-8.885328813251821,4.207164307963846,4.635201719002385,-7.431065980008885,0.7907976008522878,0.3663266794041943,6.353839326827303,6.346979965258717,-1.5550645609710054
-73.0,2.32412853852622,2.4917374231744045,0.16760888464820156,-2.3853457626704495,1.1246782127061767,1.3662440051518776,1.1257378508814302,0.11326455149619427,-0.98550708331177,-0.5955796994319134,1.733212086299327,4.3417506355361635
-72.0,-4.6695536710489565,-1.9856362493716535,2.6839174216773785,3.268077321343052,-3.7072600507911773,0.38440732267292477,4.154289485189279,2.6551220435882392,2.862133612035917,-0.9806206667571924,-2.287850366929852,2.046720574724041
-71.0,-13.06214037447899,-4.8513534479582106,8.210786926520843,8.97422222342049,-10.583627773257287,1.7172808799572412,3.291779111113108,1.0601437015521022,-2.1839984801588983,-5.346230517503808,-5.772223999477385,-0.06516405381403567
-70.0,-5.206297061413684,-1.0215481152050605,4.1847489462085505,3.1324335925784204,-4.715798365781596,1.5456642807805747,2.080711141650922,-1.1256880309887725,-2.7882386239219805,-2.800219618396598,-4.801829206588339,-2.9425623153835803
-69.0,5.502946690323902,2.6388024993206964,-2.8641441910039394,-4.04825362784624,4.1673289988333755,-0.14210039328963664,-4.5918474922834704,-6.5462150791379585,-1.9082948200565104,-4.860445262414263,-3.569273106879402,-2.242625142349286
-68.0,8.48220482900767,0.9828293056905439,-7.499375523317987,-4.703667609289559,7.9746755903423985,-3.2819091938688496,-2.5518736284214922,0.9011886463168648,-2.1252679795950127,-0.5322510130233558,1.192596791665516,-3.5173602685447234
-67.0,1.4608195276090026,0.4617857545439297,-0.9990337730655918,-1.004795589185726,1.2087798038947648,-0.20990510813518304,0.8118923126001469,3.1354796507174627,3.3673764419998644,3.512003876385526,4.084491729413608,1.597998460867552
-66.0,-2.285103350784373,-1.6876603945719735,0.5974429562124239,1.947333572581742,-1.3933500154148515,-0.5643056316470043,2.7748838889705087,1.0502475569007759,4.116896472117595,8.167904267156315,9.653737870457482,2.4473794936360735
-65.0,5.403328741231274,0.3737423379541944,-5.029586403276596,-2.847783851810553,5.173265493679066,-2.34876794138176,-3.6685624404178396,-0.8718674711676015,1.5320879203983426,4.671686156242136,4.973856190564019,8.7253009491883
-64.0,0.7892898837625807,4.933367605603829,4.1440777218419145,-2.9018235070026757,-1.6541346916506354,4.5145824153306355,0.2598698732108885,1.7294530482232362,1.0838583137725726,3.7471140785010943,-1.0441909463979309,1.6008515140876227
-63.0,-7.671096910352446,0.0012342123055471,7.672331122658479,3.8682671117932292,-7.658024202137693,3.8873602893164128,1.7426291139349184,0.2998323437889915,-2.2919845296751733,-3.137436083907979,-4.652695454649598,-2.6845866379428327
-62.0,-8.899941387460903,-6.791739219067941,2.1082021683932552,7.873759836470423,-5.4953989128017104,-2.2954416747188278,2.612211448566854,0.32888855920129784,-3.243611423229193,-7.755533037835759,-7.906178495007792,-4.9777343748406615
-61.0,2.2788309875284902,-3.046116768223287,-5.324947755751433,0.3289772789032295,3.810691567527191,-4.2224583537845115,-0.06404602542589588,-3.14916902715759,-0.29023434453866104,-7.289297718325865,-3.8360579715308214,-9.324169082050933
-60.0,9.087860885066629,-1.1697562577742047,-10.257617142840465,-3.9355676883371036,9.607464092801422,-5.755657874629898,-3.124820692450722,-1.6904402638982734,0.8785519209291208,-0.30330933233809,1.6767421813708143,4.221276199962794
-59.0,4.519971815022577,6.751815946613403,2.2318441315909343,-5.6089231746563275,1.1652689875445446,4.523055065205819,-2.3324472159001313,0.31563415516293136,-2.7573512484228324,0.17044228056885047,2.4206883958132703,0.7546787837233888
-58.0,-4.8281387218348115,-0.0203878320928621,4.8077508897416035,2.379943537046161,-4.787945535949286,2.340868126725624,2.7748605627771483,3.7767537294445823,-1.1827506436439124,5.39430919668737,0.5079786111100617,2.378021638055536
-57.0,-1.3064520204127335,6.464270491872141,7.770722512284053,-2.5340507434609645,-4.50086135351622,7.139815921552763,2.2867471512107143,1.0251203868460972,4.129681787322832,2.5534797548893104,3.7046785681050203,4.640723216383289
-56.0,-0.25295984380086645,-1.478947588924214,-1.22598774512432,0.843845397697015,0.45034123759617595,-1.3307000808366087,1.6018214432241715,0.846044406112062,4.328888585735546,4.151224235991876,1.0064492472823563,0.3941650869568507
-55.0,0.03541491234410865,-4.266291023920932,-4.301705936266009,2.104661442515426,2.133467254244656,-4.259160270896507,-4.548813286655813,-4.435867561458998,1.0259497310123846,-0.46549460590626746,-1.0735611715821214,-3.3626936775543497
-54.0,-3.1884010673497385,-7.3668493221387,-4.178448254789552,5.276140855946007,0.45770881541876396,-5.74189165690772,-2.479496316830438,-2.5655197906098,-5.2454958963772205,-4.273972453071004,-2.420787250635646,-2.086806723915468
-53.0,4.335319125243471,2.7509499002596667,-1.5843692249834156,-3.538466895169434,2.997521720847105,0.5421561709286888,-0.1940992733898772,0.191647745797761,-2.244695250543968,-0.9757089119497477,2.3180875779503713,1.1120042700245805
-52.0,-2.528997758850826,0.20414598459037625,2.733143743441907,1.1695588151444882,-2.596359592542543,1.433093515838669,4.85212146903772,3.3881371046777113,-0.9420270028805233,-2.6901286498393757,1.9126770208023787,-1.831714440716083
-51.0,-0.4831905595207526,0.8782743466113418,1.3614649061326414,-0.19169561149632763,-0.8879410104947308,1.0870711465823333,0.15987229794110158,0.9431182875795014,-2.1183677005468606,-0.6295758500403554,-5.180379010118095,-3.2941860861109356
-50.0,3.8563875976069095,7.013911225209794,3.157523627603383,-5.434018112769481,0.3080081787116391,5.131226025922919,-0.7712412185956802,0.7317395755471854,5.325900405326139,4.738358719569868,2.092851396532894,13.751482951984519
-49.0,-1.0597357064290471,-0.27905238597335824,0.780683320455889,0.6630597604700799,-0.9561381215460987,0.2933524645455874,2.328749689594959,2.030670594450261,6.044222784045228,2.8113577029623573,-2.393364353483409,-3.7513136198112966
-48.0,-2.2944817636751993,3.74574689171385,6.0402286553893845,-0.741165152823539,-4.118068776112963,4.852391108979435,-1.0828984953163971,-0.6430865294033623,2.1894581408302902,6.342733653521877,8.043880266749971,-0.21674538461031578
-47.0,3.400952996254361,-2.9306149388491995,-6.3315679351029335,-0.2603853277069674,4.842414809572928,-4.59771190132759,-2.810073392779454,-2.278651019262265,-3.330341703911616,-4.148030344435649,-0.7132449317764444,-3.6994274417023303
-46.0,-1.405638799918182,-9.65143340023626,-8.245794600317462,5.5730902234578945,3.399508268939554,-8.998447344782681,-2.1175713382857038,-1.8604900535281257,-6.50397737648806,-9.30151604269691,-5.389069764990008,-4.9174937010658155
-45.0,0.18751552207655486,-10.574115853300956,-10.761631375377503,5.230333278847217,5.532883039781146,-10.642677254444264,2.6806687136998857,-4.455043952836049,-8.502145916252429,-9.537533721424213,-10.207551620437691,-8.844274897996481
-44.0,-3.0668473085330783,1.6019319930139755,4.668779301546788,0.6847746148159506,-3.8911874954142367,3.1578743758892287,-1.2102367157842289,1.8122116943867488,-2.5734853526428334,0.07957775805329481,-2.287778135871202,7.872307099074661
-43.0,-3.60785943261713,17.607742309342502,21.215601741958615,-6.973719095199555,-12.440088573107216,19.354053979820392,4.716554941142703,5.996002010352116,10.824084578199601,6.5383332628499735,10.28176914707384,9.880406454584184
-42.0,9.48790713383958,10.030946802095736,0.5430396682547709,-9.81622576041961,4.438798726086219,5.308198149886462,-2.884461400761132,1.2942486965170126,8.911604081704796,13.703651800951434,8.79992327766777,4.440303128266372
-41.0,0.8632881992069716,0.5297395132504477,-0.3335486859580854,-0.6785206073696095,0.6399490366312427,0.12080541019364244,-3.603363604023698,-1.6797574397239592,2.690673662359522,6.485258771993409,5.89195641047346,-1.245067540560457
-40.0,-3.4087288191792466,-10.192276800548319,-6.783547981369634,6.814994790886802,1.728470369472416,-8.462603386620158,-0.11610040276206712,-3.933096968867808,-4.106585467196269,2.0636170738169337,1.8562014408233576,-2.799723286469231
-39.0,-4.328438601530229,-12.334761423976056,-8.006322822445085,8.343400608128807,1.804018657513338,-10.220900413611771,5.70675658533929,0.4971025947517993,-5.745538430115464,-12.559290611857415,-11.446425601575745,-7.73638676897334
-38.0,3.130410761649722,-4.173761771490813,-7.3041725331390275,0.5318758422571133,5.265704795296851,-5.707631170631596,2.5414898023038965,2.8464412691119154,-0.9670255971896689,-13.616916981163996,-13.135812443873334,-7.483196018814775
-37.0,-1.3234658097360343,3.0189362668733732,4.342402076611085,-0.837944100804443,-2.8593209334352085,3.635781057766958,0.6748369143251864,2.5083474932800325,-1.9770160610131136,-1.2107805931509033,-2.5241614127816803,1.9517372565662243
-36.0,-5.233272259728382,4.352605354386804,9.585877614116074,0.37220500950342905,-7.435097733214281,7.005477694947843,-4.272995245356651,-1.7315539515212726,-0.7161642749879774,8.9733795142345,9.870590252746744,8.571140811659347
-35.0,8.796105384672453,9.015146282819368,0.21904089814668382,-8.892752191087093,4.259483536901255,4.577503452189876,-7.427476172990338,-5.336659018606085,-0.19419916966079953,1.0483350648923997,3.6291608203887176,2.922314194790518
-34.0,-1.2455958156629432,7.198341660916858,8.443937476578654,-2.9595332280462285,-4.802457493142386,7.864494919910966,2.284680410888081,1.0771835536884111,1.9010073334417117,1.6558126455154762,4.537350478358183,3.243945239402635
-33.0,6.216650931292131,-0.397785156284197,-6.614436087577765,-2.8868084329300814,6.370102277715207,-3.535823257759587,0.8546119784034969,0.707119931296223,4.783169979419633,5.626147071649276,3.05061921452873,1.9903462167954875
-32.0,-0.4379481707698323,-7.587308170756179,-7.149359999987089,4.042434850784764,3.3815635311435877,-7.312802381602759,0.4069401586420436,0.8964788101009954,-0.22332697559529624,-1.2523660372066732,-4.569498662968695,-6.5193805655042265
-31.0,-2.6702773027341618,-4.529818675958067,-1.859541373223462,3.5586883314611595,-0.3825793999935543,-3.212149951429427,6.332489154512358,2.3202635014396678,-1.316192896005688,-5.3003497585956225,-7.889580185401837,-7.007806698302777
-30.0,-15.825956765996976,-10.581268436319924,5.244688329678064,13.16901253428267,-10.509831790132413,-2.6827261184582136,1.5529700281401362,-1.5791995546067534,-1.2026831335237065,-4.4353615333528955,-3.95592684995847,-5.9046627752697045
-29.0,2.8145082168574973,4.966184184711574,2.1516759678555735,-3.8411992083227853,0.2860077459856085,3.5432155543777837,-1.5295266893898796,1.667280650656528,3.6166088532741605,6.8943946498096755,7.0066479363430645,7.286155055821344
-28.0,7.349164560546884,-0.054159794706347686,-7.40332435525263,-3.6741743630260664,7.42014918701245,-3.7505504289388862,-2.5025292945794027,0.4221301996204081,-0.7843509938355923,4.584813358292977,7.392771310924823,9.166558176889504
-27.0,7.295106809769862,8.455774161376011,1.1606673516059876,-7.900921847748281,3.0422596617098643,4.855149643481993,-1.4045120865609286,-1.2922064445623387,-2.590536089098551,-5.340317344268194,-2.4089587411727313,1.174477434385758
-26.0,-6.892837584820224,-0.0489081309352537,6.843929453884438,3.524231637606707,-6.887301251993757,3.353798972668124,-0.7286635753896089,-1.3279678934723618,-5.847568720610589,-6.187211333880611,-6.0922500897084255,-6.607452853724553
-25.0,1.6181190110207795,1.9189732194612124,0.3008542084393464,-1.7944233111379007,0.640049248229875,1.1336899598752401,-4.0417271327426585,-2.1495764758014984,-1.1144146743124863,-2.37440109552865,0.09610438168724267,-1.9217288052536232
-24.0,1.2795748205146271,0.8438485687899597,-0.43572625172560486,-1.0097845427493275,0.9124981763837192,0.21936602211654765,1.1787860186928378,1.5081111853429436,6.131049733912866,7.62339826380936,5.0736129255411875,1.7106064554730875
-23.0,-0.5321814738394977,1.545844219068624,2.0780256929071514,-0.5353067606341917,-1.338008342018493,1.8227521503814448,4.358238520223544,2.166581975596639,5.438759776822474,5.986361408298407,-0.295094845371199,1.6435585902507046
-22.0,8.478208894935403,-0.8514132659100022,-9.329622160845895,-3.8444704991413325,8.861628111131969,-5.080190640877185,-1.1254460568586668,-0.27855174035072894,-0.0026889891172969804,-0.4301444095195692,-2.32792979403086,0.2215378851478929
-21.0,-7.452173677218854,-3.3363522047228185,4.115821472495869,5.359849344370925,-5.753676845453587,0.32390074334815777,2.6543461433189073,-0.508679178387763,-3.0257076374214806,-3.880326343098844,-0.9980271044930632,-2.235260270520417
-20.0,-8.540223139427024,-7.068601159691613,1.4716219797360235,7.845425252271799,-4.975776080473736,-2.781248063683788,2.138687844595407,-3.2776404679889324,-2.358114555348102,-3.3614923696810632,-0.7608767136894632,-0.46044075452526945
-19.0,-1.1458578741701415,-7.870914124710733,-6.725056250538917,4.547078759624043,2.826338016828944,-7.275984854490493,-2.372660106684226,1.8919436733006423,-1.7333220746946585,-2.457409130364061,-0.488551706701343,0.32011412104641085
-18.0,11.749070189273027,12.077866600716211,0.32879641144526883,-11.954204889341336,5.679956337237551,6.229513257696718,-3.5708648948852986,5.069238940361011,1.061176830027526,2.054517475807349,3.4637682981059688,-0.5502281123662439
-17.0,-6.738239017665681,-0.3113805139524839,6.4268585037145725,3.56367280295378,-6.599039120316936,3.0081572880008483,0.39450431849374334,-1.9005497417376884,1.44216460900287,3.3038586697901144,0.60310234359164,0.41488084132988984
-16.0,-0.9999895628816867,-2.2118403181371793,-1.2118507552555098,1.5675633200573058,0.10092314982219763,-1.6810388188864023,1.479356907464708,-2.389390072659149,-2.4213278657329247,-4.149798622108525,-5.3248422910536,-2.530569971546737
-15.0,-3.252484241466435,0.41658101318997187,3.6690652546551883,1.4594086002674511,-3.4599216741649244,1.9955149501222595,0.8985135638562304,-2.66607119832219,-1.8435920315302203,0.8743997156607152,-0.07916945218630933,3.2066349102674554
-14.0,6.835743403473597,15.066754091038511,8.231010687562778,-10.988864209375054,-0.6982873386021047,11.680692626936066,-1.5290840177835954,2.8022704662873568,5.401573731025513,5.39607299350989,6.0149077998734395,3.7170658953036484
-13.0,10.448098825419885,4.041476593336313,-6.4066222320851125,-7.284293651216011,8.418181564527456,-1.1498031372014639,0.8340456835349785,0.03741605846615126,3.3332954816228484,-0.3197636410660294,1.7960170175995438,1.8678032259503494
-12.0,-0.9498750580325264,-14.858113942442333,-13.908238884410025,7.940403924025306,6.4566877812141055,-14.426934354643844,0.1821050194234589,2.495133373310584,-0.5159635338563091,-1.6395648240113085,-2.664314102219185,-6.0934619072556515
-11.0,-7.790384017469954,-14.099785362060103,-6.309401344589023,10.978796558238372,-0.698961868035513,-10.16579996916425,0.22940682342811414,-0.27136314425896413,-1.9515389225402657,0.7089061422569187,-1.4711346560918355,0.49696297479630713
-10.0,-4.906094720518297,5.851904687834274,10.757999408354351,-0.519587897246442,-7.8031160142988965,8.27035658425606,-2.2715103429019163,-1.798671898237126,-3.425097392977864,-0.043093695438688906,1.5945453515784678,3.1404397657110814
-9.0,-0.2250690898346246,9.36336123296151,9.588430322797075,-4.537469319643302,-4.964253757455767,9.44797392257685,-4.86298756554528,-2.787509004931886,-2.215278485016772,-4.381207248704561,-2.329519342467736,-2.0840570079067606
-8.0,-3.8252021599886787,-0.15889488420224573,3.666307275785779,2.0238918362887763,-3.7258268743335714,1.812089143197844,5.374808686222391,-1.0231010783937866,-1.8275979285755586,-3.6816754371693734,-2.7861153931321425,-6.6045213729742995
-7.0,3.2844813608924066,-0.37059599392536136,-3.655077354818858,-1.5044437189416395,3.494702197169224,-2.0254410549843884,4.437050159415477,2.2796517110307857,4.220885706492462,5.517553260390774,0.6212638008263508,0.5840513486448318
-6.0,7.120466935814321,-0.6676820501034759,-7.788148985918566,-3.1977915246996265,7.410376961560303,-4.233514393854282,-0.03291713099084359,2.236431254139501,1.9126456416320128,2.1169993894008634,3.4185239717073705,4.325217043490543
-5.0,-0.7623439344615699,-3.8466915553707883,-3.0843476209092375,2.249135820687901,1.2082370613673303,-3.466025684120302,1.4865297570884977,2.0262900985516628,6.2323419265974245,3.2223298790543726,2.655177299384482,3.4603132640096765
-4.0,-0.33019586677847124,2.330741902217117,2.660937768996614,-0.9840278159417261,-1.5149310011339594,2.497443299888589,-4.8516304782888,0.42038801657637137,-4.097084316466157,-3.0211809248093404,-1.283030933215397,1.845453667521896
-3.0,-0.055615603756906995,0.33348073837450953,0.38909634213302524,-0.12985185462082738,-0.23237610250911117,0.3613756914753158,-2.055493456845938,-2.343829997833841,-6.113309133537414,-5.179586477967826,-5.364153405279855,-1.9784080745308228
-2.0,-2.9399835603728217,-1.9442772062470468,0.99570635412691,2.4463990598364838,-1.9730385380947717,-0.4792886809159953,1.0336347464123827,-0.20547803360579997,0.03800666317224044,-0.06365880229449905,3.134886096755133,-1.8648530852214094
-1.0,-4.309954929308525,-0.4067630207829626,3.903191908525623,2.362227542813528,-4.111995720398757,1.7353676834335383,0.2571712581523703,-3.69141304848073,2.0132910985139376,2.951699537102874,1.8515585600630535,-0.8427053760523693
0.0,2.5035594816556395,7.233794307623008,4.730234825966004,-4.859855757423285,-1.1234254176007858,5.959975371316073,-1.4764479124804921,-1.7413397399835244,0.2939955531273286,0.08073227033142127,-1.9969401129601485,-1.5936067860274026
1.0,2.0332934264434757,0.512256915634782,-1.5210365108108688,-1.25422250019521,1.8381603287420045,-0.45665642445583354,0.7029127034176503,1.7262703133941835,1.4976228920660357,0.23113205985633523,-2.4131727228373054,-2.6587154136740505
2.0,1.3734041426009338,-2.756324775297976,-4.129728917900875,0.6437948069006988,2.724926917959517,-3.402817438287337,1.5373465219555336,3.3045005920438473,0.6505013708428923,2.6799577731364574,1.1871354287398117,1.1742016182478054
3.0,10.836474861189599,-4.294523941534295,-15.13099880272476,-3.2273990355670046,12.948741973424255,-9.756733492256975,0.3130533448466932,3.4375182971863083,0.18482258887008446,0.4855599309208087,2.3011806816349574,1.8783624086672193
4.0,-3.786600315019869,-3.955824078124361,-0.16922376310358622,3.8455622723722382,-1.7712767844492694,-2.109709665440495,1.070108444738104,0.19914511679430102,-3.9375237481161465,-5.94375748020137,-3.2895882482538177,3.0804382032330753
5.0,-11.366939134452075,2.8682695164890233,14.235208650943308,4.227989173868315,-12.84569678845591,8.582218611763992,1.0575968613556208,-2.819049208965386,0.9504920920360469,-0.5725965672319941,3.40293642408969,4.543989708196452
6.0,-5.279200443819824,1.2729589232587666,6.552159367080952,2.0586073289240954,-5.881359990483376,3.9439886185183832,-0.1110863948198701,-1.4497673298315676,3.6348102304999275,6.177875306485299,5.732854237661322,-0.7708379991275622
7.0,-3.9065181089313814,2.3984667075253903,6.304984816458169,0.7231380553879923,-5.068141131718091,4.307263717521173,-1.960665021343365,-0.5860170297810312,3.4247653150785347,6.405976599870255,1.209444947657388,-1.9358658693006152
8.0,14.956357902354245,5.1887205947620805,-9.767637307592388,-10.114803349303344,12.32609331064701,-2.250720566066791,-4.483844789774022,-3.378037253461706,-4.0873146976029195,-3.8263672156065702,-3.4216336330674273,-2.98891250295158
9.0,4.865131860384481,-0.36742101720003006,-5.2325528775854995,-2.2245662683498315,5.018512265528006,-2.8345822102716776,0.5793143106207204,1.2225037865400323,-4.874373854244777,-7.284177326501297,-7.928278329320799,-2.1685200510215
10.0,-3.235404312336758,-7.703797213989862,-4.4683929016546315,5.483963868204071,0.6692917889641308,-6.03646458637655,3.2830796427491737,3.5865240267629557,0.36166691548903085,-6.6779602043892625,-5.443617012816443,-5.608007295779793
11.0,-4.509365185223867,-4.796610604005619,-0.2872454187829403,4.6619628415935095,-2.1347952454504773,-2.5665287130665018,2.6804664491875316,1.0151609301784448,-2.0935038865732714,-1.2031436839926972,1.1848493376028395,-0.59790375178395
12.0,3.20115749898944,2.403413228023378,-0.7977442709669396,-2.79348546156294,1.9756540056408056,0.7809517470561458,0.3232613021404429,1.5780136684954011,1.0767368631633207,1.5876046860694573,-0.983123837698332,0.5390409524530884
13.0,-7.186202295180361,3.1605476217038593,10.346749916883578,2.025570086954067,-8.791945397609902,6.73225682396181,1.2108317703447062,-1.9166278240860297,7.039457328996564,11.081487997316868,9.501076457194694,9.20957528796543
14.0,-0.8874662583813335,3.594820181023575,4.4822864394049855,-1.3351839266102141,-2.6338237806554687,4.094219481669419,-3.9470991063328165,-3.078132224979297,2.476953532486399,7.55524466614434,8.982789959296268,9.000975520510252
15.0,6.338604942348324,5.037768140404553,-1.300836801942967,-5.743312297073354,3.8688624944795227,1.8418544357340014,-2.7391955609926537,-0.7782750836268282,-1.1896181749746444,-0.053836204911674734,-0.20969963917241952,-0.09078118014012038
16.0,5.395311621052626,-1.123411849979444,-6.518723471030629,-2.1879521410704013,5.926110792119533,-3.773866315442097,-2.4328168829348407,1.6868429956458715,-0.31375215963174585,-1.7618421678890406,-1.3979321418173574,-8.360610060529005
17.0,0.05855667509451612,-4.610583616778931,-4.669140291872205,2.304136442909253,2.332027678831445,-4.67732731056501,1.010404220574056,2.9244596317021707,-4.808601161500125,-6.018953401882347,-5.000611547305029,-5.870762268209329
18.0,-2.8036268898677164,-4.839862183848127,-2.03623529397923,3.851111948841339,-0.4163857795483259,-3.4818660969823574,4.852621293228533,-0.003555669101237502,-2.175636752034552,-8.386551755931794,-8.272578834671364,0.4193707834146876
19.0,-4.062834431890759,-3.9588235106783367,0.10401092121266564,4.043266095362595,-2.0382721897649727,-1.8984993176432217,3.519942071310878,1.3618522511555864,-3.0448518614635405,-8.224842488026201,-5.206872921417902,-1.2849158455696637
20.0,-6.3481157765592755,2.0140908910699604,8.36220666762855,2.126743613757262,-7.389556579613138,5.212238158278442,0.47090680036966037,-5.052028773864272,0.8648017194461172,2.2045396115737286,-0.4544931478998335,-2.0464721204291916
21.0,-6.004775509258756,3.0467769489762198,9.051552458233747,1.5261786035757634,-7.48445459948466,6.07036346546804,-2.662721434590783,-3.778287719387756,3.515276482714087,6.898768288448683,4.512905267470607,4.042449899055097
22.0,7.187881407162388,1.9209634721319993,-5.266917935031769,-4.5763474140549585,6.270189929342203,-1.7311893289693554,-0.6073073096494952,3.1296336918663585,5.745931183267959,14.320692282606096,12.307118819082604,3.398609857571986
23.0,9.359609234146749,6.088532112560666,-3.27107712158704,-7.737791199279288,6.2773458172878875,1.4306660986939304,-6.498013813899038,2.3162081757305293,3.434927166094835,5.339443328585724,7.08253168947823,5.407082793975949
24.0,5.217146768670265,-2.8867931826080317,-8.103939951278557,-1.1742404366715067,6.6186490796564925,-5.470488998420812,1.317295714950601,1.289232743126998,-3.8950486302139273,-4.372249678956385,-0.22361564265813882,1.2118530911156866
25.0,5.0559852452788405,-1.2812078891102288,-6.337193134388631,-1.8963671423514221,5.727766743439323,-3.859309407450832,2.9173547755804377,0.9104616046140709,-5.745370425556864,-10.288783072339083,-11.4139592822282,-4.718603044527607
26.0,-4.724504375927438,1.8285019011087895,6.553006277037205,1.4349073593293808,-5.692487503309728,4.223229105985608,1.3195452592464747,1.660623159848089,0.7831274359191216,-5.402193585580303,-8.225138705253695,-6.367729959623902
27.0,-11.664495463519186,0.4191748985423398,12.083670362062158,5.681515351613337,-11.85345481726067,6.287156155808832,0.012720560774787115,-2.769378896175048,-1.9330706051209412,-3.153477403802989,-2.3787856347921004,-1.3118383716473883
28.0,-13.569276557288225,-2.8630477927459816,10.706228764542626,8.188807170389204,-12.117455696713366,3.880896131702623,3.194472607194333,-3.7969933558483615,2.51302667582367,4.31867270325813,6.932609321597876,3.886434590538735
29.0,-1.7951292341008047,-11.181193190920895,-9.386063956819608,6.454518646230435,3.8206681067659813,-10.322844383998413,-1.7241652000314327,-1.1527772021144735,-2.1117518188687745,1.3554107008994198,-1.728363446975786,-3.3654990423277975
30.0,14.359739348711026,0.6691502625293086,-13.690589086181191,-7.473352826715706,14.059779692179456,-6.469984919605293,-2.3276023614566896,3.162398006598065,1.5061651923096735,2.519688956329572,0.552617898266615,-0.12696235051577565
31.0,13.741987777237362,7.308181400189419,-6.433806377047397,-10.485607978386644,10.055106172134746,0.40085121449024097,-0.010536688114471948,1.2513855830805636,1.878423676533925,2.657626100046649,3.354138023931074,2.535269748500771
32.0,3.923730935757346,5.818363712563575,1.8946327768061808,-4.910254071263373,0.9915126589346963,3.9014904105443424,-2.028801014414824,1.1758174341576066,3.5095715639667686,2.3346164578052377,6.704806686890068,7.528966026776525
33.0,-5.70073402742222,-0.9987853774059028,4.7019486500153915,3.311209178099451,-5.219298790181364,1.8996761278558054,0.25801373925746107,0.7836300985815844,-0.03850576594958688,0.3681541234457567,1.4469160790894995,3.135690970653922
34.0,-5.608116875951515,2.072526004303564,7.680642880253878,1.8083826814802721,-6.663442228221536,4.8483849562972114,1.8939691300236217,-2.9889085557558186,-0.6869035718161267,0.24728346476240715,0.8684472142037021,-1.4668082785153844
35.0,-8.576830682736432,-2.7261079356463833,5.850722747089342,5.613217969145092,-7.160880707339526,1.534559924703699,1.5687770491188546,1.6734594303116592,-1.3342875709331754,-2.6905982940477653,-6.0589998406279735,-8.717099820199106
36.0,3.1533138859129757,3.4956399891443044,0.3423261032309326,-3.284088143663027,1.369298555580841,1.8890568601490645,-3.51093909777641,-4.956010585907593,-8.429781470332822,-9.171405694840292,-10.49474058187156,-3.3829012032066093
37.0,-9.191790141061524,-6.442837162022242,2.7489529790389655,7.779588703062372,-5.93879001815285,-1.8809521598749541,4.999725903286228,2.723219100813943,0.41521927476194964,-2.097161445297488,-3.9071713985719487,-4.315695986195468
38.0,1.036183552837266,-8.15878185183373,-9.194965404671063,3.604276603072823,5.1383197358124075,-8.636218805488593,0.5841337644392828,0.31312495555438935,1.263192545977195,2.279044064307603,0.8788553914353809,0.780270848151239
39.0,10.270232624495431,8.369988232061717,-1.9002443924335495,-9.35267612286855,6.024463593311616,3.273567557776735,-1.1498241241418141,1.227475972230978,7.479286257633756,8.535415463999549,10.906270795614294,11.86311921901789
40.0,12.827121843828992,5.838981733110807,-6.988140110717364,-9.283268074952275,9.925646471263242,-0.5345397783778552,-5.232656343859722,0.6992965631418993,1.3296558749474734,4.530192818528588,7.867892237220628,1.1650653962117739
41.0,1.8753814327529517,-3.5111124999535503,-5.386493932705209,0.791429637724776,3.653314195739048,-4.483298692213227,-1.981146165464298,-1.1203044869573786,-1.7418153793931426,-2.9977422496294848,1.0776535091386492,-0.714568136640604
42.0,-13.73878124884762,-7.3900773970168885,6.348703851832631,10.537930373002464,-10.014218933245022,-0.5498992287210569,4.673531534118655,1.2990780275271978,1.6746556678834321,1.1936045912659907,-3.912142024868915,-2.3621173524017256
43.0,-5.171718082121093,4.277371350272652,9.449089432395148,0.4958670286479414,-7.351840480508919,6.838112153648507,2.342349701840268,-1.1079703047846696,-1.651431235631858,0.7179800503067926,-1.006297058026354,3.212029706180281
44.0,0.35670242105909633,7.932252639510171,7.575550218450984,-4.181304840980216,-3.644546278480121,7.808753721605404,-1.388169557356143,-0.9261475014365932,0.015873228573114462,-0.977369326648356,-0.8561175030091652,-2.480803659506475
45.0,5.178258187399815,-3.1551987833863517,-8.333456970787775,-1.0567112597662447,6.802852011904143,-5.770345380071209,-1.3811674799215838,1.5347376109704614,-6.703125146978547,-9.835650446324125,-9.283632407989865,-5.552855198560833
46.0,-1.9017037346006926,-9.381023946668794,-7.47932021207035,5.667589719710945,2.7569871447510965,-8.460790714222295,0.15104989389456402,-3.304819916633559,-5.757275912122582,-12.163343867940391,-10.637804577168202,-6.0942926861324835
47.0,-10.887195863415792,-6.190820766357445,4.6963750970566025,8.561554386912796,-7.7478781371594465,-0.7043503353803513,4.7006269093353525,-0.2731898850166403,2.7105013017288413,2.3055727116009783,1.1368209622834522,-2.328466842943617
48.0,9.213991467466755,13.251690530226547,4.037699062758971,-11.208716250013781,2.548490789137598,8.605008649858824,-2.9472874190132274,2.4883657191286983,9.676766706400144,14.409879175484258,16.5104907422465,11.358903272109645
49.0,12.844489074052788,8.761016244629698,-4.083472829422915,-10.77202340269247,8.497979406192412,2.3770829816491013,-2.4992636921252176,2.9434326708061156,4.357382016218795,11.83904832124859,9.785461799221775,11.820609520686288
50.0,1.5696201494487276,-7.73931986562299,-9.308940015070823,3.046407891349216,5.390668751385715,-8.483009393910036,0.9703165828480071,-0.048373907077908784,-0.4523051649140717,1.643163331750011,-0.5380561577643075,-5.834084688688138
51.0,-8.946846514211417,-0.5027679616163923,8.444078552595968,4.695860203418184,-8.66672625636577,3.9386731715693344,-1.6813784421279303,0.39342420857769755,0.00013871702570522615,-0.1742555878779557,-1.5986330420154198,-3.8522199332361957
52.0,-1.7942112242963466,6.647010587636578,8.441221811933906,-2.448821543757641,-5.087279013662771,7.51908268273687,-0.3818218311568122,-3.113600137611705,-2.2159796451073155,-1.9363891214757256,1.0881833521019209,2.5975457025152764
53.0,-10.672741175882978,-1.6152424552813283,9.05749872060253,6.202119551569855,-9.908717270421297,3.7027149396105568,0.994387987444488,-4.7256171279786505,-6.422170186287715,-13.384735179503679,-10.738709839316726,-5.122140096258601
54.0,4.067519204778991,-11.628314846269921,-15.695834051048077,3.7566091727333766,9.92378422746295,-13.675331970264171,0.5699837142153035,0.16832596272196132,-8.232494915491548,-11.755557918777475,-10.46766244655339,-7.4095528858685595
55.0,3.237054913944257,-10.174366884876644,-13.41142179882048,3.437837669884191,8.295598726817087,-11.724204392353737,3.5542586339886717,3.2344133667514043,4.345013344799726,1.1338426649159858,0.8403253457771251,2.214141403581172
56.0,-1.183166105328997,-0.6199129807172219,0.5632531246115366,0.9405098487926318,-0.8940594468662875,-0.037219200155546694,2.5066493547962643,2.7524556973963032,5.445237655453604,5.147567260356883,0.7663296331351905,2.2488658779682353
57.0,2.910449301175286,16.107385018912787,13.196935717736144,-9.478704197028438,-5.157608017944933,14.642518739549292,-3.094978637253184,-0.3039374023052108,2.1168091202023693,8.18235244151537,7.893545715466319,3.0191764625893174
58.0,4.780415636280392,10.78522150148692,6.004805865204364,-7.838102989417065,-0.5435318981212323,8.382937365091749,-3.432430750867655,2.535852865591477,2.3799864676515843,5.565121452341408,6.184308778969948,5.947105749069604
59.0,6.166747269933049,1.0939305167190039,-5.072816753215529,-3.6104433175093296,5.610952062116529,-2.0051244378528006,-0.8886499680132549,0.014035294440825796,1.6633974003956393,3.649534434914754,4.238275757026699,1.332325882984195
60.0,-5.226954782130665,-6.76788563251576,-1.5409308503852137,6.017366478729064,-1.8543159518790815,-4.174034228764346,1.0727413330138749,-1.5697690538109152,0.12699897597803417,-0.0863905978828321,1.2420994492265787,-4.104271809490645
61.0,-3.9272582906793367,-3.3671131896378617,0.5601451010424987,3.5918001039301384,-2.261541403085408,-1.3477162556039897,-1.4548775364330866,-5.446880686732651,-5.060647137607519,-6.847546224919384,-5.665025715400848,-5.992765213717555
62.0,-0.7889885483124393,-3.7968769755932223,-3.0078884272793163,2.3221754633696134,1.0814534499647104,-3.427517400501025,-1.090335444219689,-1.2543236301778569,-3.74936400556421,-2.950655210307511,-4.186610799349777,2.922437579625941
63.0,-4.062060345839879,-3.7750431330123058,0.28701721282874715,3.9546242457314116,-2.1361427808936653,-1.6913486981955876,3.84775742442574,2.087782866262402,-1.1284427734751445,-3.530480004477461,-4.096542161827481,-0.2817815589115385
64.0,-6.788338743407822,-2.375260026898395,4.413078716510262,4.544946473333518,-5.574631648675337,0.9925324010707597,3.224846934920004,2.6120288692475797,2.6586536546709603,0.502118815612961,-2.292211889708135,-1.063103887010411
65.0,6.654673180170869,9.500238282516884,2.845565102346392,-8.032769618978001,1.842185800962656,6.146291715662896,2.2707463185579186,2.017911620444248,2.520701420102177,1.4237510326938736,2.462951042688017,2.9470295204599632
66.0,0.5573483959219869,-1.9202838966577458,-2.4776322925799876,0.6456532416024583,1.5291113818933126,-2.225835183154512,-2.9562083112599393,-0.6094850177955702,-2.7721645119749976,-4.809059922106428,-2.6180284302810097,-5.254121412685189
67.0,2.9147413113616256,-3.4525839039056554,-6.367325215267847,0.22646431852493398,4.654222939970032,-4.936516476520282,-4.497392954997436,-2.430948123809369,0.5560608874975052,3.049321064643795,2.386139163938215,-2.826880678366475
68.0,8.357690871331435,8.709692520179832,0.35200164884808416,-8.507808740169335,4.023870280633796,4.584821865900485,-0.9263900338742732,1.3912100093481043,3.958686480422712,8.687459642880228,9.382340139756566,8.784907154382676
69.0,2.226387164981204,0.7864039077713585,-1.4399832572101956,-1.492303370442098,1.8665864226708433,-0.2692615644396117,-2.1295163126454355,-0.3904541852832347,2.3197060030857,6.199291718521581,4.493286159612435,4.812526979426507
70.0,-7.079506623095189,-5.411120487610979,1.6683861354836058,6.2491742758549185,-4.405408037466755,-1.8882594741988474,4.245443291332034,1.4912041081301173,-0.18935828154767786,-1.8541343707379498,0.1149959868822743,1.0678639229344977
71.0,-3.586108171060612,-2.0562519725098554,1.5298561985501042,2.818962125063352,-2.5774278825853187,-0.2771957140436984,1.2021989927692625,-1.3793848573789689,-5.101739887450273,-10.114904616527157,-7.909958864004679,-3.596064574165405
72.0,-7.349925356981522,-6.873520709654461,0.47640464732644894,7.109087085471554,-3.925031705362819,-3.2136155845190832,2.6010163600542864,-0.05666840148109775,-3.098439439887971,-7.946410511610659,-10.673647423747324,-12.104637529593278
73.0,8.333171479821083,11.598984091680045,3.2658126118587605,-9.963417153716225,2.5240638540202545,7.410785894707509,-3.7862953473484633,-0.9262085705622023,0.47131839078110294,2.8573965763213334,0.8807514996986194,3.194596699807275
74.0,-4.413577074881566,7.283855783561911,11.697432858443706,-1.4228105559810849,-8.067268331265932,9.45736481391698,1.03104479008905,-0.7794956362442599,0.7801981139044442,5.335858294615126,6.197435840840933,4.265776228749554
75.0,-0.3919907248818171,-5.866639509860279,-5.474648784977708,3.153398125791824,2.6039198736140534,-5.639554186419563,1.7828965951648006,1.8482193620365255,6.735864461817177,6.524767308281006,7.693461568998166,3.1252737181880987
76.0,10.115892546724691,-7.159489584436276,-17.275382131160047,-1.5215050875810783,13.675196656678704,-12.199846482569244,-2.3160222227564367,-0.28589939349958815,-1.6051728296486014,-1.2510637433566743,-3.704800657927578,-4.753389492272305
77.0,-8.310724402015872,-10.330425087421014,-2.019700685404308,9.286398224834013,-3.1684908621772356,-6.166641659983158,0.946311476880132,-1.6112693973220011,-4.421855418416241,-6.604279317634811,-8.219489038201518,-5.013011911354764
78.0,2.357706785505817,10.013217030450889,7.65551024494553,-6.134646945544597,-2.5935452755417643,8.840029423708469,-2.2115688163929335,1.3894290247038135,1.6163371651697311,1.6755010917540083,7.0954977025601575,10.54987905227728
79.0,0.900315392768164,2.0310633271509233,1.1307479343827551,-1.4896732228117644,-0.13773476878202207,1.5903237079686274,0.5941354186116773,3.9868935059786956,-0.9210100181985106,-0.6494226076600342,1.6927866130017195,2.9372871546627395
80.0,2.7912801370903413,7.970601965203404,5.179321828112471,-5.401899180907304,-1.2159358073078959,6.5929488190927525,-1.8905715677431636,-4.460095818460145,-2.2223443170758777,-1.447553883704295,-3.3428569020519494,-4.435819755336684
81.0,3.6114875373099826,2.4327208735586443,-1.1787666637523548,-2.960838010628282,2.3719589742219633,0.5769751842483628,-0.549824286393461,-0.8157045941256698,1.9474502184908131,0.18722868448995467,-0.7084215082764007,-0.2904113179051486
82.0,-7.849185041399982,-6.1821848066772835,1.6670002347217574,7.0028010560679075,-4.706613041833536,-2.2971180829108704,4.204274062072566,1.1317278228604495,2.782587482145248,4.926351667277919,1.9223877668688685,-2.147054831704379
83.0,-5.438358186105795,-4.1698981377353865,1.2684600483698367,4.796597902317794,-3.3877112435320966,-1.4028444905591155,0.7294386953195473,0.14284016546326922,3.1370338639787527,4.075992489549927,1.994848649689178,-1.1587727290762917
84.0,2.857186624544269,-1.7528916902103981,-4.610078314754511,-0.5548509525967429,3.7689529251186196,-3.205969030753299,-0.3744208290662323,0.45375246672326475,0.8747149177093264,1.236658076489044,2.9709445321641463,1.3274550147936357
85.0,5.832958761367657,-3.8013074366586097,-9.6342661980254,-1.015878682418743,7.680485383493435,-6.659094460711764,2.561951907901273,0.29660673635752355,-3.918773019325259,-7.067179104378776,-4.932181495820924,-4.309916130995395
86.0,-3.908069037603272,-2.3000303878410797,1.608038649763201,3.103136248405268,-2.740863075828649,-0.3631211219422781,-1.0858802463329662,3.2737698131045607,-3.263358904996122,-5.698556812347276,-5.6081717278236365,3.6419980013689623
87.0,2.8313522639020365,7.864375955441293,5.0330236915399,-5.353609082919839,-1.0891769302784886,6.433322536759737,-5.570659249570773,-3.9539680779945825,-5.583118090922874,-4.300949855401726,-1.8147854966116448,3.8845294251416123
88.0,-4.851221230328698,5.793859860941646,10.645081091270344,-0.48521238407064793,-7.7382243349018855,8.204791447510768,-0.11514773704089887,-1.209247548961959,0.349514223662142,-1.3433115420147541,-1.3270976727102521,-5.249139684675191
89.0,2.3974314915200545,3.1137809606251583,0.7163494691046939,-2.7793754255871557,0.8523651759983872,1.9001483179770782,2.5189280985268123,-1.3864987600449616,3.0427388951711998,7.540862206737157,3.5441206044096782,-1.4133457855983305
90.0,6.982265581898312,4.719013822746904,-2.2632517591519727,-5.805310033184072,4.638947785753009,1.2907434563974334,-2.3043022643408912,-0.22752994845745964,8.984016484004307,13.57120290464576,11.658817104281423,5.22536577308068
91.0,-6.090024672914566,-9.803761965647345,-3.7137372927332137,7.984377209197391,-1.245498684319216,-6.776028817119502,1.4362331027626303,3.1281093384265217,3.515979820293179,0.19762330779589465,4.447363215819223,3.2637135742582246
92.0,-3.2334210412587225,-18.336752679868777,-15.10333163861031,10.738445275515284,5.961045068071644,-16.738692366057425,3.695545377799351,2.7312172993025046,-4.509616541674573,-6.388569505373621,-8.125872113373752,-3.0558341668804845
93.0,5.450085300409652,1.2984653392258387,-4.151619961183924,-3.3453874943836723,4.751863212417845,-1.4459503171708397,1.191382478334675,-0.24584155706527056,-1.0500182656394417,-1.6034021825800773,-0.40703651980021593,2.356040730895781
94.0,-1.8136823503562916,11.67271748700199,13.486399837358286,-4.981340630056475,-7.617224549465022,12.560881942561473,-3.266819760283093,-3.6838174067457565,-7.903072594053673,-7.752517284830013,-7.365129362269103,-2.2689727978553567
95.0,-4.5651086543546535,10.575295952179097,15.140404606533831,-2.9797605828791665,-9.816588737054236,12.920665432793772,-0.13898241068169281,2.9098671158901386,0.8457462020165489,1.3138505282935822,2.9049500827378734,-1.815605429730622
96.0,1.8094644848253933,7.865158453326907,6.055693968501697,-4.8136517817977005,-2.1612862526292487,6.949302223696153,-1.4762781926065358,-3.127965864006555,1.4606532884519186,1.5153369244736825,-2.0676192240257754,-7.259882514575363
97.0,11.165738967910428,-0.6523266066789541,-11.818065574589157,-5.3134081802343,11.538075172509034,-6.240355356426506,-5.008518266460015,-4.180716449433877,-1.4957851233513384,-3.1534973162226083,-3.9265898772053625,-0.4905809287361551
98.0,-2.7678108898715594,-13.766341140717962,-10.99853025084618,8.288143085441007,4.088947310384286,-12.38226946643222,2.812680778937828,3.3188256838389814,5.661280489096512,5.230615155428041,4.511939809658314,4.800085744564277
99.0,-12.081352010595817,-21.391882240888656,-9.310530230292702,16.75796088727601,-1.406162311989045,-15.348528974314311,6.874642781587494,7.455450381662429,2.6015248585622928,4.774334330174151,10.399470724474885,12.063357470610612
100.0,5.453479349158403,-0.80922252376822,-6.262701872926712,-2.298982298314967,5.841402478696972,-3.5353965433054704,3.171840639376064,-0.26969104902451413,1.049944540781167,-1.9807375051274043,-4.214716210263444,-3.175489416498806
101.0,5.0576141252972375,10.975069456033555,5.917455330736081,-8.06895696687652,-0.366139222458429,8.439387985486272,-4.661029598243113,-2.047127768088213,-3.858953271771877,1.4753219056907836,0.20513041439439164,-4.085391115090826
102.0,-10.715027368312533,14.013594885130598,24.728622253442825,-1.6198563978201435,-17.737616201570333,19.35231785310324,-1.7816469661029666,-5.30713495817461,-2.6088856570638495,-2.070767408363633,-1.5201927412150598,-2.246126007724743
103.0,0.6505736133524558,14.257303555672202,13.606729942319443,-7.4219921269647084,-6.496798471988623,13.89919355621469,-1.6606910474884649,-1.812156271428131,0.3032458146013004,-1.8888014163141609,-0.9262446186728837,1.3788423773048377
104.0,3.431073859847512,2.4344551827678877,-0.9966186770798489,-2.9786218393861588,2.191163615698254,0.751906230374745,-2.1373397417284137,0.5699946517141035,-3.824652994759915,-5.0813783150482745,-6.892768290093693,-4.743184776315796
105.0,-4.799085613209101,-18.57589485590753,-13.776809242698484,11.640864958365851,4.462692164310928,-16.152261798933477,3.955699641092685,1.416677998851087,-1.040959665395489,-2.9259122896119534,-6.665556374173479,-7.796434358933228
106.0,13.187792968087814,-9.92902272844196,-23.116815696529606,-1.599168448576063,18.20330189575232,-16.502118922415775,-0.039770662324719375,0.9643445139216029,2.236997140153089,-0.9820472400792652,2.7172994304407556,4.30829936951664
107.0,14.45397741071971,-2.9921750806855716,-17.44615249140501,-5.70281710798899,16.0020501118492,-10.196434559502839,-3.6605813361975423,2.9018809912815167,6.713437476038849,8.665856530677935,9.982434809857809,8.951588945554027
108.0,-21.621985322294694,-1.4316075488749158,20.190377773420046,11.553178542210786,-20.929908837252928,9.328444143582228,3.625609973463034,1.466342443637362,2.081499453306375,7.778989996594225,9.319503727997805,6.058024384418406
109.0,0.8463768971941743,17.315055265959675,16.46867836876568,-9.055583071415608,-7.831288184129036,16.846371510049103,-0.46073688619758846,0.6212397479968772,-0.24709509874611757,4.492581726019539,8.665378141364702,7.668478838907168
110.0,-3.4862075591231947,8.178975209184227,11.665182768307476,-2.401214385581408,-7.593367148623548,9.958757337630178,1.8194481971882999,-2.865760723471299,-0.05722670652416695,2.3446715534725353,0.0912433229012487,1.670394832970308
111.0,-6.673952779559885,-11.990784981547382,-5.316832201987495,9.276140302108168,-0.695840336387902,-8.616970304956478,1.563854191239441,-0.8154927917310606,-1.0875489338601492,-8.209374374244273,-13.714342026591181,-17.27498474263429
112.0,5.669648535404122,-15.49684708239294,-21.166495617797132,4.935064193169377,13.39934028419335,-18.37657329058463,-1.6202849793759164,-0.20385786640372827,-5.944113450760017,-14.224110203641377,-20.10027903493921,-17.695906874942217
113.0,12.353311176136138,7.2193267618195405,-5.133984414316737,-9.764339547159864,8.801518857075376,1.0716471500000395,-1.4256892051580552,0.7901856140734853,-4.0096095923338435,-7.20273180919185,-5.056120004989856,2.7385516999600874
114.0,-4.267681539843182,9.117958135451742,13.385639675294724,-2.399806428451744,-8.849095997622914,11.197241581480956,-2.0764510945442765,-3.513772163197709,0.13285754117727988,1.2469123907230073,5.0768822811240835,6.118936828999724
115.0,-9.566133972609244,4.326440695150239,13.892574667759332,2.65184922773412,-11.673385566203386,9.131025856042186,-3.7794083986741933,-3.3322502711233275,-3.3790764758630387,3.4686829689860774,9.231570340713127,6.881437897616145
116.0,2.6781747726144483,-1.4412876106349009,-4.1194623832494415,-0.6559258823116945,3.3765152037634474,-2.7581330296717086,3.726319553280282,2.5041824972330513,6.335470964277184,12.564518255208919,12.176658422820676,6.692619532738417
117.0,4.952055767804286,-1.8579280826126698,-6.809983850416851,-1.5744017789791753,5.85892761335735,-4.3076854098195945,6.927926598886286,5.868136603142948,8.486967516963805,12.225951229635468,10.475626234795715,6.768775875654966
118.0,6.661611980774478,0.0070550171553480645,-6.6545569636188615,-3.3527345708222116,6.634860260858184,-3.29176348502016,-3.184388114632599,2.5115126051680092,4.844052618794059,2.1147757728630623,-1.1809128356430163,2.7313551954716946
119.0,-7.2732116470396075,-2.7964567059595846,4.476754941080377,5.101077113813629,-5.901095925721421,0.7982690834061303,-0.7482419343752547,-1.922406860175454,-3.2242686360920567,-9.087668974029024,-9.593118948224248,-8.954000529999067
120.0,1.1900638071290293,-5.694363517430182,-6.884427324558835,2.2413135011927334,4.085668937880905,-6.329463274709139,-2.1663922393093697,-2.7682209599415537,-6.258197447135597,-10.241530563131501,-10.14957346093702,-9.754109662054702
121.0,-4.173341491920848,-1.8954330055949482,2.277908486326044,3.0207031801284803,-3.1817881909611785,0.14911375181930375,2.1713094940044524,1.4119594144068874,-4.970252581269993,-7.526844285515529,-4.809193816993241,-3.133454710725853
122.0,-4.999300007857172,-1.5022891924654707,3.4970108153915223,3.2304769272456664,-4.287056213656696,1.0291072809410136,0.4042853401844403,-1.3988457059542192,0.33804277216676315,2.3039344970899496,0.8825011326205541,0.45176630632730674
123.0,9.560015722926053,5.432898532697237,-4.127117190229283,-7.525467709884518,6.80193781838836,0.6791939432704202,-4.052179708994682,-3.2845278193147682,-0.06969855342634879,3.766043148828753,3.4881651374327323,2.0738019491721076
124.0,-2.503725641122699,12.392174415731269,14.895900056853467,-4.902895160590225,-8.66387514608813,13.666512884991295,0.7194718462111143,1.336132688310955,3.8434140803385053,8.262734427322943,9.325266330826134,5.8432736555308775
125.0,-0.007712904346967808,3.116548366356322,3.1242612707031014,-1.5189687832169931,-1.5297195638838346,3.141588725104276,0.431508141088311,1.7143605487117908,2.6112154872402518,5.2550692605491305,3.8905682681241824,4.335407787414359
126.0,3.2598527435578566,-3.3514586859677786,-6.611311429525413,0.0005498207303540337,4.894675788108283,-4.9596637281844185,-0.46904676326104766,1.4453443731748428,0.0682185559481403,-1.7877811416795462,-1.806157007611195,4.55234625739954
127.0,-1.1432395583340513,-15.151703382452428,-14.008463824118023,8.183057125990167,6.394115998574607,-14.636446546348939,1.704684282612636,-0.8127685936566595,-5.027641867622812,-11.455532516210246,-9.521683135103393,-6.2801354565684075
128.0,-1.8017058950062745,-1.1835252240997933,0.6181806709066828,1.4544584921775439,-1.1669184336832217,-0.3397134839162774,3.799626861610825,-0.21745245709294508,0.76879045152579,-3.224757347653736,-1.1032183461494758,-2.6250846641434875
129.0,-0.34106669015184293,-4.6605560968492785,-4.319489406697371,2.54742959865773,2.0348752360094253,-4.470537718086089,1.311155273349938,0.9857346834176233,0.7915248081361417,2.7185179759698954,-0.1795099106821605,-4.8693167054168764
130.0,-7.043085048955855,4.56001107553999,11.603096124495844,1.2144302156596565,-9.354119401022604,8.09855461731011,-2.5732026911151484,-3.259370728409399,0.641499391253364,3.981865251194784,1.1756917892869874,-5.028068076888012
131.0,3.3082197953922363,12.861493732138362,9.55327393674624,-8.109437033749575,-3.1522992888774533,11.223706260618165,-4.55629976570752,-0.6442608248711997,1.5061382529806158,5.546356866472999,4.631350198890322,7.062038844334339
132.0,1.4725481781585108,7.166035407815564,5.6934872296571015,-4.344434053780578,-2.139538538891475,6.448907635215675,-1.8758811021747657,1.6607376960203604,1.5434804940669913,-0.5834790033197232,2.7058909981418413,3.845129357081158
133.0,8.2900821222046,0.1788739491756539,-8.111208173028782,-4.18422071739315,8.251211198378183,-3.9402764598510096,-0.4119995931727458,2.7896302875229413,-2.5295839666530986,-4.467541773852127,-4.401931376080551,-2.2740208813542373
134.0,0.5195076002896548,-12.635375836175095,-13.154883436464669,6.102877897353938,6.810954741890422,-12.938407971695389,5.305614004213653,2.014602105183497,-0.41998858010337403,-2.506288420615242,-1.3455013632990576,1.4548368761089363
135.0,-5.052849871904633,-3.1426821570815084,1.9101677148229186,4.057616593513025,-3.4255277380901,-0.6492293946934948,2.0960971476974177,-3.27313239109601,-0.6339856833112925,1.0181868085637795,3.1482889572477264,6.914568571177176
136.0,-5.799916933570065,-8.707514277341783,-2.9075973437720064,7.207041746010613,-1.4642378855425866,-5.753061617587756,0.25776909546356763,-0.4668344674740632,-3.494265193808773,-0.6638742642013215,-1.768925616546748,-2.220722207504016
137.0,8.560432375052144,2.20917987806304,-6.3512524969893445,-5.358650610563083,7.442652772832103,-2.0899259124754135,-2.6856841660851285,-0.6859914708598779,1.548693349084963,1.0153835808818454,0.170603945283748,-6.026095290115729
138.0,1.8674637213827445,3.664689724623395,1.7972260032405336,-2.744501142706086,0.02576250255279866,2.713325526837023,-2.4234555591402067,-0.3967346878327206,5.342091196814423,4.961757566895754,1.2931139525652269,-1.4465030178334648
139.0,-10.968768986076732,1.1147003474238826,12.083469333500787,4.945946398449209,-11.533584860846684,6.578918364762007,3.5401492623827924,1.0102295227808658,3.4303576059249123,5.2476293462485035,0.21914973401656634,-4.577775293952782
140.0,-3.897740077659535,8.471828639392612,12.369568717052285,-2.3473637150491125,-8.141333491172784,10.474075687109982,-0.2910722523395396,1.8545906156165304,-2.3328674832245637,-4.599862242888406,-0.4896432495106663,0.9590250656767629
141.0,2.564893878180264,17.35785628977134,14.792962411591057,-9.941354243681,-6.123526415366699,16.043559768219804,-2.8303816069973475,-3.771657412003589,-5.5767620467616,-7.399387799550702,-1.727539482507727,10.143170563914982
142.0,7.450158688893654,-0.34420622602793394,-7.794364914921745,-3.5297591705813702,7.688872981404167,-4.028987141182578,-4.26212124486814,-4.205193110653347,-3.0150317962752227,-1.6070569798920769,4.574241777662261,4.973537929029376
143.0,6.557983072810738,-17.730183811785597,-24.28816688459629,5.613375435717601,15.408022227331228,-21.05379146304539,1.013300899248373,4.4585202681494875,1.204174333771764,-1.2025990855221345,-8.104438481571657,-10.960500438869857
144.0,-3.645292316615701,-9.42993474381613,-5.784642427200133,6.490198443996848,1.051593923130671,-7.578897304057479,5.643138550377238,3.7321734923090655,2.5411246439145305,3.4495568622489605,1.6497325340146336,-1.9580639180046653
145.0,-2.926292249456519,-8.613849375473732,-5.687557126016761,5.7259687182220596,1.3592685249063656,-7.127944792842694,6.356213236050151,4.290651927322499,3.014798380957693,5.343257294988126,1.4789394312439867,-0.07591601134449388
146.0,-0.7413883596970798,-2.385606856391641,-1.6442184966942712,1.6002066020097465,0.42633791583973,-2.076621329510333,-2.5321657674536913,-4.125120707880599,-1.7231728985809287,-3.9162297074716097,-0.13583684527103257,0.4975873270815069
147.0,-3.314755970501535,2.926559775647052,6.241315746148491,0.23126496866888557,-4.728597188619705,4.595455512878175,-2.8663932880339518,-2.201714354538871,0.3156004904460028,-1.5224891016910336,-3.2823906295748415,1.1124205368216447
148.0,-2.0020002600888294,8.622817497122217,10.624817757210568,-3.2747574016262924,-6.268792662771242,9.630846091061851,0.17647277686446472,0.859976661437867,0.06759763946663488,0.9219874067526794,3.271580476438338,6.704484265029907
149.0,4.722216365140632,9.858616318901316,5.136399953760282,-7.337331111069458,-0.2467132013254325,7.502217504320138,-1.164581456552056,-0.4873918368914102,1.6092345373084935,3.1070860612306386,2.965994724843837,-0.12559948018924505
150.0,6.370692956920691,18.491396101944453,12.120703145023445,-12.48394977939711,-2.920676287731823,15.311526739893434,-6.00429439879234,-3.1246998324977877,-2.4968505823147513,6.103629807626491,7.119519154616539,-1.1364726487044416
151.0,-8.73077442988529,-4.878852783454674,3.8519216464307253,6.823522839854814,-6.264278824332241,-0.5039292319047011,-2.5532096490251703,-2.1753317066565967,1.1951945752542246,1.3553099301566955,0.052836309818760974,-1.2262717422521987
152.0,0.7060177344975958,-6.543195257128396,-7.249212991625782,2.930982387345684,3.999948714270629,-6.880043822662483,2.4555088465747383,0.23340144461360962,0.03959917528221113,-4.898036862373663,-5.681495781343424,-5.735761712503688
153.0,8.752078920777473,-8.566096195775119,-17.318175116552446,-0.08375208415313029,12.976845175011885,-12.997040587372384,4.590340739702591,3.7564002575644126,-3.180887807646437,-8.07404572813104,-10.528070282759957,-4.407514729365078
154.0,-11.114710878306816,-11.193956900045274,-0.0792460217383173,11.165413074763316,-5.494920782557212,-5.605844793392581,4.702003220109874,5.204703590325616,1.1366848191508745,-3.968847383955618,-0.07030220714380597,2.961986885041009
155.0,-2.545605784851793,-4.189773448455303,-1.6441676636034614,3.3861792656784724,-0.42101626476762755,-2.8816818527409094,2.383311312015526,-0.030660308344387932,0.2761490263392401,-0.43813438063662735,1.2144150274310261,8.311405214835183
156.0,8.42394943946784,-5.624806900143229,-14.04875633961094,-1.4478077228587363,11.276314933239753,-9.87897020977448,-0.7758900096863034,1.0622514297368235,0.7280767852808412,3.8927494614839007,3.5504806995017733,0.670008253799014
157.0,0.7288740589578833,6.476450613330277,5.747576554372507,-3.557744187232347,-2.5371610985475193,6.067993280684407,-1.664944089655454,-2.3364768217910847,1.012796019082481,6.223325257358226,6.400586053181411,-0.40920377085215076
158.0,2.9607913684114724,14.809406319990448,11.848614951578945,-8.905017189841573,-4.463386033343445,13.359967655855698,-4.340738768555794,-7.0258021028584885,-0.8540861213958002,4.229138953505542,3.240356785674348,-2.658146895232964
159.0,-7.420432612218727,6.681750055199352,14.102182667417733,0.36010953926912315,-10.7779552964153,10.418943673013766,-5.55451965819673,-1.2621186869484329,-3.9799791220422582,-2.9642557790998074,-4.253912115266015,-2.095547989250594
160.0,2.9294341445610357,7.430937763365378,4.5015036188040165,-5.183876371390884,-0.8066375659822311,5.990623541091568,0.5475983964364444,0.6728031744093739,4.7914849559654575,1.1956165417578426,-3.6635037189362194,-0.6881513374445829
161.0,1.2751000905761218,-2.2586717362300153,-3.5337718268063023,0.4877893896673391,2.452653852866659,-2.950832688718497,-1.9917566809935225,4.717911804198805,2.4928911904639204,-3.224016297914055,-0.030387551950279423,0.8466478565220593
162.0,-6.861940277115329,-16.918670104357517,-10.056729827241952,11.88068822693724,1.5535535941215044,-13.461509115350548,9.523449462754815,1.438688153189248,-2.707004183281123,-1.3722854748962683,1.1818996207281525,-1.6365356051320967
163.0,-1.9510994072313026,-10.642330496554244,-8.691231089322478,6.3563709033192834,3.3917747875356716,-9.636905448046669,4.0582146545043205,1.140129224610876,-1.681771359852427,0.2655304019470166,0.3845647711839106,4.595436570612488
164.0,9.636223321033048,10.484382218202946,0.8481588971702871,-10.090800582340345,4.40590548282981,5.6217843407072605,-3.0244064147699046,-0.5674792170860709,4.420869224776286,2.1153247309221888,2.3758252741175676,3.438089980934521
165.0,4.183526944626086,-2.259621139881512,-6.4431480845076115,-1.003789630572062,5.320777840264784,-4.391512468678265,-1.532848534005093,-0.40428425679376256,-0.5760618420652541,-2.7087151737882422,-4.751904492835154,-5.67835512646039
166.0,-10.954712990915962,-1.8745012528932432,9.080211738022363,6.441983829292862,-10.008747773883993,3.6454952274640005,-3.0755072687673097,-3.880483245296239,-7.1332818063068135,-6.527568257991025,-7.314748690420769,-7.198882147752107
167.0,1.0309030557038676,2.7037873446104856,1.6728842889062143,-1.8464939602341464,-0.3066061270843532,2.2346931768430776,-0.1309426405087537,0.8000277102631008,-0.728733421002894,-1.5752859472878789,0.8849994118304685,2.1457133814722202
168.0,5.616986203402817,8.14931271876137,2.5323265153585934,-6.865359054323215,1.4857900752156676,5.311997040167281,1.3255578892579882,2.5142682420964624,3.781453194947053,7.9395063034445075,10.613220401553757,6.781138705702313
169.0,-3.7839995155612915,2.7958492550758085,6.579848770637434,0.43315225208157004,-5.151951817960806,4.662560492383285,2.0682426091856576,-0.11894472561027458,1.74672756028602,7.133654829133649,8.013203604736676,4.149834472620899
170.0,5.738540173022306,6.454251675088399,0.7157115020664246,-6.07646176352926,2.468923062992049,3.5632705731246075,-2.31608618883297,-0.2907826181865176,3.1477744037787074,6.1798535050077135,1.766808137062997,3.081871994429334
171.0,-3.7262705637437294,-10.796855789070891,-7.070585225327165,7.284300748220318,1.7129260526173153,-8.872972681222974,0.13936598684990006,-0.805613602287333,-2.955145926740273,-7.240260553620866,-11.59762521319648,-9.064592108862993
172.0,-6.620146739835906,-9.156192393540502,-2.5360456537049734,7.913058789789382,-2.0767334119309937,-5.86023073810901,-1.6408769186147019,-6.08695278068371,-2.3207290490731687,-7.706317192018632,-9.318569544057688,-6.717796558815516
173.0,3.9520680432070665,-1.566168728027992,-5.518236771235362,-1.2462193818145941,4.782130360456379,-3.552301889318792,-2.0116421256406976,3.7301050959523936,1.8120756296203098,-2.9310008556422567,0.5497372595617733,0.9849964913602758
174.0,10.587468119929875,9.187596355855986,-1.3998717640739846,-9.863085223498782,5.964862642073594,3.887741308264135,3.008893551516347,4.803000237724228,3.906884205407658,3.351877769904169,10.626469619912811,11.544533125944712
175.0,-7.172105546001617,-2.9421385790655803,4.229966966936057,5.001142560906275,-5.648376345596108,0.6415654128175863,1.7652951352312374,1.7666208580995737,-3.0034138012085156,0.29121801780916345,0.6301064650602495,-1.462974062912556
176.0,-13.21808625034955,-4.341387885589402,8.876698364760134,8.80196137827931,-11.071952871219873,2.268720027873661,5.488285729487448,-2.711455969982614,-3.6164648483561628,0.6912295349354203,-2.282718954453161,-3.8589797967258654
177.0,2.775897219489151,2.625251817307472,-0.15064540218166123,-2.6759515981640676,1.4380006487875727,1.2412057302784665,-2.7015003178541,1.0901499616860029,-2.2102266267118074,-3.1527201821934847,-4.9522672842731295,-5.494436312430375
178.0,8.447648313483914,5.5482582624979395,-2.8993900509859385,-6.9670999363959165,5.644799300194324,1.3301703507535738,0.39103692119233324,-3.4850590489931315,3.175655845699745,2.6498212376686032,-0.008026166698964499,2.5350727654898417
179.0,6.618618265978436,5.3038862106111635,-1.3147320553671822,-5.999821081939265,4.010976435030462,2.000425488785199,-7.274657035235499,-3.4262437191465915,2.0849782212941808,3.744691559345841,4.560217920436468,1.8112869781423275
180.0,-0.4745616113995976,-2.988009280364274,-2.5134476689645213,1.7815216161723717,0.9783000434808318,-2.747388612566766,-0.6435862476564709,3.8756675748897997,1.3215469010726726,1.8285233501277798,1.2325247964455792,-0.44120201213762367
181.0,-0.14305263007042401,-1.414184413372086,-1.2711317833015756,0.7576325587671426,0.595600436547552,-1.3452054153966055,0.22795007077604024,0.10363764926409735,0.3246484039550782,2.5655296254205595,3.7562439373220595,4.619684710295824
182.0,-6.1915696851265904,-12.08213172131695,-5.890562036190288,9.117982672423352,-0.12311258874570263,-8.998335659337217,2.4070810463617573,1.9038410061791304,0.48423094245618714,-0.8821374462640346,1.1349671113971092,2.4164500928096233
183.0,3.8123158590433817,0.9244307443115201,-2.887885114731654,-2.3917809331056485,3.3756170068435027,-1.0059474369204673,0.21580278505582573,1.1559077345821884,0.6746562038917253,-0.4022288718069196,0.1052379628181187,1.3916234286011078
184.0,0.8632966182719125,18.672598155232684,17.809301536960916,-9.801453495690966,-8.526140388139074,18.282219819162943,0.5183871683461843,-0.24060066273915626,-1.9728850488607492,-1.992468234772063,-1.9373843223409573,-0.7635802025433052
185.0,-14.43563091819436,-2.354896375824926,12.08073454236924,8.428068536320442,-13.309861684641746,4.813555752449628,5.673045559997248,-1.552624964346146,-3.4446767073056486,-12.568593363466373,-14.149864630870944,-10.368994863765547
186.0,-6.00778293411617,-7.99802501006374,-1.9902420759479114,7.025131979966891,-1.9793096933606242,-4.9729085482384106,-1.5357168129018244,-7.168782704347093,-6.675494445192581,-8.288453933091352,-9.818821675169023,-8.27300755159635
187.0,11.811640158993864,4.81695460659229,-6.994685552401811,-8.297155247926636,9.435768276712425,-1.070622418748056,-5.601607945521688,-2.7341586582709825,0.7039856738271553,3.0736129235186853,6.441750627707332,0.5025656588359193
188.0,14.996656337609231,-5.27081876906915,-20.267475106678404,-4.843601390180668,17.668375602380618,-12.748761290850206,-1.8308269483112958,6.111452002181515,5.48480187325652,11.92005150900182,11.21774195825747,5.684348411864241
189.0,-4.272822195542432,-13.616505666490179,-9.343683470947392,8.894086223913469,2.4967678614717013,-11.454105400077133,5.8386308648586445,8.197049363549583,8.902003093066298,16.232140331093277,15.527618974390023,13.811236293007447
190.0,-5.412611187525948,-6.5040507594976,-1.0914395719713883,5.999502472977109,-2.196131987435584,-3.8441245787696485,1.8232651832038806,5.9223562343778156,2.3288176372848897,3.004568547139364,1.2344016678108378,2.1381972774497893
191.0,-0.8690595796471889,10.943536297897392,11.812595877544645,-5.061153633684498,-6.295821095609213,11.33621599270606,1.0786825174206383,-0.11291599388262274,-1.062241774461506,-1.0342852439138732,-3.048704341160536,1.3005096162255154
192.0,-1.9047116565992956,17.42156907882008,19.32628073541928,-7.771260502988579,-10.648982960468473,18.411963740424913,-4.63767385283052,-11.159786298007196,-2.5956261568482013,-8.940393437868268,-10.516526867546373,-8.018656563022603
193.0,7.673625052292094,13.664435463888246,5.990810411596014,-10.675420018105694,0.8857179486961693,9.784690849925607,-5.092301844616986,-7.278809679223181,-8.250494247627131,-12.771259061655602,-8.559425120934975,-8.541656588007857
194.0,-1.273303704189346,1.3832487383245917,2.65655244251376,-0.0600155024852822,-2.00068960889895,2.051453315875123,-2.759367533962279,-4.0789009498611435,-3.875122799484462,-8.218582784884397,0.13033025417285504,3.032910041051238
195.0,-5.95094234079845,-18.054333781770158,-12.103391440971945,11.99481673822388,3.0398759908141324,-15.051839130296225,-0.04395635750071339,2.7640908871219905,-2.243235211045357,-1.3209127235967477,-2.5612226558702753,-0.32153868955506926
196.0,-0.9397771963064165,-7.5586581632966094,-6.6188809669904,4.314997347981534,2.88308999860505,-7.065174888763549,7.073671300626071,8.628652625044126,3.032558186617074,8.131336586247004,6.364950420918414,2.609135362508326
197.0,-13.013782245984459,-16.213246049272357,-3.1994638032879825,14.594814220237211,-4.860328478952259,-9.763386082866376,10.960051822501118,8.264392799749828,8.565772696183272,12.10263845309855,5.203970145997123,0.8844059857313575
198.0,2.59268493886413,-0.2315723659460529,-2.824257304810071,-1.2042528860589563,2.6815990031390773,-1.5069231280041189,0.5129472180138492,2.4340563062754006,7.7890431228519805,8.524906190402323,1.4681632198044756,-5.495071495582125
199.0,20.055831466250318,8.415403488450117,-11.640427977799988,-14.26289581558459,15.826933133373261,-1.5919131032029739,-7.290708550556905,-7.216552189457937,-4.0906223748669355,-4.33463340108545,-4.248005165391497,-2.423816091683425
