Time(ms),I,II,III,aVR,aVL,aVF,V1,V2,V3,V4,V5,V6
-200.0,3.7511246960374978,3.1554755150085922,-0.5956491810288674,-3.4309901007125734,2.222418620466265,1.2979309937873613,-5.687637298633438,-0.4055398913986641,-2.3666914794688183,0.9436678651523982,-2.4423816784740624,-1.7267846555084658
-199.0,18.15021802660489,8.710855022536359,-9.439363004068545,-13.489690738380256,13.765695112259358,-0.3400104341462955,-4.947344485252238,0.6944576748444637,0.9778781590143766,0.7177409602646494,0.025175637599012313,-1.920899623854023
-198.0,8.793357180285298,2.4621270123982018,-6.331230167887157,-5.610223564379658,7.609906383791833,-1.9030975108021362,1.6928922522588832,1.4678408605258029,2.663046614309697,3.2273284678595857,-1.2264330463332849,4.814264786670131
-197.0,-9.169738523035985,-5.800152154954702,3.3695863680811575,7.502422336695462,-6.305131856632345,-1.254721895273062,6.991928311969816,3.9341293746720685,0.4699923791953031,1.6105068618945788,4.031809514049068,5.772551520173433
-196.0,-11.897620404029206,-5.136500235985193,6.761120168043876,8.53732723980449,-9.370602221643866,0.7808949078367355,5.261375013653979,-1.9956107746706568,1.9319660172992443,2.7054429815075456,2.7528975441947763,-0.23284153237463157
-195.0,-4.919189809275567,-7.207631797944318,-2.288441988668823,6.0890474002415065,-1.2838896723441202,-4.69309717934064,-0.9861780806791374,-2.9891884310708554,-3.216018891786195,-4.2159333430666965,-0.312053474911407,-1.6012340983683273
-194.0,-1.424247908270603,-3.582358766661761,-2.1581108583911455,2.4568649635767685,0.39320534955220054,-2.887531948626263,-7.709484524389989,-2.683893860389493,-3.31686374385613,-6.208154400940383,-4.633588972319544,-6.928817987752234
-193.0,6.168989289172471,7.095335112765233,0.926345823592845,-6.672436072779613,2.6438228709768374,3.9981810653553604,-5.902607545011491,-1.8104315035696916,0.5769394113381503,-0.23677421044471814,0.038577212519991466,-2.682670948043525
-192.0,7.838645276511816,4.039599820751359,-3.79904545576034,-5.896709564012242,5.760188020710282,0.10948616815475587,-0.11673319954577277,1.117710439444351,-0.4346141507187574,4.031171878961064,0.37979156529278724,6.232769490860095
-191.0,7.476617216220159,10.03849214530581,2.56187492908575,-8.71456817478089,2.475810707893193,6.366347451164681,3.276926658641217,5.572654634927867,5.196017867443397,2.2929039373664875,0.8232621611036646,1.6635221461278344
-190.0,-3.739535946549097,3.950043017888384,7.689578964437509,-0.1441224137204946,-5.697746879647066,5.801148144742483,4.86344626739961,2.5613271514830913,2.3219374605998118,-0.7062372854096046,1.3822229484025859,0.028609708871652373
-189.0,-9.192817743762971,-4.893273257586,4.299544486176934,6.997966629407623,-6.731370290290988,-0.3257859240798686,6.128628832102953,0.9999587371385832,0.45259466206552545,2.9174784320663334,0.9600002886889555,2.659887804275826
-188.0,-2.2280463939796213,-3.4110717618729405,-1.1830253678934073,2.8452782556411744,-0.5885464471387243,-2.339154980709787,0.34886925651222134,-1.7121220780638222,-1.4455600525734946,1.3191012171516496,-1.8747208527818249,0.2075490112017645
-187.0,1.465995336590737,-9.863457027798132,-11.329452364388965,4.216545655568515,6.409254731300162,-10.573423117939713,-4.06813395631787,-4.29637999027363,-7.269828965851375,-8.079155589999182,-2.7761719154450377,-8.910263501057063
-186.0,0.05266727247275821,-5.385618651064587,-5.438285923537422,2.6780822429359317,2.758169745817521,-5.399749896031178,-7.98805865128665,-7.1322636823096355,-4.49002062861578,-4.240560739364778,-3.1875906648152226,-7.017270863076465
-185.0,0.2002043261147154,-0.9241872283122721,-1.1243915544270382,0.3700948503240903,0.6796830956713455,-1.0172704613976586,-2.141518848307901,1.1862006137493242,-0.7347036087313179,-0.9880470005926241,0.40520650812354964,4.456652955417915
-184.0,5.358624916508151,5.278680889975169,-0.0799440265329936,-5.3111275682254115,2.7450930444911523,2.6082333792117565,1.640690470596747,4.094664328201009,6.10543762535564,8.950756351504134,4.191529760178455,9.52711896955066
-183.0,1.9892451956255952,11.855330114729357,9.866084919103773,-6.991506583127649,-3.9803819718554707,10.877680947470125,5.996392533324961,8.726703902936826,11.407594263539902,9.555027835846083,11.246128475099166,9.77986966833042
-182.0,0.5073512650039009,5.545866005717929,5.038514740714053,-3.013037680126711,-2.217611479880275,5.320751646818602,1.6154859334374443,0.1095748455905694,1.1319258904908471,-1.3567266878912587,-0.12769105838658268,-0.6861222300326859
-181.0,-4.499410899397988,-0.4533331496877633,4.0460777497102445,2.495424509575268,-4.294914952491398,1.7574134821256324,3.5190941968927696,-1.1994890771431688,0.05951483792432921,-3.800322313650198,-6.1342812718243,-4.332714348753125
-180.0,-5.51416791463312,-8.349625337035064,-2.8354574224019244,6.957131673941239,-1.3576656293977754,-5.624070437531151,-0.9278583516968488,-2.1325928196080297,-6.531558598095607,-5.898480999764486,-5.846996582113556,-10.675053244312004
-179.0,-2.8477658995882402,-6.686801471112135,-3.8390355715238784,4.798372147708516,0.47574645185250675,-5.29254516064829,-5.77991307871851,-6.654292834293167,-9.960863403939388,-7.669853473772308,-5.6290723456638005,-10.248184596244268
-178.0,0.1493735920608007,-4.870161716637787,-5.019535308698584,2.3170760222305598,2.5586918110675896,-4.898789688096156,-6.070058477312884,-4.404959113927023,-7.145888900111306,-1.3465293414079564,-5.4558747989920215,-2.8295241692330952
-177.0,6.632513640951893,4.470958937342784,-2.1615547036091223,-5.593079361165964,4.442421012149252,1.1163872827816856,-0.2557370778033947,0.03161241014700855,6.536985616201614,4.601867300353707,7.420294860707106,11.650784379874256
-176.0,10.413252265269087,6.065438819295813,-4.347813445973278,-8.202369245624965,7.419594055872599,0.8941096663896473,4.542128838404959,6.355454464226554,6.000505352935577,4.234180101405504,7.266283134522598,11.239710489741405
-175.0,-1.3674284037623199,0.407688534168158,1.775116937930491,0.4361601860339821,-1.613692426397702,1.1243449443134321,6.4185290354741635,8.06806136557737,7.252635929104207,9.057139771432908,7.9221242282721445,5.672161350342673
-174.0,-7.419684602163371,0.25537196371371884,7.675056565877116,3.6151646118375984,-7.509260549102169,3.9992352938699782,2.7128969236421567,0.7686638304031188,2.4749275734622636,0.21027860240603857,-1.701396171005245,-3.724324711915628
-173.0,-6.277175982164289,1.2304553239972371,7.507631306161541,2.5554112954603854,-6.927350310707493,4.327828567003693,0.038419063117322017,1.0000282519256682,-0.9079845676669474,0.10210046016712802,-1.0727851503169301,-1.7369685723565302
-172.0,3.992823554634546,0.7472466059291659,-3.2455769487053594,-2.3375444169472317,3.5921327343808374,-1.2862279184096863,-7.375193963382815,-8.277387928064712,-6.9107654423773965,-9.76765374601366,-9.470085088658086,-8.374349538193307
-171.0,1.7865111577049348,-2.1635631250662413,-3.950074282771192,0.1435049241651717,2.92778034831405,-3.090534347140871,-6.030990936007301,-8.16045471925298,-4.750481292061735,-4.560779055073218,-4.707467058151061,-7.414598328752833
-170.0,2.131719612908899,-2.8844879267594576,-5.016207539668406,0.33239109056500654,3.560242529377253,-3.9031153093886903,1.3565452738941763,3.14756069277216,-1.03249966586107,-1.8529937645123198,1.3457991687668462,1.5934186336916696
-169.0,-4.659701645725821,-4.746290123741048,-0.0865884780152717,4.73787336987103,-2.2985866074529517,-2.4462282139025127,3.5780713680841734,2.820557749127113,1.6578245896677475,5.215856283233854,3.931366485932965,4.637579531146598
-168.0,3.8869736215077797,4.67931131283377,0.7923376913260338,-4.327769223572737,1.532567834048826,2.7869946311644394,3.174118139693944,3.626091892246834,5.063901154492801,3.729567984824119,3.8733244472261465,5.041936315423628
-167.0,5.682325990088607,4.257484040187138,-1.4248419499014302,-4.936798446977203,3.5323512714861938,1.391741245564416,-0.5839430486934649,3.0351928928284058,1.1287432067498648,2.841225869772518,2.0373206921747116,2.088161886526773
-166.0,-10.885568892508472,-1.5941168482459274,9.291452044262574,6.272302383502092,-10.03958249153781,3.90579472079074,3.4635245267210912,-2.744393564565232,-2.466260966626852,-2.635943820230813,-2.0829203603177735,-3.86576795472147
-165.0,-13.419322591130895,-3.3571754298624623,10.062147161268438,8.420553285888298,-11.779169873409417,3.33201987440429,-0.08219797919678451,-1.3342729525857302,-1.2940691416851593,-0.6552090578289717,-3.6560287866177372,-0.0050201004896521795
-164.0,4.421324400478272,-4.025471911646024,-8.446796312124299,-0.24451212593260063,6.467517099771163,-6.259017129731314,-5.054432157975873,-1.314052125725619,0.7448988504539739,-0.49706568028559817,0.2645983556658922,0.049840453553034125
-163.0,14.49498864024998,6.60894385528259,-7.8860447849673765,-10.599326888946116,11.219775267483879,-0.6680513616914099,-1.8511593982006675,2.202874160929709,1.8343451307048184,2.14128184775332,3.56628462646034,2.4921279055415053
-162.0,14.45649201639145,4.931895356713535,-9.524596659677865,-9.66442654496701,11.939374638708664,-2.3353774383190964,-0.9362833846452943,-1.0019215556092944,2.6121971898316882,-1.3374013587940479,1.717491790935837,1.0356895228740128
-161.0,4.3232963452467255,-1.3145371090892102,-5.63783345433585,-1.4765219686049198,5.008053223045346,-3.4458351478658664,0.9204756565702599,0.2042077002670057,-3.033986213877629,-1.1178617953820953,-4.042894798608115,-4.335639581425194
-160.0,-10.125770606899279,-4.148685626309918,5.977084980589484,7.0853223066519355,-8.102434594066034,0.9390167801200059,3.45758149359722,-1.656296387205168,-2.503691752813518,-3.2182878924571825,-0.15734919744548237,-4.871035478869471
-159.0,-22.151096852673465,-1.9679125804670048,20.18318427220658,12.087520632582766,-21.13989775800671,9.133448421312739,5.706945505747514,0.4127285834649852,0.16843142285435997,2.978924580178613,0.5663895874166447,3.4579763039495868
-158.0,-6.7630117866905,-1.4116932391482948,5.351318547542265,4.119505883200764,-6.031911820880282,2.0035463022069044,-3.952537061430764,-1.4408750499550136,-1.7954473649676936,-2.7315231777848084,-5.609730891086915,-3.406482302168582
-157.0,6.843561157822372,6.575664223925112,-0.26789693389728875,-6.749281331853219,3.5772090925896824,3.1215195544608116,-4.295629106544463,2.7884106466337384,0.14962484122904274,1.749121595888083,1.6811969778228972,5.7181770073442255
-156.0,11.758836942495762,4.003554588840118,-7.755282353655727,-7.83360845258501,9.694444919601109,-1.8947997815046067,-1.8302246413421146,3.2627198415714838,5.8212979105117455,5.252083357305176,5.806223429770044,6.668351794613165
-155.0,5.9682705828188904,-8.445397273259626,-14.413667856078549,1.215583379445155,10.20101127371666,-11.438442985914472,0.8906201506856408,-2.329586385171641,-1.063757643358107,-0.5315404544395639,0.5276431315924923,-5.542254902155233
-154.0,-1.1532508554500422,-9.856545134832112,-8.703294279382062,5.487841778206532,3.7796378197080953,-9.28507317278787,4.129565930888981,-1.3688347128860876,-0.5389788019584303,-3.283380769885725,-0.5101333792182432,-2.7407916463714725
-153.0,2.2255156694377423,8.992081270287354,6.766565600849677,-5.6234861974282495,-2.268969619384188,7.871029775849769,0.0012265452908293284,-2.343156618390778,-0.8420401628941325,-0.10152897960297191,0.44373068940503857,0.8559557685624513
-152.0,-8.378775939139343,2.0919998792633328,10.470775818402744,3.127229870927631,-9.422511199172822,6.264701203316575,-1.4982195987531157,2.9734794242492733,1.2911425088494917,0.6827082372099202,0.600789392666939,2.9088034486779693
-151.0,0.4220490044513685,-1.8463652517887927,-2.268414256240142,0.7700711380311704,1.3524798609758415,-2.005824313716352,-2.0413667812309537,-3.1735385866727848,-4.85134158228226,-3.424573316004803,-4.6482097867081515,-6.817496681354173
-150.0,-4.161317764590993,-0.48073697594668524,3.6805807886443276,2.2933893743606495,-3.905192692487336,1.5635640134536923,0.3980112339604578,1.1067360771334205,-0.46212080672343725,0.22779890573092598,-2.069664443135453,-0.9085079150017275
-149.0,-0.4380691778024941,9.082177849535952,9.520247027338465,-4.278813638655875,-4.953262282765978,9.33827566541174,3.160615035660741,2.1517011024671797,4.97975028019906,2.702225164439885,1.5309606596954763,8.509762811428958
-148.0,8.77601353272636,1.4764358520596241,-7.299577680666726,-5.169876360867176,7.994276364080461,-2.875101319578316,0.3205979309855181,0.7700767698980115,0.7777286085816035,0.8096923209954519,0.24855882222239134,0.6070849201780213
-147.0,3.730220050598442,-1.7393697763730602,-5.469589826971519,-0.968075536979774,4.562827920507377,-3.6433678467533954,2.902646019966092,1.0431790909572662,1.313757214034026,0.6704120840117553,4.124536324527032,-1.2429470104052065
-146.0,-6.743424571393213,-6.8395715434903535,-0.0961469720971646,6.733533406389985,-3.2793894413556925,-3.5011416801161213,-2.735772883761093,2.023190598632056,-2.425504001195917,0.9973819006382207,0.7847337249103794,-2.6651006943796323
-145.0,-4.901223046763613,-4.837114868313753,0.0641081784498363,4.885597790123722,-2.5180391842127845,-2.4139129501359537,-2.2984099724788503,-5.949267438023821,-3.083050642285715,-4.037279217200952,-2.2483251690851564,-4.670628368593627
-144.0,5.518691150607512,0.7883669711353063,-4.730324179472232,-3.1382260746110546,5.1650438689306615,-1.91501898719154,-5.383572563762517,-3.9665766656501975,-2.0523891126727447,-0.4782419211054181,-3.3861305956608754,0.7955331321563661
-143.0,-8.644134168596212,-1.2488252062574139,7.395308962338765,4.964418224564309,-8.060924110636176,3.0528426894650638,1.513697545602005,2.277267220123745,3.952797464345318,3.4388432303571035,2.5150237512050095,4.53500867682597
-142.0,0.2695854361693202,2.2642880373592282,1.9947026011898714,-1.2429961969481693,-0.8267935835419391,2.187408624530894,2.1933290768658207,2.797986555384911,2.5765385984076943,0.5062464403290875,1.9980388839255872,0.6592034410940792
-141.0,9.143658739186794,3.8478855877479337,-5.2957731514389055,-6.542574818021991,7.255245583406193,-0.7483645604988807,4.173732730050664,3.8938158666332106,-0.6593415747693887,-2.019169977304662,-0.09168217048666538,1.6356705907808986
-140.0,5.915767163146165,0.18039153120914886,-5.735375631937056,-3.007997361896622,5.782926928035211,-2.8084900580577963,1.5469375593027435,-1.8352296620351352,-1.5850911365804246,-2.0722408904618983,-3.2423220036668248,-3.7936868026752375
-139.0,-2.1910227166652874,0.6431127317605427,2.8341354484258128,0.7418959579883144,-2.4764118281098058,1.6989854253558283,1.6932888207968735,0.10854730097009163,-1.9384258532136567,-1.5148384885925656,-1.789257605230198,0.7635850523738086
-138.0,-5.616486873217193,2.630586113936415,8.247072987153615,1.465192002154902,-6.975896123649198,5.468989612421689,-4.282675693608439,-0.43075370989920353,1.2139438943685867,3.913147262618905,3.6054737777985757,0.8342346244971034
-137.0,-1.5345713856700662,2.0123467067498617,3.5469180924199493,-0.2643642510207074,-2.5880777126571597,2.8026694025211465,-3.1567378750343957,-1.3034914254559087,3.52565993324488,1.8567155541294222,1.8537755790667256,-0.009250019359879038
-136.0,3.601592627041815,1.555941017384368,-2.04565160965743,-2.524256170931323,2.851254682529377,-0.22533812620993932,-1.6684570734256157,-2.7725715448443498,-3.002691303520942,-0.16587359502010512,-0.6939626967954835,-1.8076058254954686
-135.0,2.8202794142450847,-7.484732077478636,-10.305011491723727,2.3878279882283358,6.587736070972507,-8.87447312905584,-0.6344916663689313,-0.8758010343436533,-3.88848540157179,-1.8672877936138192,-1.828475717436349,0.026585809647185932
-134.0,-9.01499355138254,-6.464921917415649,2.550071633966853,7.71796043868816,-5.757203245088014,-2.0108027721231867,3.748386254176653,0.3826459502571361,3.1584567716807945,-0.7106291552533522,-2.209663262776229,1.6539212519967614
-133.0,-9.692417712049387,0.740312855107494,10.432730567156812,4.4547718757576495,-10.033797856666698,5.541105960313929,6.874285764890576,6.53574022417217,6.306019569168994,5.4673696501770594,6.770960930321765,1.0260341443945629
-132.0,3.710070935267215,-3.189161367473916,-6.899232302741204,-0.2820463047294731,5.260450703703561,-5.0014053138720325,-2.0313091161253984,0.20421437854069024,-3.4365033243292715,-6.068950625218559,-3.7981375226002587,-2.1686066537528594
-131.0,10.725898711392459,7.383850948742801,-3.3420477626497127,-9.077774196776588,6.9961961505255585,2.0729781563484835,-5.5011921488261235,-4.069329884328307,-4.2257246402836435,-0.42323981745996475,-1.010288988214456,-0.4497712026310481
-130.0,10.6288391955249,0.6027993331271562,-10.026039862397763,-5.640119113547676,10.373878129795427,-4.7309428870756065,-6.3840839351875065,-3.6843550552187363,-4.070407519131303,-7.834754083789912,-7.253103063442193,-5.919511572027323
-129.0,-3.893286840760907,0.8802520224595916,4.7735388632205,1.5607721952587115,-4.362076030739745,2.811354488108303,2.177116856377211,3.9514800093177547,1.2947066779693053,3.5705567909117297,2.9635897089635646,2.1752696563693537
-128.0,6.768853775558911,10.361308571623269,3.592454796064378,-8.509056029996163,1.5614537400010269,6.960511426597952,4.824228619344592,1.089534006497976,5.287208265974981,8.002811830200876,3.1165253488428895,5.596695902221587
-127.0,-8.10398844325405,-0.36558117874020035,7.738407264513892,4.215281727970987,-7.868275905807232,3.664633347720125,5.288375125590535,-0.7418558505833817,4.5287462588293295,4.798487442811362,7.259439474219763,6.202270840412561
-126.0,-15.14684502276925,-7.257379666875907,7.889465355893399,11.185510782827818,-11.543275043997152,0.36427854383437785,3.039807308058311,1.668580330253799,1.0145137559194541,0.8661948454519022,3.4978123651754274,0.5898279364951715
-125.0,-5.0124780790939365,-4.804245837465787,0.20823224162820098,4.8921455156531195,-2.5559134267403234,-2.3384217627024872,-3.128808858635201,-0.45345331169120523,-1.7066086702804073,-3.9740421082868456,-3.033303798682837,-4.749954366539542
-124.0,0.943335935130774,-1.2883215239284507,-2.2316574590591878,0.15269002495454131,1.5637650017096263,-1.7303119485504999,-0.013327470190598767,4.278431787745732,-0.9427706269042324,-1.375773939917598,-0.8576643855166992,0.7699315025657456
-123.0,3.2760907274152586,0.9393818876581945,-2.336708839757038,-2.134982036359911,2.782318430071916,-0.6744489318449225,-4.518250400976467,-3.093095283205898,-2.7131921159804007,-1.9282181007746413,-4.639341920888641,-5.106528355670049
-122.0,18.84239221575611,-1.514782573559056,-20.357174789315152,-8.621855264060454,19.573960091513225,-10.99180360626065,-8.532527891746412,-5.679101092950599,-7.28873268692207,-6.779432798264692,-9.923162784010325,-6.949723776950341
-121.0,6.202296200634789,-5.657990564531083,-11.860286765165856,-0.23918617619437832,9.081322273315665,-8.733524383357484,-1.7929001274890988,-3.7070325091440974,-1.5096539880359177,-2.6102643951061184,-3.0641940773811576,-2.2975544069806086
-120.0,-9.488170436616468,7.65813479063623,17.146305227252725,0.863392002492609,-13.348981464922677,12.433239110849057,6.89834069107075,0.7251074282685089,3.635419442402144,2.8188112974965116,4.286690077403399,4.446247357776586
-119.0,-3.0560162494243643,12.561988627467777,15.618004876892163,-4.727045023579054,-9.370467452118046,14.048414432049334,5.738900569784795,3.4550457617269066,6.75135743508844,4.7548864449224375,10.215775651151862,8.70774627322111
-118.0,-5.368028042736195,-3.4127978844733127,1.9552301582629141,4.4197975807167555,-3.6155505208304923,-0.6868469544369731,2.8539055609562025,5.205430330794175,3.084084851606155,6.702078981466231,7.407081847847226,5.470639515010991
-117.0,-0.22118366478945628,-10.359962568683757,-10.13877890389426,5.2477194293844445,5.008422370532682,-10.284419777221089,-1.5632723705689515,3.8989535185734248,-3.1732946045457164,-1.042779040131057,-1.0074343764200542,-0.7785967691312266
-116.0,-3.0791876397681324,-5.311914667326898,-2.232727027558719,4.238454161939124,-0.4470325595177428,-3.8092058905769717,-2.611568093729847,-1.5616055646468112,-2.9675679599778175,-1.2476357207036415,-6.1328117873358625,-3.190106199918383
-115.0,3.6500103564472735,8.311972207223679,4.661961850776464,-6.012090269346303,-0.5246164232173671,6.524016412007883,-0.703286255318698,-4.978204633106074,0.4488773438345359,-1.2093161353879083,-5.777195445061183,-6.713915646507086
-114.0,7.11852803723765,7.414610395139294,0.2960823579016827,-7.297224010326878,3.395505690669974,3.8861668006570014,-0.2925046083057583,-2.7858429650507825,2.178413466096064,-0.577499949582315,1.6451040994020167,-1.0510337145327657
-113.0,-0.8046865727564603,-2.470767933901138,-1.666081361144671,1.6812598318787688,0.41434157283366524,-2.122085717661433,1.5077152593548842,1.8953553622148407,1.827733440064528,-2.734630645001829,1.3166106667286832,0.5294615818417072
-112.0,-7.146285186918302,-2.6116900496578497,4.534595137260425,4.834996605977353,-5.861110492044802,0.982895068154604,-2.540332552133546,3.208347759930251,-2.2874947508771153,0.4224953736477217,1.2631397843056023,1.4837651703107602
-111.0,-2.387443990451078,-6.0741278506704095,-3.6866838602193868,4.254504972120961,0.700617446714226,-4.859762243563081,-0.8596573029125202,-2.930811512661944,-4.921741920843494,-2.212333162606035,-2.9880217136198053,0.749203306108438
-110.0,3.6300961888815584,1.0497942467957013,-2.580301942085896,-2.327128495137114,3.1476513185273753,-0.7428202440184086,-0.18383455430605605,-1.7885707487640758,3.416875676339389,2.4273589901647803,3.2813570968037244,4.361599181457555
-109.0,1.372361883286561,0.6588820664479074,-0.7134798168386811,-1.0114520585370386,0.9977270954542163,-0.08033750017905739,2.6082025050561386,2.3681212722446143,1.580746338115165,2.888492180006353,2.002305945400549,2.4348995981687365
-108.0,2.2369138465994975,1.6463107632983554,-0.5906030833011311,-1.9425214508861943,1.4388191683741867,0.5568826660303483,-0.22188362643428583,0.07262936399020137,-3.320163746985013,-1.2917060227278774,-3.050121297007969,-3.8793654717280592
-107.0,1.4489273451997784,-2.1687951764426567,-3.6177225216424005,0.3578878729610152,2.472183760879682,-2.9408342092594273,0.3428020861158232,0.041057406305558986,0.213591113244491,-3.161010925919625,-2.3590302722994476,-4.213950869065336
-106.0,0.6224339729088348,0.6481535212635596,0.025719548354765198,-0.6348673832130688,0.31042331529017275,0.36850145614592567,-1.6844044987655846,1.047931220730047,-0.10718026880445242,0.9780624759454074,0.368766449383475,-1.930465397131075
-105.0,1.1690275813516,6.327614777869585,5.158587196518022,-3.7424423645272222,-1.985228905147104,5.773407491934812,0.1853690908985905,-2.3209961947755247,1.6731161195486577,0.7368700321774788,0.6940903390131985,-0.29757717012414436
-104.0,-5.182290421031073,-1.2618283582532217,3.9204620627778852,3.1570352476239085,-4.540314530548005,1.2785782539649073,-0.5037216470390324,-0.03244247199745176,-1.1350931513037867,-0.9168188512025052,-0.7176012244450021,-1.7065574745360232
-103.0,0.7799606116844164,-1.9935849334577265,-2.7735455451421287,0.6302886845566329,1.793686128131418,-2.3580307349476413,1.8520454608990136,1.7117228229503005,2.236443843549446,2.636243823806712,2.0625751574265867,6.095771422976846
-102.0,-1.8916089703081518,-1.009356643392364,0.8822523269157783,1.4849250705621229,-1.3604306473242884,-0.039802742142717173,1.132613052433733,1.7428923425316554,2.7873022115711996,0.6756268811110087,1.6829590971330768,5.499517472873916
-101.0,-8.533328286341716,-2.607098540337118,5.926229746004564,5.615546582341811,-7.270308516596801,1.604200413494346,1.9130099776536411,0.9801110748962812,0.620769834260085,2.3475477123237867,3.1532090103613477,1.6541873256211885
-100.0,-5.343206736989203,-1.5917983758572936,3.7514083611318783,3.4429261358440817,-4.575866128220656,1.1047046619577567,-0.26578434642658133,-2.360594412210938,-1.8308228359333945,-1.4851977554812295,-0.6448142632054035,-1.741467577525944
-99.0,14.782919731392889,5.520482706432139,-9.262437024960741,-10.17162582722788,12.004648344182883,-1.842602269427629,-1.2549175436127744,-0.518740168597428,-2.2605241421803,-1.8344363194161806,-3.890936680098523,-3.946786028489429
-98.0,14.022927458771914,6.307934590323039,-7.714992868448801,-10.18622368747748,10.937564955258887,-0.7488461109626161,-4.8396153350783,-1.2807620454193587,-2.6764933318537247,-2.897044636990504,-2.2468963477355395,-5.602860428961854
-97.0,6.534377713403091,0.6504307402581229,-5.883946973144837,-3.619243030304621,6.203484609963871,-2.5775178659137294,-3.44646440993138,-1.7838056652561198,-1.5457989790111717,-2.556251390431249,-2.112127878922789,-2.6270507465181163
-96.0,-3.4187376799306377,-2.833699870738793,0.5850378091919737,3.1691302602390232,-2.0070115261985677,-1.158444030090524,-0.720121754926264,-0.04969702553193446,1.327692442675968,2.116379985392679,3.7255477147927,6.049593467152345
-95.0,-20.236420837618557,-11.470345454331913,8.766075383286713,15.809048543406968,-14.509911928647893,-1.3037386552055983,3.4046543699982506,-0.6210420331006558,0.10366381576099681,-0.0574494008920039,-0.16280009932867845,1.7587878793251468
-94.0,-14.314859703700773,-7.990292052181675,6.324567651519089,11.182409059100191,-10.335641421842116,-0.8620396149528096,7.714091827564014,3.060681903463559,2.0564379292790784,1.6676437292635513,-0.6266149333000837,-0.02747414409279436
-93.0,-3.0206344737274815,0.9141280888573391,3.93476256258476,1.084390586909095,-3.503500790886089,2.3935563349664957,2.0963191455360306,3.4476647699264,1.354176344190738,3.850985547083945,-1.9407915197197305,-2.6419429482860277
-92.0,5.2921946390001695,4.09501750450673,-1.197177134493508,-4.655648827872574,3.2869194735183336,1.4927518699565914,0.24703669457000377,1.9546661461783323,-0.6320979087945853,-1.4956048738703727,0.7966986877317893,-1.293316149743881
-91.0,7.548896073009414,13.325540537478936,5.7766444644694985,-10.468360316887669,0.9188541646394386,9.511233536864822,-2.3861735454995157,-1.3892523377369523,5.576160989753561,3.80376289943512,5.785002105298006,3.7482452130700077
-90.0,13.056441515896303,10.915213732441007,-2.1412277834552476,-12.008458106262232,7.546371638159769,4.421919907549757,-1.3591533590028386,1.8429816239664651,2.7091836300101853,0.7493730443419564,4.949272749243831,5.3694111792980905
-89.0,12.57182907929986,2.8836024174370007,-9.68822666186276,-7.74663182955797,11.15425294396929,-3.447333193059781,-5.250849644985629,-5.612458943948758,-4.660770982049577,-3.766591990315807,-3.070207461361223,-1.0614719753094264
-88.0,4.513575121995174,-8.822694657325691,-13.336269779320777,2.1326567672079824,8.873301302088791,-11.04311929503636,-6.921584662167623,-7.275191987843828,-7.782669588108516,-7.283637020617669,-6.124837337023157,-3.8762394705901246
-87.0,-5.954920085349773,-12.626193660252392,-6.6712735749025915,9.3382389987116,0.3928839360120146,-9.606009818770628,0.12410442227196827,-1.8221794284797972,-5.313435164093568,-4.71290700751643,-6.704378319121619,-4.560062604534341
-86.0,-14.621527486690272,-8.469275824311291,6.15225166237893,11.501648948777705,-10.34123754198888,-1.1857694352529062,7.183181518486846,4.364529442669296,1.4498095988559854,2.6302999598054315,0.22779667061485043,-2.51542143563646
-85.0,-5.964165186859123,-0.023836063822738396,5.940329123036266,3.016542839245144,-5.973326136166081,2.940096921329544,6.511688340284928,10.481589149587725,4.7632857189127655,6.624209628559555,3.2440872040139968,0.21183682071485888
-84.0,1.2999747967185664,7.83465943102685,6.534684634308146,-4.553511550736931,-2.6282017116402256,7.173948336471722,-0.5559792266115089,-0.5684080611760809,5.2139399380128655,4.443528513905605,4.808462892093241,2.734357974582633
-83.0,-10.73783636568729,4.569979520326547,15.307815886013664,3.094761739670708,-13.0278591318565,9.932674064279457,-0.07133224334360433,-0.7861866742311057,3.3346388370907927,2.6877176287165776,5.12562064522465,7.63316908740951
-82.0,-4.491295448104122,2.5620740083724662,7.053369456476432,0.9782390899329272,-5.777479477782776,4.802882311380845,-0.6269049226822172,-3.085858840369646,0.022281955101125073,-1.7729706244104866,-1.1678949159191352,1.4094252244728631
-81.0,7.303307948588991,2.851088078654184,-4.452219869934898,-5.05683957193928,5.866781092522065,-0.806557438638172,-2.6464710003790985,-1.6224248884993817,-1.8809286876919495,-0.7239556449320466,-1.0594974739968883,-0.9870030933993014
-80.0,10.785371456084976,-3.2166224848384757,-14.001993940923477,-3.8348312852574624,12.373083337360598,-8.539521731863422,-1.591314037663826,-1.9856946309672079,-2.4237009748277343,-5.032523082067838,-3.7950008130412716,-3.4477018411749736
-79.0,7.921247895173055,-3.023884640048058,-10.94513253522109,-2.4923812315567266,9.48102272920758,-6.997976524275344,1.7561085836147066,3.8667041808529934,-1.246151653021645,-2.1127189497967,-1.7463065192963865,-2.8109095093746364
-78.0,8.005372358707838,0.6836093223419302,-7.321763036365866,-4.304946515786279,7.624830054818887,-3.3388496654310478,-2.909652232412436,-2.9149020414857545,-3.1146969279831405,-1.3587483945815306,-3.447192027171851,-5.65291360737811
-77.0,-5.5821896582465325,-2.382833876653346,3.19935578159323,3.9459339308982524,-4.353832879132719,0.3799508699010623,-1.284890349455675,0.4709627172331054,-1.6731124885639017,0.9034534607526767,2.0904147270386573,0.6494583284501405
-76.0,-12.362038874417149,-1.322260091871671,11.039778782545508,6.8863577555836155,-11.661708129293993,4.898466018335942,2.8748785906543337,-1.883169586360013,3.4218212567700754,1.6493734958662507,3.6051430992859435,5.3672824374891865
-75.0,-1.328188777020248,-0.5838381357389243,0.7443506412813434,1.0028377104139885,-1.0693747306417283,0.029245612656620956,3.2886088542285083,2.4239012281555654,-1.4802535933331185,0.7360965492087392,1.0216338051981562,3.4317631908604005
-74.0,-2.127883463316733,3.130243268628349,5.258126731945082,-0.5296059512659133,-3.717781427666627,4.210613088839901,-2.0096740946888008,2.196299741440812,3.990147773112399,5.268355497913694,-0.179549465195862,4.914885713442595
-73.0,-1.1800563899249106,5.524801583298697,6.70485797322361,-2.1971365135786245,-3.959534464537426,6.122936061447087,1.5340630110652334,3.8453297817901784,5.218610875250933,2.531257071734914,3.257081425537344,-0.28897710343832106
-72.0,7.727127304026084,1.0073185037625882,-6.7198088002634755,-4.389482998697742,7.211528278016678,-2.851486056046894,-2.154072987769026,-3.2636927048009654,-2.294462840720432,-4.123140526964452,-0.7016638440829657,-7.89848220725391
-71.0,10.879602862447115,-3.0374177963685236,-13.917020658815613,-3.8645156149652564,12.466678838200249,-8.46997414599913,-3.121693372871676,-4.234032760356406,-5.8553287364826145,-5.755768403456856,-8.611460230179084,-8.735960835696957
-70.0,1.169739922088644,-1.645324434557995,-2.8150643566465883,0.21263960820770844,1.9797947293892122,-2.215320715807073,-1.0499731266779047,-3.459336526256825,-3.56001870496466,-2.8619671914644447,-1.9832235653482528,0.768853770702969
-69.0,-8.360751838479946,-2.1335473234586795,6.227204515021299,5.216187481157115,-7.312198786989862,2.0723898871666764,1.734428847359303,2.3308255440334107,2.5253040308290355,0.8141259164018213,2.600948861150284,5.566506804077642
-68.0,-13.641752656990127,-5.0535896259632045,8.588163031026909,9.387930674742634,-11.141329721315595,1.725094245921472,3.766955231262418,3.232720858341001,2.5822678423373104,5.950666451664557,5.508059366713801,4.842887239066553
-67.0,-4.90577150922338,2.736060829483759,7.641832338707064,1.0387993960714046,-6.230880640680619,5.155649105752622,4.999111846836582,3.9569876108651494,4.832266080971643,5.89814474427502,4.544816297118387,8.488683489921433
-66.0,-4.318139761076552,-1.873100928706228,2.4450388323702414,3.1224169203481447,-3.4267368108751812,0.2581938972996207,1.9398624312026846,1.7135932249021697,1.9706461635151835,0.16571230690986738,1.6595723386864403,-0.947415847501976
-65.0,14.94318362563876,4.779342289187956,-10.163841336450854,-9.837588736942473,12.57926814862371,-2.6390846440866453,-6.529166072248581,-2.5984694525055847,-4.0601415592955465,-4.753728441777308,-5.982005225122792,-8.934067966207788
-64.0,9.061856248119149,-1.0762134362799993,-10.138069684399158,-3.9694098595703826,9.620205487897383,-5.554238589354066,-6.337838717906356,-8.101014470319935,-7.013790777174643,-7.5518590038636875,-6.471219272270088,-7.620739567151446
-63.0,7.379873514352645,8.496144436201497,1.1162709218488738,-7.9916852029465435,3.14903762270721,4.778673490205186,-4.117451423846562,-0.16614205355611134,-1.9320162917208799,-0.18293983357337407,0.07257069815009576,2.1895620805512594
-62.0,3.131788649300591,1.8692034657806682,-1.2625851835198916,-2.473341964360589,2.134723710898396,0.2734060525009451,3.2319382395620524,-0.8245206353565135,-0.5969620774397735,0.33315283654909256,1.2610633729332448,0.5852639849649426
-61.0,-10.609793210119904,-4.912425805571017,5.697367404548929,7.710575692580237,-8.13695121834915,0.3599505709982921,4.939199701110537,4.521472667114052,7.396054382767201,4.878355175797629,3.890231113866421,4.386901829815123
-60.0,-10.287744877900824,-8.627621723843756,1.66012315405712,9.48507138763009,-5.95639274226072,-3.440122242380381,4.480034951708234,6.620631622927485,6.102821787833917,5.760927348135155,1.8444621320897272,3.4996018583612893
-59.0,3.229882091847175,-1.2018612887637579,-4.431743380610898,-0.9894895132047425,3.849383395828048,-2.7756116657477383,0.3186989170221972,2.0405186493526295,0.8333137246548845,0.6883337137767858,-0.23767234413761118,-1.4567122891308033
-58.0,1.2586584380106176,5.687873180694011,4.4292147426834045,-3.453181762732621,-1.6444335820487281,5.018748527787865,0.33566315535367824,-2.856303868430389,-6.070593911545462,-4.080028421947945,-0.7092047872253434,-2.6941961229971603
-57.0,-7.893742277167963,4.066070627327114,11.95981290449507,1.8500781601557779,-9.906020294411844,7.971088534240686,-2.005509256666862,-3.0655586830177626,1.3326204543025675,-2.4153940477543046,0.7101419227624035,3.7484294361965436
-56.0,-7.7173350528727145,-3.391425723170581,4.325909329702126,5.564830799404257,-5.999314606030784,0.5023105633227738,-1.2872209861378072,-5.077773756876945,-3.855398596708662,1.1774539374615438,1.478296252562878,-0.460121815008533
-55.0,9.693184233452456,-0.262270213838557,-9.955454447291002,-4.707733613931611,9.84871305420801,-5.075204668950205,-4.302836230050888,-1.9396233522858268,-2.482322447050806,-3.3729429621429596,-3.470795779592351,-1.6015489298960661
-54.0,14.698139130770908,-3.1011267385085803,-17.799265869279456,-5.790759431200241,16.19690132531501,-10.496014153464726,-3.113058525942129,0.5123986776528143,-2.1817784597940437,-1.5309080098140693,-5.556244477304452,-3.8384438297078813
-53.0,7.445291188430821,0.1402424858506762,-7.305048702580113,-3.7820781028283115,7.404923831611975,-3.549241530978889,1.3541426026860417,4.34677222499842,2.3961097197546697,0.6174177065118448,-1.903379314348859,-1.2407571455781534
-52.0,-12.05524347878584,-1.9327064119177115,10.122537066868151,7.009715042525242,-11.13504125967175,4.050739095467853,5.324747390029774,3.74300138438355,4.3343041082291105,6.954323464612432,8.503835540468145,2.842078267972509
-51.0,-7.868786127148558,4.54607392686119,12.414860054009752,1.6827121145508541,-10.106443859157096,8.517770019441501,4.01986382893735,2.4244461204167136,4.199293609934907,0.4569876808501392,4.022952967097362,3.2434329581564736
-50.0,-2.104294105526498,1.254715161753902,3.3590092672803777,0.3719733852692513,-2.693587430203147,2.2693714829509766,-1.7700963939850718,-4.1090968515242015,-1.653500381708266,-2.7583509300325133,-2.1682836663571723,-3.2426028529675155
-49.0,4.422553662512417,1.4299496661172235,-2.992603996395255,-2.976391243163317,3.669467654338746,-0.7353852639364793,-4.072591759599263,-2.4578677325961245,-3.046343595675601,-4.07108595096545,-2.326278929214665,0.08126282722723618
-48.0,1.8450759375187022,-1.3768867672178067,-3.2219627047366006,-0.20440019029833745,2.497890705371724,-2.3278487312368163,-1.3063789283045537,-1.5934190289630095,-2.716243800628151,-0.8095514480763155,-4.536152122711041,-1.0408116235428968
-47.0,2.256526703858928,1.779082297337022,-0.4774444065219732,-1.9873838981350676,1.41261036049527,0.7037987540460633,3.0082252415356687,2.0080202513801217,2.691087098939425,4.598325517702522,4.199345986401309,4.319289083193846
-46.0,4.558417114387596,3.5336610790470995,-1.0247560353405056,-4.013874826385392,2.7611671372893687,1.2281979041402784,1.4043267949107892,-0.3300462873661317,1.0072118903696945,0.8359566103108634,1.1689591922628297,1.8523871943889036
-45.0,-3.3293060036203794,-2.0850007223454785,1.2443052812749387,2.6640332527357873,-2.235459103358878,-0.45096864498275835,-0.6136471099235472,2.496545820417861,-0.22642007169752487,1.5841589195631058,-0.6385405689122616,-1.6183691423547393
-44.0,-8.529111263118459,-6.808745195623387,1.7203660674951546,7.709421343072177,-5.148916536824236,-2.5826069419978515,1.4968391438700617,2.4855768947435797,0.5087534128013154,1.0379445776302458,0.28038903856092867,-2.243724613736879
-43.0,-3.301665791985668,-0.5539560701524384,2.7477097218333477,1.8946787451882448,-3.045742348332401,1.1276660064747783,-2.4448839469040746,-1.2763117104450201,-1.0511523196719674,-0.2627124219486049,1.7376936639867362,1.9948631657808877
-42.0,2.8519137185419914,-2.2901483001673477,-5.142062018709251,-0.31000488451150227,3.978539356326576,-3.6943056195083503,-3.708970101771232,-2.5278529093732622,-1.1965145771760435,-6.115541315045158,-2.5425352654467503,-1.914356583345519
-41.0,5.4391216067932895,-1.8415764227942666,-7.280698029587481,-1.7472814893949535,6.421879565377883,-4.54584974264822,1.4403392004355862,-3.180593727520719,-2.1051880429271606,-4.833384304367995,-2.7165091206973444,-3.939678016086971
-40.0,5.097725231124683,-0.822265550697757,-5.919990781822418,-2.1656196677481323,5.492414748347866,-3.359152261505463,-0.26702066522733076,-1.6268603775666848,-1.8377758659198495,0.36777029881003664,-4.493841012647248,-2.505598109548918
-39.0,4.761715798919076,8.350450328058448,3.5887345291393746,-6.586744677780045,0.5687307366736061,5.9807851104622305,0.15513815370459594,1.5397066815873832,1.4203151874650235,2.8785366905269334,3.051445255430183,0.10338692663367549
-38.0,-3.131098879068355,9.589063470466531,12.720162349534892,-3.1849952161308854,-7.94649175829057,11.087241045132805,2.778484290700791,4.496973626875701,4.925099057089827,6.462966474878635,4.795171804664391,7.126206331333678
-37.0,-15.61374354654572,-2.4707683460210026,13.142975200524702,9.081731911146115,-14.325163137435235,5.347062966234498,4.945701788910611,1.9945629340191253,4.3782922181604915,4.698955571648112,6.818305869961699,5.357109848660754
-36.0,1.0570554926008322,-2.307526356419784,-3.364581849020631,0.5818044805959568,2.1795268024484145,-2.8269636233265567,-4.118715541913627,0.2157678335765869,0.03383321510548032,-2.126372078204152,-0.5004851228276883,-0.49433662763635855
-35.0,1.1204925095350708,-3.5161530581950804,-4.636645567730163,1.1511389246338406,2.8412694559571285,-4.070484980992214,-1.1912585874568427,-1.9661616020160135,-2.4068293120642474,-1.751040299501134,-3.168505439266485,-0.20382628805606934
-34.0,4.4833886199483,-5.0594287414017725,-9.542817361350096,0.31807949969861316,7.049035596088709,-7.298777515998371,0.8435831287390827,-1.8702754695498005,-5.598212457213631,-4.534522473681575,-6.360943786585732,-3.81431891782874
-33.0,3.0177441402299086,-2.462043646963732,-5.479787787193675,-0.24836612445278922,4.280132017951298,-3.9713188287377204,-1.4916883945772397,-1.0612819408813214,-0.6419782818832216,-1.6331421761813365,-4.1176637863622805,-4.822842682715649
-32.0,9.435290457849087,3.021326619344184,-6.413963838504936,-6.198114938830496,7.95240627739971,-1.6976198121484682,-0.578329987041095,1.2268001135135898,-3.3515524436194197,-1.066621119667699,2.014266748294366,-1.8657893400470518
-31.0,-2.340844488662087,-3.091568490587703,-0.7507240019256184,2.669215986942985,-0.848848585113664,-1.920990709440215,-3.496235699913685,-1.4578377614872697,-0.28098127967064296,-1.8899086666646887,0.8450863923223404,-2.6239290789368943
-30.0,-6.329994324593004,1.464086156015488,7.794080480608537,2.3878930359896042,-7.117865230935204,4.632877922345215,2.0967894094114667,0.3560398655542558,3.342504533604358,1.0734245388330117,-0.5157436783305176,-0.21809958978191707
-29.0,-6.741779095199065,5.5928080568216085,12.334587152020772,0.6101759576984431,-9.51596363091857,8.972522724930121,2.3146307832424613,1.1241557759664071,6.800198885207014,3.7332757152191336,4.91382613889958,5.824083183679235
-28.0,-6.805372169914038,2.365511897053294,9.17088406696747,2.257662617407182,-7.964348330956939,5.782293359207748,1.608307751368584,0.34796145347407725,1.1997723511993161,5.856017689684364,6.411494086880038,8.263149154625909
-27.0,10.482388103955149,3.5712855208664145,-6.911102583088622,-7.065711127261549,8.724973778405172,-1.7301764845721985,-0.6810021026336317,-1.1467890864118018,-1.1579616375214834,0.3643019772609928,-0.4360385811799443,2.316137112709907
-26.0,11.066371628385703,1.4357494372121762,-9.63062219117349,-6.208967435840313,10.383720660098042,-4.076175406269043,0.32629963433172404,0.44952024339966185,-1.9473021639221175,-0.47239981654894847,-4.9402748458807,-1.5592581293604089
-25.0,-1.347554315443178,-1.3908916777233211,-0.04333736228022911,1.3347349469050815,-0.6875223526200278,-0.6948197448101006,1.2183020567265264,2.609594671373189,-1.1101160858091408,-2.595880803921644,-1.633590675134026,-1.6212451231843947
-24.0,-5.126077472373197,-5.190180112321851,-0.06410263994881849,5.125674282508994,-2.559118651380778,-2.6051455550710476,-2.0411577726181704,2.482029338409533,0.9679704725284706,-0.8146007914049194,0.9827209835483224,-5.789822658851124
-23.0,-15.159190045415638,-11.456797532955756,3.7023925124597596,13.356232767961261,-9.454042064264792,-3.9347781277266245,1.6301815480915878,-2.07935378069954,-0.9505448944095083,-2.6893604269495786,-1.1056670838107165,-5.97497165711338
-22.0,-2.5428996996062754,-4.39733329488859,-1.8544335952823543,3.4415721889307265,-0.3655928178752017,-3.1050023780819624,-2.9970452624073403,-3.4192691405528604,-1.4666478462818773,-1.0286490144424993,-2.336297614205506,0.4876087237959301
-21.0,14.551314564055183,3.912736119834067,-10.638578444220997,-9.17981640911315,12.651594263122139,-3.340692178534448,-2.390331525934833,-4.295885596906098,-5.285091565801229,-4.695631909535932,-1.5660317173165503,0.4639529075747788
-20.0,13.28209384827822,15.303198595356626,2.0211047470786707,-14.317325566601056,5.684508661380345,8.609533007671153,-1.161753147828384,0.572898838234791,-1.999250571588524,-0.023591580399192735,-1.7756966994383006,3.5108933478021007
-19.0,-8.93701547263381,-0.6082224035691244,8.328793069064957,4.749389851922366,-8.661585630541055,3.8932575237960174,4.964868656645894,3.3233038476548247,3.0262328652121733,8.196863716714741,0.760891818062468,0.4807428346173328
-18.0,-11.106238602442273,-4.586867014517519,6.51937158792491,7.824208259503084,-8.846420244238443,1.0085884577164776,4.311110780397145,1.210968317974779,3.6418913342779664,-3.1063772824341584,0.8982335144191116,-1.0709153857032823
-17.0,4.931390661042079,-1.3558670968588644,-6.28725775790098,-1.7309621116967113,5.570198768702644,-3.8473400228209402,-3.6297669805559205,0.8527694424044039,3.4913172231520964,-1.3798897299118846,3.5342898264342058,-0.7849624243737281
-16.0,8.658881872644422,3.6459521850929946,-5.01292968755168,-6.174247407154353,6.870293613656377,-0.6991350027700376,-4.969580834876221,1.1279580751845448,0.9056182792424707,2.980733960813927,3.441071275144379,4.947613642553696
-15.0,2.0306416285961504,3.9545777568320553,1.9239361282354883,-3.0144423348536735,0.08402288492229326,2.9314993287308044,1.1287215117039606,5.668908153612783,6.187975806198482,9.795735243044078,9.765231490612488,8.316054406115999
-14.0,-9.941361259184278,2.6663367791439168,12.60769803832781,3.694249114207018,-11.323623066520774,7.633742988779835,3.53769307163428,-0.4096084293003771,0.9228029113923002,4.262775368933625,-0.4930463909843612,4.844653622628642
-13.0,-7.534835410744815,-3.9410950447166577,3.5937403660280047,5.715356662708657,-5.532392576346478,-0.17623809875694552,2.006827126447889,-1.8555722006339983,-0.40826720863474364,-0.043248130716397215,-1.9119315278586044,-3.8635498303690645
-12.0,-0.6977388431760687,-13.150596121172589,-12.45285727799642,6.900319108828072,5.9144840961860465,-12.807069266903099,0.2774175951294613,-12.507682884966272,-16.75519215091509,-17.53756773948766,-15.062771592913109,-15.888464544710668
-11.0,2.7707053395237664,-2.030723983068614,-4.801429322592019,-0.3957271176270738,3.7506134132421862,-3.348402332372487,-1.3697619191049695,-6.296242315777178,-9.590664454841473,-12.207615338928843,-11.37821111856246,-10.250478971716966
-10.0,3.674253697616055,6.403546231336241,2.7292925337205265,-4.988143041615018,0.4427347828400876,4.547203187048575,-0.7562904582648903,-0.9575589085611691,5.468204684317447,-0.1301887564993045,3.520875560499067,2.848911695891579
-9.0,7.288909385327575,5.429599179281902,-1.8593102060455209,-6.38950049452805,4.626275116544655,1.7559718680670424,-2.7739401946586213,9.974184461522475,7.939726683249097,10.275565093325946,7.32379817730125,5.989886862281189
-8.0,5.521957921777407,1.292512355437573,-4.229445566339867,-3.3608275227554114,4.848616853788836,-1.5084705171060269,-0.8441833096386704,10.391907942316664,11.398525176495799,12.407624530931733,12.646895313703402,10.385457733312155
-7.0,-5.67108161443566,-1.8432943997134599,3.8277872147220564,3.722664809202508,-4.780634286159477,1.0208019741834615,1.2024207593410567,11.82985582694932,2.7993561355274075,3.51654872720078,0.5289470030204786,1.7720294245832466
-6.0,2.644376103190674,-3.366078875713323,-6.010454978904227,0.40230271944529084,4.3684558023816376,-4.6673246891251114,-1.6798025007261324,-1.0176754916433017,-7.330772659962945,-3.3957050094898937,-4.564213882191691,-1.8238928130904792
-5.0,5.171253619457977,-5.579632647105957,-10.750886266564144,0.16312772045866675,7.916458461157861,-8.147517328681621,1.0732771397105947,-3.860299308192589,-10.404288680775402,-11.703491793708466,-13.899712443683976,-11.826224462947037
-4.0,-9.60978562389289,3.052924439265585,12.662710063158393,3.232743179655119,-11.107311606707995,7.799150339905013,6.59273817908383,-8.947804435173225,-0.26851578994992487,-4.1017315281095055,0.4023832400638332,-0.5443107443403168
-3.0,-17.392227111950227,1.4184631357920767,18.81069024774239,8.015205339482504,-18.074597140715948,10.142537437247093,3.419213649509719,-16.984951217245595,2.3617858713675286,0.6631183091705735,3.1604183513017916,0.45707360286806953
-2.0,3.1880743657759707,11.149636657831916,7.961562292056175,-7.144358421517161,-2.3585393448597336,9.595705599835338,-7.056690697124325,-11.514121798564489,4.792921683083113,8.413382023063555,12.95751290090918,14.94768592901734
-1.0,12.885853122070454,10.830795428477392,-2.055057693592677,-11.836051006296767,7.42387326148139,4.363289935286531,-12.41616384869843,-4.361405873691385,-1.8390363297971477,7.531274786228394,11.613282318338285,12.765743773765328
0.0,-12.409941801776576,-8.824994835165416,3.5849469666115645,10.639031794525511,-8.038788832927835,-2.631534078538369,2.6540861334910053,14.179231231763975,2.6417208011469664,0.5352298527366972,-1.8526216196112812,-0.46268044976320355
1.0,-1.2062025347916423,-6.840558063397508,-5.634355528605642,3.966223239621404,2.25677959066386,-6.23963421160749,4.540146914694316,19.448225229428463,12.063935883460397,8.078526161140998,1.2699967721046512,-3.3122752347410502
2.0,21.02708784374716,-3.9998943624524816,-25.02698220619968,-8.492105549634083,22.995666091373273,-14.511848911333539,5.016046797400476,19.548793234398673,0.5157944734242961,-2.5136250722454085,-11.808822415458764,-14.424994364790189
3.0,-4.318261595708405,-3.0651853645457563,1.2530762311621615,3.633944722847494,-2.734402888439214,-0.9067203499736873,12.660687622671333,7.410918029264017,-3.892043453915408,-8.698915157469091,-8.338825155403123,-14.06057832226234
4.0,-7.336190344686161,-9.442512902334455,-2.10632255764923,8.409965909712394,-2.6392950218162703,-5.782388093025016,6.4352339038541055,-7.104253455578986,-7.571251073380658,-10.629024908852823,-13.56655646925176,-11.005825807457857
5.0,13.08699180748578,1.4488518509878028,-11.638139956498915,-7.246374996442951,12.340501481744742,-5.11291815203775,-11.972381853150509,-16.21401581271583,-14.960453304531523,-10.610281438415615,-3.229989596218339,3.0051779518988666
6.0,6.482499985350542,6.481569887612566,-0.0009300977384434361,-6.457321353581649,3.2995953512698337,3.289973629605818,-13.927226351704029,-21.02159180091264,-1.1395741013190888,-3.3659867039848352,2.2017742956070876,7.370406427944374
7.0,-8.58757527705899,-4.031846792610942,4.555728484448423,6.339941187034728,-6.592809391253793,0.22367152171971405,-1.0788186445437677,-10.36651174842034,-5.718883021520048,-6.951400911851287,-6.638827706802703,-2.938497778889266
8.0,-5.42996804183831,2.3913936475319795,7.821361689371356,1.4777783060285734,-6.648801237536645,5.140609068387728,-3.844726233430327,-2.1577771875796077,0.3972614771519378,4.755563100453906,5.623882129645753,6.2279897327119045
9.0,-6.174548732854883,5.029022711096232,11.203571443952391,0.5383461843848658,-8.715605734142365,8.14739461657819,-3.837070312428138,8.396490807657303,4.835587247979555,14.498903819754435,17.67926764958488,15.106893785797384
10.0,-15.508332990385723,12.045005026481277,27.55333801686777,1.7030575065463935,-21.482636294535453,19.750879808336023,10.784450722061855,20.610943980835533,23.61890191050311,27.500823385139327,27.622661444318616,19.810922751050715
11.0,2.761932985484334,16.923862487802367,14.161929502318346,-9.789187405664233,-5.733956577412253,15.495595579167668,6.0579753723918115,9.802489531571704,17.33429742227216,19.467868446937437,20.60011743681123,14.597512374832366
12.0,12.727116980376685,6.546854311490987,-6.180262668885843,-9.582553510685512,9.496779369963484,0.2167749874918652,-0.17805089820033704,1.774342928650686,12.631971373937674,10.323468953701953,6.572926809506623,2.6312211663886096
13.0,16.075883034899384,-14.30151413336996,-30.37739716827044,-0.9140146633308774,23.191575595099934,-22.303080739751977,4.423494636227675,2.488040857949695,-8.02351672788488,-14.006941018773892,-22.214946978660997,-19.051539098282237
14.0,6.447286106468837,-39.524403697546354,-45.97168980401674,16.505900618383855,26.255951274819196,-42.786645170503164,4.1616797169377,-7.57131062971593,-36.259362891764184,-49.86247770302388,-61.966176691482744,-52.98866045535149
15.0,-12.86460134404969,-14.593757422370874,-1.729156078322461,13.687934962349646,-5.595755240719907,-8.116792502503717,3.718033997346188,-16.619581315954278,-20.268278877073996,-28.296715463182288,-23.259820303284023,-19.997622443892432
16.0,-18.040276246845913,8.359176549294325,26.399452796140125,4.868095898148275,-22.243115174997207,17.349992596129937,-6.712757458763842,-11.439907706681073,-1.8352970174627874,-3.5290454202671704,4.785079571375704,3.3115402823516416
17.0,4.978098459379273,18.4521858405699,13.474087381191616,-11.69700613000343,-4.266760142918729,15.938074343248095,-17.328155665105225,-0.5178712224998208,3.296161590696966,13.177223148081321,21.754305072140543,20.67687114275158
18.0,-0.14437906297948744,13.207134344213214,13.351513407194266,-6.520343406070701,-6.684292792319027,13.33597619282212,-7.423310899256389,1.688062695217727,12.339829500285814,24.362588382423418,30.922760310770705,32.29773521575841
19.0,-1.105292867359664,7.421152358421724,8.526445225783,-3.1507895860488153,-4.828360485224167,7.952815583708071,3.9880139273436637,11.653284564314909,13.048728251949141,27.41755250455505,22.338387118311413,27.311088355338967
20.0,5.196591834035689,6.813112922290634,1.616521088255321,-5.998619982111089,1.7790084309878065,4.193007657667294,13.623868883737744,18.81094939636095,14.945185630706181,14.003148130476752,14.464935531863727,12.617032027721272
21.0,16.143321155208447,-12.62015117734817,-28.76347233255747,-1.7542959842765777,22.442773043042614,-20.71591175688613,1.5564186623132485,5.565489960652363,-4.026423812851398,-12.858330986396055,-16.66200806801359,-21.74535478537242
22.0,0.8166108423487324,-1.2714318819893764,-2.0880427243394895,0.15785569065681537,1.4413130843912585,-1.6279204373329126,3.2662969657204375,-4.01218664422977,0.975044963181003,-6.626786628246567,-16.596986627164654,-22.157685474350657
23.0,-12.286315335093379,6.996735430260742,19.28305076535304,2.6562084070748613,-15.796494040298192,13.110598404577114,12.955089520752352,1.2675286498616378,11.312202984961,-1.9589203531053787,-4.75086984039206,-11.534297105097142
24.0,-8.633856151740842,-11.7312795653868,-3.0974234136462275,10.196814139466087,-2.7022051290354945,-7.3661000140662605,1.7244066379642273,-4.2590164597135285,-8.882940118017745,-9.085267712208786,-9.698909594393916,-11.997712578929754
25.0,7.189501300805919,-11.327796101436675,-18.517297402242292,2.0876106302711026,12.839539103072937,-14.952973403704712,-16.545087552483047,-17.060160711293975,-22.388576979239865,-14.868971554074008,-13.386865707456602,-4.950144925937926
26.0,0.6754251239403453,-3.2852358500091636,-3.9606609739490226,1.3296246255860498,2.3024628036522805,-3.6524161284722476,-16.75357876233167,-17.48351277283177,-17.133879170177295,-9.746293514408151,-0.9923223919021338,6.808800783541231
27.0,-0.02939726065615622,-8.609380772558895,-8.579983511902302,4.273648956626057,4.256944797035986,-8.544167947451058,-13.475777070018093,-10.669832129148265,-13.393850820657619,-7.570278492220826,-0.4181670836724045,9.917401432546539
28.0,7.223924473381542,6.854890886352546,-0.36903358702872024,-6.996861630252772,3.774214014805803,3.215674734039863,4.943230562712397,13.687855704714845,9.148661531524283,10.013849708321494,11.190280674944546,13.822601789382054
29.0,0.3993229617370462,11.668402536721228,11.269079574984266,-6.060605684765678,-5.383017752141485,11.441996757309056,14.784088731923681,20.67840537431527,22.56377391026087,15.807696388097265,14.624891437557867,4.8614955165539175
30.0,-12.115957390369216,20.699284183605666,32.81524157397479,-4.310437065899961,-22.496973855052076,26.80943120223585,23.42583446913998,16.959678669044923,29.76016284271986,26.793096336286144,19.675782512132905,8.621887099484352
31.0,-10.665507401280749,5.258570191150739,15.924077592431303,2.6900378345396936,-13.250844500623034,10.564919865111726,5.420391883472959,-1.260149579300398,3.1562992087728556,0.3107047488478596,-1.3997714414166715,-6.933485356801167
32.0,-1.5915355935615674,-4.793899750546377,-3.2023641569849897,3.2600816784153976,0.7689102960775125,-4.023961200582963,-3.372352167568061,-6.510693459328135,-9.90015639483682,-9.017382297461022,-10.665554325726713,-7.244467107651763
33.0,9.401603687639174,-6.203252562685842,-15.604856250325168,-1.611999825061708,12.466972243955956,-10.850003032687656,-12.729397832154568,-9.30985162909137,-11.282494101787268,-7.876425352003226,-9.505375501089695,-2.818036505981034
34.0,11.032441561772352,-11.333884132402153,-22.366325694174595,0.13330290264322153,16.74374384563246,-16.87336959187741,-15.379602612525417,-7.7092231296576195,-9.517090911205853,-9.295569023263974,-5.540660856334455,-0.9938985319851152
35.0,3.373243134158063,-9.826291972677442,-13.199535106835562,3.2022802911603243,8.33333228934264,-11.535156353598296,-2.032954206167295,1.4069647381002017,-4.564749195132254,-2.876774762231946,-2.555602011450448,-2.0702552437938317
36.0,2.437882492603551,-3.4800053714692867,-5.917887864072881,0.4892561250085623,4.148037553602746,-4.642866100214389,4.907460174599466,5.8669175976942824,-0.3977103709668297,-1.1646016136561768,-1.9499985668335174,-3.6036287456861045
37.0,-1.5993451744462455,7.7638174198797945,9.363162594325987,-3.0418809038048233,-5.511100700307332,8.537920217242096,5.903525138490864,-0.0355565633652577,3.999289718959754,0.012100214563190326,2.406994212876373,-2.1038084960732655
38.0,-9.410449187724979,2.8745318215261966,12.284981009251103,3.3039482294237805,-10.880251937913087,7.548243725968762,3.5369361254710947,-4.229190529631375,1.8683368003377434,2.3001365537063214,2.4037200871936477,1.1031597650852856
39.0,-8.161887870111427,0.4625658792255267,8.624453749336862,3.883717553840211,-8.352056062126351,4.582049494160778,2.088207609837088,0.12726726035360547,0.8189269789465099,4.120873132826916,3.3594763992068337,2.0448418280340386
40.0,2.784425479543856,-2.899734027541972,-5.684159507085923,0.012575174515412457,4.269172428656685,-4.342311891531636,-1.374990717823549,3.045750813554789,-2.3383545064673164,1.3469846984656666,0.04439488067864783,6.486893838601176
41.0,15.358074666832264,8.67800735225465,-6.680067314577687,-12.063337816831543,10.969694521705659,1.0178105121949717,-7.078671539145446,-1.6501718652062132,1.2103074306689092,-0.7174271499947507,-0.9945414442541867,2.2967895267931278
42.0,-5.914309738798005,8.002069517595524,13.916379256393498,-1.0114800463003837,-9.888812226671782,10.971360272362215,-0.028712232880354627,4.158806498166134,5.983956887560467,3.459585772533778,2.565373497713458,1.394446916597885
43.0,-8.65344160832092,-3.2856252922873854,5.367816316033514,5.921216914334623,-7.0615064217557375,1.0509963016638109,4.884633594395228,0.2632101587793725,0.05065826233631565,-3.9217153746956974,0.2195362562797032,-5.818172517040582
44.0,3.023291507797312,-7.687579251285917,-10.710870759083235,2.360429432333008,6.901115355718982,-9.186645381064555,0.7864528485896165,0.8781390733902527,0.45488599171795446,1.2579517090682804,1.937107235420314,-1.1732516911368092
45.0,4.592751847517158,0.5928475071607453,-3.999904340356415,-2.5659770441321417,4.340729095754549,-1.6842249934465139,-0.9841665982699068,-4.502216707318733,-0.621319531072041,-2.062137328087612,-2.251588585754188,-0.522631045849542
46.0,-4.352737963901134,-4.109089978650253,0.24364798525087128,4.257200471584092,-2.3199567541633925,-1.9831909425502552,2.0489524029946296,1.3114141603602474,-3.5475055842836483,2.6365140170660433,0.29314310261250753,4.22302899175855
47.0,-3.0574456334426476,0.9465580791381476,4.004003712580772,1.0814368834278494,-3.540679822345524,2.434004082863538,-0.5184900381141424,-2.5087897917347517,-0.8322765675746195,-0.20639551695424568,-2.823490544745451,-1.0532710321424084
48.0,6.935649111306597,-0.336800029985056,-7.27244914129168,-3.3534095382886284,7.1019586983773815,-3.759440361531089,-2.8699966235837038,-1.026016172959646,-0.35058761082647494,-0.13297949254313812,-0.9282995578050732,-0.5576514081091498
49.0,4.162457243286024,0.7414855683454534,-3.4209716749406045,-2.5088498040526925,3.7912354220793087,-1.2894523460918135,-2.061000242991276,1.967451069590078,-1.085848960837147,-2.578122211107995,-1.2361552353434018,-3.7487257583864078
50.0,-4.979251032849646,0.5473439213018365,5.5265949541514425,2.2337965590539697,-5.258664197334488,3.0104469386635495,1.1135074098284927,3.898852494102166,1.2563990362903545,0.7060548494287677,1.600351247343451,-1.3171330198589157
51.0,-4.846584376957907,1.5238813280661652,6.370465705024049,1.6759042555023185,-5.625013626228254,3.9193902811405392,-0.0811262425608591,-1.3797286753521645,0.9849439430103744,-0.7142025409110868,0.7275043220964508,4.279385856466954
52.0,3.793319711504561,3.5312331164189574,-0.2620865950855933,-3.6478273041231866,1.9980314707160853,1.6028989699488858,1.7782788777686231,0.14527853676847308,1.3949660186083135,2.0287242799590715,2.836331274593507,2.4077415946794325
53.0,0.48364018022689664,1.4022834056515894,0.9186432254247388,-0.9235880247080579,-0.18030883306000078,1.2021415870148637,1.243784724330768,-1.6152214100671833,-0.1314738397430748,-1.5084945259853637,1.4636112949706666,-0.11413611292923864
54.0,-3.720580205100605,-5.593091841667867,-1.8725116365672045,4.686466555382163,-0.8943332837204121,-3.696626462361446,0.06743282882418589,-0.5159993161469808,-1.1735184041408073,0.5984581344025264,-3.2064047344101176,-1.0914366491471577
55.0,1.7822188612069512,-2.3181205903047384,-4.100339451511663,0.23297341607861632,2.9691983055018234,-3.2561457011369237,-1.9870892738809296,-2.202662611443151,-0.1413055371285754,-0.5891611251252323,-3.2421137405966896,-2.631497345494675
56.0,6.849785338882256,4.701081069678377,-2.1487042692038827,-5.7950340545895545,4.451439018668124,1.3056815499649006,0.7174384890702528,1.6981875238083755,-0.23266537414762342,0.9579427308248059,1.7684564989492852,-0.7396421694280703
57.0,3.6682668238751166,-1.9319690811563113,-5.600235905031465,-0.8740395206277549,4.670387641681817,-3.8153691318537284,-1.871765902049729,-0.4907005123372169,-0.7785393770794127,-0.9232264734856795,-0.4882633508843709,-2.98476505800535
58.0,-6.020901942585507,-4.310050861520566,1.71085108106488,5.16934295615616,-3.904347513929747,-1.2679133187673017,0.7530289265562446,3.0772377855580206,0.8661532295501337,-0.8548033975996072,0.35047077089992745,2.6087491733809607
59.0,-12.802104060021957,4.76081250783981,17.562916567861723,4.029091018129515,-15.220380083038629,11.197476350221818,3.782632678684026,4.7592279539812194,4.138268893254006,5.466981933027737,6.255798957787191,7.293650139404396
60.0,0.835764080783675,3.114515771995155,2.278751691211494,-1.9674514794938045,-0.6844195052753781,2.658375068101052,1.4709002399956175,-1.574750972105708,0.4236637133653489,1.300880793800726,0.5594427472832253,0.8955559631854371
61.0,5.178738355385582,-0.20784023562341347,-5.3865785910089174,-2.483181164217113,5.312491925705474,-2.8305242218014275,-2.086669659018148,-3.5668819240529697,-2.6197139466693664,-1.9202383524847815,-3.49972529843388,1.8995673287217778
62.0,3.743348247943343,-5.020570338826422,-8.763918586769657,0.6320194802321475,6.196409369668999,-6.842640524572065,-5.3222257441891205,-6.930912403743504,-5.8764128991526094,-7.487852154708244,-9.495935568275543,-11.76284552717431
63.0,11.785677947319613,-0.3549627201511787,-12.140640667470699,-5.732677968419922,11.978226174809365,-6.274239010690558,-3.3361248645179398,-1.3631039109029661,-2.3735556030017637,-2.647860932502283,-0.7909833649304105,-6.222792072485403
64.0,-0.2161839581115439,-3.745446145842234,-3.5292621877306702,2.0314099206965235,1.6694665465816128,-3.5842756374673734,-0.5556815928332715,4.2706161298975935,1.5369430068961347,-1.3321732806349345,5.827817364188341,1.7142728960685796
65.0,-9.662826777222639,1.6617409461984953,11.324567723421058,3.9632555424206926,-10.477449449970829,6.46613198287778,6.748555860815353,2.6899431272405634,5.538954132277535,7.174642697909999,3.9114314871529485,6.505109988899045
66.0,-10.824655065728619,6.34511893151822,17.16977399724669,2.1966963176626577,-13.972881937839432,11.727298690321453,6.804082807190434,3.2410683423789273,4.611669567461266,6.986255660755788,2.8395999089821142,9.895242297362103
67.0,-5.437536526751596,6.465728048451828,11.903264575203266,-0.4797060691182429,-8.714375930704033,9.150447085456756,-1.1645163754180228,0.8598357666559344,1.3742352481449793,1.777599252722367,1.1396522001894902,1.1051631679244718
68.0,5.416707466552186,-1.5805011164683735,-6.99720858302063,-1.880311099351789,6.251198293307111,-4.2473603574081595,-0.5944779924810272,1.2580799882714808,-1.2455190850200273,-2.6532355354326445,-0.7916075851381178,-1.204943384080551
69.0,11.119759992432634,-1.8668229325278716,-12.986582924960453,-4.660477509209707,12.024084390161516,-7.386346093916895,-1.6351020853745608,-1.1286330898893386,-2.1340515081766647,-0.1808673946334589,-0.08053682481113844,-3.6145459941579094
70.0,6.155599939696509,-6.45680898838527,-12.612408928081635,0.20336181699068767,9.354652405618696,-9.571472921599453,-4.315580916376745,-2.2371338965280296,-4.188555985448527,-3.507862780092901,-3.6037616219990287,-6.829922915392865
71.0,2.0727236664782405,-5.128484736230995,-7.2012084027090575,1.5077635090161812,4.602077575580214,-6.119293897896073,-3.3343527650691343,-4.782380193221112,-3.0125679604321256,-7.904762782741778,-5.771082347631255,-7.713686640869308
72.0,-2.926063404327271,-1.4061933123325223,1.5198700919948651,2.1469158709431873,-2.1876376257308863,0.027999631000969805,-2.295970222409478,-1.3643699874896291,-2.231688231923073,-2.5292460927661002,-4.5966353681292285,1.2918699845158517
73.0,-1.1626298561028818,2.3571774597533643,3.519807315856254,-0.6218160403278832,-2.3142899030662427,2.9129991823673245,0.8221312775908645,-1.3745744403549318,1.370948897314769,2.4038504676268806,3.55743600654245,5.673834457197251
74.0,0.7262277406843567,7.554672777161649,6.828445036477218,-4.175541061027485,-3.029810530786257,7.167161333204153,0.9296099305074894,-0.13415953697097294,1.340689863213397,3.6467340163377036,-0.29864872460305314,2.9259354493326004
75.0,-12.29176297175861,1.9516284302123124,14.24339140197084,5.201057196768822,-13.247993314562418,8.150353343293062,7.023339661810305,4.73726985169211,2.740493197663682,3.358538314850711,6.4739277398386825,3.4859557992821664
76.0,-16.429005828866565,-2.5253028065233645,13.90370302234314,9.497415475772817,-15.223859517099124,5.6596541768946835,7.699060137917265,6.692039688490061,7.311688431553382,6.323509432724911,8.000700275878984,2.8067143564122854
77.0,0.5191081654847549,-0.3761817603711964,-0.8952899258559448,-0.056542172706307126,0.7318372021778563,-0.5913675870758546,-1.0825631361186985,2.4714668492335146,3.3693390130610745,3.1865810874536384,0.3537170676356052,0.7519128343506226
78.0,14.783480349299472,0.036678718183537296,-14.746801631115872,-7.393587726721616,14.714341133195783,-7.3944711031286605,-3.723653155775099,-2.410697379831912,-3.272171674076705,-4.936330897110656,-3.3824733252964796,-2.5346943957513464
79.0,20.886780348564056,0.9907430818288199,-19.896037266735178,-10.91465181848738,20.42136646307608,-9.41765667117522,-7.484161855636185,-4.51946998968797,-6.511569007075838,-6.342305466643353,-4.328423673907901,-4.2706690493220325
80.0,2.530439496837424,-1.2904717459544515,-3.8209112427918566,-0.6636484340966131,3.2060060295341977,-2.602400859743746,-1.1342994994309539,-4.0984672793704835,-5.735135773714541,-2.6151355851484333,-4.168168723329877,-1.6497561008043276
81.0,-5.064442932158753,-0.7087783159072871,4.355664616251424,2.854017183278218,-4.759294761539561,1.8545511511460275,-3.49301937615229,-3.2221013225749195,-0.3097338771838616,0.6873486221587788,-2.5689242506660457,-2.0806252089275303
82.0,-8.840750646950921,-1.9255168993472502,6.915233747603647,5.359172472000441,-7.849627919719839,2.448758113360286,4.058788651734658,4.272789840194781,2.9934231415665056,0.9883740107925314,0.9846228065822742,0.12585738918730027
83.0,-9.140514657253803,0.3692863706051853,9.509801027859021,4.445516949152398,-9.297309355787426,4.976297323513947,2.3211867469847576,1.2718593091682242,4.592057725873068,1.8520519935899382,4.998176460267721,2.7933436344623743
84.0,0.4867570384508504,1.7915858918922267,1.3048288534414105,-1.1561155416875373,-0.45904458119812297,1.5910858828797014,3.954833802835804,2.376367337535525,2.1551927826663175,2.474967222058863,2.992972676839799,1.3985843302133119
85.0,1.9700280032360689,-2.0221219712141054,-3.992149974450199,0.008857210598684051,3.0126082165901953,-3.036118301860906,0.14593507338820277,0.1864537891539393,-3.1288671319220307,-0.9028244245369117,-3.938685927645661,-0.43032357607717
86.0,6.329266155618392,-0.08087895863072081,-6.410145114249203,-3.063954322971796,6.327246594102095,-3.2685570361541796,-4.766059947069401,-2.2286909959743806,-3.6978198638028164,-4.604627575822981,-1.8069000702410623,-0.8758057986836925
87.0,-2.27838748497971,0.921821580593521,3.2002090655731203,0.6579731088914893,-2.6965808944276315,2.0413094781172996,0.17941336767122906,1.9853314269508222,4.390553387601347,2.5091947824246583,1.3342651981725488,3.246397572900731
88.0,-12.441348820145272,2.9590745915408583,15.400423411686063,4.718592109489975,-13.94972589461593,9.238491887347072,3.753378300007477,-2.531506063493736,0.3326244645370732,2.0879630806814875,4.60617830644742,1.8005416213559575
89.0,0.9565774237700491,-0.0878924136202417,-1.0444698373903187,-0.4598231740952773,1.0569516671113006,-0.5902554136810485,0.6401997677994576,-0.25363604563572295,1.9117768642838233,2.7766769052561022,0.9061707065649387,0.5221879492755197
90.0,17.80176989068001,0.5721021709578855,-17.229667719722134,-9.137544147857122,17.497498344109676,-8.359852011603943,-2.94713788186814,2.505679962255438,-3.906433767536967,-1.6764409429682394,-2.401422540922814,-4.688911753535229
91.0,7.613439367807851,-2.3082415436182635,-9.92168091142609,-2.686801321344205,8.749539837627575,-6.075578247686037,0.14094006135854564,0.7923633507430873,0.05249039617090534,-1.6402073151612666,-1.9558255091471692,-5.424675059846444
92.0,-1.5134227547601453,-1.4929068609237246,0.020515893836440036,1.542112234355836,-0.789247613400125,-0.7831374687424906,-3.642774115984253,-1.5332297949375715,-1.4476393024356693,-3.308353569146674,-6.311333782876413,0.09450919189799212
93.0,-7.402349649256294,0.4502430462099025,7.852592695466225,3.4302854398888436,-7.657678268578391,4.178237241403343,1.2773659809494124,0.0699179498638931,-0.27441428988260863,1.0105024231740702,2.400580747636046,3.368377062418544
94.0,-13.202415405793612,1.631584057933285,14.83399946372695,5.812586209696812,-13.979287743515464,8.258318337794826,2.250533243384809,-1.4185657369824916,1.8120051393589365,2.863937131872702,6.236283159734526,4.078439647952681
95.0,-4.146732752071535,-0.7048966621900556,3.4418360898814946,2.4479335111718163,-3.764229530553181,1.396387822177676,-0.7237893406401518,-3.471430238878292,0.33878729222296733,-2.6581305332043232,-1.397333514454374,1.2795386174078383
96.0,4.406160181384769,-3.9073893343623967,-8.313549515747184,-0.3096731203837275,6.383847418002196,-6.156285170209674,0.03350715525959269,-1.1541715013668101,0.3395005594214136,-0.5794959987981404,-1.0284273291063513,-1.6430451439376472
97.0,-0.2958532269452774,2.0585451328547446,2.3543983597999434,-0.864592674766701,-1.3820808092352097,2.166682918680434,3.28243991092885,5.529516823544796,1.3620979832506357,4.70486520340304,3.7016424923378812,2.739203462344026
98.0,6.914977728173623,3.3207655342157354,-3.59421219395797,-5.10060218486238,5.278091634001516,-0.0922773727191144,0.5901410737471501,6.18199520193107,2.8544287505759796,2.9575946708050043,-1.3286566037175103,-2.48220441692444
99.0,12.878294833352948,-0.995458199204917,-13.873753032557945,-5.921615008418488,13.32568616465806,-7.465078163551061,-3.7695243371961307,0.29926971361705945,-3.3043000884663933,-5.9696799663912525,-3.465113147948735,-5.6203200089336915
100.0,1.9996692870396808,2.572207697892338,0.5725384108525962,-2.262329169779774,0.749029533813018,1.6221914161424187,-1.3818132153130316,-2.7951187901893793,-3.5395281227039046,-3.4172800402190866,-0.8219664933379531,-1.3762469156424264
101.0,-15.609971566617192,-4.033202947359589,11.576768619257546,9.770492655849594,-13.550013540826978,3.741797006797367,2.140143782884258,-4.5442325153743095,2.2519940244872134,3.092004315620123,0.618650405190866,4.959082864989261
102.0,-4.884217338063413,-0.11662150837225083,4.76759582969114,2.4527490490471298,-4.853973418907617,2.3705731835195336,2.18725662896568,-3.401230171990126,-2.7134556174837132,0.026720559259491128,-0.3892235309459974,0.92030087985705
103.0,-0.6351432891872006,1.8426910733266861,2.4778343625139394,-0.5702575172958833,-1.5791060478196925,2.1206815120563496,-4.039070678820989,-2.1179137723198886,-0.3312759202824591,1.3574971583526572,2.424799106240385,0.6175362769505186
104.0,5.6180605499663345,-1.707526197918407,-7.325586747884641,-1.9202399394105834,6.451867561386511,-4.563284529851137,-0.5525683185612147,1.9641461796123139,3.3612819827068345,2.6604058010507297,3.232907096055191,0.5170702768602893
105.0,4.362995989324881,0.1525463427272037,-4.210449646597603,-2.222031186960487,4.345101781907307,-2.003662668993222,0.5485030321827709,3.9370571390035396,0.22323315750490202,-2.407002437508079,-4.001205688092574,-3.6390957962189274
106.0,7.717728786301759,0.07085959887330087,-7.646869187428445,-3.9374646050491404,7.6587764473644,-3.76714518233701,-2.7916056472693622,0.4755479364497295,-0.1488855149422238,-5.7743102471919245,-3.8475215319181673,-1.4581827639725689
107.0,-0.9976386943566871,-2.9992312620838883,-2.0015925677272755,1.9540328390547756,0.47334940409925563,-2.4802203970280052,1.4888852965444075,0.9075157135185739,-3.1300499333635017,-2.016573457252746,-2.140166306256431,-1.9607117963140137
108.0,-13.525064956005291,5.821854641182911,19.34691959718804,3.8836307787533366,-16.391958367946366,12.608112974836018,6.018319494386735,4.393640174280551,6.347501698573986,8.909943975675642,7.2097448493740295,8.758653258810838
109.0,-7.535769046249175,7.297126346935217,14.832895393184197,0.14829497194415953,-11.2252227609472,11.017010060068092,4.38910048710334,1.5409183422878203,3.8587600917677354,6.031840596107632,6.124754591246133,7.070121497878716
110.0,3.274835815430515,-2.0669986277389225,-5.341834443169562,-0.6568075417078434,4.340545215614246,-3.7434433229641026,-2.0061894192012355,-4.4409305730371935,-4.104779912627411,-0.7943534347376544,1.39730984093941,-5.0809806721965955
111.0,0.8935833484400679,-13.99460333610755,-14.88818668454761,6.573909756687465,7.918205002247906,-14.392614133332275,-4.5488436753283885,-4.513773820466753,-6.21256659574079,-6.334538052225684,-7.589911162490543,-7.529142090298628
112.0,8.97318060364321,-7.733388903014884,-16.706569506657974,-0.5978363999763441,12.784280391625588,-12.242656260226388,-3.9465575572770604,-1.928048141451152,-2.9327386274249525,-5.5022881223508,-4.051379764902441,-5.447432398783441
113.0,5.363232166490085,7.038936775750573,1.6757046092606434,-6.179165395246213,1.8634587569992451,4.417244779783662,-1.1388879955852245,0.10603635305070025,2.249845321591707,-0.5612187919557754,-3.668582513480528,-0.24046741508097247
114.0,-4.094851230658525,9.029505792913122,13.124357023571777,-2.5233253565629306,-8.592383847280427,11.057189642524397,2.063483606752172,3.0208054495031167,5.648194880701189,2.8888718974896315,2.658328336628812,4.415737680270883
115.0,-2.8575015960307177,6.1107389150112486,8.968240511042044,-1.6023166717931319,-5.975220318799876,7.5134529152388625,2.330971297391816,0.17250295784451808,0.8758856054644952,1.5011229564293709,2.8688217044141107,6.608127049104925
116.0,1.044035046555078,1.3729617419613178,0.328926695406242,-1.2607178214836159,0.3755953289843541,0.8137795079588264,-0.9320511215404217,2.619599626595651,-1.4892505661173217,3.5970248934137916,2.8661884870080065,2.6050027590339297
117.0,5.626342521642163,-6.43396649071423,-12.060309012356454,0.43340078491942124,8.865851955043823,-9.219620077594906,-0.9413703903432813,-2.0556669519245303,-5.894138164947335,-1.2943404918069916,-0.23832222963397154,-2.0124048231338203
118.0,1.7717582102885436,-6.654652620862215,-8.426410831150855,2.4749389108789175,5.128302893869182,-7.527113835666988,-1.7475123067647063,-3.6417957003590304,-0.15128881080211554,-4.190035696810135,-4.200212262986317,-7.867780376596764
119.0,-2.5753816971827077,0.7159020960914555,3.2912837932740935,0.9675089981931162,-2.8970985503313003,2.0060035758808263,-0.8363290176127218,0.46923817049531213,1.2592435530223,-0.40052924151949676,1.5125969900101701,-2.3985671542579783
120.0,-11.821310395999948,1.498261904484282,13.319572300484197,5.124243424342507,-12.608253999439354,7.405825353525981,7.382729411514101,8.49990676652387,8.41204816312736,4.579344702717778,5.437632624714292,7.439862276878738
121.0,-5.085180524119485,-1.0395405696578885,4.045639954461629,3.0272500901729265,-4.603083007128642,1.5009546321234744,4.418316352640875,0.42085593751915784,2.1861647404168263,1.209606951423787,0.1772721121097724,1.687887403109511
122.0,-0.4853465826278062,5.333230638406812,5.818577221034675,-2.4587027371606545,-3.1947026881433684,5.580599439013005,-0.7052307864264683,-2.2535837060654047,-1.6905619430604344,1.6524404569697335,-1.1942568227406576,1.1640773042141492
123.0,1.7837710612359627,-1.543120387700435,-3.326891448936347,-0.0771011739648979,2.582590771479088,-2.4199337753855223,-3.940720541410224,-4.7716017420456325,-4.6800414428391015,-1.9561008141177014,-2.6584508583928095,0.6601027555156506
124.0,8.998091586912102,0.9545286144944325,-8.04356297241764,-4.933518961519625,8.538856722935456,-3.518543973792819,-4.900146766470829,-2.038215798970531,-2.420088674703608,-0.7274149446127423,-0.6995195385177349,-6.137809659982754
125.0,12.629513852956226,-0.44257911115075843,-13.072092964106966,-6.128001693625231,12.862652978507022,-6.8016186380102885,-3.195872981954055,2.2219069890530014,-4.745337577373819,-3.734802376681641,-3.1224152873522413,-0.613553641309136
126.0,-2.1436820453068393,-3.8979584465748593,-1.754276401267993,2.990508881932003,-0.1836481666722003,-2.866076649621381,-0.4449428092707082,2.1875977031609306,2.5817819218723477,-1.131442309912774,-0.4351921320516035,-1.4514559853260194
127.0,-8.94180826110806,-3.4036269116238773,5.538181349484242,6.2281435190927,-7.224199970134299,1.1062858342963748,3.0213459528324695,-0.7686421611185539,4.293781559316072,0.9410703902467934,1.0272682689692456,3.262332060008401
128.0,-11.409296166807927,-1.8249208175837195,9.584375349224274,6.602462524024814,-10.472832267250457,3.83792043544109,0.6983260363818515,-1.7896861766851344,1.4366947201992675,-0.9968865216865878,1.1235782065478293,-2.509560355128149
129.0,10.062638834375438,5.76586804732584,-4.296770787049532,-7.920404501541992,7.133270941627998,0.7698837742291431,2.4223556170891123,-1.9676676681725906,-2.569090770130167,0.37142735730101406,1.3887228848463367,1.7628478992958945
130.0,18.791937144867926,11.12172520842668,-7.670211936441232,-14.956836974221062,13.189854009276164,1.7623475812780418,0.657988057439622,2.5050231579182545,-2.160042731099603,3.9887286678441014,1.46361932718557,0.158599658186112
131.0,-1.4510689559451837,3.62233891967549,5.073407875620618,-1.0836374106727362,-3.2242945320581056,4.310792302417073,-1.0708254745024863,0.14599857539349692,0.7306583235092042,1.27743389209957,2.3695629277508283,1.0242408323434349
132.0,-23.55522464508238,-10.232156674883718,13.32306797019857,16.89276379767591,-18.48390066951524,1.5950429360337435,1.6432192777184256,1.3512659514694247,2.6810104356774356,-0.5489202203260585,-2.860694765496582,0.2692691047723639
133.0,-16.02377831138464,-10.947111400633032,5.0766669107515305,13.477282652079632,-10.52227222446338,-2.956214502957733,3.5901835966427234,3.191240756286783,3.129591267179476,1.6471972157752743,-0.634140562928829,2.728393215832424
134.0,1.3960889008898851,0.8935988394520509,-0.5024900614378457,-1.162530900776603,0.9721610007842179,0.17980812908378807,-0.7417570495825925,2.0458481780578506,1.2671248152028112,-0.3652697461081069,1.5942654644245886,1.9114200100615633
135.0,24.050845529859195,6.245885571774199,-17.80495995808496,-15.174925551034484,20.949260851769893,-5.795436212311629,-4.61936670258172,-1.1971809466105061,-0.3417357321964888,-3.3063193649486307,-1.1971441625994872,-2.802881120656863
136.0,10.60409352957851,3.852034388139702,-6.752059141438757,-7.18115537488469,8.623896818260697,-1.4721967809308052,-4.074098566436845,-5.625943075372693,-5.754491057305484,-1.6127766561046588,-1.977353906242187,-2.7590458510316918
137.0,-3.535400093372715,-3.7293185554276915,-0.1939184620549108,3.6794411653338943,-1.6388797971031295,-1.916095423745358,-0.23890026151424726,-3.4489987061106095,-2.565355910925922,-0.33673366280352424,2.721219924467751,-0.5561985335399511
138.0,-7.51435572303782,4.848044970525988,12.362400693563867,1.3071468427831792,-9.897317664711611,8.559254745854401,1.6281483263226135,-0.8013104080281621,-1.4363596630164135,0.36568892548896537,-1.926818170255924,-2.938798362625464
139.0,-1.9683355238553704,-3.9601074300715093,-1.9917719062161225,2.947518804857018,-0.01773434951616082,-2.9538888987041654,-0.424963688112066,1.7661484750116674,0.7627529569404243,1.7357542286834904,0.26199658301015294,1.7702253504169387
140.0,-3.8441802079333787,-2.9208003346346842,0.9233798732986496,3.3757231072107023,-2.408414752843333,-0.9822795148404218,3.3834050027458806,3.4446370548763166,5.214563686172281,-0.7946378978908673,-3.440563704905286,1.6747432145635708
141.0,2.2161789440372264,-0.34567240435139435,-2.561851348388676,-0.9345749273195492,2.364763172067499,-1.436391770915943,-0.17735484582428596,1.8169104028000778,0.05173821388675082,-0.5981021682567541,-0.16246089484663398,-2.6781086431326795
142.0,0.9044671298262777,-0.5077659260798144,-1.4122330559061362,-0.19494309333495274,1.1309165519343753,-0.935782240679308,1.4456826692505058,0.9809418827270484,-1.2850289603462393,-0.9635614695397116,1.9162458097305808,-0.6013118661627845
143.0,-4.226871926188057,4.116820898331536,8.343692824519598,0.055737434339876823,-6.238385781785826,6.186063130548313,3.6871349620238565,-1.014135847969154,1.3737840688472993,3.5157555059640564,3.9257628068419606,4.872989840719019
144.0,6.381756049361305,5.363749159551677,-1.0180068898095707,-5.879196961882401,3.743756263546322,2.1392968121034466,-0.09181194255486569,-0.6623990417998109,1.9804535616234369,2.9388021994930673,3.422677004887996,4.725005253263107
145.0,2.8728885482265145,3.181783648220417,0.3088950999939495,-3.043073254049097,1.2471793281242929,1.798568644150652,-5.0142282767593125,0.24931194502724074,-0.30806128211474954,0.6367217420989811,0.8518684077037979,2.3813006310734925
146.0,-5.0998855509607655,-6.65858964934919,-1.5587040983884404,5.855024367546362,-1.7235194729712435,-4.130278794103583,-2.7817778031347946,0.6509963660801223,-1.1142187341545609,-4.015872217395555,-4.549317070197418,-3.744868937156928
147.0,-6.677717581807098,-7.117077731822635,-0.43936015001561124,6.946849995780133,-3.146174862631088,-3.8001377780908236,-0.204320472596089,-0.8746636188300869,-1.013990564094448,-1.0603383345029962,-1.8862059565485114,-5.2955994268001305
148.0,6.412727009196757,-1.533349862545069,-7.946076871741923,-2.390695980731901,7.156418212227159,-4.764754697327983,0.11058956704753323,-1.8338716378952966,-0.13088553927625735,0.6483731735764793,-0.9315791650437086,-4.2721348884390435
149.0,11.512482716779415,3.046483077697846,-8.465999639081609,-7.305657102976372,9.967795504651791,-2.660024009547967,-1.5511727144169984,-3.291337391847548,-5.562339258443211,-5.309565532139463,-5.3198916987757,-2.897827169998126
150.0,-10.44828569662669,3.2573180526159176,13.705603749242648,3.57485944164088,-12.099970782407798,8.528084780413787,4.914472865772273,0.6703576979869499,0.13334904862686314,2.3102028956991774,3.8680329996126654,6.635886253628067
151.0,0.8769473846672886,6.854358978232849,5.977411593565628,-3.881344311393437,-2.498611280855255,6.382266742916386,0.7916183852846848,2.2012160117855473,2.5916568776962396,2.712558429087022,1.8359073169116846,2.62052639599115
152.0,-6.497344698368827,-5.8542449800251894,0.6430997183436808,6.162461738478745,-3.523890643998643,-2.639403728039942,0.8945120438514018,1.388973329174704,3.6250130356663703,1.2492002723146225,2.384263481647133,-1.4001131217804854
153.0,-0.9198180062642591,-3.5050275249709406,-2.5852095187066944,2.1982435451184905,0.7952308199072666,-3.000128030227473,-0.7035787503296744,1.3411910596580396,1.6216690304032264,-1.3247357641403652,-0.7544544050391284,0.88663301249353
154.0,5.734413871333485,2.0964129673327383,-3.638000904000809,-3.854176287913675,4.645063066318886,-0.8051803662524435,-0.7345121326804954,1.7540790178528205,0.3617720462277525,-0.34158886210619194,-0.3852763725976649,0.8114017444461887
155.0,3.4303589520988713,0.6805876920706007,-2.7497712600283277,-2.0772817238412546,3.126091055827959,-1.0707541744541458,-1.2927967728726815,-0.6435793724680403,-2.5251204553482642,-0.6978229230196867,-0.5010822788724756,-0.9433823449132255
156.0,-1.5529686864832297,-1.879137400307504,-0.3261687138242899,1.6905972217617935,-0.6552677945081276,-1.0627730585311497,1.472830098052968,-0.36149844772838324,0.25612256754298035,5.020777656779616,4.049548480464262,2.0632053024626926
157.0,-1.3899679154337168,-0.3200071967323066,1.0699607187014453,0.9063913324552528,-1.18995106526886,0.4118548388814069,0.15367306623865865,-2.697565708157573,-0.033534553745447226,-0.42081758762957355,-1.798443781753717,-0.5342887105649919
158.0,-3.115415403596335,4.283051557265963,7.398466960862326,-0.6109855306511288,-5.212299931627465,5.796227001962191,-2.10314912952826,-1.7052867470802053,-1.8876753732211111,-1.3048950782299804,-1.3689097370843015,-0.7754192545371636
159.0,2.7814960127176493,1.33727789012581,-1.444218122591853,-2.08478975068679,2.0835823538828833,-0.02124985613221586,-2.442351171796011,-1.847268158374535,-1.9698591422089828,-2.5208259423821207,-0.9078087420855936,0.5530810974950584
160.0,7.846700400882672,-3.5781645649717273,-11.424864965854447,-2.0786124064682054,9.610198442286453,-7.549440553827895,-2.450663486667757,0.263507538677791,-0.13770831286368967,-4.396385973655885,-5.070640317633096,-7.68672266659493
161.0,-3.2599832873910675,-2.663245256731066,0.5967380306599441,2.940152052272502,-1.9521904722493817,-1.0035559600605262,5.104995018493637,4.271657583847192,1.442404416320555,-1.8661293216539983,0.8827012005635839,-0.01576752051666741
162.0,-4.138593327460454,0.9665823097809323,5.105175637241328,1.564526957061138,-4.645775417552172,3.0642862181314348,3.2019140802363313,3.5911844089792138,3.701140582874931,6.95648689954916,2.7959423528425758,3.2047336707897247
163.0,-0.06767075097912856,4.083419034195212,4.151089785174332,-2.0314062868546543,-2.0555700541447233,4.065100076104052,1.941518852018874,-1.4517013456153904,-0.9336613423596176,2.3589571340280724,3.126357527814912,3.795726044274777
164.0,-0.05823548641776899,1.2249512464671293,1.2831867328849282,-0.5319373879169292,-0.6180459013119558,1.2782369416984698,-1.792790764982182,-2.0437866452794293,-0.23408090148510122,-3.4207436408424914,-1.4216939943536184,1.3186293365646424
165.0,-4.021581391860996,-2.782039265322747,1.239542126538284,3.3697170171775817,-2.6575225600612096,-0.749801322560955,-0.2964915912294519,0.4593608176331818,2.2665543016559564,3.636016585392732,4.282474217423983,2.106166993921971
166.0,0.09427589631729427,-1.248740463449838,-1.3430163597671205,0.6190495907386382,0.6908303699037044,-1.3554164872275651,-2.5813817199888858,-0.925963047887667,-3.327971017016663,0.2926115327929572,0.29757781477865325,0.4002284215197931
167.0,-2.778116288900594,-1.7999639253538353,0.9781523635467373,2.2478731737832183,-1.907209199525309,-0.39236941375042544,-3.6301762525397585,-1.5260416737035638,-0.05748833022849764,0.5264704396762278,-0.9634579978656346,-4.147771977895031
168.0,1.5281121534513844,-0.09773220465250457,-1.6258443581039304,-0.6809037345428813,1.6249498699080218,-0.8413633414758602,0.9218993809633372,-1.0130131374133875,1.5383727812961587,-3.0249779549634694,-5.2069021288195385,-3.235643393590809
169.0,3.229347871415527,-1.3860901204524023,-4.615437991867949,-0.9684311395891017,3.890062495166074,-2.9754142511944117,-0.15965927952410364,0.3606617605419244,-2.466877094568163,-4.378354699380405,-3.2770165342115947,0.788507942652553
170.0,-1.6954663467828666,-2.4341156741913235,-0.7386493274084291,2.095187270213991,-0.5111377292363182,-1.6322159980811555,5.741153084836262,1.363251887565652,-1.4928151183319145,1.1119268795682384,-1.1287395580747002,1.6693921857641199
171.0,8.641270541078171,6.480299945629022,-2.1609705954490517,-7.531388061319223,5.448708412049427,2.2015168391200866,-0.6379570128025045,1.0791709049771636,-1.8625769662308587,-2.150193914324248,2.0131861944151046,-3.206470549477263
172.0,10.685930228749145,7.184437809613558,-3.5014924191354355,-8.985150126616002,7.144798726081083,1.8130551432756317,-1.5739387424034628,1.6290148760451344,2.9750627275354065,1.8376228086977036,5.586975383415986,-2.086187807710165
173.0,7.972710206862698,2.0436160391179996,-5.929094167744547,-4.9795722302108425,6.927471457321729,-1.9649919829288578,-4.649127044849009,-1.032663709139557,1.8572848042644172,4.545479917722837,2.5615058031248323,3.9798638562364395
174.0,-15.694480045792968,-8.298929790040095,7.395550255752958,11.947067572270635,-11.565544402278885,-0.3927232673633908,3.36035346483301,-0.42253464071344427,2.4310025318489226,2.4598264438907673,-3.2894077800510053,1.3376873041840582
175.0,-22.8952949631969,-4.664550807319532,18.23074415587737,13.810695556321761,-20.58405257984773,6.7615820646210985,2.9293258243783167,-1.045927163631526,-0.2810685542934589,-2.582917584270297,-3.0041431912447303,2.39839632604384
176.0,-15.273643808697704,-5.743673642830888,9.529970165866768,10.542451349440285,-12.427895573784259,1.8662792710534155,3.2377940059649095,2.1744442753365933,1.5063182927603043,-0.5770743364928963,1.8193483432567215,2.047605237731104
177.0,11.11462599832793,6.461789222460051,-4.65283677586792,-8.829123933918007,7.927097735599064,0.8702339800815384,0.3546095698937366,0.6937600137848912,-0.18179109885178257,1.5497220339760132,3.8264971402895993,0.3616246310578752
178.0,30.842964291618443,11.131115088395806,-19.711849203222663,-20.945180372727044,25.30894089453743,-4.25304006110373,-9.569277929460778,-1.8921164381929767,-5.2526875604958345,-1.159244216510742,-0.9946252420465926,-2.0913779421917025
179.0,9.444797932719974,-1.7520831260117138,-11.196881058731684,-3.880744068541059,10.261846385170108,-6.442068749476146,-2.9427531282196338,-6.018877236816398,-3.9452695763701318,-3.806855310531096,-2.30217004338331,-4.456496865860386
180.0,-13.653182347561474,-7.933461643389053,5.719720704172435,10.837238801846905,-9.67559186086878,-1.0759156688401195,2.7790755966129006,1.9420848182405974,0.10244759051446817,-0.03195213798186147,-2.1967466692773554,-0.9282675090130077
181.0,-7.401045120834415,-4.797897405535506,2.6031477152989138,6.060558287845497,-4.994858725742963,-1.1432045060668892,2.5474228078879366,3.2830332558151936,2.873219581353993,-0.2503437506866358,-2.0644411458065663,-3.441341186473763
182.0,-4.000423193209647,2.440265247931149,6.440688441140785,0.7340198011077979,-5.210315905717056,4.3990340071648255,4.006132754408774,2.4073646401462536,6.421107135468308,3.2469633994289295,1.3536057920721554,4.623983129208633
183.0,-3.4352752407723584,-1.478526053555152,1.9567491872171852,2.4812307723011715,-2.6763025485606438,0.28182840578275137,-0.09824874907394499,0.38101050367525713,-1.4859787105828666,-0.2156211903613232,1.9958475853005053,0.2470217766172862
184.0,0.9155134789378807,1.007518389785639,0.09200491084774498,-0.9442057716462402,0.366863809489808,0.5188583195098389,0.4320913982783327,-2.4746087208192393,-4.358341358875007,-1.8825336776707566,-1.5125996193833848,-0.40068913749954405
185.0,7.332719345233671,7.18556934569909,-0.1471499995345742,-7.245270418853893,3.7895206344389347,3.570893973367619,-1.2165666733496525,0.18958335424758177,-0.03719059945033165,0.8066229934770931,1.8468934771933851,-0.295075426161439
186.0,-2.245664623704553,2.4668487760878373,4.712513399792416,-0.09560371711901094,-3.494660217171547,3.5644214387187616,-0.22619504314195304,0.5007555771031533,5.4792670986331125,4.63822924467956,7.661696976116565,9.64929806811102
187.0,0.6254904903686276,-1.2765507002382293,-1.9020411906068293,0.3454669797536417,1.2562811420059348,-1.6152871155576807,-2.6417022110577997,0.40777672949232846,1.2820598853015377,0.17662266922042247,-3.5950691709879865,0.9730800464832376
188.0,-0.6647055735418178,-1.6589814590263523,-0.9942758854845206,1.1097778121643955,0.15779063464117427,-1.2773781032318472,0.3143226865906277,-1.5958815867743419,-5.940578878733454,-2.1470765461956423,-5.498197282490174,-8.224698003910664
189.0,9.979748764729008,1.6050735122104607,-8.374675252518568,-5.759581842962176,9.162961484515934,-3.4204705265540793,-1.2010733233004993,-0.6106215496344721,0.5432498797892098,-4.327333800434305,-1.0884415268072076,-5.166218000348049
190.0,3.089267117044264,-4.7289229734871245,-7.818190090531404,0.777746860909915,5.426366542348957,-6.2387472522084675,-1.4575224783321343,0.8767184564397097,-2.909171039989806,-2.207078154427092,0.4551251404358143,-1.8383990510136168
191.0,-6.401321149824476,-5.347141519069881,1.0541796307546032,5.833329987555568,-3.6919603422447755,-2.1997359604414073,4.089313845577879,0.7404948254630139,0.706187803903714,2.7992169806807263,2.0351500266884446,4.828207714137821
192.0,-9.725670960377885,0.37447147545367043,10.100142435831607,4.712870867800804,-9.891403223763112,5.253929582252075,1.0477756351821403,-1.2141065019463293,2.23511684326729,4.657718547132957,2.125864366869896,3.1748813098908077
193.0,-11.283282695123548,5.6596812142725925,16.942963909396195,2.848122236652892,-14.101481880608837,11.311164768571093,0.08221613363438562,-0.4480613801961903,2.969733369233235,1.3287169490808797,0.8901066000243185,1.346153192301959
194.0,4.1543564546872584,1.2575774203372911,-2.8967790343499384,-2.670088976688912,3.5334841373779753,-0.8130584313746283,0.4624545587816491,2.1826986589379302,0.6755032634500537,-3.4031189588520503,-2.8608814795896707,-1.0436786830548082
195.0,19.227462638957466,0.12487098019052034,-19.10259165876693,-9.719172713016407,19.096804546556445,-9.4814271276687,-3.340217218168005,-0.7319390232901744,-5.146835440060469,-4.703622664045903,-4.9598646036763245,-3.888234244329034
196.0,-0.3714077355020038,-3.581491836705759,-3.210084101203747,2.0113307822731867,1.4378267339578663,-3.383443610052014,-2.1137938915811745,-0.06013254647283689,-0.8838169022966627,-0.6864320011555409,0.3929683088486826,-1.31807628697205
197.0,-7.098457304359599,-2.5592903181334177,4.53916698622618,4.7824170372614745,-5.788761363829061,0.9315107597067334,4.317933722316316,-1.5217144924529713,0.9723255925094965,2.131992657965012,3.3132038563403974,0.7356678701565688
198.0,-0.6833180277337898,4.4364142419420345,5.1197322696758185,-1.927293573912911,-2.937278703457581,4.808009912880206,-0.47912906047059245,1.1974683367054333,3.1833042850469204,4.918358773038815,3.260797436787377,3.3519158494185888
199.0,3.7094753533920053,4.622711777608646,0.9132364242166422,-4.142601806621236,1.4529735506607273,2.8076043917945372,-0.7523859094450512,-0.8469616348074223,-1.0214053047102996,1.4380356627351176,3.0850245909394474,4.1511964380648925
