Time(ms),I,II,III,aVR,aVL,aVF,V1,V2,V3,V4,V5,V6
-200.0,2.8411544642131976,-0.9973698224112408,-3.8385242866245415,-0.9382042221343387,3.3668797022132546,-2.460812212777502,1.5866163762177226,1.0347638808290816,-3.6451551898254415,-3.429485597508802,-3.311933427182025,-2.242153606532965
-199.0,-3.8169477408093817,1.7940694139161388,5.611017154725392,0.9921439740771869,-4.768435012060196,3.736912062182361,-3.516581296303337,-2.8885012279810582,0.9721196281599238,0.6802393905357116,-3.195183607629508,-0.775994574401955
-198.0,-13.479120941724931,0.712360101283637,14.191481043008471,6.356246671766726,-13.817206308054919,7.404150822279042,-2.1025007772027817,-0.9863238986543708,2.8825066494927136,2.088086017274936,2.4183928803678603,4.708954732444154
-197.0,4.214600591587457,3.308158290075252,-0.9064423015122429,-3.720441759390606,2.571105897269874,1.227631722214357,-0.1578063035365318,0.06494724927135886,1.0675561391933939,-0.7827585326939416,2.629234754620069,3.8864200461094542
-196.0,10.091275730762176,-5.438379028299413,-15.52965475906153,-2.2962875486829555,12.81512566702438,-10.461064664766115,-3.105095279225029,-2.251076822807764,-8.145235362692318,-4.4292234090672515,-5.784436800090264,-8.039988987526685
-195.0,1.345891370034761,-2.394037944028859,-3.73992931406349,0.5457196327207954,2.5457681986408174,-3.0465316944257883,1.1561101393458029,0.7628177614202957,0.025459226997113227,0.5553505901707254,-0.046864102964010224,-2.838900361733727
-194.0,3.989920747063616,1.7927441833539155,-2.1971765637095566,-2.953463084182657,3.0999619312058693,-0.2612252016903833,0.6568597869582082,3.720806306477821,1.6345454080519821,1.0934735773879876,1.9519617161602747,0.4491304247793859
-193.0,9.501591879632597,4.252177639599386,-5.249414240033145,-6.861862608747306,7.390330448414711,-0.4777127270463668,2.243351146925118,1.0529246290221057,1.8725705640930057,1.6837038235254052,-0.6613153297906869,0.007148442017986811
-192.0,0.014921714290759835,-2.4666627327945894,-2.481584447085383,1.2417168836760686,1.274341621323258,-2.4502365079040356,-4.65859387883696,-2.0634089058231115,0.25566254347361883,0.015262301272995549,-0.5727050602412773,2.87570209221119
-191.0,-13.469769844229694,-1.989142045367534,11.480627798862052,7.747123861487769,-12.516457131110373,4.695659908004604,2.9726818429374937,-1.3968487007461747,1.3403410814104675,0.08910375778720758,1.9643669052643034,1.5920881452538584
-190.0,-15.661143246675257,-3.0398718988107456,12.621271347864381,9.290941973712718,-14.173222925024795,4.82598329795369,4.451503101980918,1.158167922973023,2.04221992209709,1.1455395258024024,5.16958117426849,4.754043281352373
-189.0,-1.6857889540473687,8.670396444564002,10.356185398611277,-3.4726710983845077,-6.046958439994873,9.47821315703819,1.803631116651908,2.6789430895613346,3.473935066262841,4.154256112563169,2.274275558963846,1.5682194684853363
-188.0,12.66686940739757,5.983946747124034,-6.682922660273558,-9.306434300066615,9.730926283124168,-0.2960816201365355,-4.1148053918846035,-0.23198647256606542,-4.6766132828278195,-2.8839516730524193,-3.2341788276102448,-1.6229860636846625
-187.0,-3.2036032563392896,-8.493725861428334,-5.290122605089006,5.866466346252753,1.0222722730171103,-6.907183591667689,-1.3375174394362417,-3.481307195358089,-4.586765068866995,-5.728648455916065,-6.381977845236659,-5.655354691956845
-186.0,-2.6613474213945523,-9.399921808940002,-6.738574387545381,5.9689361159480185,2.0977902576656247,-8.075617017493538,-0.14408533956573644,-1.2351665972381538,-2.585467707916164,-1.2523051758985186,-4.446151348027962,-7.4153361757568
-185.0,13.798060690477035,2.494928941524207,-11.30313174895278,-8.12888318277574,12.532519476661802,-4.404552666308386,-1.7175007719877005,-0.850036476861463,0.5163055163345212,2.614477132981564,-0.3309508830134029,-0.8030911132395997
-184.0,13.017473016003866,8.675693529151449,-4.341779486852412,-10.826677699430268,8.662595302262698,2.167945659380418,-0.43946940304465265,3.7083489623166512,5.100685041087526,1.1645373837865594,5.547129631146568,4.154572050238327
-183.0,-6.805472159480182,1.6860343419862165,8.491506501466368,2.5832685589369877,-7.665957713229939,5.085993865871505,-0.15560074313982208,-1.1498721438761292,2.0246904007616,0.9721068431254791,4.664379675984895,7.223967069950514
-182.0,-5.99286575520153,-0.8790359545691651,5.113829800632326,3.46326553475966,-5.5736248504778425,2.106009191161406,1.5958455756057743,-0.09520529523397459,1.265727752558211,0.9949063337554285,3.48296982002592,6.030136247717861
-181.0,-9.486743019534487,-1.3940122239317083,8.09273079560274,5.391195620973157,-8.736731167229223,3.3259537245266073,0.9543366368680808,1.555904566089488,-1.899525274720162,-0.46351007418624646,-0.7715940130015881,-3.196044116967264
-180.0,1.174329000423298,-4.96621076748419,-6.140539767907503,1.8462592533784594,3.623974027476218,-5.511275058406746,0.15442076815193517,-0.9642764848686541,-3.3031753124050844,-0.9401159802983915,-4.981777222779286,-5.504890721127265
-179.0,2.7759650434531338,-0.6403996435185424,-3.416364686971624,-1.0421147484282662,3.1324217519455266,-1.9983796249047412,2.2012599040886025,1.9733332115942654,-1.991851560558196,-1.2293433398465572,-8.389541164424939,-7.952432091929941
-178.0,-1.7151905384017154,-4.743482055889607,-3.0282915174877854,3.249818318783694,0.6048942594967701,-3.9435428335703873,-1.768145328847154,-3.3598895061675256,0.27775497591311726,-1.8939039307119656,-3.216758363595414,-2.9790464598467707
-177.0,-8.559000928231521,3.2340589349243727,11.793059863156001,2.677925944192241,-10.157061355750294,7.530331316982006,2.378998881850019,3.689280318656567,5.833376332076279,6.551307763513718,13.215485930740138,13.495081087871784
-176.0,-2.084583776841795,5.935935615941635,8.020519392783488,-1.913038459390315,-5.039781578642492,6.995905685764986,-1.0147245167808172,0.3215675655195738,3.1655908684265093,1.0383676701781086,6.775534847417047,6.127925887538067
-175.0,17.215033405340204,8.300980667534692,-8.914052737805516,-12.823204050850984,13.073435163979788,-0.3616272654181687,-5.090029754431946,-2.3986333596103107,-2.9030112429090122,-3.0553632087597222,-3.8840156296858552,-3.125484238417319
-174.0,5.0179026549876315,6.535917176508297,1.518014521520601,-5.758106513686416,1.7571486948888362,4.06067053622297,3.3167839898140623,-0.5241779710242302,1.0647060512756126,-0.8885687757811644,-0.46715523654503177,0.8723530479764079
-173.0,-4.2612772635469875,-8.989665007783081,-4.7283877442361915,6.653341762241171,0.2408380505391805,-6.813101648071056,2.527562062897542,-0.141448870061389,-3.323326552756335,-0.6799126220606608,-3.731317248651773,-4.948635507030291
-172.0,-0.5037674017445479,-15.106797764138369,-14.603030362393923,7.844400620786896,6.9796965723822595,-14.875944161784076,-4.397115994584089,-3.9922289407901053,-8.973848787848059,-3.6187450010183553,-9.642769045526233,-10.24194203656647
-171.0,-9.311313920949354,-8.917769684976438,0.3935442359728407,9.085926196912014,-4.840526555012352,-4.274554202124662,-2.92224644266765,0.22555144164052482,-0.31236515286221866,-2.7931671162770817,-1.41215068857487,-1.978309153569504
-170.0,0.0418849282510525,2.67567137337595,2.6337864451248647,-1.3790360626401243,-1.278986902606984,2.6455162646919486,0.40414659932323865,0.9088251975355879,5.282797024777926,2.63282237442487,4.093396266314978,1.7468550616255278
-169.0,8.391958484169688,14.070360486181437,5.678402002011782,-11.247229232358837,1.381004285685627,9.862283836935715,1.8731586638607687,4.35827427003674,5.535426508660671,4.808924872130202,9.782607802031162,8.562282498141748
-168.0,0.9184751582103183,13.124113347252736,12.205638189042496,-7.037319766754198,-5.610449746039693,12.64476203389155,3.730392543058458,3.076629996666248,4.936949884366803,3.173005166905535,3.692938776420312,10.4638492495179
-167.0,-2.9268895019071826,1.5686786812098,4.495568183117078,0.6604446279278706,-3.7478644890693396,3.0800254247808105,7.27133360316556,2.9401452123981886,1.0340887010618474,3.6754804648274364,1.6392303221503308,1.1549662611146596
-166.0,-2.3819983711049293,-9.512525679656106,-7.130527308551096,6.0041088983927695,2.3444660773780672,-8.362830900741637,-3.2226866198760384,-3.796855360928477,-6.237608709253296,-5.138899950268772,-8.366386131963438,-10.151797160734874
-165.0,-9.504591209090917,-9.42761203223342,0.07697917685754785,9.520650593443392,-4.7392563812851645,-4.645531920796481,-1.8975218760589165,-0.4607590960729686,-3.4689001346075314,-1.0807722699215616,-4.339060806080766,-3.435738084717964
-164.0,-3.5758547518112507,-2.204831785202769,1.3710229666084857,2.8650537771519993,-2.5035555847150395,-0.3908007862519378,-7.072855577037462,-5.195801586332848,1.3817037272526305,-2.8795008798010064,0.9391035515149491,0.9266087122706512
-163.0,9.948672371484303,-4.292309511849654,-14.24098188333398,-2.8543159770715034,12.056528336689626,-9.240689826137608,-3.056382671138353,-5.366286812674913,-4.570619155698748,-4.614861483889712,-1.1666993711208595,-1.8271754164091076
-162.0,20.937360744554905,6.068988191740949,-14.868372552813986,-13.531325534799496,17.931457589638814,-4.4507846471142924,-0.5409944067668604,1.2557491036225206,-2.045630474309302,-3.0488057531809183,-0.6228635771080875,-3.878146413686372
-161.0,-0.7965737644558093,16.157076690634128,16.953650455089914,-7.712528007708366,-8.859492511655553,16.505800088163685,3.9266398920391747,5.1240912532578085,7.5720565374774065,7.8052072366019605,6.931188057124519,7.424168834111994
-160.0,-7.51746550913798,4.35040531411191,11.867870823249852,1.623766686103231,-9.688377464431245,8.138237055940216,5.656962396586739,4.690354406476597,5.068496544696904,9.72795621807516,3.1991105211255566,5.966173381895326
-159.0,-13.953455065160789,-9.44058306856501,4.512871996595754,11.729639950461682,-9.236383071041253,-2.4368559907482545,4.477363441650703,2.0705268951575366,-1.8705648841240161,-1.7563951144684111,-3.416818465489701,-3.1778903090027004
-158.0,-10.366885660540415,-11.960162286207957,-1.5932766256675652,11.188073154633935,-4.3925985487813035,-6.753257113374457,-1.717933837243924,-0.401424759227194,-3.478106388065925,-4.207446359082201,-3.833680776710437,-3.5166654707185634
-157.0,3.1955199599048703,-7.469718155131228,-10.665238115036088,2.0750832745333145,6.9268871253200395,-9.126573318814332,-4.199523647913394,-5.056076017018919,-3.3566635194855126,-5.2210505948016195,-2.288443625508039,-3.3934365577780206
-156.0,8.589589281265434,-2.027591824080044,-10.617181105345441,-3.271337836000008,9.606009028394851,-6.305443208638623,-3.4263674755516575,-3.5152426568382125,-2.2455971435167608,-4.68440995025727,-0.2634606524490888,-1.8252097543881687
-155.0,8.205429794829433,8.799603148450231,0.594173353620838,-8.498710986211858,3.816470027705587,4.71345388865131,-3.0522942109079008,-2.103314904385926,3.063676054278512,1.0099738496861042,3.1642297695169184,2.78420989173725
-154.0,2.3951479072072104,14.241400342771097,11.846252435563901,-8.318481029677846,-4.706277352694268,13.063179372019905,1.2027952039035164,3.5503884717381506,3.60899005427374,6.608624755545748,2.913484563201606,5.794480457272055
-153.0,-3.6770377836241037,5.681648860890415,9.358686644514508,-1.0039690832847104,-6.5702204698672935,7.466944138943842,5.024683023871842,3.2789554122092177,3.887081024001509,3.5340345352813705,2.6727025366050254,3.689630667115761
-152.0,-1.7634860011920053,-0.012915326205632294,1.7505706749863381,0.888198156486023,-1.725550437515432,0.9034422684968337,3.9636105295011443,4.29860106228014,-1.107994026652038,2.316977060828348,0.9393503772538869,-0.499581514118421
-151.0,-2.9862564627786083,-2.5964128567412836,0.38984360603727336,2.796242387838267,-1.7319735498261282,-1.1365604084276977,1.1253476508124722,1.1289256713148101,0.4020203013305801,2.08498744049537,-2.9929334730566324,-1.876788023877497
-150.0,0.3196681341390901,-15.516662153349632,-15.836330287488778,7.611085733748203,8.115502061939853,-15.620112294270564,-3.3350365590861446,-4.310926195533734,-5.326935490164564,-6.56858906183833,-5.197379056168341,-7.10281644482372
-149.0,3.34215802525548,-9.861777074592283,-13.203935099847794,3.2817918395192045,8.235007754751093,-11.54634044522755,-6.751147119695325,-7.276757458766289,-6.007554945170834,-7.143942088563554,-4.811821761575669,-6.120411473077203
-148.0,-0.12197577769600654,4.133699459807795,4.255675237503805,-2.0528980985315197,-2.1438152392265866,4.186056278589941,-2.1163265049659254,-3.2312516239056888,0.5552027458373674,-2.546381130027435,3.2575805298230622,2.728385885532671
-147.0,0.6270525825239341,7.832169471894592,7.205116889370685,-4.267899867167793,-3.2392614783646256,7.509524771897883,1.2913185882627303,2.7061449260499177,4.35674686476212,2.1205703500893005,3.3440126895398192,3.127416787985323
-146.0,-3.6913869220871347,4.778874360374696,8.470261282461864,-0.4965378163811076,-6.106326709168324,6.6095532838671165,5.681133471450627,7.280132206155345,2.0536768239164482,5.704762855384603,1.0098372124766555,4.2909734656293725
-145.0,-3.7054204168952616,4.699027129912814,8.40444754680809,-0.4455538972058952,-6.080302463760008,6.526786528026225,4.425545405518173,4.652411122477485,3.0217978125280727,4.9162631505188745,2.4934226500949634,4.11415658424503
-144.0,1.914103301727253,3.4754028492627143,1.5612995475354516,-2.7213580395907124,0.1466508359239973,2.5606376525537318,1.9347531536822955,1.6982126062957623,2.557295710647235,2.1181072480049874,3.3692001122232065,1.249978478509013
-143.0,-6.995358157128645,-9.763040318012969,-2.767682160884358,8.350234812315886,-2.151859576818806,-6.233373541075993,-5.737352162045148,-8.458332252184563,-2.745568541057615,-2.825027718932251,-3.29592083065785,-2.093568198080807
-142.0,4.286485023758606,-10.123445827412263,-14.409930851170916,2.884385592824695,9.379234939125007,-12.32027316792436,-4.826478239235286,-3.8048332224884076,-5.956798286489539,-8.272543568007908,-6.394587850838453,-9.022118453685724
-141.0,10.831355121187332,1.3387588665299104,-9.492596254657467,-6.047087857313674,10.185167786084694,-4.053959229270502,-2.496328985469392,-0.39210713499558825,-1.3522625650437674,-1.5757295923874293,-1.07776757777257,-1.9630205246572778
-140.0,7.0616363223605285,5.4570819406559785,-1.6045543817045846,-6.227898762935305,4.352933608355977,1.9514756197371232,5.342123370430423,4.603367474295828,2.7597314358973617,4.464829303605548,3.4509214413165785,4.525272186543317
-139.0,-7.557791507467746,6.428087891620126,13.985879399087864,0.5129694340950526,-10.75019181472031,10.15889463462301,1.3917314009184254,0.10457277683097765,2.014827391908845,3.752157855403231,3.006020143964008,3.138424487008882
-138.0,-0.48410742208100377,5.120695711754676,5.604803133835691,-2.292905666951773,-3.017413118196438,5.40014103259507,-1.3005175948738537,-0.35263548367039,-0.7309553981443562,-0.126132870631817,-2.241102847005694,-0.4066244100978227
-137.0,0.2450130229871359,2.4669184321711604,2.221905409184064,-1.3286441098396935,-1.0341458960875203,2.309056146870402,4.676351357887982,1.6176840062478035,2.0439098136922804,1.3906636097552487,2.136148220333279,1.3879423190879243
-136.0,-8.528292040621139,-9.385790061889846,-0.8574980212686503,8.910277986047134,-3.8773237155774103,-5.074544214312711,0.14786084362035434,1.6658897511323998,0.6389225786650504,-3.1313494487224665,-0.6754655765757697,-1.5681071523833354
-135.0,-9.065234924806562,-8.856433262114919,0.2088016626917173,8.998753799599902,-4.678648132357545,-4.354780803387053,-2.768082553440403,-1.9098000082515174,0.1640466616234272,0.046193250454535484,1.3557967152084007,2.030104570118385
-134.0,11.757196006734823,5.532831771295239,-6.2243642354395154,-8.68049208635779,9.025656155936,-0.3787504932729724,-5.430499976754034,-1.0065981250202825,-2.0416058076366626,-1.5504577116915885,1.4990785025260782,1.3910629426245118
-133.0,3.0917151475850453,0.0902134072227232,-3.0015017403622766,-1.5446582779075277,3.079198053714208,-1.4133516895378728,1.20616497860362,-1.425789297609585,-3.241085652618261,-2.133670363385051,-4.201533251132328,-3.4650566695446234
-132.0,-5.335679944574494,-5.254460792593921,0.0812191519805805,5.262183448182409,-2.67551990612098,-2.626268116134614,0.7053522957450467,-2.2045484505672635,-2.187226077733267,-1.3153817283339573,-6.146152364705881,-6.012539001215663
-131.0,1.819927727238979,0.8884102735275479,-0.9315174537114633,-1.3912328002714702,1.3343366059618367,0.016184666014720295,2.5824323941527583,0.41506555033687065,1.459581145392085,2.850550413635965,-0.8939894820167167,-3.457103491774685
-130.0,3.029193540147056,5.841519740724629,2.81232620057751,-4.400867773793911,0.15391698578673563,4.365827385176351,0.2814668007967662,3.912311848831183,4.950142607877396,4.863807192472221,5.06583718707123,5.490382352824026
-129.0,1.264561849615822,4.7100238620592165,3.4454620124433415,-2.9615644414539632,-1.1139704888290336,4.0411783991776105,-0.29378730629623206,2.1979546503516394,0.3870412107657808,-1.1507444028104774,5.4793611567644325,5.250058571956568
-128.0,-4.753702545431583,-3.7520729498949232,1.0016295955366394,4.270100183359007,-2.8926079523281936,-1.4077076429811584,-1.9819073252764854,-3.146783159404993,-1.154364621506929,-2.0126783500023553,3.2494272634290104,3.439739931344787
-127.0,3.2705741713657357,0.7881688576217525,-2.482405313743974,-2.0973734353430067,2.8665691557518236,-0.7976067688302577,0.2890309631613033,0.8708629940202388,1.34758275636655,0.6535344527037579,-0.9967372697883414,2.854815322402167
-126.0,2.2759259134580976,1.8253989275339135,-0.45052698592414997,-2.0427598184498725,1.3536730167616111,0.6593230291357057,2.979447270502395,-1.4784498460752227,-0.7730452702829267,0.5892328552711528,-4.4250736947895275,-5.423559392293275
-125.0,-4.456629851853863,-3.244598590786379,1.2120312610675334,3.8603577036359384,-2.8476827622015666,-1.0459136857694369,4.409236263892261,1.658304899468459,0.24028737141098233,0.27686300321443136,-4.793191334145358,-4.977681262764559
-124.0,2.0523769184973477,2.9904637283429523,0.9380868098456463,-2.5049677806031343,0.6162897689703266,2.009568525205145,-3.4511218787675153,1.6225464064229427,-1.8383330179602413,1.3396773100359407,2.758761294226926,0.05195811193950828
-123.0,1.6417763082151784,0.16752840288763204,-1.474247905327518,-0.8776999539228388,1.5318482903520958,-0.6920222486703334,-2.3528203999323507,0.37816597958321957,-0.312278707036008,-0.9784931892980422,1.7575068366781752,0.7511568351539291
-122.0,4.308753414589498,-4.03774049455478,-8.346493909144263,-0.1754051157480646,6.29633999445197,-6.1575483249005565,-4.769361980360247,-4.989189262238318,-2.269434385403396,-6.064711243023989,-1.6257761908991435,-1.5487085670312624
-121.0,-9.970339589669585,-10.100545487033472,-0.13020589736388954,10.084357151945333,-4.875531403119874,-5.085870512840137,-1.9939676890493387,-3.484502622846947,-2.299630913433481,-5.269339714365326,-4.947855102505839,-2.760090004084991
-120.0,-4.382000230427859,2.8401969917027587,7.222197222130593,0.7461545839539498,-5.758711751456912,4.977631969856969,2.4164159319399294,-0.7945107966347493,3.5394251594780433,1.4128674802373244,1.8594563660550478,5.033684926264255
-119.0,2.3729777031232686,13.217016143360794,10.844038440237497,-7.821574398980884,-4.271488989660652,12.052094445958046,3.6415807813587655,4.843402605472653,3.86466826841918,11.547977873228419,7.962688147952082,5.802387155145981
-118.0,5.479207921987545,-0.6828029863069949,-6.162010908294561,-2.433454320818146,5.783299159569482,-3.4037644094153165,5.2878442954107685,7.0429705354865755,1.5958844273584905,4.72359951318883,1.7957287239544963,-0.4252962056215548
-117.0,1.3792877462314532,-5.672193389479701,-7.051481135711165,2.176672056927832,4.1753743162515065,-6.423821514821718,-2.0533812693260147,2.9705767432627996,-1.0664870239183204,0.8445627104169331,-3.166348653455125,-3.1124404845004405
-116.0,2.984251602401089,-1.2237059379469855,-4.20795754034808,-0.864205495124619,3.6312676526705703,-2.6990906064086992,0.5666811159925325,-4.586973311180359,-2.4374843341972583,-6.417514578098181,-3.6231877854854098,-3.6496739221121586
-115.0,-0.35638590428179606,5.217505251589158,5.573891155870952,-2.425531883082242,-2.9332484537360535,5.415258226955318,-2.3013665856218655,-5.490624407076568,-0.7490231853401059,-5.588852487957997,-0.15574682773342596,0.8706807970109662
-114.0,-12.100941422878696,0.473576492835872,12.574517915714573,5.81373289012371,-12.307721384188618,6.549927794255732,-2.374707636089043,-1.7249964459844498,0.9556151600625868,-0.6411543335579273,2.310081884160052,3.1732220436551835
-113.0,1.637857917027655,-6.727065003801879,-8.364922920829521,2.5467917034113166,4.952457891885228,-7.589224259788674,-1.957835595180383,-2.6837676921575833,-3.6555479248702882,-3.0696181021349926,-2.856080030941384,-1.0010369632309999
-112.0,7.405218843837563,6.151599022818582,-1.2536198210189757,-6.768003047152144,4.360071230031183,2.4962328964503837,2.230144312539344,2.8652952866297468,1.341017332657418,5.936608955591677,2.833687155252912,-0.061290569927523575
-111.0,1.13002710180603,-3.0637489803156246,-4.1937760821216505,0.9889196406402467,2.6143744521990575,-3.6485371031330387,-0.9336896290857775,1.7429648182564947,-1.0530476709789767,-0.5520612731845467,-4.292130313278082,-3.8713789622925425
-110.0,-5.85130256526849,-9.399766072826644,-3.548463507558157,7.580638174029363,-1.1212174285358238,-6.484521284239584,3.906066521105834,2.5906137673407343,3.075041673813833,2.0745659904979883,-1.3221151039332395,-0.7904292638870807
-109.0,7.9792519891332905,6.936438150582096,-1.042813838551203,-7.493640953326832,4.5377939849647175,2.941409342424884,-2.3222365603211914,1.4808601289141414,1.2486269061577082,0.7814880979777001,4.2479577889233715,1.1140680313271374
-108.0,-2.9135393221672468,5.666582103482673,8.580121425649896,-1.3287216389330694,-5.8046596526585015,7.117498486865599,-1.2539933012665565,-0.8682762846258633,0.340194948224793,0.6879759785483188,2.572638881560893,3.521198606536067
-107.0,4.87164999036258,3.8676680007171913,-1.0039819896454176,-4.400062092911837,2.95147145413894,1.4201234876849806,0.4465161504593303,2.1932840678183263,-0.5423851448118356,0.8112277551817846,3.578781353858597,2.739626169389432
-106.0,1.6025102531721165,-3.2317310608185426,-4.834241313990667,0.8603364393072415,3.225077661417408,-3.976198790947638,-0.6299354477457056,-3.062489448993167,-2.128134090391016,-3.945927693490265,-3.501275403409428,-0.7768023194700397
-105.0,-11.14882669384166,-2.419105750692109,8.729720943149584,6.746808998377456,-9.937205142090676,3.1204436320619373,3.684657355446178,-2.640757194537347,-0.3076920655423503,-1.5342312525796706,-5.445031377703909,-3.3646796411974167
-104.0,-5.780697098528096,2.290581463766832,8.071278562294957,1.7825523032407968,-6.924608794796361,5.211345377384618,4.1916415902276425,1.7727479082992814,4.232539723547699,3.7002708354717666,3.1555153547819277,1.3233365778793247
-103.0,-7.54592057187966,-2.4161740011064907,5.129746570773176,4.93675084509003,-6.332546703826723,1.2966561795007108,0.11297027417894434,1.1683895952496612,1.7289268115955734,4.220858801460912,2.5669488712110313,4.835886937993269
-102.0,8.830633660206619,-11.659568624618888,-20.49020228482552,1.4472926858592476,14.673618056266655,-16.064213570030788,-7.0290468400746295,-2.7595694674524385,-4.187927021591941,-5.735396686592258,-3.6403248206285506,-6.9419483179741945
-101.0,9.856203304349634,-7.525573817144837,-17.381777121494498,-1.1329029629890266,13.642432125659154,-12.445410949587297,-6.300136769294481,-3.473915800040243,-9.512230720768203,-7.776441526259749,-4.805750324064218,-5.485390325600819
-100.0,4.377997222696906,12.087138847359707,7.709141624662774,-8.278537133720416,-1.7104973548541489,9.910164634307167,0.21348718064071193,1.4497115505046818,3.1637884989759684,1.3515575620135056,3.67058692405786,2.4238504921443504
-99.0,4.421050708839047,13.787804649317447,9.366753940478377,-9.149521033552976,-2.509185148783822,11.598280965748401,4.425370482409914,4.43731024150373,4.626168328356379,7.219405233519779,3.3225281603972707,5.632016302355391
-98.0,6.875006585828734,7.530786434101815,0.6557798482730703,-7.167744864937514,3.157753847399899,4.12590238147077,4.008870139312542,-0.20110933724579416,0.82683226499526,2.1903645280537005,-1.1085895269836046,-0.21682978322366075
-97.0,-7.131784461267856,0.06443460001196799,7.196219061279838,3.571330979915685,-7.191816680193938,3.594891698060757,0.08942141632748157,-0.7274883613139492,1.1120047972994516,-1.8967650034624195,-1.8427536361721608,-0.41112317622033734
-96.0,-20.23415227140738,-9.814425462637395,10.419726808770006,14.986996339660148,-15.27546589405876,0.2736467621194518,0.984771283183263,1.3614110387126264,3.8827157341735576,1.1093640467828432,2.3971307628351513,0.9252071071191685
-95.0,-10.743890560054993,-11.961180373458614,-1.2172898134036054,11.398929324294707,-4.791350391097301,-6.617926670198802,0.09366006439634875,2.061496815431329,3.3795866704591186,3.042357204271865,5.924584050542262,1.9383998014598445
-94.0,-0.5622598477164757,-6.8556813688309575,-6.293421521114491,3.682018427742139,2.8362727636300376,-6.529944856175686,0.5499701167030322,3.18897748317606,-1.9331702605986303,-0.7748676156795422,2.3533281370608807,2.9834448519028456
-93.0,11.204999925845026,2.551937651833116,-8.653062274011937,-6.900473650989388,9.977235811395445,-3.0935360806719716,-3.646397576002414,-5.034992314324279,-8.898825535340263,-4.04229617938223,-8.89539581972442,-8.029025298405656
-92.0,14.876782903364026,5.377225096762241,-9.499557806601803,-10.145348206084089,12.15653914070543,-2.034166027469843,-0.31461350208091243,-4.99125288011591,-5.107734886281996,-7.045908397018233,-8.825250830100455,-6.3500740844863115
-91.0,13.656560430222093,5.377677169712125,-8.27888326050994,-9.454852623647763,11.013739818744169,-1.429189416991808,-0.9548922913506677,-4.556631742753577,-1.9583714225849485,-0.9273281090844661,-3.3075961790703685,0.05206434706549379
-90.0,-1.5569716254477441,6.4186854606605195,7.975657086108361,-2.4474592251949385,-4.80041473080127,7.217884663776131,-0.32525978863360727,2.312617889827905,6.411721101318417,6.002914897909138,8.531482211898089,8.229124573383277
-89.0,-15.423855913354553,0.27287440237641647,15.6967303157311,7.556867483650889,-15.596091785505417,8.009507497472049,-1.0160002327281354,6.0112293798957035,6.846762038540037,5.611128123713554,10.172409880169731,6.402287633486105
-88.0,-9.741977239031876,0.20394403631789418,9.945921275349885,4.746738228730496,-9.802728436525374,5.027896218390261,2.989717117271659,5.172139634012045,4.560217893898008,2.368946704198929,3.8586354728678183,0.13201119676772333
-87.0,0.9478803339703195,-5.183773843073328,-6.131654177043568,2.169538846804566,3.501033395591394,-5.696869084512174,-0.768929264983369,-2.817388752427005,-2.5363197150638594,-3.6058388284563887,-4.472069045980446,-4.719390624854441
-86.0,4.818076856257729,-4.681826045358631,-9.499902901616316,-0.10091892083725895,7.1987943373219725,-7.122878320748951,1.6590655779856522,-0.9519720718482894,-5.711161442547603,-6.629021816014567,-9.05505539873223,-6.154287669718775
-85.0,1.0116493231830903,-1.9268816630160628,-2.9385309861991606,0.4976336477545191,2.015685414254112,-2.380246745120216,0.5964825106934837,-2.179757505934069,-4.493567782152147,0.20461184501563645,-3.4943100254092494,-1.6637365286774304
-84.0,4.188851268413478,3.4274493093800076,-0.7614019590335133,-3.8526714295556284,2.438232824367368,1.3897410364378162,0.9690778209637632,0.48518459908191147,0.09352598181075855,4.293791423187496,0.9535041679073992,3.177135822804761
-83.0,-11.559018768498614,-1.6943811951151462,9.864637573383419,6.655845719679018,-10.747742344583312,4.065882521933107,-1.1282628533085282,-1.505777704726117,3.8806232486832206,0.012914184037161158,2.173532260353977,0.8234558582069911
-82.0,-6.481116681424885,-0.7028892254961168,5.778227455928734,3.538731808373261,-6.086559014077314,2.5194836350136667,-0.5464696233435274,0.924755223764349,2.8457026487770873,2.252087602055669,7.413465905258258,5.300772078175033
-81.0,21.741794847892272,10.144132235947446,-11.597662611944816,-15.919006389273745,16.633984109254982,-0.7459094464324507,-2.5107466718182554,-1.0889142447496103,2.34473908245607,0.27244519521822264,4.81743943355522,4.264210920551693
-80.0,12.9520014540779,0.6503603239461508,-12.301641130131662,-6.776198192404062,12.591611442354942,-5.847636793556837,-1.760448768510746,2.3135809518607076,-2.7858417240269002,-3.0511089628197086,-3.0663481830192603,-2.073357159303014
-79.0,-12.130693321626262,-9.463395378287055,2.667297943339336,10.825308577800762,-7.353055082093337,-3.3452370876883037,3.4400175284869112,0.43773554563182215,-3.051905238278325,-2.7019769441769803,-7.409403225585814,-8.70695718351757
-78.0,-11.022956278453886,-9.664507264362012,1.3584490140919903,10.297701101777346,-6.139847895724453,-4.182677536540087,0.3732172362699604,-1.8179047179476242,-6.2963745949717005,-3.195703523838409,-8.428458481152,-6.195256157047444
-77.0,1.2236946730570315,11.115808718545733,9.892114045488729,-6.132947271751937,-4.355198225403344,10.472169563408917,-2.638656046793343,-2.6234227909878003,1.7649657554933351,-0.2485543500653148,1.5106492684231192,-1.431445229378307
-76.0,-3.084286803771471,9.286841406167367,12.371128209938776,-3.140885723020046,-7.741501171701049,10.876097921271676,0.19276527909750008,1.4366066803157373,5.442465077592744,5.674393462840269,7.092705596235879,8.84187200599196
-75.0,-3.271819911143438,-3.6937110835134925,-0.4218911723701604,3.4431095447222813,-1.4335252844866244,-2.008552498112321,3.8583718381711107,2.7066528994150922,7.767977145942651,7.472439404486037,8.620035557480822,9.138003746794645
-74.0,-7.424301488660468,-6.6847467983625615,0.7395546902977994,7.091482690240344,-4.089062722949293,-2.9993457259062968,3.0936221302471867,4.177471990123986,2.266962571714524,3.332816820061665,2.8133959610043147,2.524992292754227
-73.0,9.137678098222821,0.19030313004181876,-8.947374968181077,-4.630301711573249,9.032346504012855,-4.4037429082558095,-0.3001784816904447,0.1670583173992637,-3.599961247820899,-2.822928201509745,-1.5820782356089604,-1.9844753165444056
-72.0,11.417337449335484,0.07118964241356585,-11.346147806921943,-5.713870460798241,11.364804845718337,-5.6636921306554076,-1.8617167287702094,-2.7540201682263654,-6.112717951071134,-7.668035168994656,-9.756886208642284,-6.565511480513939
-71.0,14.206119647133505,2.767853949895673,-11.43826569723783,-8.53775475925012,12.875369559752386,-4.3650629274611115,-6.39582526385154,-4.79868869611207,-7.662547005169452,-10.362938571713027,-7.827801402907442,-10.430865846634054
-70.0,-1.4962948775731064,1.4950376066871867,2.9913324842603344,-0.050994443029664716,-2.277734443927966,2.2870517339922127,-2.9297013582560596,-5.105119659681998,-3.190021961851843,-2.149503983881641,-1.7479244773911002,-1.2676184178810832
-69.0,-14.747731073724339,-4.9086094369631486,9.83912163676125,9.856487214063666,-12.254957669741653,2.5046779310870173,3.5115374863715423,1.9061975837465654,3.5298160493211928,7.259779209155212,5.155730932303054,5.2416714268329825
-68.0,-15.51429922246042,-2.38048205656587,13.13381716589462,8.979118562775948,-14.368013997371957,5.3351812870327855,3.7725723450904134,3.409651443952922,7.479718724603385,6.850113805545012,8.309993844052553,5.22380844195834
-67.0,6.248896908895281,5.586127751861101,-0.662769157034127,-5.880595554109119,3.489218088086673,2.4997695270096285,-0.9804154153501567,4.648783447509352,6.916974357694075,4.554048364477976,4.434503572748488,3.6433239264338773
-66.0,9.38272788786939,6.583138022729957,-2.7995898651394118,-8.019006194579088,6.124152574754341,1.8544125085078909,1.9561885113778241,2.5820687813995455,2.6370532755789364,4.00428928810124,4.1353827648653265,4.001212936398175
-65.0,-1.5184014697067134,-2.755906375477155,-1.2375049057704457,2.1057368561476215,-0.1870537623247408,-1.95092651108332,-1.8942204834255496,-0.81938117572148,-3.7894973852344234,-2.8622847046710262,-5.0326620472602706,-1.1431535852085584
-64.0,-10.655587828830605,-7.740927624575408,2.91466020425517,9.247662946346969,-6.834054217110538,-2.442183279070284,3.5934786859185017,-2.119562715185266,-7.443289167474255,-7.352054963287424,-9.926645465995213,-6.522755882756032
-63.0,-4.5244801595306985,-5.193383602724406,-0.6689034431937451,4.828480238468054,-1.901887666686608,-2.957758182553371,3.023661380087924,-1.0936133808122475,-0.9723207780932945,-3.7853973945708494,-1.2216872887752173,-1.5729844645095779
-62.0,8.479548826036881,4.096340716668023,-4.38320810936892,-6.322010680709786,6.452475433571148,-0.16912375680516423,-4.356666361962092,-0.6336531212397214,1.7877558574548522,-0.33306198714127033,0.2379529923043866,-0.8462753446623705
-61.0,11.682437367479974,5.649726660104117,-6.032710707375907,-8.625689301003508,8.873999060863827,-0.13812407317508524,-3.8270022079335564,-2.2971193518894686,-1.4084759053397504,1.942345036676448,3.5129230677504033,-1.4761031270209388
-60.0,3.3672568220872456,2.633376634135964,-0.7338801879512793,-3.0412666013974574,2.063197970006227,0.9252816348241022,-4.106787623762351,-3.8725999255795367,-0.7568116425881648,1.472735950604609,3.3354097691715308,1.6840159070159386
-59.0,4.128570575020685,-0.18037537804425052,-4.3089459530648195,-1.9352070121776905,4.228724411485131,-2.188070420987932,-0.01627119653587661,0.6869545562418182,-0.2585174326812383,-2.9493309233462344,-2.9809353978446156,-1.9334517122915553
-58.0,-3.7123993337803247,-1.9517902507600797,1.7606090830204468,2.8764592795749544,-2.8068001347114633,-0.11420445306743898,2.4811930694455837,1.8107840833646098,-1.6399356518708041,-0.06642092681228928,-2.131935734109425,0.1339776351454509
-57.0,-7.219286230783164,-4.586487905386157,2.632798325397215,5.877352787715296,-4.917717777087394,-0.9917025560532537,1.5870966769963295,2.4991191903934986,2.8618573660695006,2.9354302601579927,0.7303779128585279,3.651572891663624
-56.0,-10.097865820268673,-4.717789731593007,5.380076088675764,7.392101050592107,-7.728726795257305,0.3188917417968149,2.8262523827721235,2.753514897757956,2.6321874659519033,2.979589330385249,-2.461276781268933,0.30737377503782803
-55.0,-1.0799281398341556,11.789147244012849,12.869075383846996,-5.362517120748907,-6.959420117099221,12.317302223745223,3.8809746981962334,3.3607846743889556,6.941790070344946,3.0105770422538867,10.434048367761456,5.284550037820674
-54.0,-3.9834477754698563,6.167968682471427,10.151416457941195,-1.0967386621033444,-7.0440784201543565,8.14591071746251,6.2428078246423935,6.426805935876811,3.2592673176506226,5.4519881674195165,8.810047056571342,6.454265701884266
-53.0,7.202745977645658,-4.77735545473275,-11.980101432378502,-1.2192168387365827,9.54738767931156,-8.317657803910473,-4.561602263977378,-4.657768665269209,-3.5568317412133776,-5.459580358332132,-7.1222303547829835,-6.511395649514391
-52.0,-1.817545214625813,-14.561352869421881,-12.74380765479611,8.175867678270649,5.510915904053114,-13.675196118220203,-6.276015705641315,-11.24289753615899,-9.38280455210264,-6.539273219538673,-6.542159695014705,-6.568142858509878
-51.0,-4.278171002385987,-7.29763504935882,-3.019464046972793,5.842673539624936,-0.6476893272629383,-5.186255518507654,-4.991608772869983,-4.211905695511404,-3.740438663514972,-2.6208703578161865,-6.300101520672515,-4.434883118735688
-50.0,18.04402984839233,10.98766516460406,-7.056364683788159,-14.551292104482533,12.541706943765863,2.0121021515311535,-4.59701363910737,0.3337198627408653,-2.5669952396846942,-1.5349127739645838,-4.283117131665346,0.22904172293640723
-49.0,14.195144089285202,12.528108885680314,-1.6670352036047988,-13.328631631610245,7.927831675420477,5.394535550153878,5.084276150509746,2.748571201200804,2.0411968975763926,-0.20773402308298805,0.9300496398524511,-0.0293728205331365
-48.0,-4.5894973498404354,-0.7217169676345545,3.867780382205957,2.602411616758271,-4.232016935981964,1.613214834847212,2.073088052227855,5.349047913510562,2.6476294898765977,1.5725295482419734,3.478713099858557,0.10456846812841691
-47.0,-11.769436387422681,-4.729717457334506,7.039718930088208,8.271531138626028,-9.412848767819032,1.1152833353071459,-0.9371088431894465,1.8948254217548879,2.162004471293661,2.1729236766991797,6.4110211764495535,3.3351200788655797
-46.0,-12.981443233514021,-2.23593664710195,10.745506586412045,7.6310275625667225,-11.87973157593197,4.215732213205236,2.6281169085498117,1.6098413553929554,7.85921889720903,5.072889277121192,6.038697956098694,5.672556105947381
-45.0,-1.3501493791528425,1.5164623104515464,2.8666116896042775,-0.05706329534291488,-2.0547765997157033,2.234117689452991,7.178110191371539,-0.021141218276123253,1.1350336591200358,2.9213122777208063,0.40214328250701037,2.68645999588779
-44.0,4.561180566768161,0.16029904724776678,-4.400881519520532,-2.407364650088416,4.448051891025797,-2.072535956834415,-0.8114801973759611,-1.5791117232629222,-3.6664461833621074,-1.513430959360384,-3.400549268235481,-2.9359429311607776
-43.0,5.390172779320238,0.8300518469304576,-4.560120932389898,-3.1495938366285205,5.015294249338808,-1.8891479132905524,-1.001650889572391,0.043132521080068376,-3.349216036422299,-2.6756496301919075,-1.1401254689324571,-0.3733419500991233
-42.0,0.6655596543065547,-0.6302132458403942,-1.2957729001469804,0.028942698677628442,0.9388011064962756,-0.9797807135750483,-4.130243209041165,-0.8012453606764476,0.4298533511492897,1.411171408562577,-2.111900003093641,-1.133573923894061
-41.0,-3.8663951026616643,-6.273097520557659,-2.4067024178959304,5.044531253296749,-0.6944950114927577,-4.3505064055359695,-5.021078880125154,-3.10697429892015,-4.176695501976604,-3.7569139797544735,-6.222711962767983,-4.710409108699453
-40.0,0.09992362854078474,-1.2063205962307957,-1.3062442247714778,0.6126110234198339,0.6589459671264732,-1.2632784333794103,2.4909497301671655,-0.5612173138088647,0.25793404163290945,-4.132585615465653,1.6490856790109796,-0.8151601685025662
-39.0,0.9849370772972641,4.397179272371108,3.412242195073939,-2.706383974341793,-1.1797165434003563,3.8978171124926417,1.2297779113628098,-0.7894866119573837,0.06405057974593825,1.023345603361543,0.42131345478160453,1.5062828381048694
-38.0,-9.130789242031447,-1.6403696975710225,7.490419544460454,5.371442035936198,-8.356230722599626,2.993097370468643,1.4896027262080265,1.1150778273604063,2.583997886468598,3.1294540151517856,3.157756567766554,2.1110253478832
-37.0,3.2678495511840637,1.4616767248987916,-1.8061728262853114,-2.381221126773049,2.56956010855578,-0.19044837413950155,-2.3026069801774676,3.9286430566523904,3.1457973970258637,2.7961997500333196,3.681551655375676,0.09243381685217189
-36.0,19.53764588464918,4.626937164353667,-14.910708720295595,-12.104529153100358,17.257121416169667,-5.1706129302958885,-3.028824970658606,1.128911689596856,-2.4653882698307497,-2.436486513257523,-2.0108123357846135,-0.18567607321083335
-35.0,5.9655298177794975,2.457737979572488,-3.507791838207104,-4.163381034920402,4.692969180275262,-0.5658208350527375,3.6876633479975207,-1.7157391838923597,0.4803689586413334,0.5087747858348224,-0.8992741133109645,1.9838621634210967
-34.0,-5.925554063767297,-0.6175569519844952,5.307997111782749,3.232013733475677,-5.656214266098694,2.371728454242172,3.2456229626520017,-0.8546023851753914,1.6661791818953764,1.2449566666672491,0.3169022395125583,0.8952133731872909
-33.0,-8.962323240415396,-0.24490635561951923,8.71741688479589,4.634905020449208,-8.794393119556362,4.25435051781441,1.4497170290112704,-0.8290250796687099,-2.314004713026823,-0.11990445707371444,-1.1580921852327999,-4.1218528605263645
-32.0,-9.39754136671064,-4.767459014362652,4.630082352348057,7.108600281608712,-6.961373766127556,-0.05404928109289009,-2.19537246133031,-1.8955933171669754,-1.981150899368274,-2.1528911884053494,0.5121519104195954,-2.7544273308397837
-31.0,-8.536173790232848,-7.210024205937551,1.3261495842953677,7.818931813946502,-4.951712747688149,-2.925050819717562,-3.480391512243602,-2.1375074875506614,-2.7297844348066334,-2.1257952957288673,-4.163544172692394,1.0411232459637492
-30.0,5.829871576299583,-1.1577153512463783,-6.987586927545931,-2.3091583155612265,6.390350250798054,-4.127252092070881,-0.564027114585306,2.5795225314575507,-0.18592019513137925,-1.2548379296363512,0.889871242611016,3.1359481038947323
-29.0,7.539023335770776,9.65245537177392,2.1134320360031538,-8.641927766379899,2.6911164324488785,5.917485170744106,-1.531571658909611,5.240452983048172,6.915804147189016,5.951822730747416,4.6253120884961705,4.346140759148565
-28.0,6.472080289950708,3.957144620014162,-2.514935669936543,-5.174338282823498,4.462561295772441,0.687889469817895,2.3405083221296774,-0.2982422531959401,3.243111602604981,2.8240481174787746,2.0293530155891224,-0.15265430324093798
-27.0,-3.1626591658914567,-4.924798308991254,-1.762139143099787,4.091942295371222,-0.6664240144616764,-3.2888739387731456,2.027829967504512,-2.793748062050034,-2.0393763784645262,-2.8444553095283975,-2.908919340842658,-5.024762445873489
-26.0,-5.1804840384545106,-3.8809662668962663,1.299517771558241,4.5061807204464435,-3.2221309441760013,-1.3096947471824767,4.267785983784583,0.7929057808179603,-3.029007547494272,-2.648455894258098,-0.13038797160898352,-2.682255841533217
-25.0,7.869792121913472,3.5606792433367116,-4.309112878576772,-5.737625688719666,6.092678136888717,-0.3927195259035613,-1.6292467794750574,0.8944675003695601,1.415941988582313,0.143708889220036,0.3296896253632893,4.265579716654828
-24.0,3.5243191970663674,7.023030618368674,3.4987114213022883,-5.298573277113641,0.005760960262693793,5.238660684933855,-1.7357206594981616,-0.8363688985595945,-0.07385011426662458,4.161757564023617,1.4411016730414417,-0.482746941363681
-23.0,-6.9965476239988185,-1.0193244956329952,5.977223128365835,3.9766052394628675,-6.497685689662544,2.4506241700591618,-0.4331297610900362,-0.0009683209173774188,-2.145468297908555,-1.238856683735983,0.3056884768480299,0.7303202441962324
-22.0,-12.230635154788041,-4.620489912080116,7.610145242707947,8.464744687717918,-9.927579714185825,1.5390118817252205,-1.4267872580161842,-4.757321425280456,-0.9899540700371738,-2.9380230294962004,-3.8193353672727683,1.2983706351593356
-21.0,1.427681501397819,-6.4251095822813875,-7.852791083679139,2.530492702228576,4.643452770988676,-7.099389312030563,-3.7840744781927236,-2.7051089005167324,-3.9221435097776833,-4.4807585393445235,-4.72415223220326,-4.740491485756697
-20.0,6.830195285263228,-0.19777865235839087,-7.027973937621498,-3.288929950552118,6.947513178188671,-3.575948147649223,1.4397655576051835,3.4502212889805044,2.941541847780185,2.2168589283978752,2.996132740721033,1.3784017356173939
-19.0,7.3301375916935525,0.10064904201009314,-7.229488549683271,-3.7676801757244474,7.315117060191733,-3.6079375316889597,5.93715164438909,6.610876526578585,2.4528496475216435,2.3610058462775383,2.9893637055831146,-0.24195383066721576
-18.0,6.385297514880433,1.1479500618043414,-5.237347453075899,-3.7378342825900654,5.782751667511347,-2.090620875707068,-2.0079217300556325,2.832347456811512,0.12185569521209327,0.3890136379301037,1.4698069442177695,-0.5752078403376909
-17.0,-0.8699394555273503,-0.04376195131889493,0.8261775042085245,0.41100440309902675,-0.8669676610254128,0.4199311986506986,-4.687331297821242,-5.010900962306979,-1.8901423244596227,-0.7866732386924264,-1.872428336536673,0.01910052332977097
-16.0,-4.269638698247551,1.1534448147215501,5.423083512969036,1.5954214059510479,-4.8625797297411015,3.232996670134578,-2.657300407676632,-4.259181044765732,-1.5757885875495772,-0.9565597428909572,-4.8020125315281055,-1.9632860689027871
-15.0,2.8773388762139778,14.899769364650584,12.022430488436362,-8.926349421623055,-4.592764921492436,13.480338679653652,-1.9689228774493495,-2.3653809623391178,4.649133001762406,5.2867693545287775,4.566292309665522,2.228161656039278
-14.0,0.5432846856754933,9.73052938115645,9.187244695480627,-5.093620509979887,-4.271985272815409,9.477671179228441,7.11875577827763,7.457842962004843,6.025417495265895,2.564930625330524,6.940984063935469,7.024565060473302
-13.0,-23.723742858830587,-14.410340835973628,9.313402022856774,19.03263839211504,-16.557235050939337,-2.524305384683047,7.4205448007447,-4.187618340248864,-2.8566966288975957,-4.655015393929316,-3.473986037436238,-0.9818442557825969
-12.0,-17.063636066306273,-11.167484930952988,5.896151135353286,14.160072453630072,-11.448105873215049,-2.600202045771823,8.401385023938493,0.8535131302609472,-0.6115486233433813,0.5088689731197937,2.5380559337666417,-0.31399156547102214
-11.0,4.117349015216589,-5.532722481191353,-9.650071496407831,0.6732497644197233,6.9105820172153285,-7.619744877685431,0.051158891370628456,1.4619296366309285,0.6137410708512641,1.569637426892043,2.9718715719340603,2.75232649609418
-10.0,14.300823358102427,0.2789162184446101,-14.021907139657655,-7.324360494387331,14.186857127325077,-6.885318860457377,-7.9018722197048135,0.2558395948961231,-3.5834695835662416,-0.4127973242722016,-5.811343836058207,-2.0521427574157176
-9.0,25.251871875066485,2.850636530038884,-22.401235345027466,-14.006590660561562,23.774318942221733,-9.779472318228468,-17.381497843555653,-2.313341959102872,-5.081609705521019,-3.259107615192062,-6.193152186875719,-4.955850421464897
-8.0,16.523434209194427,-1.503842443497235,-18.02727665269152,-7.4643137679615466,17.22501354937029,-9.768306567610974,-5.1624579799548345,6.068433624205936,-3.417196768187801,-5.618018443458937,-9.236764045408865,-10.419766122707811
-7.0,8.0991337646043,5.00709033645387,-3.0920434281503737,-6.585557772054322,5.6257220792568,0.9468635209001266,-0.6683040948109462,-0.24977505745397077,-2.1751258935169364,-3.1571554220284432,0.39942369321935334,-4.638842618330728
-6.0,-14.102845304476308,0.3330867308996428,14.435932035375966,6.85273373644329,-14.237836708124652,7.358102014601869,12.770112333559092,6.952880378507456,2.8297563746864283,1.4522485124712332,4.369092014690313,1.4478508305566133
-5.0,-27.776370459923044,5.689841321126758,33.46621178104986,11.010649364723816,-30.66685493711113,19.61047289090657,13.291919125091152,-4.225632634545972,9.349306418194736,6.624931645259329,5.751177882076433,6.017468205485496
-4.0,-13.925019239412403,0.007544149678764711,13.932563389091133,7.003880073505142,-13.893174361316191,6.983247032834113,0.5573159957828544,-14.035331914245395,-4.097518862976826,-6.41142662132921,-1.6790558058447163,4.786026321070027
-3.0,6.186020022900982,11.231287383143073,5.045267360241954,-8.664421825773442,0.6092934272078399,8.137429172534558,-6.069314683173274,-4.287863777741437,7.119823161901201,11.083697629788073,12.635851089259289,16.371637840949198
-2.0,3.475140917803788,1.1461513295990577,-2.3289895882049736,-2.345368259435851,2.8657435578944224,-0.5979056231678497,-9.843409092435877,-10.548067421868053,1.742204973365256,8.213396478628116,9.36848220787158,10.714125422133705
-1.0,-1.1356032185130438,-6.532820710763097,-5.397217492250187,3.8004011686676487,2.0970289522277117,-5.967610436994374,-2.202980618083176,0.5311285612950081,-4.005382263094969,-1.2054444007314071,-4.521585062172666,-5.388705744171789
0.0,1.1638874897330727,-9.078142632366529,-10.242030122099468,4.004258752488751,5.748299895489822,-9.65031175465545,2.138676776990864,18.273040660943373,4.129503708443017,2.685903254336913,1.2439194708353885,-4.615699348738504
1.0,8.857599235575746,-1.764254601930574,-10.621853837506142,-3.574836368799291,9.703767998920794,-6.16532205382936,8.23720271387974,20.771893513281803,4.725283275932137,3.2363152664667405,1.5684017550156595,-2.193827345818409
2.0,6.051677291622919,-9.306983060221821,-15.358660351844673,1.6040063770364785,10.742481483477782,-12.364198654062871,5.585253729802856,8.941108351993323,-7.249637435157363,-11.81388654547739,-15.308309764825333,-18.29183219303085
3.0,-5.864107789653954,-6.887884927325231,-1.0237771376714049,6.436219893143493,-2.469285232381485,-3.9697973010880534,4.12835355474156,-2.4437895470891062,-7.06581742856098,-13.249618681435287,-17.496806790435816,-19.15117334150056
4.0,9.104862094583485,8.356421479722751,-0.7484406148611065,-8.744226595050627,4.947622653726648,3.8022558294754445,-6.6806661510009215,-10.855873233325848,-7.346021969482448,-7.24529052544505,-7.704662111946123,0.11947650809351262
5.0,-2.3327590935806723,11.587478427692433,13.920237521272655,-4.63719500210005,-8.113829427389433,12.757792981477907,-3.857214124390704,-17.623653661086315,3.9392340429146278,-1.0627871594083023,1.0906317875414056,4.205409418055705
6.0,1.1422900242353542,-13.579044776066612,-14.721334800302476,6.210133178100816,7.937545122698417,-14.14689968269875,-4.292569374050906,-14.542530177443101,-15.771851879014825,-13.743149561103262,-9.796953246306265,-8.563944093814943
7.0,2.856104259073293,0.4636611743273178,-2.3924430847460645,-1.669260084782075,2.6248539695339996,-0.9665914356191339,-7.660832846647049,-7.736017686863692,-5.758970825592691,-2.467734474139098,5.748264000580035,8.726113329710135
8.0,-3.7412313295766975,13.709870187564455,17.451101517141634,-4.997504880609122,-10.599100879501076,15.569975141840576,-4.283536713998618,9.477665533190182,12.797694398730215,26.034995652774047,29.37719558512201,32.36599381688642
9.0,-8.849112095060224,14.284706568747886,23.13381866380916,-2.658089178749967,-15.996675375716908,18.76829784922909,6.6612730924797265,14.928171266884338,26.98514754998699,31.49987349448042,32.384630874906975,29.27354273757354
10.0,-10.86907983970922,6.547825258392001,17.416905098102184,2.1346617125471,-14.149466327837267,11.953953277375243,4.59726793071305,9.892200045856764,17.79906028989455,19.965000700456148,19.684250352937156,13.90598042162003
11.0,-0.27059908668570554,7.878251877698801,8.148850964384904,-3.8366908111781175,-4.216200895072217,7.977745166787424,2.322460719187408,3.129481834191097,10.694943622926317,11.84629082412286,4.018384260655013,-1.8082256695644734
12.0,7.682199685675492,-12.45994640225624,-20.14214608793202,2.428906808464734,13.907698733091918,-16.263814803877008,10.232529274896564,10.663910676049984,-5.194087567399426,-13.679039456092948,-22.840511422816853,-32.470589916852816
13.0,8.594999753148723,-36.68164944881343,-45.2766492019632,14.000597434533942,26.93626254256003,-41.02450144502463,9.595489861985985,-1.7940847395431991,-41.39023914365592,-54.5855256086365,-61.7415995396065,-57.575572858911045
14.0,0.591344137443869,-14.290831338375922,-14.882175475820844,6.88398424766952,7.745537255964727,-14.554953449606504,-1.8709500203924678,-17.986038747191785,-22.886123087610446,-34.89493977483775,-33.02674523753598,-23.13805419341745
15.0,-5.4520491962303,4.41213058821383,9.86417978444346,0.5544849185958795,-7.637973916447297,7.1698023740657835,-14.259097379298595,-20.21338891824624,-3.6628617877765084,-7.971427880091458,1.1898344471807079,7.271567173226973
16.0,-1.0231585087176178,8.144340015106534,9.167498523823888,-3.603159554605152,-5.062321942169234,8.610600667941602,-16.031572012512946,-7.382308591316773,2.6667271436966393,14.36377560136393,21.298547160864533,22.600957153931226
17.0,2.609031827648631,18.26998789860741,15.66095607095877,-10.480073338066198,-6.559634934802181,17.00194505876571,-8.384242701100726,1.3485629872127247,16.98530424563448,31.045337219998288,38.491105514027865,40.4154934164818
18.0,6.032638761128595,19.97219478313321,13.93955602200532,-12.962941094487002,-3.9781246387484916,16.917445898735213,4.989869419722885,15.43697524720642,18.60316633718802,31.009081053839576,30.652778657870698,28.895645376496546
19.0,-0.6138159594669585,8.465040463846865,9.078856423314823,-3.8864819743594214,-4.866411483376294,8.737797620007207,15.529366163658638,23.471541524459866,13.418591397118574,15.684956106239746,13.353274759187304,11.31132219456013
20.0,3.604173394713796,-15.980565746155534,-19.58473914086843,6.145934079766278,11.574581598522016,-17.733730939277784,9.853186142112968,12.790710027277617,-5.384785999652682,-11.581947211448629,-20.087758200381856,-25.665174861568225
21.0,-5.161502442493061,-3.0377598408619892,2.123742601631231,4.130927733666017,-3.586759039968616,-0.4043488124674681,3.6147446358250033,-2.1533334581006898,2.2336359990354877,-8.40291222795802,-13.73916190567372,-19.69467978912929
22.0,-9.586949168419334,2.6457511913877667,12.23270035980674,3.415793554628735,-10.85857668003545,7.415332543181057,7.712733584444567,-8.700563106926065,5.959178828032001,-4.883415493974255,-7.998028268469238,-9.421315147228217
23.0,5.264207013391761,-10.542214671878966,-15.806421685271383,2.6546000756561003,10.50293982746848,-13.198539229203094,-4.228826888920107,-12.156210085849148,-9.29976681558088,-11.985761530618293,-16.297740726698407,-14.70599825274251
24.0,2.372998918661447,-16.203967466367402,-18.576966385029376,6.923509842732768,10.438312264812575,-17.41793826334976,-17.80999699695646,-14.070510595439988,-22.158551176680945,-18.164330416108534,-13.118255458196971,-7.803155855024913
25.0,-9.474825514960216,-6.56851081497218,2.9063146999877416,8.024776026242547,-6.230477680217536,-1.8640825980795181,-17.159521987484542,-18.390384126201432,-15.968331193718045,-8.509555000689472,-0.6496132043992152,2.0154141816536506
26.0,-8.270032814875089,-1.7274241460120257,6.542608668863073,5.000882292799917,-7.369344468317072,2.447182719211787,-7.776022850432677,-5.389963928851035,-12.183610445581392,-4.934347746909234,4.759807016725272,8.337875593219108
27.0,8.454899138573658,9.103854764063497,0.6489556254900855,-8.774003408935593,3.9395175542133067,4.910963363029118,11.521540460680985,21.345749321082856,12.63758468341343,13.786940785463592,17.846304712244006,18.244467246637313
28.0,26.712664646656453,24.075472673597563,-2.6371919730585773,-25.382359291839393,14.712095856082776,10.750906405643654,17.0319456902442,27.949569882735876,27.013879818625398,25.874502445659886,19.05293665945193,17.135390615123576
29.0,3.9974616981640683,12.916034692149836,8.91857299398599,-8.437606553222967,-2.501239437240665,10.869684006260556,12.50388355523447,10.311793959323012,22.654356087457096,18.715239488478414,11.588638614375489,10.385401361672661
30.0,-17.282386668463268,-2.773224258558857,14.509162409904468,9.974460041476437,-15.935986767252807,5.899624494132596,1.6854447913649384,-11.750591509569796,2.144709344718965,-5.291178312951956,-10.342333676781916,-10.30562431801416
31.0,-14.550476245066953,-8.050643890853621,6.499832354213229,11.329428013240134,-10.565402322870675,-0.8219084582215599,-5.51701688422477,-14.929530638584813,-15.628838488178769,-12.209408144722424,-14.951562162029685,-17.763837704530506
32.0,-5.802716908525757,-5.2875768730636405,0.5151400354619264,5.495616461256329,-3.120305636209179,-2.4324518036911424,-7.254487686674335,-5.393842798292834,-8.832727322979647,-8.367369316540811,-7.09215424006525,-9.580485438116872
33.0,0.30569789974331485,-5.796080299499954,-6.101778199243469,2.7728221579244066,3.2435266004523355,-5.915879375636303,-5.468781213952832,-2.10589374833887,-5.789544680437393,-6.349562741736113,1.347902580228002,-0.8835008627598384
34.0,3.1424204302184164,-3.326620134317297,-6.469040564535836,0.11841329592258143,4.848036131309608,-4.862858657778993,-3.294238935399279,4.793403625375437,-0.9634432253944851,-0.9266242051359228,4.658062738146062,6.336866867109243
35.0,20.178775648340167,-4.118971222065831,-24.297746870406044,-8.081010072931848,22.20495800927899,-14.169253107430627,-0.9206957112880509,4.4889545721442445,-4.634737712631567,-1.0736581316860598,-3.687455512380607,1.7458203593290489
36.0,9.831555976448726,-5.179562911628418,-15.011118888077132,-2.292813720789579,12.390312080411292,-10.128775446540525,-1.0691540145567777,-2.4453568527640686,-2.477687707428857,-0.5420827465114995,-5.6439651125345724,-5.176593143205158
37.0,-5.378098722018607,0.5903614129855157,5.968460135004149,2.4368363937274067,-5.704338324248798,3.2530882642354544,4.598982896723379,-0.7110623333903872,5.652816982622009,4.23429969490082,1.580456421006479,3.6733673775789217
38.0,-6.306224323153405,9.534786805763982,15.84101112891738,-1.6377350942836246,-11.028927038795135,12.667843100947058,5.570326474061567,6.869247197941409,8.348798076338568,5.434389459703622,7.05923977246521,4.166765715313982
39.0,-10.830840982196374,9.013945137596394,19.844786119792737,0.8968880349585202,-15.3774564993815,14.4917922704174,1.9152816721217558,0.7885547882877576,2.6383989308472957,1.852526845138609,3.178280493950896,0.36030627163864093
40.0,-10.312917592513918,2.684202145601877,12.997119738115735,3.8109933388879065,-11.622973203329245,7.824416442214295,-0.18634868161588547,-1.9255116550719562,-0.9126791150270943,-0.33702754928583456,1.7718998201737794,1.4640584040876923
41.0,3.8874697840516683,-2.871036267043761,-6.758506051095495,-0.5094778052365962,5.347730012698429,-4.834825582180855,-0.7730010874968367,-3.544106857499428,-4.724340156109338,-2.3959989972679887,-1.7060333649195134,-1.1789347760196387
42.0,7.487280503156499,-2.2006602186856696,-9.687940721842217,-2.649200135855161,8.60570195953487,-5.971278590645144,-6.139330355416228,-4.904024392822569,-0.44319193995112904,-0.7359075752204827,-2.219127019775939,1.1859364751024828
43.0,-4.647713329544057,-8.48324881093676,-3.8355354813927107,6.549638106372225,-0.4722984614067407,-6.116009935191564,-0.4392146583695782,-0.02361074299568333,0.1356453711788479,-0.6637737417819989,1.2950317197269188,-1.9849600881233376
44.0,-0.3095277585571514,-3.815457863950547,-3.5059301053933716,2.0344134405111127,1.6065080925692872,-3.7038683285606355,6.164915286069904,4.103735143094705,2.5524317329189934,2.990301735790127,-1.0869416615141119,0.33167504056378316
45.0,11.136091701124588,8.731073815118231,-2.405017886006311,-9.89379676707799,6.776183531316587,3.193123217952575,0.4884231696205863,0.4997386470125913,1.1754959225805564,-2.8031803036605676,-3.580501060255049,-0.4502900372116587
46.0,14.621719066874102,4.319478149593088,-10.302240917281006,-9.437435500349494,12.466756347026893,-2.9636621016936124,-6.190297668528904,0.15659814497012592,-4.913329721757472,-5.2306620513644075,-2.3234484422902613,-6.025066431043311
47.0,3.795436093209775,-1.3309278353421088,-5.126363928551951,-1.2003218979323522,4.466708763510352,-3.200657057683033,-2.0615021484138696,2.9016623813962,-3.3217126250916182,1.4790043788826255,2.010257313591478,0.7226437356191
48.0,-11.49896414429955,2.346069026622331,13.845033170921784,4.53285778893636,-12.66370782201098,8.046322305441306,0.09827721230062986,-0.6534320539444913,0.9633596139926222,4.04629140675108,4.803670000488156,4.840551247191479
49.0,-15.548882740374097,-5.22820939513065,10.32067334524335,10.35025622241216,-12.92354955443161,2.4982726546808838,3.4014159211769655,-1.731847048719041,4.734828531950373,4.713603006090955,1.4983329748027567,1.4304716956454242
50.0,-12.87375919933769,-7.6074985945841425,5.266260604753463,10.285756155015093,-9.056660256265928,-1.1396809536248949,2.861415086290406,-0.6061329792826522,3.784941644561691,-0.076277452522441,0.2610591901523285,2.464882348019703
51.0,-6.036634150676069,-4.6940072847286345,1.342626865947382,5.33378405652682,-3.7547260562020393,-1.6455478775965664,3.6462751403557174,-2.766221829237046,-2.3019091188993652,-5.029385866026639,-7.837848404443955,-3.4591350454987375
52.0,14.95557842900632,6.172406102056914,-8.78317232694943,-10.596640710699452,11.881335878432289,-1.3547307832687414,-0.5687513170168315,1.4319496868091588,-1.0429041518133484,-1.9280636704216618,-0.18879853361581178,-4.066382532765613
53.0,20.569341527103727,13.556611141541916,-7.012730385561824,-17.020522309354078,13.800144669169423,3.3018720805939545,-5.019204106656423,2.4313681426511478,-1.8332280210418306,-1.940925884499698,2.1812804524576386,-0.9118258651348612
54.0,1.9643111607236357,3.301903433584906,1.3375922728612686,-2.5954269709125004,0.320026825211837,2.352252283198978,-2.3646080602280417,0.4325846376902287,-3.2972944360303122,-0.35036049195336294,2.408945382083945,4.118384127771106
55.0,-6.0764317193431605,-4.913215738126132,1.1632159812170633,5.449329220607171,-3.613549084299639,-1.9167158016159247,1.0916795431182735,-0.7629385509229859,0.8941276330086512,5.878337699008013,4.081904571907478,1.7998988115939758
56.0,-8.784574041273967,-9.022859769648258,-0.238285728374251,8.933937872489736,-4.264187200078051,-4.588021734543599,-1.7395329232498746,0.5916845156115076,3.5497630551201618,2.0625499540511245,-0.29570614196359113,-1.3543569941618565
57.0,-2.1077487578995813,-4.871453776367744,-2.76370501846814,3.439853064875334,0.3427062409943842,-3.848753795637024,3.0177320918469963,-1.1230666952384838,1.9884377323785702,-2.088540612822282,-2.63916149417127,3.7988308723574553
58.0,0.18454433208614862,3.6919812714458056,3.507436939359635,-1.908816019680187,-1.7175984930607155,3.5716680957045464,4.012226673336069,0.6901473301845437,0.8049538554707212,0.8822073012174024,-3.1108894952348183,-1.8099672789188639
59.0,2.060035463085708,1.8316120989606848,-0.22842336412507747,-1.9148735955155372,1.1751416770841878,0.8527693291929495,-2.476766797313851,-2.5211652896012273,-1.8500758400489743,-2.670448135214707,-1.9725147861897367,-5.385683825402174
60.0,1.798837468256242,0.7743449338229886,-1.0244925344333147,-1.3327244582105529,1.4495232535924008,-0.15472685157744515,-0.7670573423115868,-0.7519572340840374,-4.1556891525014095,-1.5756304518704647,-1.1086685902675533,-4.413403294907047
61.0,6.158257482798358,1.2626185865264274,-4.895638896271958,-3.676939297251977,5.490187003686453,-1.8498309364145222,-3.515133856552873,1.127957682072631,-1.1995614880003125,-1.6697797257111118,1.757497942075934,4.854587646279828
62.0,1.6933611653718277,2.4300609233811743,0.736699758009391,-2.1075841010355774,0.4422522335312915,1.6249667476817953,-0.7099531677050062,2.8270401433490764,0.8735004415949172,1.7915769857209465,3.662120671017755,4.0479521530901295
63.0,-6.505306940038512,8.771258480677314,15.27656542071591,-1.102497666642082,-10.85061961653806,12.06282495587023,3.4204053842242903,0.35999273938909937,7.218827520466879,5.375709986024152,7.321584114840748,6.181118028967489
64.0,-6.996768613280994,4.361539345571091,11.358307958852157,1.3441583040154987,-9.220064932576532,7.819386646667321,2.463930758356973,1.2718787643926481,3.5691681315330195,2.8059390838432288,0.3210348320440466,1.0216276541029536
65.0,-9.456520311662576,-20.672312015005303,-11.215791703342711,15.007423398067974,0.9116723266885987,-15.983271751302041,-0.5752517074232197,-5.295667187363989,-7.667824205184998,-7.312422859828045,-11.089830094943274,-10.92487474379198
66.0,-2.7884589623229354,-14.090770494207849,-11.302311531884996,8.456694890491352,4.285974788168886,-12.654341846237761,1.056930631564466,-0.2292280233990689,-4.341729689939523,-3.9699459340275247,-4.992252812203067,-4.380111062278654
67.0,8.074679399933515,0.7518274536852427,-7.322851946248429,-4.399733988365878,7.726487891995207,-3.240441086521882,-2.376485175907086,-0.4107925982184357,-3.234720907746029,-1.0528020169227699,0.4061065128861152,-2.2543991657127664
68.0,21.037582217777317,20.15766035346736,-0.8799218643101203,-20.585758222063205,10.907716821963458,9.606993143016638,-0.27925117607337735,5.71166669614917,7.199444525312511,6.3439138377591,7.254626482226993,7.018413016425378
69.0,13.065404726950543,13.53267574176429,0.4672710148136574,-13.286554742419476,6.248668358761765,6.96792929591568,-0.33407014488905185,1.5943868847000107,2.6673718136173012,2.6334430770867154,6.14876106023504,5.379302838198608
70.0,-9.264379878033823,-3.1181364486114536,6.1462434294223875,6.127824975820675,-7.676138068769805,1.479801254582748,-0.057030542940325446,-3.9664631416221328,3.434274443090367,1.9293554321380701,-0.03365415963023066,0.7049377328459712
71.0,-18.209789467357865,-8.891438850468328,9.318350616889639,13.570549822523729,-13.733909968893826,0.2545792235572617,-0.15455946709930524,0.2546370030226628,-0.518276643424143,2.3971673789574157,-1.9826682742125388,2.1205615328949174
72.0,-0.9973552379050563,-5.069028835921717,-4.071673598016538,3.058845422370796,1.5687233061882235,-4.532349906573248,-1.8896777602440173,-0.6545303038314911,-6.286422425728326,-6.073290588323695,-6.409350738589163,-2.509136711941731
73.0,5.628064920072974,-3.3243063875783516,-8.95237130765125,-1.1203278466589603,7.245102030891213,-6.18069297314354,-1.3667245380862707,-3.583706200405013,-5.20318001291914,-10.864026376598842,-4.300567973360582,-9.303390716551494
74.0,-11.085148072030908,-6.127013465196806,4.958134606834079,8.56391862284658,-8.063929086763828,-0.547612350141887,2.27602685897435,-3.0129130353126867,-1.3873703556513406,-0.990582125307359,-2.256031040639729,-5.666434911824425
75.0,-4.16242403705469,8.877094182581441,13.039518219636044,-2.3962265059011894,-8.561030360474373,10.918426569458092,3.0751706167274824,5.885029048155234,5.9825727812601786,8.221603064263473,6.836521707904967,8.29590072646328
76.0,4.42380747637841,6.813076790786685,2.3892693144081982,-5.577537988768585,1.0609501271218729,4.642537589600247,3.3978822797483654,3.927436401926555,5.184507292583028,5.608214396908846,6.884889988277426,8.007359422119372
77.0,8.477328819152689,0.8829566081499118,-7.594372211002828,-4.6402666485585895,8.004026428420959,-3.391565766810207,-1.8314738156141828,-0.40943132271887084,2.1932486886871696,2.9675068957422175,1.5521375049080959,-0.6117377519249452
78.0,8.93177937835699,1.1832781500440572,-7.748501228312919,-5.098763402530868,8.310008228549645,-3.2402464360273195,-3.4618738023523714,-0.033313502265443884,-1.4253934909760817,0.12574247206479305,-1.3916818864497542,-3.1301191077301818
79.0,-6.980016053506276,-11.460903236751134,-4.480887183244812,9.176723590161002,-1.201872846569846,-8.010099208794687,0.16639871071898638,-2.5734373285256553,-4.178320974351337,-2.5450345407727437,-4.905939511693693,-2.8755272562036254
80.0,-2.9674450925196747,-0.8376087507461714,2.1298363417735615,1.9362879259432435,-2.583921364519678,0.6026668216088957,0.8932892440215683,-0.47823846796890446,-3.0468984944695046,-5.7748361711590075,-1.3195587300584348,0.9390824906042581
81.0,-0.22271646292244895,4.427862571728747,4.650579034651214,-2.067653090350782,-2.4006504536609,4.570637197791294,-1.318266055058377,0.007366570579091292,1.1888505092273154,-1.0193752307989854,0.5401711211396605,3.7916340519552425
82.0,12.73683823785336,8.448082408487197,-4.288755829366176,-10.632289012786332,8.46026219114653,2.1095724790267933,-1.786678713045087,2.596575339618358,2.178250452058895,0.6297277400880725,-0.5132939530797923,1.2242357267527704
83.0,5.0881112969446045,0.26743653186448046,-4.82067476508017,-2.632647010934395,4.970276099746169,-2.244446531659827,-1.5433848684389093,-4.963182372853097,-1.4298724652565227,1.9171125764841925,0.6273811304409521,-5.981654041177553
84.0,-9.203291091306102,-9.338812609305007,-0.13552151799896262,9.244186738959272,-4.526675828361672,-4.7775783663830405,0.889222949766119,-3.5020666907893236,-1.3315082458998266,-3.0131316505132544,-4.544821405416445,-5.602708863012426
85.0,-13.718444257276326,-2.7057006332537408,11.012743624022537,8.19031590825388,-12.363370079895818,4.121977777620624,3.017070215806292,2.972555466179119,-0.48263314692603027,0.4921691171621948,1.3647147445882333,0.1381518694198296
86.0,-11.306818857332967,-0.7195376516799441,10.587281205652975,6.071598460637778,-10.944950282569877,4.99054352443063,0.7182627971265347,2.7013573802231248,1.7159486113617497,1.6824442144421825,1.0883266232295679,1.3062920390348571
87.0,5.458293971223802,4.402054337463341,-1.05623963376053,-4.953857940685887,3.263941812321925,1.6585625450988706,4.680470662538304,4.6674451804203,2.2009271393906906,1.1926491777489547,4.666504686112137,7.216839367983801
88.0,3.963019373146069,2.976530638890412,-0.9864887342557203,-3.501165828944509,2.4891536954176003,0.9848177252430372,0.4254930454687319,1.4902796114981434,4.418107533181258,5.232997111079255,5.347405302570484,7.27103471454879
89.0,8.452340981899232,-0.5198540534747318,-8.972195035374002,-4.007567248279785,8.735048297519986,-4.7564988988886725,-2.2268716342381647,-1.238647843265491,-1.7996758210349908,0.3884229192763968,-1.1982809705915185,0.6182676552641224
90.0,4.224239418748648,-2.2590163756795745,-6.483255794428169,-0.9540059051585539,5.304221766966468,-4.385803269926312,-5.29076913698325,-4.946844969871324,-2.2857441323124306,-1.3342229120758873,-2.8390577285949026,-7.032660168888706
91.0,7.734814148771372,3.3790787484030096,-4.355735400368238,-5.532662842810323,5.998491750701213,-0.5094981783960217,-3.0061300132667066,-1.6335768585900854,-0.22382311621927764,-0.18069142595746346,-1.5538752161499785,-2.483449593496998
92.0,4.5131082757067675,1.919144274260521,-2.593964001446098,-3.1896639473752626,3.584180641205654,-0.2865656395591474,-0.936860497596915,-1.5690759201285314,-5.718471030812131,-7.076774603969555,-7.306211421228987,-4.077083409194371
93.0,-11.189642595106546,-4.286449885816851,6.903192709289764,7.772802080079819,-9.020200711594269,1.3539441353928812,3.184996227794625,0.9352256316062604,-0.4262717468557877,-4.348058293937447,-2.9132707598362164,-3.1920235424696486
94.0,-13.274189641538465,-6.518286099314111,6.7559035422242815,9.863871526263225,-9.994685678806118,0.08256249504104796,0.9731711664439193,-2.4939519243463035,-1.4057050265919497,-2.236605042147076,-0.3237800631868905,1.7562609530977955
95.0,-0.4336221324137881,3.764266056799822,4.197888189213436,-1.686843035527959,-2.3009808325302004,3.9437387443653096,1.4471755419294157,4.2482875248508565,6.5651819672429745,6.415749695169002,8.421409849207208,2.915125654706811
96.0,4.072165621383672,2.8090626665544134,-1.2631029548294244,-3.4558952814018644,2.5996710498511577,0.8145806603685615,3.8410893516955995,2.9201414130692296,1.583285140551395,3.280447734259136,4.208953521158319,3.6205563945972736
97.0,10.812163692474552,2.744718139626368,-8.067445552848264,-6.7941828267063675,9.449113934823455,-2.6976080095589814,0.29547469379516333,2.50066219718806,2.6789175996680346,6.532682137043596,3.5487786961161856,4.063772691072837
98.0,-0.18314458930034228,-0.09209627119031571,0.09104831811006342,0.114957315152036,-0.1262289311248157,-0.035272113499922764,-1.1380397346536597,1.5100583425933725,-0.5156615750256461,-1.0523741610521027,-2.651629432275058,-1.418825493352296
99.0,-9.412987539863938,1.034227074751373,10.44721461461545,4.234256582469143,-9.914598382480584,5.786992365476406,-2.8128528640283075,-2.1057730088809334,0.5034279958851111,1.128056828857931,0.00807009270711223,-1.512149639243367
100.0,-1.0528131721150367,-0.41616103971609364,0.6366521323990488,0.7668567364696092,-0.8221389732232731,0.15960431972475533,-1.365048520676038,-4.129546266991654,-3.86417664926699,-2.466255493891061,-3.380423535528714,2.79099315966146
101.0,-5.395615948273646,-8.385579654876992,-2.989963706603284,6.911788773640888,-1.250753962378128,-5.713750457615816,0.3648252701029413,-3.75186924942662,-4.24566424967324,-6.6445447627270156,-8.058625060163846,-4.699502619335119
102.0,6.650375030329144,-1.31904194329103,-7.969416973620193,-2.7315246746723343,7.348316794396949,-4.667508530366072,-1.1796830966359702,-2.9531435584316914,-4.591808079871559,-7.389115178692627,-2.6272502686923076,-6.133885749178113
103.0,6.446311248006154,0.206406425352608,-6.239904822653613,-3.3184496431650228,6.308000248907771,-3.039199895727564,-0.9431977507519769,1.821944367624006,2.2405770804746457,2.3853729075677887,5.142363736462325,0.290955931911284
104.0,-2.1844002665566595,3.060837659763738,5.245237926320312,-0.43228274234405717,-3.669546106947634,4.207596201456894,3.506409366269913,3.573944975286477,7.892792066784067,6.309384197745513,7.841013897065159,3.643622334193011
105.0,0.7752053848566752,6.970701124922536,6.195495740065824,-3.8666150424473718,-2.7458705203644165,6.554769463986031,2.738024455702101,7.010433414048072,4.845270297486994,7.499391948910555,2.7611837923761025,4.063871961713879
106.0,5.589581714976475,3.218138289237501,-2.3714434257389634,-4.395420430843161,3.9394278478392026,0.38960794364907425,-3.7097233547673927,-0.4956454875275411,-1.2820268554156447,-1.6039291018112278,-3.5533483376061055,-1.6137753705116604
107.0,7.246139389230043,0.4383421294629821,-6.80779725976701,-3.830541374143314,7.057749940952074,-3.1445960229356014,-3.485052057931902,-2.3706274913888157,-5.286141979318125,-3.940603678245388,-2.2899742898315294,-0.038088872959221365
108.0,-7.290956940625938,-4.981631765258733,2.3093251753672503,6.073375289281264,-4.775959423441106,-1.377208068600669,0.16053531591085535,-3.9582630342020515,-3.8479518081469877,-4.463222271237063,-6.571567938020248,0.2838810592886827
109.0,-20.123622076888367,-5.13529217806428,14.988329898824105,12.65026238829778,-17.536791101543265,4.9655028747015875,7.548729630362084,-0.06244817833388705,0.3636747893353043,1.5952246769371135,2.3311745243774955,1.1055015704485416
110.0,-3.15506291713458,-4.550284352162381,-1.3952214350278167,3.8793356117613405,-0.8637131968014575,-2.928705458646361,2.894499377292729,1.773602013658005,0.8463846510530554,1.8855387883129373,4.806192869618457,-3.2917710064163748
111.0,8.861410270419121,5.184868382415667,-3.676541888003489,-6.989945516918942,6.205133482843678,0.7269752452463412,-2.6112375197990447,1.1016457811783622,6.832231379265931,4.989805134919716,4.506014209274622,3.7867813786251383
112.0,7.2705614396984,-0.11299007272225126,-7.383551512420679,-3.617800448173262,7.341830848765989,-3.767710571434704,-3.3943402075962896,-2.750182550024584,-2.3894020940540046,-2.4802839304362867,-3.7413391503331397,-2.5079343671163272
113.0,2.764394205003601,0.7186046544736366,-2.045789550529956,-1.7750148269019945,2.4208396580278926,-0.677255481416013,-6.231751760028915,-0.26017263340624475,-1.8690817042476064,-1.1130630793079133,0.18266344360795084,2.7736322165932323
114.0,-4.547920637671419,1.9481717701319932,6.496092407803437,1.3484251626642454,-5.582314107594554,4.210947973314481,-0.509157586453151,-2.1452298986438114,-1.928247382730166,-2.045855243595579,-4.9575058139578,-2.8239102889144982
115.0,-1.1963731523054764,-1.272090997103437,-0.07571784479794053,1.2042551080128312,-0.53651519750829,-0.6859700768476817,3.5056802934980293,3.3966264438540335,0.6906390718779671,-4.20307795017791,0.2671089380870959,-1.5044479795487113
116.0,4.951957245382385,-4.118022722026094,-9.06997996740844,-0.3715118229030545,7.043360794015122,-6.530586713305622,2.722981139562789,1.5988780180348383,-2.5385927831873074,-1.8722775936388611,-0.7094477171985671,-3.7195433902704678
117.0,8.245577765176904,7.824573319301785,-0.4210044458750699,-8.075026655033202,4.376806465536546,3.6821827978416635,4.189656296586151,0.6543996925980036,4.254366552448151,6.193073757879905,3.6010948092922836,4.517395562297734
118.0,1.8408558885770432,9.787464069944658,7.946608181367654,-5.784345852701492,-3.0766047954292173,8.843374436077251,-0.7366761744880974,1.767449830278337,5.202621952040985,7.132862507318807,3.1617866966604122,2.8867866571422334
119.0,-1.9952272737410635,-5.751446432771525,-3.7562191590304477,3.8149577953631244,0.8655019049744501,-4.701893885596832,-1.0034498213375755,-1.2650313050367379,-3.8761239507045717,-1.1484228898782431,-3.1803381226278105,-2.629066594898683
120.0,-12.418770095591501,-12.368488634909644,0.05028146068184203,12.406582549748775,-6.246559916766926,-6.187908934123209,-5.8233007114852695,-1.6288156530836566,-6.2023590917875016,-6.438011946422637,-4.829623423055971,-1.3289784186976346
121.0,-17.325200768799885,-1.3336267741780086,15.991573994621852,9.33942562888026,-16.67484906795391,7.299349616235672,1.8771500291825323,-5.6900078043771565,0.6840613424815025,-2.036271291133133,0.14151117464403895,3.0513919601701027
122.0,-1.9484988201584788,2.375891050689653,4.3243898708480835,-0.20065377353255043,-3.1642157368228307,3.3208597600980148,3.7849112692097515,3.5831576799921123,7.261055308214542,6.859130839948576,12.480269156540206,7.444138844182758
123.0,17.29123178338559,-0.5602412687186367,-17.851473052104293,-8.343726267102856,17.606643130476147,-9.154984286071063,-2.2886963202435684,-1.6479243004077944,-3.6343674930328143,-3.562128732291172,-2.77133985407084,-3.397810371033887
124.0,17.3460781614312,3.056286539157549,-14.289791622273743,-10.167279047860404,15.836779501340356,-5.563866885239466,-4.512832111192601,-0.0844442363136293,-4.771668096816856,-4.845324360235928,-6.311969054331044,-10.78510565640468
125.0,0.5959951599414701,3.3300120636457793,2.734016903704262,-1.996006540585424,-1.0638488239613633,3.007819266815849,-1.2492816528484072,2.4000651855196367,3.236170437791637,0.34990111686213843,-2.1509922177895833,-0.09065797207632276
126.0,-3.2750743828958715,5.386662442790331,8.66173682568622,-1.0810393705628805,-5.971753228936754,7.000149951920702,4.146379945137758,1.5131751249312306,3.9745459165933865,4.905665214295508,0.9012297307170143,1.4725960982417023
127.0,-10.529186384924246,-3.7473605839711546,6.7818258009531736,7.114278589415299,-8.661363560845679,1.4910476196615368,4.426967488609401,3.5347214468381627,-0.16809642147174442,1.354517077964762,-0.20024463679947657,2.0699574707971684
128.0,-11.378503940183188,-6.696728686956673,4.681775253226599,9.008242784332133,-8.033157301252439,-1.0378367857989952,3.011919652696014,-1.7819665890127236,-0.576012343929144,-2.0095672161771665,-2.806383323501618,-0.16850210943580746
129.0,-1.9899874783995806,-2.001423492324104,-0.011436013924479793,2.035164921210061,-0.98574273847994,-0.9629815090242173,-1.2415594598276087,0.5100644023116554,-1.1989499267546888,0.8914552844045509,5.873314069203524,5.9559467627443325
130.0,6.276452606815816,2.5734386715572173,-3.70301393525863,-4.396664213632316,5.001523481365719,-0.5253319334840709,-2.3347108811053046,-4.00251030696174,-1.3718439408175456,2.044175750373382,2.2118743174015965,3.1961761145913394
131.0,11.572245199201442,5.072517242068108,-6.499727957133427,-8.303469340059827,8.977165025996296,-0.7546327645792246,-3.510646896686407,1.0609813289875971,-1.1363420232777548,0.1822134123332203,2.8727028882787304,-1.2863209842124381
132.0,-0.43580400984176837,2.356731004867699,2.7925350147093333,-0.9472987913747746,-1.587553063813461,2.6131888153407905,-3.0788346228448273,-0.3200028679517446,3.341965330886505,1.2334476450360345,2.913776900210972,-3.6780051280852826
133.0,-0.47157865926866793,4.7659302010245375,5.2375088602930955,-2.2146051981505055,-2.823486294186365,4.964174928088418,4.072007454537664,0.4836964380808143,2.5847580894858337,-1.0410969590597974,-4.691448939412569,-0.7567473362313102
134.0,3.527583131919746,-1.0878201970835901,-4.6154033290033825,-1.2073429057078213,4.10437331229877,-2.807289076239947,-0.3900744920444712,-1.2842398246488211,-0.2720171124160513,-1.129637444681179,-3.956260085179242,0.7335255983649169
135.0,2.575921356582068,-9.14810739031283,-11.72402874689487,3.3016319585362357,7.103331066711564,-10.468134491746463,-3.1974314953407346,-3.4911779890203882,-8.014813264783486,-9.793413198361089,-8.662786736418758,-6.833326105699925
136.0,-11.813654511725971,-13.347981713604721,-1.5343272018786527,12.599984640453695,-5.189136620233698,-7.472057317814503,1.5759447129144748,-0.5846002490542822,-2.7686040954547577,-4.9702004811766685,-3.378835542704721,-4.98460840505493
137.0,-3.2041252389241777,-0.8195418307911448,2.3845834081331256,1.9557702317046592,-2.768814493184711,0.7521842876916931,-0.1888200671106013,3.0792358619599196,0.6114330982123626,2.0908981504816917,2.778983516051457,1.3543490557088993
138.0,3.0235392250610964,3.3890835738595895,0.365544348798597,-3.1804755794765747,1.3514159480492474,1.9269910756877513,0.3878145971407969,0.9724535495455213,0.24787301040279508,8.691447618831221,6.08653964838804,3.930923378367432
139.0,-8.552564924447564,14.673319005533477,23.225883929981123,-3.0316999733842622,-15.867939913115716,19.002405497100945,6.46303199737715,7.140733752539968,12.733557912830815,13.04795199919515,14.298008882955926,13.994094295661574
140.0,-2.1262739474450316,12.393507519480202,14.519781466925295,-5.181029715315308,-8.300167469406913,13.435914619963977,2.1482164157839527,0.015212856058084423,4.520556162211391,2.5819930147506787,2.0091269186424645,1.5944220904607294
141.0,11.347439007474769,-0.8937529465309666,-12.241191954005723,-5.19308460175464,11.742659623026352,-6.581880934951943,-0.17636909096219788,-2.2433879083844404,-4.025791007802969,-4.21135592137331,-5.618639527741223,-3.2681436540531537
142.0,17.73990450732913,-2.1507572158882926,-19.890661723217434,-7.758961487156763,18.769949377948954,-11.029448219245433,-6.118807239575612,-3.7466382735126604,-3.647721044046544,-6.737122627167526,-5.678580159330451,-6.245315166839788
143.0,1.7860660804844821,-12.72758827721839,-14.51365435770295,5.42845251329722,8.190928913914572,-13.626025582385886,-4.9942157991401945,-1.786428918244264,-6.0996802281988085,-7.772012427260523,-5.741946710509598,-4.837927784103864
144.0,-3.15002481028114,-9.536155048593475,-6.386130238312488,6.300312629385571,1.6672843958799222,-7.966387720199916,-3.96399642454079,-4.894460412916091,-7.769409626490088,-7.658452113036673,-6.929479627544055,-4.928098934051967
145.0,-21.118819834644256,-3.0319302904133094,18.08688954423078,12.109761337729527,-19.624621802606743,7.519556088256342,4.602314322316497,-0.018136447175688186,0.6900098676459656,0.6102270430496621,1.7680387254429446,0.16285562127023123
146.0,-15.634002163043624,-0.9218003726562625,14.7122017903873,8.310232369470732,-15.188507826204418,6.88306952126521,4.4044500717420725,4.539515206759296,7.639288827379209,9.998505642941607,6.055048977110771,5.669220717201639
147.0,0.4132786233417045,7.402549936688299,6.989271313346618,-3.9559965259546814,-3.299213822235906,7.258459305268002,1.448114945175949,5.533182779039701,5.700066326167748,8.223938585896327,7.147497253424342,6.195241004904778
148.0,14.100657397703502,12.802439739567015,-1.2982176581364282,-13.421418663657496,7.689929599348245,5.733287084185991,2.429844768238569,1.8980100519400027,4.7128809405223215,5.291717872069151,4.619584226915206,6.371866844277347
149.0,18.168639182708098,7.749104792476182,-10.419534390231838,-12.927762346622103,14.284032064314548,-1.3547520667529005,0.6492520709544095,-1.8801821909209215,-0.35541532064462666,-6.196637623937145,-2.641672036612981,-5.206652692389848
150.0,5.35906787969404,-1.793168160590799,-7.152236040284753,-1.8280575487295936,6.322046604724586,-4.491534203915977,-2.3343081999916895,-2.804570485538971,-6.163808168888938,-4.650509997093135,-4.081308463466152,-4.688579281602596
151.0,3.3965217707870443,-6.772820042710482,-10.169341813497434,1.646919238120858,6.766950453262963,-8.410253215943705,-5.496955121960689,-2.5248849937057676,-4.05189644974293,-4.443072134324847,-4.176672006749559,-2.6672507460988655
152.0,-14.305182816136226,-8.468652042034405,5.836530774101898,11.429288335005564,-10.091613242660598,-1.3343714438499088,-0.12020717465393238,-0.5555813945015742,-4.178820355572183,-1.3133806610312497,-0.9115181143564284,-1.1172122526951354
153.0,-14.741604626949869,-7.587763194769863,7.153841432180045,11.212282842387946,-10.974372531666603,-0.23820633322703477,0.569429251730174,1.1057360957346414,4.013057059800117,2.1010915050447334,-1.2012021474674401,1.678318676225861
154.0,-0.5512918480968434,3.9437917795489716,4.495083627645814,-1.7227062117192835,-2.477966772654934,4.192249822081257,0.004689674810349431,-0.11927913439998461,-0.3465431793675169,3.9613692136566234,0.062142059285987594,-1.195226266907384
155.0,-11.655571998461319,-1.3974585106583728,10.258113487802913,6.503088752536187,-10.99784978169789,4.4735611453335675,3.079235468076078,-1.317167249986811,1.1614908250923441,-1.162481301781404,2.704084728665987,0.8617959742504597
156.0,10.986313586216678,6.751070874419746,-4.235242711796978,-8.891786708856607,7.641066135705899,1.2132602689993832,3.7443825452429933,1.0795243793122535,3.815372429564831,-0.5711591965191665,3.8923903956435,3.3131715190113935
157.0,22.55402572667439,8.879549912614198,-13.674475814060223,-15.664082215412558,18.137831255886688,-2.3713248454462543,-3.2783478012148235,4.41340283069448,0.20142604488370797,2.090739481291297,0.31131594253998296,3.3241328745885683
158.0,8.12219675824312,2.425954041788458,-5.696242716454671,-5.306315700841278,6.848787309783586,-1.6141193299859538,-3.334182429695376,2.9005012851447898,2.811814384901221,2.0460309345067134,1.9332610377635506,2.0487957270868096
159.0,-2.5143210276219667,-4.291249081457853,-1.7769280538358796,3.4404872561867395,-0.3536269024626666,-3.0145936902694435,0.35125686409694334,-1.939903829878688,-2.851272368576046,0.6451463900989074,0.5593207825166746,-3.196833926606722
160.0,-15.517932458649907,-6.2909442288932125,9.226988229756714,10.853090683204139,-12.358295241911806,1.4104125407101065,2.573610601766656,-2.9038363980856614,-0.501528047784733,-1.9550280741845953,-5.157582498202918,-5.4094247797399255
161.0,-18.27760214459609,-6.770394171886572,11.507207972709534,12.541054705964736,-14.876853743767184,2.3930469664262235,0.06982028566132337,-6.183032100935064,-5.292080096824052,-5.269672659300575,-5.462004676011032,-3.347413622514474
162.0,3.1535673148349073,-0.12906721378922725,-3.282634528624121,-1.5040464042194124,3.2368408852800563,-1.6775672411668796,-0.0011242324421947836,1.462978088859476,-1.997362040753701,-1.6523458688087627,-0.2084468943037976,1.0444955321764904
163.0,12.46281745255329,-2.269146721612596,-14.73196417416587,-5.0946773034165815,13.541607926640326,-8.548734866078615,-2.2823236694587914,-3.7430424181716466,-2.7091790626548566,-2.4795410468540737,-1.2885634969029762,1.2962088866208679
164.0,7.365393120639028,8.543594365747957,1.1782012451089363,-7.954789842875805,3.121124581274528,4.891594334586188,-0.8571295105040968,3.3579361976913393,3.0669785222464228,3.2789109538850583,4.8131552541338625,1.8208548723584672
165.0,-7.207955221609407,5.546031469445458,12.753986691054855,0.8318933865110898,-10.027654559631166,9.100050402364811,2.6469972143110523,7.774096545448107,9.430023476077816,8.06673689362786,4.958994386793812,3.2274134127297187
166.0,-1.071788524197366,4.490081338892013,5.561869863089349,-1.7038586352691498,-3.2802429968176594,5.051780295979228,0.5015543282097819,4.885092040189074,6.364339864988427,3.875336141928858,6.29515334849233,4.580460031552802
167.0,6.71478398126297,6.2322954102014085,-0.48248857106163745,-6.4617250867674585,3.63983928779039,2.897962786628024,1.6176862594982402,-0.5163727992252118,0.5710908771868661,1.8158405970681273,-0.40158149649074804,2.6827229358556295
168.0,-7.810607874113433,-6.365951701507184,1.44465617260615,7.0289992294540635,-4.660546569229588,-2.4389716596233995,2.2085880609018904,-3.7807034537766855,-6.136071348894717,-2.5837717624194503,-2.6498874138386563,-4.0463814904690745
169.0,-2.180978827920649,-13.8754461140545,-11.694467286133936,8.055587576849561,4.728092402815525,-12.84154838542914,-0.6551306474577008,-6.176112276892175,-9.29451035714074,-8.963529845844462,-8.522376707456718,-7.795137841769771
170.0,1.9532089184763697,-9.577364304085366,-11.530573222561793,3.8469623274164477,6.795345416428264,-10.529666870537746,-4.451135641096468,-2.2216915744994794,-4.992884380003755,-7.950109948259533,-5.91464559160384,-4.392077899312911
171.0,-2.209900557594639,-2.2474059103676667,-0.03750535277302358,2.1913939326718093,-1.1094495888028788,-1.115071855104179,-5.799695074608943,-0.39306951692091574,0.8818559492846076,0.7846123510212197,0.8261228998215682,2.1615537141724888
172.0,9.265736158821777,11.532462669449874,2.266726510628146,-10.352356451039384,3.476945456057782,6.851322344087931,-1.0955144827955445,-2.4796310918819175,2.771606193327742,4.033134819701377,3.133588482053214,0.7445737902845186
173.0,5.20062652409036,11.592601742685169,6.39197521859489,-8.425055637581941,-0.6185096587268797,9.025055835948386,4.967037210544243,4.85987904022599,7.198781433225464,8.415333988669763,6.817680550794579,4.347438595703139
174.0,4.5713340554139394,4.636200273348697,0.06486621793487046,-4.6303786040410095,2.308500727681303,2.3055401663395454,1.27490099023865,2.48561636024629,0.46299570613947694,-2.7666057363449337,-3.018506573742301,1.3373354700749363
175.0,-2.406794737087669,-0.3943660044349686,2.0124287326527783,1.3743824970441252,-2.2337069582614792,0.8423409798881947,2.213173195550015,1.7128434131543346,-0.598566052074196,-0.6428440855365158,-0.4955420947757172,-0.1825506457421886
176.0,-7.6922476755939915,-6.081252182559997,1.6109954930340225,6.938817899445404,-4.597670266382126,-2.2035973735261996,3.4291138757481248,2.1418779041324605,1.6874286451314817,4.868344694906954,4.051033529938104,0.4283136031803873
177.0,-16.884139717116707,-9.481502419899977,7.402637297216641,13.233870149511988,-12.169645195856127,-1.0895554997171417,-0.9661390810951836,-1.0358411703754125,0.9224925052434223,-0.6535781736713617,1.5981430135036323,-0.31007023246435295
178.0,-12.381401096034873,-8.94133472180167,3.4400663742330972,10.632094402908411,-7.939985761586722,-2.725761439640822,-0.3644380135354439,-0.25012857067309446,-1.8618340875585508,-2.45351906493764,-0.6972402219492453,-1.4799516980239065
179.0,9.672867051293398,7.886225217823951,-1.7866418334694893,-8.81116316893145,5.695651131309089,3.0704986378035968,0.1414047157579379,-0.2025285747813883,-1.699767416507152,-1.5528844502101804,-1.6534053824455186,2.0369727755183105
180.0,14.52461539906526,8.603137064634993,-5.9214783344302075,-11.5985224237834,10.261479270710014,1.278924937868231,-4.155059488316583,-2.767138190687646,0.23495715183234545,-1.5461061101566118,-3.4102429820565003,-0.573417399746726
181.0,11.257561866076552,9.692936021594871,-1.5646258444815606,-10.434088818052853,6.443125035634571,4.078413134977991,-1.0211389473773256,-4.523192647611319,-3.412979710931007,-0.008658891306731586,-2.1686752924345494,-1.6642613266789297
182.0,7.011645652203516,-1.464567207772192,-8.476212859975615,-2.812647459795575,7.691982385512679,-4.956485287699696,-0.4239722653125708,0.40707030367478714,-2.08207465333465,0.14993055892342572,-0.7554098835924934,-0.11271980963650963
183.0,-7.642060808481113,-8.972960596273653,-1.3308997877925512,8.348352136877356,-3.131841902982378,-5.135647114536256,-0.2645512878676196,2.4132920179936153,2.3210896094176494,-0.46663300776884586,3.880992807817957,3.9044836690672016
184.0,-8.38012099735138,-11.806107781376946,-3.4259867840256475,10.13837524514375,-2.4539459771409047,-7.595029838623624,0.48312882528031076,5.101767811243767,1.2859826441680229,0.13675621904747404,1.2419402327349451,-3.4024141774188155
185.0,-6.280588623364651,-2.1956544913848317,4.08493413197973,4.211585356590758,-5.158225077861077,0.8926664930901322,0.6388027518064947,-3.081486906907649,1.8617674994371483,0.322911615565596,-0.55286325803206,-3.7085977548873386
186.0,8.361281665545581,9.485553870517673,1.124272204972094,-8.94212026929129,3.566979971289687,5.336548382255028,0.9741134366525366,-2.4143691221210437,0.7762850940421298,1.9022434807159274,1.4848344909835247,-0.48329599694642966
187.0,-4.666008123318454,5.068543322407555,9.734551445726076,-0.21315419830991766,-7.248428198123143,7.435312834713616,-1.8656079180901155,0.3132696339832912,-2.6434932224974563,-0.8799041785127053,-4.17810861009092,-0.7119108522533075
188.0,-6.845299459316159,3.177496443384644,10.022795902700906,1.8264539148656707,-8.39946661964209,6.553613831701677,2.7180251104932336,1.948512647418538,2.6015075367652285,0.7765463451078793,-0.823134601175125,2.9834451331902887
189.0,6.513022445730209,0.7297965362862366,-5.783225909443868,-3.6272125971130387,6.187574374887366,-2.5779646173489996,4.543893103446017,3.2589730331401876,1.2568495842622425,2.6576268538732526,2.2952994521449277,4.532564452318859
190.0,7.39941962417761,-2.23042968215582,-9.62984930633337,-2.591083894224185,8.481244590091482,-5.9085064905650535,2.1618272129039697,1.4187337442629755,-0.8237627720997338,-1.2009689769059138,3.635898446354991,2.99014520586094
191.0,-9.38881490854783,-7.303627578492193,2.0851873300556703,8.415758111848536,-5.685154918259962,-2.59173928664225,-3.561113555730988,-3.7146471611800713,-1.7130892221154888,-0.7192695411436741,-0.2058365589957496,0.4792055476317346
192.0,-3.067129263677902,1.0307311439160474,4.097860407593952,1.0047905764550715,-3.603491622780001,2.581828144320692,-5.205424667364376,-2.152789347501125,-0.7102825990372208,-0.29272555952604473,3.880110205418457,-0.9415515839327662
193.0,5.458748036765512,0.7453437722790077,-4.713404264486486,-3.121447412814409,5.068979000235095,-1.96133364491631,-0.9447192749295383,1.7102519765288475,0.5462893039098461,-0.8150847345786219,-3.7548752096537354,-4.328133044020598
194.0,5.382535780303436,-3.9102713772685878,-9.292807157571994,-0.7637257898068739,7.321442851931179,-6.569774750468131,-3.338190608006329,-0.5044285077055224,-2.4781858976748805,-4.60600245102758,-8.060076010090995,-7.4530929251630775
195.0,8.073022775182201,3.192568170083543,-4.88045460509862,-5.592041330299329,6.458273973641902,-0.8808159065544368,2.5665580083381463,-2.9891883121843925,-1.6459110289793686,1.2890414059920183,0.5369499546973797,0.07289554717640545
196.0,-6.649054314597144,8.368664774180466,15.017719088777625,-0.9096059231795777,-10.777462862234628,11.664262770990637,2.9847742245630027,-0.9300685281306887,4.6798108274999235,2.7755036893157814,1.4018428632200823,5.1413422180832615
197.0,-6.387277660611108,2.8412366686671153,9.228514329278175,1.7904228544615268,-7.835560485006169,6.009635423953208,1.8795637157384393,2.3916473054381946,2.3188925383416,3.234089155806611,3.5309832880823295,2.439891668086623
198.0,-5.277588795321435,-10.959730472900707,-5.682141677579376,8.126892670120869,0.17095221397793114,-8.346789633239776,-2.345038386959746,0.5469257803784697,-5.536824686589991,-6.01999914268958,-1.9923109180825413,-3.833792532304603
199.0,8.218545537986031,-3.0974537052665587,-11.315999243252708,-2.557192851647026,9.813226582198583,-7.156881700971596,-1.818552554629483,-0.8777222487391354,-2.2858567512142307,-1.5558138948827323,-1.3795993560553614,-0.9601065028527278
