Time(ms),I,II,III,aVR,aVL,aVF,V1,V2,V3,V4,V5,V6
-200.0,-2.361830363583353,4.665019654847201,7.0268500184306575,-1.1229936605054798,-4.660435117650589,5.897290576486776,-1.4318804889921497,-2.2532151935208415,-2.2910102601912183,-5.4218417538530135,-4.740931189214873,-5.417043792833718
-199.0,-0.04124328715425518,7.057171613872178,7.09841490102642,-3.5567745789690157,-3.547300648446416,7.0518374808550615,-5.665751984545042,-3.8019015584615263,-0.2760842595042394,0.36236003010486595,-3.354757253055447,-3.063642065648324
-198.0,0.9351535974733829,0.26767873653380025,-0.6674748609396581,-0.6490056219487441,0.8168273332152933,-0.22475482460047225,-0.21732763175335634,-0.03320828519411734,3.3962992611398635,-0.7518731523175674,4.807217483494737,6.747696705775176
-197.0,3.2807113869480347,-3.800569506633672,-7.081280893581811,0.2915227868042018,5.195329100128479,-5.386715595809415,-1.100782339711023,1.4944317308251003,1.4381747053826917,-2.4536631968798526,-0.7067521215343782,7.800290069938654
-196.0,1.5041006864261606,-3.0832867360164324,-4.587387422442719,0.82092535721809,2.9855950351710785,-3.8606427810112627,3.261181417211852,-0.9467313652009275,-2.5391861460125105,3.7701926718233416,1.2787408922496668,0.2865841280844261
-195.0,-1.6700341778758476,-5.833997725366617,-4.163963547490847,3.704275662012364,1.273429366711472,-5.0262515069999925,1.7324487137450562,1.2534682932025982,-1.4298421243681936,-2.610743264403722,-0.18353388745246668,-2.2966849485999727
-194.0,0.3749355055313348,-0.4587707077792107,-0.8337062133105522,0.07321024720787928,0.6397397654155079,-0.5978110250001127,-0.5724681258328428,2.234456683965618,1.1935795972072976,2.44633267837813,4.8934928584914115,-3.205004834052369
-193.0,2.3970683755056195,5.682537839432355,3.285469463926817,-4.007390949787786,-0.479750991877002,4.449937166059115,1.0908126295511624,2.393200687956834,1.7813309506249664,6.206863097226443,-4.840300934908923,-4.870434533811885
-192.0,0.5908496717310078,2.1560294937532456,1.565179822022329,-1.418221901961498,-0.5174185986772872,1.9015590327250074,-1.5528235296351376,-1.5569168235196214,-1.3314582220705988,-3.860811600383547,-0.5971636575088592,0.7504200978141613
-191.0,-0.21992729818200923,5.769328288011604,5.989255586193691,-2.7396096209577268,-3.13208668784917,5.838797806099812,-6.355253098651095,-7.590854518979141,-4.507225680842553,-5.8843153101261025,-3.8951951628289962,-1.7827585039425708
-190.0,-4.592253607802486,1.1389272122244845,5.73118082002706,1.6827948687661398,-5.109309406025949,3.3941049846361313,4.429209473215436,0.6228654999434959,1.917666623316968,1.1795571973287684,0.3752466442314084,2.207613754114719
-189.0,-5.635457269554325,-9.702105556249123,-4.0666482866947415,7.701671058876023,-0.7312425053823806,-6.843704768571492,2.5302740253745073,3.140905017873946,2.0620010302897365,-1.1694881495515068,2.61307518116828,0.7464584036061654
-188.0,-2.5784227242201223,-12.515885480504117,-9.937462756283967,7.497798424063453,3.655049762442282,-11.179383743219377,3.2624874947891236,1.7925454917453685,5.479759448553034,3.6515792747587144,4.781026490831871,4.871963875178395
-187.0,4.046223176630054,-3.3533338240525503,-7.399557000682591,-0.3211014657938285,5.699961066684497,-5.398262255865424,-0.2700867889200653,1.9943826947814205,0.08201002790307177,1.2582727715772652,0.16186893198862062,2.604254053682318
-186.0,7.692333538801567,14.454874693625836,6.762541154824286,-11.05162575884354,0.4435606329752937,10.597611087641052,-1.4592237958766263,2.028181320114333,-3.4991896582479645,0.4380257495967548,-0.49988523182271133,-0.6457721886581866
-185.0,10.212027723241233,12.270946654180479,2.058918930939261,-11.22113661207743,4.056512627472794,7.162925169969106,-3.800961599609228,-0.5725531911441819,-5.753392953051045,0.8855266579181944,-3.0854550899152917,-6.2598180624984705
-184.0,1.6761793385726942,6.126054107906149,4.44987476933347,-3.9588882860496284,-1.327261547067579,5.290776844267468,-2.3089828616170007,-3.1810596857674924,2.206135776474335,-0.08297006453753467,-2.711238748523698,-3.825402813110743
-183.0,-3.2926008964020985,2.1232705355263755,5.415871431928478,0.608452817277859,-4.37295188679443,3.7712286331477003,-3.1340439734649257,-2.766163693556944,1.4249582868377357,-0.6069655236564334,1.5950416474697187,3.9844327263578174
-182.0,-17.342037794972125,-14.473056974055677,2.8689808209164545,15.935823030781036,-10.12439384824395,-5.807668350652265,3.9367110026492913,-3.636973618942055,1.0255906241652413,-4.372751939370399,0.33998744003738635,2.3029178608861613
-181.0,-10.007225403052841,-14.812647450392884,-4.805422047340052,12.364956525166615,-2.5423089978725124,-9.8265122842815,4.677271138231772,-0.9066883678788191,-3.1428711115033336,-4.62874253664108,-2.204128901123502,-1.3985989951764903
-180.0,2.081811706376336,-2.143953310860911,-4.225765017237277,0.07076143362106269,3.1306412096130716,-3.2157891859165053,3.8557744715621434,4.555839964541485,-0.4532722880996437,0.9670695580661679,2.7771828050552587,0.4912810110615935
-179.0,13.45897506111533,0.8187535231002971,-12.640221538015075,-7.171866727065738,13.02142793382887,-5.874520757966386,-2.145021197452021,5.7322710098368805,2.9954031980479576,5.771713695744416,1.7503985687956782,0.6208808180154726
-178.0,4.482027600616624,6.462456126278542,1.9804285256619227,-5.499003463429657,1.215987952447775,4.250653571398789,-5.9788679071449415,2.145899859211457,2.657913036663926,6.372005517088436,0.15491345955136882,-0.2885736805959782
-177.0,5.410525372396281,11.654395942280823,6.243870569884598,-8.473832962354905,-0.3797168158076034,8.97698537688053,-0.1406060816068968,-4.82215512246658,-1.4020056241440613,-3.5898639911685746,-2.5403319138170515,1.4226878352656163
-176.0,3.33855118606918,10.883824258994714,7.545273072925626,-7.124222865198686,-2.0719378842577063,9.166881589730224,2.17318923642695,-0.25162703683095566,1.304436224499591,-0.5683132315702262,2.9056970921564664,6.43977493847563
-175.0,-9.289673479436003,-7.384634801233626,1.9050386782024127,8.331230723896546,-5.647140989756467,-2.7035426219246776,0.19931045664501185,-0.9112840257576462,0.1078815677715037,1.382329051327391,-0.21768398789434873,-6.532689481774861
-174.0,-10.014741905048746,-16.472108813393152,-6.457366908344433,13.243654823615628,-1.7483192556755056,-11.503231536512574,0.277134317967966,-1.8612410459884798,-4.71792849410261,-7.510307874923903,-7.915107926768176,-12.124503011319124
-173.0,0.7370557217094458,0.6988893282769855,-0.038166393432609524,-0.7138964124208407,0.4228271312140435,0.2923611601116507,2.15482904835882,0.9952775937913949,-0.7223040939730252,0.639843376395266,4.219967583671212,-6.831928620636457
-172.0,6.836041137820797,9.842303256560946,3.006262118739969,-8.33486175034228,1.878102499782761,6.461294848675952,-1.9417937800602214,0.5791617841047375,2.1568694220008893,2.1553211092035207,4.135123978451823,1.6282812036990633
-171.0,0.016686584355926293,-2.7980008984716993,-2.814687482827733,1.3908138050038232,1.3853437740637193,-2.776258475565291,-0.039770447121778074,0.9974515909830934,1.058660325617835,2.4341074786209735,-0.4750482022428768,19.63033369115313
-170.0,3.169770177228547,2.7782103683486676,-0.3915598088798198,-2.98218684505998,1.833032686115367,1.1368787847217146,-3.0865931944865883,-1.405817668107096,-2.0553733357231474,1.2448515444759485,-2.655705388173003,12.381686800840836
-169.0,-3.585201747248366,1.2121025388853868,4.797304286133878,1.167164113647538,-4.217687565993081,3.021155041112906,0.7104154428181404,-1.428576401586441,0.4617169716763206,-4.342620661366902,-1.0403591274781019,5.096404947490433
-168.0,-2.787307633703814,-4.721885004214801,-1.9345773705108904,3.723533949840504,-0.45735789452782427,-3.313386086094831,0.7839851949748262,-0.5282157453406224,0.4390741836601288,0.1646867000939316,2.274902943775454,-7.615211140047218
-167.0,4.247242946707912,-3.436467364955825,-7.683710311663754,-0.36719785327774435,6.004805971832061,-5.541527404113972,0.5062785173895353,5.074097224309665,4.227489670704243,3.5198611151377897,6.882879379893535,3.7098318329277706
-166.0,-5.628499979506982,-1.5062429725511497,4.122257006955702,3.6002710846903354,-4.84675162860135,1.335089724786524,3.5685896220623943,1.5155556588847772,-1.646671620001439,0.8849500966778127,-0.9199005258652284,-20.963089662130145
-165.0,7.261761846899504,4.5099820925522085,-2.751779754347439,-5.853471625798324,4.945888989940965,0.8388713499196584,-1.163839002909945,-1.5786790098171588,-1.6101290339406873,-1.7118475608927004,-9.25291351624143,-35.94851311829875
-164.0,-5.554885827502288,-3.8768531921405067,1.678032635361743,4.672770687277458,-3.6069764368570256,-1.127826307540796,3.2394933763361866,-2.3452284838368085,-1.8240366620255921,-0.060885826005171007,-5.93452185617643,-4.668995142082084
-163.0,2.244886445762656,-0.16969598942512637,-2.414582435187695,-1.0757755864192837,2.3353651665467776,-1.310716348181122,-3.466795625264339,0.5395656093624237,1.2610653751980856,-3.820743768408054,-3.123547793197713,16.948806723054748
-162.0,3.6992671714159027,13.122072031682649,9.422804860266918,-8.365619862486556,-2.8541177065009067,11.338861084079607,-5.790618917685956,-2.7289096041600085,1.927522774904146,2.1186217755081387,6.8332396729681495,39.36885846482883
-161.0,0.9623104236891924,2.624284905903529,1.6619744822144153,-1.824179971344888,-0.33426227974274303,2.1327086074580532,0.5152521890197699,0.20572908317238126,-0.12245333415191251,1.7189876065634841,9.270502560676718,37.92471614301429
-160.0,-5.171242641589723,-7.130148403986221,-1.9589057623965727,6.121018117482533,-1.5782518321941157,-4.557393906253639,1.6979542123817422,-0.42940543185999824,-4.33889674950244,-2.338382197921697,3.538712318868251,0.956873879183318
-159.0,-4.132902781701937,-5.048683067574956,-0.9157802858732018,4.640550996729963,-1.645272773133933,-3.0012618053996194,1.04138970538575,0.9924262240341714,-1.5016338038078958,-0.7194811800907662,4.266025799533932,-28.745024038633527
-158.0,2.4604060585095118,-1.869824327986695,-4.330230386496347,-0.3226702267077872,3.371410694131483,-3.0489380012528207,3.758099326765789,2.1876655152070876,2.707599579273251,2.4511005652226103,-4.648045208575358,-44.529857975207904
-157.0,7.7741478830143524,5.202143253199414,-2.572004629815,-6.433254690645892,5.1579829056291455,1.2781267738052944,0.9445694625840622,1.0033075623866068,1.8946022910352522,-0.5830692285135852,-14.3661649936647,-26.34749542272413
-156.0,-2.7781997306557895,3.30738512755596,6.085584858211817,-0.2830627190331456,-4.365038326839066,4.651789638988565,-2.9326586218942214,0.20663967190142446,3.9343522504104183,3.9336514153685167,4.147163172243096,20.01476362415122
-155.0,-9.838896598664785,-11.103432114251959,-1.2645355155870317,10.458859077701367,-4.301827632744848,-6.154044745353376,-4.060196763216072,-2.2903647918857444,-3.2843433933889195,-1.0147669393183034,-2.2235320266485905,23.833791082643707
-154.0,4.087510470132442,-4.973001722498476,-9.060512192630792,0.43568536116999557,6.551608844124527,-6.985905167208072,2.491278867607045,1.7563316979551231,1.3927161615131969,-1.4033473136001677,0.8343717534905727,11.069706815944976
-153.0,5.2674273808356595,1.608063382027555,-3.6593639988080975,-3.4421172105644375,4.430273140905209,-0.9887903992402653,1.3896715915582512,0.8017121280682173,-0.59300422288605,-2.1374625891179937,1.2221549014918685,9.488241266720083
-152.0,2.3787956224896654,7.414663179679963,5.035867557190204,-4.902014153534147,-1.2938389631320406,6.19303913062003,1.1765869298799418,-1.8599519613579252,-3.4254676286431716,-2.691954256287731,3.0064777608567703,-1.2712959481106498
-151.0,-0.6165613576808764,12.77780779555726,13.394369153237964,-6.090667620620208,-6.979087041725525,13.064685251125681,-0.028414183996656572,-2.6244774889262414,-1.2006645684845076,0.41921932736574274,3.7629483897036855,-4.447834416055893
-150.0,-7.905697528040938,-2.9237164386167716,4.9819810894240035,5.475253652513969,-6.499833219864908,1.0170366550077699,-0.9260199786336228,0.12760870278421443,0.48304135386178987,3.2243088523377756,1.293006958757061,-5.976924896914907
-149.0,-0.5539783604844013,-1.1018915014100952,-0.5479131409257243,0.7990619424801277,0.021440870706516346,-0.8312332103221789,-0.7489867012142828,0.35652311728946995,0.10624216762903704,1.307021956575219,-3.7752565333924344,-9.077612422341911
-148.0,11.141772097987372,1.5249417278649138,-9.61683037012234,-6.374300096502385,10.409680513196781,-4.05105363566804,-1.7285152894051612,0.03826520423125457,5.362153078402032,2.3330997867458527,-3.2066123021868433,-5.535414809605791
-147.0,-2.3518324697657875,-8.308165339799267,-5.95633287003329,5.35552155069242,1.8399718600016337,-7.062011928653885,-1.9973594254460703,1.6478955072241572,0.17205992425368244,-3.2707229991466518,-0.3988572701049131,2.1974172339522555
-146.0,-8.015093912371428,-11.598466297911944,-3.583372385540348,9.820921551270315,-2.251623212646808,-7.606942646379849,1.9985878798893038,4.117544417466328,-0.37104426091319165,-0.38702124194913723,4.879043457882215,5.151794415453313
-145.0,-1.2938874913709442,-1.71451898543563,-0.4206314940646383,1.5087442032137064,-0.4721364943498384,-1.0942975161002702,2.964311407582489,0.26740987997379206,-3.6779295373787613,-0.00817309190867388,0.8473674011650822,0.9734682816218294
-144.0,1.7354138996240234,7.341045994764204,5.6056320951401295,-4.540960235578401,-1.9764097342012763,6.434051059431979,1.7165049118524622,-3.79549515661488,-3.695722655928815,-1.051912104004106,-4.872771587936793,2.335314360034806
-143.0,5.2049768047216105,4.675081418073969,-0.5298953866477625,-4.9473956622177395,2.8945460720354492,2.099338229629489,-0.5854984248994242,-4.346983733457725,3.3734885261740337,1.6411655190429266,-1.143765895478619,1.5872611212978822
-142.0,-0.8720302805558289,3.622502721658252,4.4945330022139265,-1.3843315958027378,-2.6674761300669805,4.074238560940439,-0.21550714063784832,0.6654443720888592,-2.0597909224599573,-5.542181275059519,-4.378584855447281,-1.286473239298506
-141.0,1.4861057368497632,11.16938581816782,9.683280081317946,-6.335272397262212,-4.0907367907738434,10.434194163161122,-2.302601375919747,5.1971241246346835,7.512131136529751,6.69772865094534,9.857370734929521,10.599702311937275
-140.0,2.119246518078941,2.0750996734374643,-0.044146844641583805,-2.0994009920397234,1.0883525525494726,1.0193043707446998,-3.107051405731901,-0.6702452522141669,-0.326402212013289,2.29396915934684,-1.8385049846637838,-6.433077311878364
-139.0,-5.251083367130063,-6.6754934545185485,-1.424410087388523,5.970234731617619,-1.8998486914901855,-4.046575032636958,-1.9510247672378926,-3.5455596477781333,-4.393648864898127,-5.757005518827665,-3.6073053799707018,-6.204215328865256
-138.0,-1.8095696447102103,-20.938333257730953,-19.128763613020688,11.393380532395595,8.686655551661369,-20.02787723626665,2.8426117167079026,0.9162098040661418,-3.292369610275353,-0.9619825677155747,0.5003840465485585,-3.2042123956608717
-137.0,-1.0277436816101087,-6.493786492748756,-5.466042811138495,3.7944654191063485,2.1844474793241297,-6.048865399761054,7.088768295684661,0.3995557060778122,0.21638524207955134,-0.8420704083250672,6.370552384610482,-2.8927368742392847
-136.0,2.271186771769833,6.459579564072931,4.188392792303257,-4.396654878750016,-0.9770384136159922,5.339134168749172,0.6544738191346928,1.9650202641595598,5.691814894491141,8.263356274546291,6.633779364821379,0.38720212781859203
-135.0,4.206232023046087,10.581850983353737,6.375618960307761,-7.414429223679626,-1.091151068450304,8.500107648739244,-4.212513494645092,4.653856815222754,3.8379360693810147,1.1288183466665194,-6.5819713554893164,7.646819508026132
-134.0,0.6576737749472537,6.688628149674373,6.030954374727104,-3.6872590068077695,-2.6873680589848563,6.387793070929694,-5.742136161370703,-5.956922035353106,-7.88313462135898,-6.591247092437483,-5.9056846343180975,2.522586430126344
-133.0,0.9940032875713496,4.052776786007269,3.058773498435802,-2.5362973862334144,-1.0336565661289139,3.589827214029162,4.152714716179265,2.0590130099366206,1.5763903958144216,-0.13627163281737698,-5.619070097807989,-0.3251968372587273
-132.0,-4.631341404983258,4.770162980182925,9.401504385166067,-0.006674928944496172,-7.02298073919067,7.045160191629922,2.9465742119743044,-1.4029765290242349,1.628714707666638,0.46862459149603897,-0.11360224197875857,1.330839996550065
-131.0,-10.897451781672553,-10.7132989284433,0.18415285322917674,10.783510027079735,-5.4763457622093465,-5.304579109690707,-1.8250203879726568,-4.274769542887209,-3.3619863686005402,-0.9221763098892298,0.5459076501095359,-2.6999023979727514
-130.0,7.540802551897249,-8.331750283423556,-15.872552835320821,0.3667521272272616,11.68444842158809,-12.066541112486354,-4.703350987878525,-0.8204069256637904,-3.2337044650250086,-4.152615710260047,2.404758159355517,0.5472810819350751
-129.0,2.5245306370566856,-0.3468969661759891,-2.8714276032326147,-1.0452364065612052,2.66930980634241,-1.658347120610208,1.9044073455421149,1.0133406215119958,4.664660544616497,5.085118585748276,6.071076151310079,-5.078042258268718
-128.0,4.341499982834788,4.835818777874299,0.4943187950395789,-4.629060924866418,1.8909605186874985,2.687697514559203,3.5587921441582657,3.8185983702224418,1.8095931188362002,0.9103349328302826,11.546766433616769,3.6481083038949813
-127.0,2.4961392646403686,0.9557856307368722,-1.5403536339034551,-1.6914847342105226,2.063167968605418,-0.27511977994093817,0.09047581472556665,3.193649812066126,1.9404350144219418,1.0418182369468225,-5.858166515828689,-4.357453376412967
-126.0,-2.8252532043691136,-3.402974457590812,-0.5777212532216933,3.145738735384212,-1.0776598107909288,-1.9754707384448031,0.026853572948706717,0.9910952663113712,-1.2860729777575846,1.3347272151440204,-4.836754068285853,-4.3320079485576635
-125.0,-2.3810203874729003,-0.32481897596413245,2.056201411508715,1.3035044646220713,-2.2485953750768433,0.8817936873975052,-3.207490971796961,-2.095827833915707,-2.9266760527053135,-2.176497059600273,-7.855261922566407,-0.7657840505777999
-124.0,-3.6666563838119446,-1.8122304516191514,1.854425932192707,2.6881562629645592,-2.787473365771313,0.040851982263247155,0.5517784672290709,-2.790211201762385,-1.147686347022201,-2.6420046337561365,-2.98183825879996,8.574977782119593
-123.0,1.252000446769301,1.2316036033578666,-0.02039684341152226,-1.2154550653166885,0.611924523929837,0.5508266823754973,2.511977265922014,1.8207513609035368,4.946567717656237,4.674006545716871,6.439675630670079,17.515535471972434
-122.0,3.414012319726922,5.85538841154228,2.4413760918152994,-4.608190836031139,0.4640472251233285,4.096739995973106,3.343784260708559,0.9519989073660132,2.5220299537982993,2.0823181540731546,8.17797810600956,6.79303725818276
-121.0,-5.5358581481443565,2.138658035328953,7.674516183473303,1.726631662921263,-6.547341359328153,4.935027576864114,-4.063997492123313,-6.097649757931997,-7.631461927589367,-5.649493945821229,-4.899783353895816,-25.538096035078432
-120.0,-0.6584222292328219,5.562263966543416,6.220686195776305,-2.421837088107754,-3.381226709621491,5.919727546360524,-4.288229434852364,-1.6946931362024595,-2.5252521889542505,-4.736886364604763,-4.9747626810126295,-13.9998403860087
-119.0,6.064763705716136,-0.9391630177315535,-7.003926723447578,-2.610493716323238,6.512690623891338,-3.9442397746510194,-1.3834569430607546,4.717626750034585,3.49509082722936,1.494292351599054,3.4011141306002823,-0.42124668387589637
-118.0,1.8171291769181401,-13.053962605511568,-14.871091782429597,5.568963873925206,8.31844981194837,-13.93628552558197,5.8167124234651535,2.6184039576800764,0.7135262538758045,4.1663572179145305,1.0271473628426038,9.787025861449782
-117.0,-0.3782782749114284,-0.3897707233961931,-0.011492448484707651,0.40802229011910773,-0.21621759671744112,-0.25400304113273187,-0.4976407327439851,-1.5075448475198434,-1.1581942564134138,-1.5772054823979036,-3.9924710312027054,8.918461874019037
-116.0,-2.635995597933843,4.7523387908545445,7.388334388788369,-1.0424778877568883,-5.054183694649009,6.016509142817908,-1.8034055431421063,-0.8686246220435198,0.37078320225424943,0.8447666459611395,0.7933796380276148,1.6079904030249814
-115.0,-3.1111865158291767,-6.135575770887991,-3.0243892550588694,4.629528193609641,-0.015181133313504347,-4.554752343166241,3.8863943545931843,2.406521377893954,4.197073729422895,3.7548145703841675,1.0338346531998692,-0.007649169041402892
-114.0,0.9141261654041597,1.0899761570054913,0.17584999160127923,-1.0042562104258277,0.3928860338045008,0.6596288715678562,0.7181963654028407,-0.22192586498515451,0.040493456303954956,-0.6064568353155024,4.311372251640493,-1.6913199832738164
-113.0,1.2632771439408161,3.4784056384012736,2.2151284944604033,-2.3777625178185247,-0.45010461693305936,2.876194976657024,-0.8741141937015038,1.5554581062455872,2.976532222778233,1.698972329470648,4.056469001187835,6.9790447291325455
-112.0,2.817408803895227,4.5020881159738035,1.6846793120785097,-3.665891015402286,0.6011202000827045,3.126111247106847,-3.1461503628859266,-1.5809687643245267,-3.749528141026934,-1.2640681640896896,-1.7847908764211122,-6.191996145061961
-111.0,-2.001716725542824,2.3226250853961874,4.324341810938959,-0.15949479148042567,-3.193498393996598,3.280232820875932,-3.1482927892765735,-7.1162798226958115,-5.522650558668932,-6.4616216352181715,-9.479741457238987,-14.101133832954272
-110.0,0.16547873196985918,-0.5554274694591668,-0.7209062014290031,0.20887847244345914,0.42668737176517024,-0.6800320923967349,2.454939551614263,3.1660152880506,-1.5422964180021101,-0.586150274577173,-2.3952802296367275,1.5552056442602629
-109.0,-0.4596081037806099,-3.234721968891623,-2.77511386511094,1.8780397698876932,1.1510885559906796,-3.046642327567505,2.424175864221112,3.9835472974403583,3.759412759699102,3.816389794729952,4.6939155490105335,9.884444526882058
-108.0,-0.06726447227673071,-0.9380568605323463,-0.8707923882555129,0.4729583888871809,0.3974238721720531,-0.8672329817268976,-1.5406568230518567,-1.3549150333748217,-0.27644324442878165,-0.9599601898363237,4.800344880617127,4.718575687849355
-107.0,-2.5060637945781203,-8.657285547017626,-6.15122175243942,5.568194489247202,1.81189464154075,-7.36517998194514,0.4144617363496779,-3.0729686169440584,-0.2791130046279613,-1.9862956286662492,-6.447751648678574,-2.994319861541542
-106.0,2.4437732629573947,0.6298181132345535,-1.8139551497228257,-1.5386691109106754,2.104494221156421,-0.5484075788744436,1.851498320648023,4.932893584705265,3.189590688746423,4.3817516846860345,-1.2131559946524102,-9.3357595826458
-105.0,0.13768995486712166,5.942033790063547,5.804343835196369,-3.036272093629729,-2.796766637318437,5.84489369798524,4.7820595879970815,1.6041788152708312,5.287205164846813,2.133086880068787,8.73603764214414,5.103547496193835
-104.0,1.9031141122945119,6.164891849062096,4.2617777367674865,-4.031230485585959,-1.1607867461123216,5.1921140922524245,-6.258576907946428,-0.7732818422151954,-3.129409587862765,0.26077768103840326,1.8711491631785813,-3.960698356877508
-103.0,-1.2871422577501574,-0.258344777795394,1.0287974799546569,0.7695147730430938,-1.1541887878300128,0.36883529233097434,-4.436705963778798,-4.699596333987258,-6.607787811114422,-3.608839658942085,-3.615255784143513,6.145411574123986
-102.0,-1.0106542958463112,-0.2305517694148809,0.7801025264313961,0.6080789103925387,-0.9009875756967138,0.25891845268021174,-1.3645817341025204,-1.5619374233318677,0.6856966745417661,-2.19269906306464,-2.273906360516168,14.186482420012686
-101.0,0.2787743591385987,4.370487705698281,4.091713346559691,-2.2688516508498306,-1.9155162066830598,4.289438787457833,3.751367319289936,-1.0616229815459657,-0.5296304293048679,0.5953887656957331,-0.08434173851640603,1.9748804621730938
-100.0,-0.48445441918378734,-10.303007738100606,-9.81855331891673,5.361090637331965,4.6598536101205,-10.09011488259667,2.7548473409052416,2.760724571804776,2.550433682066163,0.8944133965495987,2.44732267241639,-15.674548726800788
-99.0,-2.2380007334250767,-8.237348746207584,-5.999348012782413,5.197558896698262,1.879249982096696,-7.158958522892414,6.309400445483658,5.59957970055886,2.171410749569323,4.52924824560119,-2.4963678423714457,-16.21848649847321
-98.0,3.200722255406359,1.350861898206123,-1.849860357200174,-2.241670938128789,2.5320054501056344,-0.22225095492295122,-4.0280645069160546,-0.4298546774812353,-1.5329415546151313,-4.490831550225391,-7.987782074009593,-0.8034981740205955
-97.0,1.9941127445867484,5.515874098349429,3.521761353762697,-3.7223691886710015,-0.7480011800098849,4.538227587337338,-2.0453980663418463,-1.2966970190437048,0.2089482422189886,-1.7688577650903383,0.2623417081916646,1.6952386257223542
-96.0,6.0219167449356625,7.0312139294792475,1.0092971845435779,-6.57182553119654,2.452393450299023,4.036688032209526,-3.538007575838941,-2.886763337584066,0.8718773453800654,0.7647716332388743,1.268297757628793,10.461553007717765
-95.0,-10.390917031049137,6.006802688278663,16.397719719327725,2.2275727124098683,-13.361315131738017,11.221045156455322,-3.355441411238923,-2.2278374622424897,0.09770381357990758,1.294680279271624,8.688910702901707,16.569545814371253
-94.0,-7.737978157213362,-8.464478684284103,-0.7265005270708116,8.059762173893223,-3.4659306168729422,-4.648610038632385,5.101354758548103,1.899067001197356,-0.9669747449329892,6.367826061342528,12.149666503634899,5.918523878330328
-93.0,2.4291180946195885,-2.707602214804611,-5.136720309424227,0.17680608942475917,3.7489990933519723,-3.9656394180523233,2.8842382942721043,3.966983741465421,-1.0328689074789636,-2.1802590667487993,0.8473364619702948,9.381761984993114
-92.0,14.583734987827205,-0.8771958703255462,-15.460930858152718,-6.896382640275828,14.99132998770828,-8.123421712862047,-4.223695280416667,-5.156358142993456,-3.215409907006893,-7.500193963485272,-14.450191123696811,-24.87474050781657
-91.0,-2.099777731902991,1.179424888599807,3.279202620502831,0.49162718692229523,-2.641051311216324,2.283904660620749,0.9425203455262385,-0.7727753718395558,1.6237600945287474,-0.6875308472145569,-3.3058969907096944,-23.383465832368216
-90.0,-6.827502706885583,-0.6872292570240944,6.140273449861453,3.7829782473689706,-6.515540381479487,2.707852528448419,6.067273204479282,2.495142671212699,0.606366234539348,0.7859283567301925,-5.730870617924376,-5.278560116874246
-89.0,3.5070862467373987,-0.3284029797318988,-3.8354892264693476,-1.6488286424338003,3.7155668398642727,-2.1001626464743692,-1.1913416262168623,4.649798659374493,5.180744302848448,3.7152473973992746,-2.9780554534012946,10.179358933671292
-88.0,1.8124358940377139,1.5029745081225556,-0.3094613859151404,-1.6438334062010136,1.023089325884724,0.5734076044884504,-3.2040709350406607,-2.2641130987252733,-1.73618843075191,2.8267302025947147,4.21782331731862,12.809128227241736
-87.0,-5.454682127959308,2.3113322437532373,7.766014371712688,1.5825941108611379,-6.650998531081279,5.005539093507654,-3.443905330493732,-2.3700338542011856,-1.3707253014373284,-0.8764597573862816,4.85057334306064,8.983833939782677
-86.0,-5.610138136179634,2.5797958942281096,8.189934030407983,1.5266503262044444,-6.862962659282849,5.418385385164753,0.7052893180832256,-2.261355434210958,0.4741484523793018,2.410356662259907,8.015489512937421,11.264447238951995
-85.0,3.8882189844965107,-0.6315928671820201,-4.519811851678313,-1.6124882102489462,4.242546128266067,-2.553544265464732,3.337400239128555,0.1849628265551564,1.3927676235226312,-0.26177784735186077,9.451010369377885,6.288035065221415
-84.0,6.238542650664937,-3.4996381038335453,-9.738180754498373,-1.424966656160012,7.95190293745702,-6.604673583764858,-4.1967118559719,1.6066018427305129,-4.292256180289861,-5.062204881153103,-8.578257590557383,-23.068790782913524
-83.0,-1.4148754004639645,-6.5129328787865886,-5.098057478322635,3.99599350989081,1.8887254248586576,-5.794222294900961,-1.902942122417456,0.665753103462625,-0.41883358858734243,-4.631693745354022,-8.758559026791705,-5.98157305413898
-82.0,6.135208335068233,4.781932309305391,-1.3532760257630088,-5.4183726109789925,3.716640333293093,1.6488571347887753,4.852906113525588,3.3666304898575836,-1.2711105465217307,-2.382137247810797,-5.18146811457258,-6.903908768870541
-81.0,-2.3828238732379163,1.4254355888336994,3.808259462071385,0.4452657154808277,-3.1218428671973295,2.635795377124056,3.5055119368678693,0.7087156220341047,1.431088164094187,4.084215800029499,-0.036585242124932194,-0.9666180165909992
-80.0,-7.5024796709838935,-7.409448716476009,0.09303095450767884,7.423012124039307,-3.8265900817155667,-3.63209036925055,5.611257421122403,-2.710135424965008,3.297835697764769,5.733819039651015,7.090519553086569,7.961002707450645
-79.0,-4.103283498356438,1.3794203446846374,5.482703843040968,1.4030437781457605,-4.749427060343955,3.463376652681404,-1.3949300167109766,-0.03485121362808119,2.60207131280186,2.8024403761021754,6.605789247365838,10.139557810801605
-78.0,-5.164366771159971,7.086955187228947,12.251321958388907,-1.0078780375444947,-8.673400805415278,9.625724854626693,-10.506302811207938,-1.5173753198116708,1.5055853273557696,0.39990247204191554,-5.277120291912487,2.29468525777504
-77.0,7.413567790642579,12.633253703025705,5.219685912383307,-10.002336957414226,1.0423539808376479,8.881590194484483,-5.76816844666314,-3.062928858132186,-3.172500668025612,-1.3786044335235208,-0.15399195071237293,-4.06447268761603
-76.0,7.7782780054497,1.0120587747829815,-6.766219230666433,-4.384643104384029,7.286682671071569,-2.8491752738553404,1.159191475611704,-4.334598258089409,-8.012731939613364,-3.4735329816471303,-3.4557455578802556,-2.17076567541995
-75.0,8.79493727917236,-14.459305054150565,-23.254242333322708,2.8351279005708157,16.031280914497714,-18.838073230905128,3.5470383310755693,5.630539174822605,2.0207713826792664,-4.9001545504117745,-4.68451841957421,-6.6747287702891045
-74.0,6.466422489152565,-3.2046836911417795,-9.671106180294279,-1.6311331020862871,8.070616787703424,-6.42958052933219,7.5691989625556495,9.024448493497289,5.773850947658086,6.337332479468457,11.53280196377367,7.248491587848162
-73.0,-15.388387699323214,-3.102144986808252,12.28624271251489,9.246152277939977,-13.837115383317009,4.591010145932939,1.6441211889736556,-2.472149627729551,-0.07726244133487459,0.3431151983592049,-3.2636674088542215,-5.471941524201281
-72.0,-15.894271928459327,-6.41761169472665,9.476660233732524,11.160952897840962,-12.68404816760817,1.522042167672827,-0.41831520669585553,-5.091184894934893,-2.0144845214915152,-5.152896100612686,2.5804045702717637,5.6258556857436055
-71.0,-5.154006679231722,3.5052055194063607,8.659212198637949,0.8342634792262893,-6.901801665612379,6.072485686034616,-1.6274965028080828,-0.9057119467136343,0.5131951218596447,-1.8657033503789522,-0.23528203487864374,-3.692251167419584
-70.0,9.008532085506664,13.058152515142371,4.049620429635576,-11.020202055865253,2.4890689598292797,8.546731705690195,-4.977782767244365,3.6946106298378094,1.209920608545053,5.267291402881427,3.366607149800344,2.6675987541901938
-69.0,7.488127426020003,-6.602885647780722,-14.091013073800776,-0.507979261098404,10.726145220744243,-10.346906159511796,-1.1327931309788295,-0.7775852657617106,-2.2125261661599818,-1.6710270683978057,-13.969262289071748,5.4398454086110775
-68.0,9.146467718345903,4.386486597730103,-4.759981120615711,-6.75580554097669,6.975018885636561,-0.1759790573497524,-0.4173196824464971,-0.99086338786313,-0.8117832912541664,-1.0729669813610465,-5.110264146994691,-1.523993839200236
-67.0,4.527535900968775,9.78197332672196,5.254437425753374,-7.148134822328882,-0.33439289584141996,7.541163402938384,0.4463874984895115,-2.8120430189676515,-0.44791448958072977,2.1346409085040112,5.788347668770859,-2.9220401596201615
-66.0,-7.461388547241116,-2.3418356194676004,5.119552927773729,4.905451666139995,-6.253484324686737,1.422734216982471,2.6757656945180615,-2.672825540505504,0.5091236903265306,4.550722049474499,12.514069039327573,-10.095038023330961
-65.0,-7.595311755620447,-5.965478955233104,1.629832800387444,6.785185570515234,-4.646266636595875,-2.2057271116325623,4.207336697843223,1.9291869124927072,1.486603238459531,4.145261205832141,-1.0329924580955518,-8.292264657047562
-64.0,5.267097097299597,3.1262193565070495,-2.1408777407925896,-4.186013006365838,3.67768510510161,0.4562036418887421,-0.558854260527708,4.711819109436446,4.367092356089401,-4.9440099899097785,2.1610202498484252,15.86379232025578
-63.0,-5.9239089025157226,-14.461491491927866,-8.537582589412319,10.213295935882364,1.2864817679887184,-11.539775884568714,-2.996178049626355,4.788332429055028,-1.6455491723625162,-5.845406041208817,1.3928772491446508,6.758007952154767
-62.0,-8.273405229477339,-13.65806711757658,-5.384661888099471,10.997664962019659,-1.3818977380109188,-9.489534093277824,-1.9609409470030863,-3.6450984067267633,-3.275194157890518,-1.0373115509758923,-9.549674576086037,-2.618746661039026
-61.0,7.4147678736445695,12.216977264943896,4.802209391299156,-9.853678471485305,1.2922022323264613,8.535216753600828,-3.4351974985786686,-6.225513674237815,-4.180150481304681,-4.594714016446635,-10.760516208217298,-3.0251500289580737
-60.0,13.32635125493418,17.885135195093255,4.55878394015901,-15.640079799058554,4.370332888991688,11.24485590765514,2.9530323100920586,3.9964058216548572,4.131738180560868,7.776187121314347,4.287938887468417,4.448600729147248
-59.0,1.1992766098372716,5.150872980918884,3.951596371081636,-3.2128647253816975,-1.3900521117257607,4.576232131518357,3.5803341271292766,5.162701610021852,4.579830378076442,5.080584009325699,9.854076739833076,4.701502756856829
-58.0,-14.933441104586848,-11.694687430318039,3.2387536742689003,13.345753378090398,-9.1009331371056,-4.275567425312722,3.4724125811832303,-4.387391540303108,-1.3394792123358616,-4.157255512338843,-0.08884502938433325,-8.92866939138413
-57.0,-3.014279935568756,-8.902937687880394,-5.88865775231157,5.978367951251942,1.5000789310760179,-7.356835420947102,-1.5690841630185726,-2.9816597970640113,-2.4887726636865835,-0.23156148636919477,-0.8611513586359982,-6.364576482470683
-56.0,2.4588292330133603,11.933812297652434,9.474983064639122,-7.187173929945333,-3.5249789223075587,10.671255399169013,-4.578330377933274,-4.2883694985997955,-3.7290393984427053,-3.0591293144349976,2.48394257804582,-0.7974322216407832
-55.0,6.218431402708865,-3.4271355263232612,-9.645566929032086,-1.3924261608489699,7.913683849207519,-6.566025319250906,-3.380216642736344,1.5574162438377663,-1.196334750203985,1.3284471717349375,4.933602671999278,2.606040189235444
-54.0,9.446020527052772,-5.241043422527907,-14.687063949580613,-2.098772236834092,12.045856792018101,-9.993860085712447,3.5951278074918243,5.441961720891077,4.55640768379963,0.4395360440906917,-10.197439594281185,2.947265029464484
-53.0,-9.200505445237143,-7.328175642995664,1.8723298022415324,8.274714039577633,-5.482169944838407,-2.681603306992651,2.0609885188795776,1.2693644450112966,1.9762560992328364,7.1383217870475875,-6.422057060606369,-1.597151363143484
-52.0,-3.3318443053913995,10.230527120266498,13.56237142565788,-3.5068592726742467,-8.476970374393861,11.939497121012902,0.10737200949471482,1.9892780365383549,1.136902320992153,-3.1599597062702762,-0.9974897489142496,1.442824624506534
-51.0,-1.2999207022097297,6.541263495232721,7.841184197442368,-2.587359336070792,-4.6068631423653645,7.153126946861534,-1.9562954295504835,-2.8798248315107755,-1.942621462279018,-2.943965060622279,3.462577626293961,2.7495328871435705
-50.0,-0.15302212245188507,1.3398385493046434,1.4928606717564072,-0.5499664107793664,-0.7870575116194027,1.4559737715193202,-1.9200594352926246,-2.527332019827825,-1.0586068277019804,-5.585149694010291,4.722599359789529,-1.580938202649061
-49.0,-1.8871325162546968,3.80556754443827,5.692700060692884,-0.9888905151823855,-3.759406577594757,4.709746898046891,2.03638052966694,1.1912648032338757,0.369958486216696,1.8214444537386516,10.442056143198979,7.254156202907927
-48.0,4.259900780782441,-6.952511482118767,-11.212412262901218,1.3165741884463065,7.684982611505867,-9.043730006691344,1.966670958259713,-1.9152518136673522,-2.29823406198891,2.5247343821130466,0.7554107939491899,-0.7474288543907811
-47.0,6.123689676340025,-8.250294269025927,-14.373983945365884,1.0283993333617834,10.27681519094476,-11.354029593659531,-2.1160172109937814,1.0267597711396366,-1.1879956316745437,3.097964934942808,-3.5299003776419133,-0.45772698674386114
-46.0,8.461547124188103,-2.1859409324652552,-10.647488056653268,-3.1020013721533197,9.507741140584923,-6.461676466570232,0.24386850319783182,1.8884512136778244,3.312740357838789,0.5596798731733834,-5.602573549045793,-3.238794735177038
-45.0,-7.849840439027691,-9.445699143131344,-1.5958587041035726,8.67580336795378,-3.0880319913042458,-5.490175931149776,0.1903016165954008,1.6453363963916943,3.3414217774528607,-3.529874671524989,-9.203948889918866,-19.4936136138435
-44.0,-11.995215999195402,4.598826180681327,16.59404217987674,3.7217118915914837,-14.24726129359595,10.625374964914991,3.6469736457033175,-1.5549000967543205,-0.03462646060320096,0.5459775952131887,-0.6654164955334734,0.6044775791792869
-43.0,-4.07057595277888,12.805630399111863,16.876206351890726,-4.422153190650932,-10.497273003877117,14.871053494335875,3.096843196687109,-0.36353197403982485,-2.2578734629437394,2.2089327849159335,2.9525737013751243,6.210098312124492
-42.0,3.135823749861583,15.612352492506474,12.47652874264485,-9.34389820794039,-4.690108716351758,14.000200217735198,-5.7044725218028205,-1.4765165904110016,-0.05073806390174518,1.2376874972055487,0.567209431451416,10.706107735283599
-41.0,5.754489040259984,-1.082674515793558,-6.837163556053599,-2.3740940892326314,6.27512892884743,-3.9187046024593286,-4.331507130986633,-2.1284230925447405,-4.539569511771513,-2.82623030707953,6.035318128758117,17.05748167794084
-40.0,0.8229041529503451,-19.959891364206253,-20.782795517156657,9.621448683819196,10.775971346482475,-20.401452328951247,-2.4421190733304505,-2.233388404702742,-2.7830530960055997,-5.0550869621065075,-0.3029864340383135,10.233917738876563
-39.0,5.81971595033499,-1.7621060708841316,-7.58182202121918,-2.0430980645575403,6.742723349293417,-4.695587810063092,2.376246688896769,6.10096106813059,2.9530088883951584,2.5789221874383816,7.48623441719691,-17.957574005277912
-38.0,6.358713563645363,2.018956019014831,-4.339757544630575,-4.195391155217844,5.380198543863915,-1.179601692807032,2.405609154995129,5.255450123618333,5.45027540379741,7.442643140885319,3.7312726240916705,-30.160128848395118
-37.0,0.01434288860959576,0.5025951177703776,0.4882522291607767,-0.2631620142844501,-0.2939094960982378,0.5569661593514375,2.5541589698524425,-0.5434685228136309,4.3504716699367485,2.832279037657613,-4.823543712158156,-2.2356336904775542
-36.0,-17.320029305737787,6.402458980165496,23.722488285903278,5.449373786365734,-20.50460443471096,15.045028168366134,2.485402966962578,-4.891584257681685,-0.7108420398508555,-11.139416836806344,-13.751578451976581,11.963844332922932
-35.0,-11.801950865587198,-1.8984548614541696,9.903496004133043,6.830478579095176,-10.83633749916218,3.983019470005414,0.10060004193400851,-7.330125701159158,-7.57529798295038,-12.206512709321728,-4.194497612581069,7.201655416447087
-34.0,11.144570445104753,0.5939962809996983,-10.550574164105042,-5.823678187347071,10.867802349048254,-4.922510900130587,-6.429313087517561,-1.8068360084721364,-4.0820006361180425,2.762132613639774,1.3946106992372247,13.632437302900376
-33.0,7.661078427066407,-2.2542602558916984,-9.915338682958078,-2.7497526843418747,8.814316467827103,-6.112244004243561,1.4257194522444938,6.424974021826771,-1.2361973994650457,15.604037716330982,6.39005234027669,12.747520546210158
-32.0,0.5456664798680677,0.32240072511970075,-0.2232657547483674,-0.4113546582310277,0.33717564329383887,0.0172614402965916,4.259766252870981,6.666610413051664,7.101134018941044,16.059283741346672,7.533522020719596,-8.412010197591302
-31.0,4.650119182000794,2.161972115409958,-2.4881470665909076,-3.387363451049299,3.524758406922604,-0.19971776663081764,-0.6324314148942891,6.282128403966475,8.234774766454326,-2.0755268009386905,2.4340804069090645,-20.838075495189223
-30.0,-0.29729182614312233,-9.061716845233418,-8.764425019090451,4.7005697182472375,4.268058432285672,-8.87371136103208,-5.435424554054962,-9.948662458489366,-3.4283679495495436,-17.872004316617623,-5.486263035441976,-18.788323109368143
-29.0,2.745251644906596,-3.9833048728881444,-6.728556517794952,0.5690195399778537,4.691296902158715,-5.317195728137109,-0.3958291810140271,-4.26858185444688,-6.027439339059897,-8.317297672013789,-2.63474519702055,-6.487322844996471
-28.0,-7.465492704021079,11.034423232714225,18.49991593673511,-1.7451660415904702,-12.950078271359565,14.806989575406606,3.0442254253908976,2.8871835052981396,1.6743012420379042,4.899559514220592,6.206354564645997,23.91745323203511
-27.0,-11.201190382507377,4.0547515796957345,15.255941962202986,3.5442162216623103,-13.19363359845369,9.617760138574525,0.5484844717004964,-2.3941398963080434,-5.724149651874379,-6.114172794344565,-7.425086105888007,29.09537581817425
-26.0,-1.8790627136993088,6.118751206053737,7.997813919753039,-2.141241152301209,-4.897846457234182,7.020485944440335,-1.4286701336809897,-1.6470459933156687,1.6997235505244248,-2.9482927913618364,-3.632622646539516,11.585960462497289
-25.0,6.67565770356412,4.568213251753931,-2.1074444518101068,-5.561637188412352,4.361058080682723,1.1896378792881146,0.07932348144864382,-0.18977274955268703,1.1082251286645213,20.330468195668033,9.776968454268058,-1.0740363782606526
-24.0,6.287103802371176,-10.453133514992485,-16.740237317363516,2.0623229855958356,11.490187106204313,-13.564281941212716,2.898940027557573,7.050626383355355,4.679793763203103,7.336213948963037,4.0249557637899045,-54.76256920197082
-23.0,3.0663671376706487,-16.223532106279496,-19.28989924395003,6.551329230904819,11.15825123201179,-17.731284569738744,2.994718077068728,4.361762299700919,3.903656555921157,0.5669268672586352,-11.199914339257319,-0.43159586843784226
-22.0,9.909642488272397,-0.5170888623499739,-10.426731350622315,-4.732388827974521,10.146873236457164,-5.453040029193335,-4.086958224217417,0.2308859548098865,-2.895850733549874,-21.272835123588255,-3.479203348486677,7.735352887476489
-21.0,-9.629733944488114,4.182275969854624,13.812009914342688,2.7577750490955175,-11.669770660425648,9.011392897884217,-2.0451368655674758,-5.982804948042627,-2.314373411291317,-4.782829413598929,0.216956266350272,8.499684168102895
-20.0,-13.951523370067683,16.080182204736314,30.031705574803887,-1.0364461085578929,-22.028761838967636,22.989634220027362,-2.1078624371116765,-7.9991405625712275,-2.299446749055913,6.659624872147633,9.610196096381078,15.720374964717806
-19.0,-1.496524397110698,-16.195787135355843,-14.699262738245308,8.871166516409211,6.63295954303238,-15.433872477256136,-0.6421674983745697,-0.529010745834265,-5.136848053828395,3.9872951823043286,-1.3865922306001837,-8.674833605044821
-18.0,11.734636495556867,14.04191215120076,2.307275655643748,-12.863620480177218,4.737439675153672,8.192202736639455,3.3183752734360636,6.247481157633129,-0.06436939621156346,3.0337809176190556,5.008184525819788,3.4554901486305276
-17.0,4.133356906077948,6.180092086805457,2.0467351807274525,-5.210554541983642,0.9846994826819784,4.137077299653512,-0.046080682200797085,1.2235678440417717,5.7291314743502495,-1.3182018666241833,-7.753493244612034,-5.848262042450234
-16.0,-4.6743752451407685,-12.596773083183585,-7.9223978380427855,8.580754825049066,1.645687093321156,-10.307469365171642,6.074960082921014,3.878812512592387,4.242990002253331,-1.0805200110818223,0.5429889706820954,9.30796557130508
-15.0,3.5818953978684798,-0.4184418583856644,-4.000337256254043,-1.5608178017061003,3.8192111740070684,-2.171322556566092,4.49786236237101,4.665424011119746,6.684972543731572,5.143290423462586,5.4067210279862925,6.157786790774805
-14.0,-5.671738244660601,0.43625658502932607,6.107994829690031,2.6343299712849935,-5.930640069249628,3.237480513091274,-7.327025341066564,-6.119517341528368,-6.775800796483215,-6.330135226796304,-7.255300704824201,-16.823797212398173
-13.0,-0.8686061259303153,-5.828226144935907,-4.959620019005475,3.361201186880498,2.094562849497464,-5.345899909761922,-8.316186440284579,-4.62595623974028,-5.908274306454247,-1.0968901570443053,-4.035700534744302,4.192451698514677
-12.0,5.843968713928454,3.8940191395245383,-1.9499495744038327,-4.857521188501128,3.8769547732438285,0.942555081418839,-5.906652692974367,-1.6207376605361454,-2.0191923885264895,3.897963990550554,1.0182310381497084,-11.013760551176937
-11.0,-5.592307355660735,10.23542348414221,15.827730839802944,-2.3076289992325743,-10.723963633871739,13.00066439917903,6.143980820225345,-1.7467798622737707,1.691481255244975,0.8449573262473912,9.354120347419409,-1.177054536863075
-10.0,1.122248405562886,1.2921677837875896,0.16991937822465086,-1.2656737933071454,0.4633800215196051,0.7753071997998795,6.0003176938808105,1.7992412052609001,5.174368090407668,0.6368226015564276,4.928666075789161,15.488251590671299
-9.0,1.7521451000030757,-12.397731982818586,-14.149877082821703,5.352327954629583,7.934515936283539,-13.313106195662524,8.073138301399304,4.906498012641737,0.9568446400856083,0.6345622264790565,-1.8632923117854632,-2.081141303044573
-8.0,-0.3287768922888896,-2.567700638857081,-2.2389237465681546,1.4881101832481198,1.009957299151175,-2.3690026892277287,1.735658334285238,4.013170280969026,-3.4155145372425655,-10.336286971339165,-7.66234944941823,-17.792600690669946
-7.0,-4.447268464843197,-4.080969477951336,0.36629898689196283,4.23455988391404,-2.4397829076294437,-1.827869678735529,-8.034104543632917,-2.7682517106287636,-5.328788880149788,-13.12068163740512,-5.0132248885528305,14.073307622962043
-6.0,-0.09833230707597274,-4.0857666604087255,-3.9874343533326213,2.0689859021301023,1.9813801723614906,-4.090220312182068,-6.3071575354831175,-0.3927184195747425,-3.130543718392503,-2.5550853256356385,-10.691678998077853,11.719570949805199
-5.0,12.853033884701924,24.46158231080863,11.608548426106752,-18.6776855697181,0.5731824189884036,18.056353042964947,-1.8448978061950578,-1.20779590912476,13.490444563022837,34.24504303729713,10.536163744121824,11.041963267074902
-4.0,8.911164478551662,11.987284558503054,3.0761200799513757,-10.391905156250608,2.942778876938855,7.549731524623705,-0.1921724806982501,-3.232258819917213,5.25967156853444,23.773401022274754,10.331237267277103,-4.321378832565086
-3.0,-29.09454360790141,-16.67900503129637,12.41553857660496,22.861513160731942,-20.731280777497002,-2.194662257559484,5.279119487537187,0.20204087045591357,-7.890277611631593,-17.18352649482875,5.0215126622904505,-24.446390614334543
-2.0,-4.357061653545603,-14.184945641963807,-9.827883988418279,9.24053441230506,2.681482456586404,-11.990914625080014,4.728135254522766,1.922990826998333,-3.9041869860005156,-26.76430035895992,4.958744735581561,-13.910417887621678
-1.0,20.08115324319474,2.8249566904156946,-17.25619655277907,-11.410047150545592,18.696302158352985,-7.197692527197069,0.9954458165375626,-1.7729598200359327,-3.629089599874116,-9.72325321510538,-6.521714694273205,7.46907985706461
0.0,1.4501453301820648,12.20417496088606,10.754029630704064,-6.788659384154013,-4.6207703519148975,11.502536710369132,0.09122450088624812,5.980897588110589,7.95539834975986,16.020522561858236,-8.528888292764389,10.711919498604464
1.0,-7.755721042250597,-10.519365139638984,-2.76364409738829,9.093786129568116,-2.5402527952114533,-6.610097246899229,-5.609786535648654,-3.764046019085292,-1.9452533907609135,-0.47370101813745524,-11.400635958923274,3.529179731966705
2.0,2.143846544556841,-7.444717603571423,-9.58856414812816,2.60400005331073,5.903394465187892,-8.555053323339438,-5.1306682981812,-2.3572931119748146,-2.8764674359534093,-6.60110227384159,-2.514768356029098,5.1845407419673295
3.0,2.094857904637638,6.513647626434842,4.418789721797257,-4.274030354854124,-1.2014841662590445,5.435845370181697,2.5254610744166057,-0.13899175221484628,-1.6520882495187137,-0.5386593150286667,9.44151513023609,9.557877823967024
4.0,5.027348991398421,17.977823454200273,12.950474462801843,-11.473966757572468,-3.998906045470961,15.439458965372046,4.750331385792307,6.1370550782944875,10.654325153584438,20.01422307294472,14.627559040890112,0.36448917092086086
5.0,-0.3116599528847066,-8.813442500561786,-8.501782547677102,4.590143666023607,4.139819171806389,-8.600868298312772,-2.2337806458465717,0.05667374962004468,-4.850441434165262,1.1235558097908775,-1.2373776121675562,-15.506235649468
6.0,-10.461525567093942,-2.570690585505078,7.8908349815888235,6.464765987711397,-9.126171866870468,2.637888180100874,-0.5788774933488812,-6.410287907744685,-8.342474304522305,-11.573762679637056,-3.554425509293675,-10.892483242377395
7.0,-7.641263097310787,-9.288814996966417,-1.6475518996556664,8.414822883970709,-3.018605896959703,-5.414071519217064,0.9002854951744957,-2.3383992449257147,-0.4520654379519673,-15.59234536278304,-12.873184686259648,-7.844126014651998
8.0,-5.040292570033237,-5.4334923952291145,-0.3931998251959179,5.2684213006364065,-2.3377172315061263,-2.941946272061803,6.546334830353459,3.588223773768096,4.3919563291626105,18.49270294737727,-6.743819717465663,9.445968818493128
9.0,10.38066457161015,13.41033755476018,3.0296729831499682,-11.858856579696099,3.6677893962396815,8.186841987409473,-0.8918316722118402,4.971390075508156,9.6609655800306,16.58281514598282,6.766031492705119,10.177047246584484
10.0,23.16165153023779,22.187769780775103,-0.9738817494627838,-22.631395728659065,12.063889813103737,10.569693675279977,-7.6787694755886475,0.22544785845691906,-2.3757897900679366,-16.859079981184262,14.150332522351768,4.165369229885148
11.0,-5.899160298941187,-5.903687133454255,-0.004526834513159272,5.872660267940459,-2.950720079439235,-2.9151606808702972,-1.5288781925487096,-1.863013605700182,3.1675344103587344,-3.1455635029051043,19.14770533524148,5.410226517172514
12.0,-9.470653852197144,-25.99738250251096,-16.52672865031388,17.70985862369494,3.5220497889502953,-21.22358083785773,3.639424624895816,-3.142013305623503,-4.05884117954381,-3.1974683187589044,-4.3708338874520685,2.30963307747795
13.0,8.395233056856412,4.525924347870496,-3.869308708985942,-6.483859388014558,6.12174096520123,0.36795506648219334,-1.06918166517064,-0.23034917399700516,-4.309495828466376,-2.3641841899046208,-18.843076866762235,1.0398508347422908
14.0,-2.7328032592204803,2.059564482794946,4.792367742015454,0.3100659830620873,-3.6994672154791512,3.3882720287605537,-0.5209579079478519,-2.24236882527739,-7.301521876741587,-12.75756157811649,-21.92435424153207,-17.25987195752891
15.0,-13.562940460063471,-12.53663917003286,1.0263012900306832,13.095581203325157,-7.31473028185167,-5.792916674100189,1.1837340377369687,0.3907842668893812,-8.652227457822029,1.273050755597095,3.249771604555974,-5.875108155366796
16.0,-16.500051038148378,1.845668230693824,18.345719268842316,7.365447449198626,-17.446156467129196,10.055415166090985,6.425720739047433,4.0256992360377035,8.683491002764596,23.898237093104132,8.165717444095774,3.6453270852654995
17.0,-0.05976738222712541,10.423254662094706,10.483022044321956,-5.228714141839758,-5.2962973376959415,10.486892305174226,-1.528819247858404,3.8235145233301497,14.017797208381909,11.782062673031941,1.5185267881207984,-10.153914310295686
18.0,16.444826491159436,9.518120618666758,-6.926705872492576,-12.953432474166927,11.73940097272459,1.3240256954921303,-6.586359320620544,-0.3485873967198012,4.426017178102726,-0.3295382927164958,18.073870876823868,6.906720864609507
19.0,30.368265087428508,5.58662065394431,-24.781644433484146,-18.028372479137744,27.5507126090381,-9.573434111301552,-4.723366399452971,-2.0506644849960014,7.813754362651597,10.569442568319484,3.2726304971512725,6.544296694518052
20.0,4.894020654948298,6.05206086137358,1.1580402064252233,-5.442178739190459,1.8451808814750255,3.548845891411201,-0.398550627663393,-8.41164535535394,-17.051616787726232,-32.85120005023798,-17.147351877365963,4.7960237243736366
21.0,-17.731979262681804,1.6950950810315906,19.427074343713215,8.054345317069373,-18.522279554312107,10.585377753812278,10.53336799845909,1.76447069486715,-13.655455544171542,-25.686768790885598,1.119841365373114,14.676267203278995
22.0,-33.100108941803136,-31.813398719216465,1.2867102225864047,32.41890012820115,-17.214465925396034,-15.234511528458345,5.459812162112155,0.43065679501248616,-6.099154413259515,-0.5303165132673122,-3.0621247967059455,-4.973019935892122
23.0,-4.101697384106682,-1.7147744952061856,2.386922888900309,2.9517532977554524,-3.266362626257953,0.29216502139823497,1.957496792463333,3.064436478587548,8.663524767297808,21.3735022622821,8.215013928947346,-2.9410213792083164
24.0,24.044969675257644,13.740456640558426,-10.304513034699305,-18.929536132331535,17.150022722056697,1.7585838119529258,-10.559792566503532,-0.6466258260815825,9.277798799335857,14.799516056980925,-1.264919708869875,-4.203991584083001
25.0,8.477108921198823,2.790842915028856,-5.68626600616988,-5.67719551324161,7.1315700024726425,-1.4818546045549366,-4.263085494239811,6.817173944801029,18.392452627447152,16.35829589858837,7.0975680244613475,-2.1165369306495085
26.0,7.7081245649011585,-13.390449823865508,-21.09857438876641,2.866530891592226,14.369297307352706,-17.277352290289887,-1.1689298796128247,8.685979292143035,4.000940391496125,5.13037722513898,-8.603796362505197,-19.01222999098168
27.0,0.4257861394485003,-1.5262156673902432,-1.952001806838381,0.5641012339458427,1.22782784665872,-1.6946845689303696,-1.8390462185246235,-7.367130490948834,-12.685581928712471,-13.863486098178251,-5.283822072554183,-8.649924818894188
28.0,-8.62887730048602,15.639501007403993,24.268378307890295,-3.501173310449143,-16.415677892897065,19.994712603589242,10.289003519820042,-3.2467654976879814,-9.090043503734362,-14.524953357614718,-0.9982864350002187,10.682614952402863
29.0,-19.15201277456172,-1.1091039097885922,18.042908864773246,10.129319469258666,-18.64902708391094,8.424195453352064,0.8092593772777352,-11.395035792588676,-19.886875459871924,-31.297504653961653,-4.693147310232923,24.538345081408107
30.0,-8.813522060470227,0.076369949293988,8.889892009764145,4.367698306649037,-8.907973179388335,4.4359142473536455,0.9770535558645417,-5.040922430447926,-4.601029246306686,7.247090146644505,11.480373630828028,4.075733335881967
31.0,17.008996080265604,3.23801395927068,-13.770982120995065,-10.118602799202407,15.410215755996573,-5.237983166534345,-5.397907077147571,2.680002137274465,12.869020359590769,28.912169746920302,2.8585993284637707,-9.892482443292696
32.0,5.727843104240394,-4.95426877739027,-10.682111881630817,-0.3725883964917571,8.226870977852805,-7.790382920056025,-7.566206911956929,7.775466569313185,14.348127102418411,8.435918605329375,3.9427138879717973,-7.7808145515656335
33.0,12.871992697325148,3.843871602545528,-9.0281210947797,-8.333798299899986,10.978246737317026,-2.5625884181592014,-2.4155042976510845,11.627863138769317,6.436235965772115,-7.427736827824283,-5.667015399114584,8.504714910681528
34.0,0.6230615236678378,-3.9670262970288768,-4.59008782069672,1.6250551596701832,2.644812771320842,-4.324446608075349,13.79781441895388,5.736620645785462,3.2359648599407036,1.1628792430230586,-6.342283320832414,2.6018765449295094
35.0,-13.889464850795914,-4.43788847161141,9.451576379184637,9.120324178974737,-11.699822763262596,2.5432084239539376,11.40509297535567,-13.741861536293385,-0.6785355591143208,4.376405187384545,-2.8005467339509442,-4.635288130626388
36.0,-13.389811320138042,3.0853781506025113,16.47518947074069,5.186873110062789,-14.95296814649505,9.740247733611177,-4.023700967568887,-21.464184018973615,-15.98924959676527,-18.600242310028378,-3.111228582170236,-6.470414766991047
37.0,5.911389374628106,7.04496919262046,1.133579817992417,-6.447151851670226,2.371746420356331,4.049825752676158,-6.747798030804967,6.165567603722533,2.603117045643602,4.33810569683283,14.872212779551418,10.564331477322778
38.0,0.10308304183064344,-0.9116574121052805,-1.0147404539359859,0.35240913628316384,0.5380243965685785,-0.9247039774468768,-9.069447422196884,6.240709194433374,-3.7260855878242554,4.756992262341677,15.368595535971235,-10.047377733604819
39.0,10.013372429752124,-2.0955319272332136,-12.108904356985498,-3.9344538888343945,11.1089525057905,-7.064858289358963,6.43758843266104,25.524683851903678,5.8617665103716226,11.698433202753584,0.6214289888043947,-10.240716007896552
40.0,13.114420417981451,-15.105562223012177,-28.219982640993724,1.0206368471116192,20.622591086988223,-21.70447563289896,-6.004979052430922,23.039536165480158,3.786188195856722,-11.073066677658819,-29.072531212608872,-5.670886821459681
41.0,1.8784347739247425,-2.8531172052770324,-4.731551979201874,0.5157337935509467,3.325561897553099,-3.7541081281929065,0.8378102375124952,-0.16817201568040563,3.949276229255238,-13.853480882378586,-16.26014476246084,3.14562400126592
42.0,-19.74591719807672,1.7164720542606435,21.462389252337378,8.968741058822207,-20.59353673821825,11.551522559880423,-2.30715427775805,-34.76008520363874,-7.579100737837357,9.118315337024699,0.8394236363094727,10.023423693902481
43.0,-13.807062640193177,12.740533247593165,26.547595887786564,0.5691630610089686,-20.17089548439308,19.688288531675664,-9.88830272565595,-40.284918381716004,-15.88439041232062,0.01487951268209775,19.22025006179236,29.641982993678358
44.0,-3.9628843307674595,28.07578210823327,32.038666439001034,-12.09920757599628,-17.992651486282373,30.025926596169793,3.795839876700306,-19.42201763149604,0.7952335558570396,8.65993526458855,21.956996810372868,3.4077457577453814
45.0,3.844890033622173,-7.651348110242209,-11.496238143864263,1.8571776275535443,7.684347907510508,-9.602758993483455,18.43908462674514,7.045123024537048,1.380420882428404,-3.9104194088697684,-5.540346843023021,-11.44688567116844
46.0,17.372962406529492,-13.262160848205932,-30.635123254735667,-2.02801898933488,24.024347209585986,-21.89767948493832,20.121560576429953,41.0429844846925,13.186558587353804,-2.596588153526362,-0.9512771802463743,-9.025109467805196
47.0,16.483092470277775,-26.519574689729634,-43.00266716000808,5.040775822017696,29.688817830767047,-34.788598997695885,0.9807205036644389,36.229334134706555,13.231996677314154,-3.9928855263728837,-4.198199569752797,-31.07033085112733
48.0,0.4728501224749797,-20.382851169845416,-20.85570129232123,9.975633537182437,10.610893420890363,-20.64670175269407,-23.190292410659588,5.512661257973701,-6.498226510854465,-9.585015830477694,-22.998929304093135,1.5922578069488402
49.0,-14.515043976278283,12.826124056116216,27.34116803239406,0.8674687061867354,-20.905209816457614,20.13532073873559,-13.977850125469262,-1.1501629495631591,8.13497392460652,22.098442174290337,6.829255698224307,16.53779341854857
50.0,-5.344407580163182,46.08423557127427,51.42864315143767,-20.419361368772798,-28.366922895348154,48.73011247293015,5.955606525744283,-3.0865811148131446,7.402594366021862,16.082278644951373,11.273786317899795,3.150058707827723
51.0,2.172396673268384,32.15282234087488,29.980425667607395,-17.124929951626374,-13.88565942666815,31.11963734581521,8.493674543567659,-29.815817887337644,-13.301420595706986,-3.3376177416873203,8.663620180787417,9.441309138133864
52.0,-2.586957917850812,2.254487360135922,4.841445277987777,0.13307643903326571,-3.69312408302857,3.52160986876239,-21.468937462444856,-36.55244598453274,-28.594253593401813,-16.47012385277802,0.8254791826711614,5.80245574012331
53.0,-16.43760028575695,-41.90995596986987,-25.472355684112514,29.145703148510847,4.545153573289824,-33.720373592238076,-10.085272956243081,-21.61421213736454,-30.302070544469867,-29.772150404638836,-14.20199329668786,1.0328791616957123
54.0,0.3962121701671695,-37.92410635005438,-38.32031852022178,18.815374395367144,19.31603701316721,-38.15694222661052,5.0842844821303235,21.375659780699735,14.264360134906033,0.21599513839055184,-11.389021975865907,-11.23232109719132
55.0,22.759918632666707,-13.339677663701316,-36.09959629636861,-4.741390827788793,29.39532816235253,-24.683258250555454,18.903195236993362,50.713153269509675,50.4418657842648,23.716234047052378,0.39498299133618264,2.630280870749645
56.0,13.382799539957501,-18.490066361093607,-31.87286590105206,2.593159945069562,22.676217656095304,-25.153583923630112,20.88446830187074,34.324405012783885,36.762608281702725,28.331414546346856,6.701095983478968,-21.588447544266
57.0,-0.13710394226668576,12.601490469979566,12.738594412245357,-6.28188610741546,-6.469379554117686,12.690103970134286,22.94573305938283,-7.0494968051225335,-3.365396812336236,10.897011238145392,15.46988924638431,-9.806634656713562
58.0,-28.13468245426261,63.52444621155069,91.65912866581323,-17.676876368377002,-59.93453061071697,77.52727703269689,-10.908125740265461,-48.03384003136371,-56.28016098290907,-36.70770290715704,12.083666218348569,17.51944020377813
59.0,-18.781972809321317,61.29285758586431,80.07483039518658,-21.247091442025017,-49.396410121920724,70.69514010233911,-32.93612470474131,-38.76390908648274,-43.895227717936535,-38.661144708518606,6.613331794639601,47.58451218446346
60.0,22.776920692686218,-50.27605087143599,-73.0529715641209,13.751268462641303,47.93746570078747,-61.65292276735176,-3.701578309361853,23.972499673753404,18.10198825255843,-8.447321250915632,-38.99995223589046,-27.049538409259945
61.0,11.88702730094409,-40.08122255910867,-51.96824986005154,14.096067135663219,31.942853629089683,-46.009841571270826,15.220683960803049,40.85471736658053,43.217816358529454,35.53156562651568,-20.028426522626706,-36.30059979704197
62.0,22.807337815508042,-2.9911399205751437,-25.798477736082916,-9.907889028839794,24.314521439134158,-14.374407851863381,-12.500705885948936,14.395223539708395,19.378266002670877,29.1926669095853,5.444586607772747,9.953851648369007
63.0,-20.917205308423135,-4.8933206302356,16.02388467818659,12.909990127453625,-18.53727153379988,5.5133910259570555,-30.244109353468193,-31.14769148440557,-12.783649527016522,14.274475192082589,15.460832502705834,7.859812714120976
64.0,-10.179061578437041,31.927715757300994,42.10677733573671,-10.862992614224291,-26.12718939558545,37.05017762542172,-9.90315436904259,-32.506127021386945,-20.253977224761996,15.100999411920071,48.041399509937335,31.73781434219425
65.0,-9.689890701400923,-0.014339052662916352,9.675551648736961,4.792054204860585,-9.661337146594331,4.789423341530092,36.07825451088533,9.272627800741262,-0.1174602522118402,-33.56830660522557,-18.915094201213584,-10.107640475079632
66.0,1.1909196242148186,-14.689303463266214,-15.880223087481196,6.7747408516549665,8.562933289784787,-15.244551109594497,41.6263664987852,22.32993616833657,1.3818892670909992,-41.06882597793443,-27.719967545645208,-20.1543142275838
67.0,2.8447704999004446,-0.6740287248316097,-3.5187992247314845,-1.054506645514269,3.1351426631682933,-2.1343937903339447,1.884717661513875,-7.937189232090454,-18.41986713703057,-24.481770861500962,-4.067238816632781,-7.5532190544510325
68.0,-1.2461653385526081,4.1566451411726915,5.402810479726158,-1.4214484421411149,-3.28995916633208,4.819139875995701,-34.053858537779305,-9.76879944386086,2.160015880671536,37.45574420549772,45.045625063761285,19.93868021767002
69.0,18.991312289427587,2.741417693026469,-16.249894596400374,-10.911301005281334,17.576238476377533,-6.717821246755509,-7.015191953632973,24.313616357499036,25.8880497316755,37.22345624963887,-11.508996045249072,-0.4618231144699223
70.0,1.08421582216332,-21.95629323169692,-23.04050905386009,10.388326278639788,12.094845152851981,-22.544949324700763,11.17996661111977,11.353816869315235,2.694381818035394,-15.259319411161163,-35.85751302068932,-0.4105879981644187
71.0,-11.81266203244705,-2.5596931620463357,9.252968870400373,7.212615313647605,-10.581067252351348,3.2953963854141275,-2.544288284305778,-13.922289211012092,-0.9171815767611773,-0.14513400240161461,-9.863815021524022,-12.896254912129839
72.0,6.134946776304703,12.8292915700294,6.694344793724204,-9.460370392578767,-0.24928903170880634,9.785324402192755,-15.745907370719074,3.23424871865112,18.929644128395257,25.476879499633476,19.701854670475228,-4.343327018337826
73.0,9.114218861985552,11.030639162604409,1.9164203006185367,-10.053498253974672,3.6325972555999186,6.495061299931088,-0.17387466075467728,4.120591683583351,1.5753888848486879,-11.619906400802526,10.717300585651039,1.3647919473399213
74.0,-10.907627509166144,9.186530062196585,20.094157571362636,0.8012533415288194,-15.539021278362304,14.662845233343933,11.646950324688854,-15.168542487125436,-31.688798982609544,-36.00084530619843,2.998761544133915,13.76249403422025
75.0,-16.734494134638396,6.1896690239000804,22.924163158538637,5.296119536980486,-19.77942149502006,14.583285301723883,8.811211972477153,-20.47596252957359,-33.455705491287574,-23.62003303010394,-9.200194693070598,5.8768774134968105
76.0,-6.012102439791342,-4.794385032706816,1.217717407084765,5.433939146752218,-3.634626082994151,-1.8350605427583138,-1.8036623171095165,-2.8415408676406235,-3.003770491777532,0.4752973208505047,-9.380561757679724,-11.42054300425402
77.0,9.732597322583565,-7.189461249348476,-16.922058571931874,-1.2333925382294,13.313616109502028,-12.096812800057865,-1.3311580992256111,9.53544477185355,17.96976429958309,28.486353165875425,1.044090945086504,-3.609952473953178
78.0,5.980258714444637,-9.875654017365497,-15.855912731810022,1.9122513237215468,10.904887698803298,-12.824177122519098,-4.865975273575104,11.208684607499297,22.074434039236014,14.668027348786893,3.6283786152844604,-0.9154610262738783
79.0,2.152492607027514,-13.62956104557957,-15.782053652607118,5.703512678824428,8.948183999531514,-14.663337887488536,-3.9766318573791235,13.016046079780807,20.257139416583907,9.020869500001226,9.924830317299003,-2.469167460361988
80.0,17.867469815448896,1.0602919751085809,-16.807177840340483,-9.503947520785175,17.38557658827822,-7.912396756953064,-1.494738338744567,9.202256559217247,14.612955344779886,27.395073929239697,20.00259325059703,18.99783687646652
81.0,5.640561492166911,12.050913038633126,6.410351546466013,-8.81625951450951,-0.4298887212962752,9.185876541399752,4.202756686699223,-2.6287358541262926,-5.709165338692713,3.2915856000401833,10.113087740792386,16.108051075722106
82.0,-8.65965712061907,5.559499200177667,14.21915632079659,1.5691318396334433,-11.41999652104257,9.915618518407872,6.832530179457263,-8.659071041161432,-25.345873541587416,-30.214059328077667,-17.718294291722238,-3.6774459385207328
83.0,-24.073152608545566,-9.83278041061592,14.240372197929572,16.963778122250233,-19.148438603215915,2.2221799458724245,1.9192478785084206,-12.815935910024816,-23.275465880664086,-45.25052396618949,-40.33177334160285,-32.9497049872032
84.0,-0.6787233519598797,9.104716057404689,9.783439409364547,-4.205676161491851,-5.228479750109194,9.455968302016194,-1.1861111623199947,-6.216918118619931,-10.584296737754007,-13.10652777258231,-8.189472045884095,-19.430359984364983
85.0,-8.473410292602438,8.17082190949784,16.64423220210031,0.16077132999163862,-12.556047075074467,12.415393552044849,-10.329466574673788,0.6251622097472094,10.417493034061486,15.236816009204244,15.260606121740992,3.2494428192367106
86.0,9.301520620535427,4.805422444686107,-4.496098175849246,-7.037031767312681,6.9065130858224375,0.16133946187447723,-0.2567066851665034,7.563826179642707,12.642709392559487,22.92891587406889,18.327372312477795,20.8767954461904
87.0,14.088205966194526,-11.024732439821346,-25.11293840601581,-1.584266558206774,19.615572245204266,-18.139358692077483,0.7700423270526398,0.8163173537388708,6.586129558288219,11.507444726216555,3.806074020541036,12.612669363862283
88.0,10.45806134054393,-7.934782050938748,-18.392843391482675,-1.3038218706671463,14.36852073953851,-13.15153934601227,1.1281584572525336,3.7340632781595446,4.240604438348681,-1.0118970095920297,2.1636134616642426,12.437459667702283
89.0,-9.799796927342003,-3.8440223815465027,5.955774545795457,6.867575173036809,-7.852013017532255,1.0743891327164512,13.537877534984407,6.307359624739366,8.496297101206368,8.809667205276313,1.7118420128581886,-2.6170172380840793
90.0,8.426444481127717,8.105257360525716,-0.32118712060203225,-8.213469316411151,4.399475317048353,3.9183891079571924,-1.958173003256606,-2.4838929992221206,-0.8566017519718758,6.357942939331886,-3.0841746129173164,-8.53822026547179
91.0,-3.7987483173772083,2.8581649335428496,6.656913250920058,0.4477440961151796,-5.284806393931177,4.792197438443763,-15.087349373732147,-5.895404862217936,-6.68425793386125,-5.538417289661184,-6.168624698224626,-14.707836778156175
92.0,-20.16010760691358,-2.236668622705255,17.923438984208317,11.176802181289084,-19.02601974308095,7.806459059458144,-2.575278913654877,0.05713550361951558,-5.784223826839825,-9.710981086144418,2.7525627884347337,-8.855758977002807
93.0,-8.89348525026905,-4.7460489744134495,4.147436275855595,6.796916337205515,-6.510475563212379,-0.3317483927335294,10.979022867229975,-1.8944501333192263,-3.6109034916987923,-14.33954447801942,-0.3831331805654479,1.2425643146804939
94.0,-0.18982929681380867,-10.118997839839466,-9.929168543025657,5.129260553174426,4.876416605624384,-10.055544971524807,2.391187224173624,-2.569480061943983,-8.781466075842634,-9.298262822792854,-7.58340118796683,4.933882466877894
95.0,24.84893693928906,18.317150759393527,-6.5317861798956045,-21.531400016532384,15.697717220841648,5.937679276055127,-0.09846429928300582,7.419420214127125,8.692723119389644,10.125194080265048,-0.56844646897662,19.1184600351873
96.0,16.74890295098985,3.703069202165363,-13.045833748824595,-10.17496195489575,14.90903331038372,-4.630861955819121,-5.109904868356699,0.4953601931079312,5.15627613230083,5.2836672094291295,5.084547501055813,5.710474628891954
97.0,1.199027880059523,1.9199754036671437,0.7209475236075473,-1.5863753102123415,0.2571744916269143,1.2769815419875241,-5.59328495517953,-1.275336749926348,-1.7181914569032042,2.9443670801792683,3.536737367058999,-6.739376715990612
98.0,-18.63076066204131,3.471994156050779,22.10275481809213,7.554196321553957,-20.42104906050148,12.817887252335435,-0.8149381215801579,-1.1529256578146818,1.000592354561261,7.3831624741948225,3.4649821273076484,-7.611221450963679
99.0,-22.251077122722084,-15.87998579923294,6.3710913234892885,19.0419903323221,-14.282582626919115,-4.806040097624166,5.397373395865167,-6.288471818657614,-1.8424117986007302,0.3348730161793023,-9.99430059208818,-15.67650312728086
100.0,9.296366280374325,-1.2577152733828916,-10.554081553756987,-4.041804936438682,9.875600115514498,-5.880170409510619,14.280174690830215,5.353667769447123,4.373411896702659,2.157291996919649,2.821248630760626,4.851063391461244
101.0,5.682200450205192,-4.975577928183078,-10.657778378388045,-0.29660701928455957,8.196560548724067,-7.790311373467261,-2.095091142680219,4.167484535739357,3.4084789245443923,-9.130926416894402,4.41061648044658,8.188215829240296
102.0,-1.562379926310749,-4.911477420831913,-3.3490974945210246,3.2148402084727103,0.9156194727242655,-4.180233067792006,-11.88515279761608,-8.774355343986379,-12.066944072804423,-11.884634309947108,-5.083771334043094,7.20443210567587
103.0,6.003732317843872,17.55113535921566,11.547403041371673,-11.721395462672325,-2.7536142725249406,14.581637783843341,-1.0396888860126001,9.737062838898858,5.159852284069891,11.23121451685017,8.173300330770498,7.06155975543648
104.0,12.14729590610315,-3.625983930057454,-15.773279836160917,-4.285109782241741,13.89794282046477,-9.663523130146213,-4.548445252263994,-2.0576995434597283,-1.8234819443755792,1.533420951105453,-9.740480382851104,-19.84867430564419
105.0,-3.2018950447150925,-0.7430402490444181,2.458854795670325,1.94445344884344,-2.812240937722156,0.8182287310706801,4.732994554707083,-0.5761526312682238,1.9010521082557925,-2.013108932103901,-2.5623057194939616,-5.80748927928513
106.0,-20.331388414418598,5.8170896248060275,26.14847803922438,7.223432786741572,-23.216221354194534,15.944695986874343,12.419770228290169,-2.191308809634396,-2.0253515437414373,-2.9814586091488335,0.7841752579539665,8.171786109328115
107.0,-1.3766859547629569,3.2326813936517502,4.609367348414729,-0.8903581897936403,-2.9607843613144844,3.9619277029739997,-15.191008862210527,-7.092711206342045,-3.281894918839663,-2.1765248880715484,5.153513769081834,2.7741448284541215
108.0,13.851814763432413,4.672364069713111,-9.17945069371913,-9.232331076112304,11.478651407823449,-2.2919162846471273,-7.221175974039628,4.187083059169412,9.769290677536869,8.937252429738047,11.92159480775632,14.113501429641737
109.0,3.6347640972657036,-16.010190611957665,-19.64495470922311,6.131902697924249,11.610912306995832,-17.78774945222537,11.541932757279103,5.184975747749985,-0.08775272174898197,1.7955025013670132,-3.5216840784378913,4.4188030554171345
110.0,-0.7316730743688709,-9.637245130042915,-8.905572055673801,5.202981935977835,4.141049356307908,-9.231783018350493,10.230240641415483,0.7293348112084619,-4.752364541195994,0.18428349798838461,-11.124160674353423,-23.893351323940692
111.0,-0.9361237262557085,12.104393937972802,13.0405176642287,-5.566969417628153,-7.013676861769127,12.533223460768044,0.4792324515099997,-1.0258858380658795,0.42842958532687514,-0.09024240608157652,0.233595793893131,1.904448067386701
112.0,-13.171538971994991,0.29083575488866664,13.46237472688367,6.458963498187078,-13.347847861038067,6.83654301110308,-5.519520799033038,-3.2656359466217486,-0.3827054291496601,-2.8798306899493333,-0.941693466838716,1.2337618799064476
113.0,-3.506610427901048,0.5427044640518601,4.049314891952837,1.5037928393605648,-3.738797272847851,2.3321882567046446,-0.07649370387974397,4.271324486935562,3.867039762310632,-0.6544115620206576,1.7838807480293521,-0.2043001295405622
114.0,17.916147125226516,-0.2292881170279446,-18.145435242254525,-8.896564193263515,17.982118267682647,-9.156036114209396,-7.188121280198718,-1.0699771627908006,-6.112718933382169,-8.114464230157852,0.6078946158981011,1.804360892901814
115.0,-0.043616491401553326,-7.545279104576107,-7.50166261317465,3.7449087393112084,3.752663891761567,-7.578153807933534,-9.16609539871943,-5.4580687287860155,-3.8459544285725817,-3.8523913983672244,-0.9111709080373855,0.34700496117683466
116.0,4.619014495323419,13.88822950239622,9.269215007072631,-9.220782929457387,-2.3029256927993202,11.593821301205516,3.5010727750406105,3.3815755016681397,5.857259073603341,3.6410105807968445,3.9014163499228367,8.166420041210896
117.0,-4.410392887042914,8.598396279383433,13.008789166426098,-2.056544245111036,-8.683182744610617,10.80945365517824,8.960429348564576,1.3766577512237057,4.285383833184338,5.222604095511796,2.1114645513108905,1.3861648588498579
118.0,-14.821883654069431,-12.752176193008246,2.069707461060995,13.752311826094731,-8.489401311355998,-5.342924782662658,1.0401407715361488,-5.468846368390427,-1.4484746126110828,13.828027800072967,-4.6379937926509065,-15.40339914901541
119.0,-3.5009392106864743,-13.266858214368035,-9.765919003681532,8.436611163811797,3.1781154699453467,-11.521895669940916,5.895604869511204,2.931022031777312,-4.333003867766349,3.3703639353936454,-7.452937975520847,-3.210120613508101
120.0,10.076129645350434,4.269569147184897,-5.806560498165388,-7.189189983267835,7.917099997285831,-0.7724814129887143,0.05573783478749439,6.618824242956776,1.230991024386312,-25.818860645853416,13.725100243914426,12.575459657648802
121.0,2.0982275166547613,0.7936715414815347,-1.304555975172999,-1.4537001255843922,1.6816952516621937,-0.2519308697680913,-4.993849974022926,-4.090649285993636,-1.0624520324947577,-4.0200149466666755,0.9980379560872432,6.880862328862021
122.0,11.26610545589482,1.0633446604010088,-10.20276079549366,-6.167402659926033,10.713823693988976,-4.553414614699638,-7.992882329782415,-1.5590255286909582,1.1272345397866963,22.87738714765098,-5.796631897708408,-2.5052459070884843
123.0,-5.647353020986171,15.402425688904463,21.049778709890756,-4.88038535528041,-13.374751552338981,18.258407307935045,5.7989526662379145,0.9071570707407597,8.946409233966897,8.572946405272653,0.009769067366910633,1.8848869820454475
124.0,-7.312785477736621,-3.647487978063424,3.6652974996731906,5.471621601765469,-5.4444811492709455,-0.021297626174588302,0.3721495485295088,-5.0795692602899,-10.140265335416403,-16.24921916404806,-4.623615659448385,-13.286795585714128
125.0,1.5994140822464669,2.508056070091012,0.9086419878443834,-2.0718943433088968,0.3821067799507927,1.691511791600754,-2.2745818692718167,4.285481937971749,-2.897748495470292,-9.524476342423586,-1.4728596723648584,-8.462961607617585
126.0,7.195083951467161,-2.8031505203860334,-9.998234471853468,-2.2248526129164334,8.627563548323474,-6.409307606766084,-4.838501461708236,2.641490182406823,1.2308763506413434,-3.3121048490301694,-1.1372042973517704,5.881385312753571
127.0,-11.55173594360329,-12.34520856465698,-0.7934726210538647,11.989788864538268,-5.430166973347846,-6.575647114400555,8.991428993373589,1.2167737267778587,10.1981905960934,10.87246211755726,12.944279693885141,12.436730551820688
128.0,-2.5286038562034254,-5.6313419275322705,-3.1027380713287833,4.11725826063871,0.23502238839408018,-4.376158638613232,5.610137702709232,1.0174835297906337,-0.2199204740145415,3.58351539586677,1.074684130575677,3.3627705015918608
129.0,4.668215399431498,2.5646436502912975,-2.1035717491399195,-3.5782217901468596,3.412861008959652,0.2940999817253398,-6.113117636581807,-5.168916966551342,-10.145142116363859,-2.6192105889078716,-4.6822503295284985,-4.479976457407024
130.0,7.425844054872023,6.504231400166787,-0.9216126547049043,-7.001273461877436,4.201339623583872,2.7689931761130637,-7.909111728187569,-3.2019394677863438,-1.3752135143168545,3.0735860177403076,-3.588572887082049,-3.614607494272682
131.0,-4.732537976819193,7.124196195545517,11.856734172364932,-1.2270751302119063,-8.266688399461977,9.461845110275897,7.4589991140124665,-0.5244583487169283,2.313083256087846,-4.687216719233486,-5.466781969427898,-5.482450299363962
132.0,-1.0224032634445768,7.139169504376812,8.161572767821417,-3.086414387606762,-4.643205814797545,7.696298705214689,-2.6721795811247224,2.9310937219471214,5.507733944895177,11.34969589809931,8.615016660374721,10.717215569833307
133.0,11.446299201324004,-6.153872723015104,-17.600171924339264,-2.6739420088160495,14.549495457506342,-11.911317038612848,-1.4048115293552206,0.10916571540270192,-5.8963982961720065,-5.5329121345990515,-8.318845306200167,-7.230624517596453
134.0,-14.69726424042491,-11.881335065424969,2.815929174999672,13.338099312926715,-8.810881955333251,-4.565683933516478,7.202158006168464,3.104291288712736,4.469901733311181,-9.70639261965363,2.571679954834054,-2.271881186297017
135.0,-3.3942434815649394,1.5457919847777477,4.94003546634235,0.9695337474103383,-4.144316847472258,3.29229368909518,-2.8343978968951706,2.214704027105288,3.348635732659487,3.7084650169530686,8.11445261524907,7.650201972889367
136.0,5.17988379480037,3.9634737115114946,-1.2164100832891651,-4.608750448345166,3.2201187163179474,1.3489881643657666,-1.9264688430885586,-2.306649342830781,-1.5921700389867441,2.76677896587547,-0.9492598183335348,-3.0190357280168207
137.0,9.308988661200942,-0.4221765723991875,-9.731165233600183,-4.405153639910161,9.54211582373415,-5.018084710168341,1.25023346782711,0.890479779957283,-3.752233814909931,-4.116370937742005,-4.530045568386914,-1.647335996802835
138.0,2.7714366020765224,6.622312894488628,3.850876292412365,-4.7410615214127,-0.5172851350550944,5.2184158264825165,-1.6162741480836922,-1.5431229294224047,-0.6571873431397899,0.9985993485811714,2.5716301031534536,3.6424445187805743
139.0,-7.591193037746688,-5.0555516604744,2.5356413772727477,6.353228136452371,-5.119992880916215,-1.2801184394306073,-0.5076149419565971,-5.949541650977467,-3.341307735642345,-4.09150100834131,-1.0547174195453657,-2.030034505747122
140.0,-8.504564656047322,-2.9735074933231305,5.531057162724649,5.684057133953223,-6.997192970556944,1.252258556326949,-3.3388788419515167,0.3823507949285143,-0.4405330425353198,4.80757568844974,-2.8346914902999156,-2.3648737393474044
141.0,-2.3450965382695363,-0.20489603927169164,2.1402004989980536,1.291790960724334,-2.303215058112729,0.9316673242993776,-0.13829534042541214,2.3593496793262916,5.665292679720576,7.0551480306914485,-1.0044370768931474,-2.1999729915819692
142.0,7.364230196268709,5.90875125202427,-1.4554789442444735,-6.626256784790408,4.4263753525866365,2.2594564960567207,8.96250832741593,6.471708402405022,5.843891699984067,7.197267530919859,3.6250611177529297,5.3661478927158655
143.0,3.8656642637291108,3.0621357754833465,-0.8035284882460172,-3.4581541996564837,2.3525174364807366,1.1546996163562337,2.151034584439154,1.9765665320898766,2.9112235913129076,-1.9186380735614241,2.944972588241936,4.758499228251731
144.0,-4.266906148865367,-13.785681390265019,-9.51877524139996,9.030964129669648,2.65012351254414,-11.62971430937403,-4.202044522271137,-6.669906020559404,-11.776044570626084,-14.90561301662042,-3.0359348810906255,-3.335150355915628
145.0,12.020208812586436,5.0220902683046615,-6.99811854428199,-8.513650381576637,9.544718798040192,-0.9637260941529981,-1.8738830915027436,-1.1672520526193106,-3.373283800225315,-10.033364890982453,-2.90469667483762,-2.8628446926270064
146.0,0.832509342040403,8.247844116216331,7.415334774175843,-4.526472482188105,-3.3199379839724377,7.7817321433956534,0.9147048511431239,0.6421543840610116,0.5833151475226543,2.6187428064637235,-0.6421012177412535,-4.067406207388939
147.0,-13.515812966643907,-3.461555965921037,10.054257000722862,8.431893455315512,-11.79896192322297,3.3298018929852065,-4.702994755268456,-0.5020464202250368,5.348692573028789,9.779519024946639,1.1914372317116229,-0.11463251426669152
148.0,-12.387656154183732,-4.6619336596917655,7.725722494492032,8.555404285252786,-10.059909780277982,1.4885308527447192,3.857692042642564,1.1885341833516665,4.6601617359706085,10.652183180913571,3.294209324171474,5.346168205061207
149.0,6.553417170051687,1.9777796472955327,-4.575637522756084,-4.227407222820183,5.565171167971334,-1.3441082870416652,-2.5237921592492607,1.543436244687253,-1.5484838112112453,4.5303034076382955,5.966835953938471,4.7529700412958
150.0,12.254982022815135,-0.6219499188343749,-12.876931941649445,-5.85141720290162,12.562538381831935,-6.720705630547931,-5.410772900889052,-3.7210415409591833,-6.4092705185853385,-9.776260816535673,-5.039797925796645,-2.383918267810986
151.0,1.345825273422383,2.6372770312445666,1.2914517578222497,-2.0227293228435106,0.012928443727758143,1.987327953993577,7.2690677717413354,1.8621762649039502,5.140678295326547,-6.130298050427141,-0.16256818241269966,-1.4438116973935768
152.0,6.939203860486524,-8.128589114648916,-15.067792975135417,0.5660702535603979,10.974650451347017,-11.579613098705462,1.5972459755595065,0.47178636850537115,-5.044042535001498,-8.06931536272272,-11.91913563986857,-9.431338705191186
153.0,-11.647303908909127,7.105505783946331,18.75280969285543,2.323480797606402,-15.164578542475162,12.94621263469201,0.301392117133906,1.2225447329250598,1.7851336131957622,4.998872384679112,4.681431191788227,4.586600811749511
154.0,-5.131470331928156,5.198061224277336,10.329531556205408,0.022242763614293004,-7.705793812428254,7.782340553948364,5.172430869510243,4.574091717967249,3.9122152401757093,4.633217421095001,6.539713260667983,4.3125168081687795
155.0,-1.527461643896967,-1.2570937875535653,0.2703678563433334,1.3720834510173519,-0.8794076416937209,-0.549945716850714,-1.7681934424417791,-5.325755031218566,-3.068534489414441,-1.4915525693172293,-1.9243732597351992,-1.5735688920194244
156.0,1.9827409543931211,-3.0868834910612515,-5.069624445454391,0.5335242067934316,3.545963361315608,-4.130226312939071,-5.777685392852033,-2.8927176096025424,1.6028614745771483,7.353448573662418,2.875894934228106,0.33775696489547874
157.0,4.199888996403739,-5.755591165069419,-9.955480161473169,0.7579028169134123,7.022798681949697,-7.823934721167603,-2.4460121866889226,-0.067058792825482,-0.7192951441224583,7.996761644575987,2.0360930908005654,4.542912683204263
158.0,4.829936092064322,4.1462418276746575,-0.683694264389648,-4.513417363906049,2.707655388558091,1.7676138847036365,1.2569756814934654,3.6722711441270532,1.8659379126238598,-2.270626741437746,3.6702688373807693,7.972520913526632
159.0,2.3423186371170495,-1.683257969359294,-4.025576606476361,-0.2849859293720163,3.2192898853091214,-2.8135926419140693,-1.9056018300891386,0.35268188036942805,-2.9797824199155363,-14.08534774150816,-7.644323734196146,-10.310466656684639
160.0,-3.665505326198196,-3.5257428073470716,0.1397625188511018,3.5509415443248864,-1.8620684878773446,-1.727079177251128,-2.0130045763742412,-5.132474940359065,-5.525384475384133,-14.210336152793182,-10.66788645076111,-17.88762196430046
161.0,-7.489941003820458,6.075446791950418,13.565387795770866,0.7319332067449869,-10.56078722735611,9.788914920144123,9.422544440691219,2.840559229672083,3.7873842748577533,9.586584014341192,3.483480706438585,7.635720291345791
162.0,-5.081175410370264,2.3352904519146422,7.416465862284933,1.3918946268689347,-6.2762849981022075,4.845215840656493,-0.8961841128411248,0.9189274160847559,5.136542072297554,7.021894978482086,5.645312314456417,5.141068143480261
163.0,9.309848066745383,1.849276341808649,-7.46057172493666,-5.561173751283439,8.443291722885434,-2.758605136812388,2.0655033848447433,3.867863850106208,3.2745028376544822,5.3547499624455135,4.216740707132934,7.0795962701038775
164.0,-2.7588947323714206,-4.022143537677524,-1.2632488053060444,3.3347476294245895,-0.760707653479685,-2.5983896934488344,-4.668809203385402,-5.400953543424067,-6.504380377740354,4.999431446433064,1.2029325138126938,-0.5234250327229555
165.0,3.0695099004575304,-1.6410752184150126,-4.710585118872478,-0.6830417715104136,3.884902093415336,-3.214360020763065,-2.6368089933286303,0.09865660903599216,0.9233400412852606,-0.2673328097027263,0.47295742405372554,3.0394582534900905
166.0,7.404440188531887,1.912442926535331,-5.491997261996543,-4.618058064652908,6.449046642754052,-1.8333634867599935,4.383019977451195,4.709197807059812,2.6757020953686883,-6.493542309607559,-1.1773702469719034,2.3370956451754896
167.0,9.37172729133727,5.295222608322088,-4.0765046830152,-7.364459594522761,6.7272693949049085,0.6389360949949507,-0.08968807588628203,2.6764915164335545,-2.3889462835195654,-8.264685370573801,-7.750022205234683,-3.87356851827626
168.0,-16.362031414234245,-8.269708643484346,8.092322770749803,12.288305943112439,-12.226699025668744,-0.06471922504876015,-8.190081224895435,-8.350743935337052,-4.461585339512333,-0.9733202080695875,-2.016813716344421,-14.151056934710464
169.0,-17.15208854721503,-13.358833464663096,3.793255082551852,15.226693022256459,-10.480078563974857,-4.763906599273332,0.6077656357774814,-5.17245893487705,-7.525281869582635,-2.9357031677559404,-1.2225303233900067,-6.51481504691175
170.0,-6.3925552756532875,1.7529971089088745,8.145552384562146,2.364974255886189,-7.288304844191687,4.885332990609342,8.223047644473711,5.876819094426901,9.583636598784917,7.176956259657683,8.691269934635557,5.635428717047003
171.0,19.170095293458175,24.124414244344518,4.954318950886355,-21.68691932734259,7.075363837337566,14.551619540325664,5.2867297580472155,4.790194741254277,8.724806324784021,10.393429333284733,8.867934205983248,13.919655271431994
172.0,19.52862753634726,14.783008117912555,-4.745619418434725,-17.121703227428476,12.171719328077556,5.030391047244248,0.24299443005334842,2.0399081380041646,4.59053888421721,4.37718157129936,1.3257512077178086,13.554274956330486
173.0,1.1367221137010404,-29.95864933988551,-31.095371453586637,14.442841565146,16.143164899156837,-30.513578396711843,-16.97297030443571,-13.981955431663872,-15.655515173552203,-18.566133045035414,-22.357892780148852,-15.90279671951274
174.0,-12.351082890093085,-4.364991375391304,7.986091514701682,8.39055159675249,-10.143842360688847,1.8278767319867324,4.883487164264209,7.849543920604793,1.2870249496738975,2.128181734697142,3.1508394486092133,2.5885212174412846
175.0,-9.814289688892785,9.288093331958848,19.10238302085164,0.2192598146919824,-14.431781771608605,14.139182934563342,8.061791398199395,8.889562065493777,6.046022372548453,7.5446323068964665,8.4683704272799,1.9041229599488885
176.0,-5.070703033852035,-1.7316961199663365,3.339006913885868,3.360039036559631,-4.253230736943421,0.8320232692078946,0.05797153653276954,-4.291426878635865,-1.5807261131809527,2.4659311788328706,2.700546651838516,-10.617760779192949
177.0,4.990962147032468,-4.172602607506735,-9.163564754538926,-0.44822783330068816,7.0325655138530045,-6.635162248464331,-6.716785183870611,-5.371459852913222,-4.820049466061863,-2.304899839501122,-4.1755701807553205,-10.771729013143089
178.0,4.744819403076633,1.1441889621418426,-3.60063044093456,-2.903017099200443,4.130611271261888,-1.2719848657780797,2.1904482532367546,-4.1011615483285695,-2.6857314373171333,-11.295803200962004,-7.90275200247611,0.5816277757001527
179.0,2.8909487453696614,11.219828774629256,8.32888002925964,-7.0115017894347496,-2.6802498048567904,9.807961285544765,-1.8371710828663859,4.326794857936438,1.4206671965420112,-6.745967207266191,7.142208207821223,14.55025975911671
180.0,2.38086682817141,7.471636834900754,5.090770006729215,-4.957341025143821,-1.3132411686851295,6.2310366503954535,-4.914668937499831,5.431178593716,6.467624611256188,9.031736461785156,15.03214322928754,14.274451071110109
181.0,-1.723808123511425,-7.942565084050633,-6.218756960539412,4.88582587919356,2.2940909895968744,-7.060023051402995,8.725288939150847,-2.3050734203545393,4.7890093782321745,16.54836189877522,0.8622665796158788,1.715197850646712
182.0,-0.9872454646925222,-13.028300579981059,-12.041055115288739,6.986638080002044,5.501225175562056,-12.52337376203677,7.464389031931939,-1.340000887328249,-3.3846381874962446,1.2780769112260675,-9.378786434416755,-7.874508067266621
183.0,-7.088047635071533,-5.93875007477341,1.1492975602980184,6.495581644772354,-4.138099544654278,-2.3921785944286746,-6.47762634833858,-5.667717589516538,-6.461568999975424,-8.908221152061444,-22.042309013508923,-20.329873944653247
184.0,-0.5929593009753051,1.6418144836421198,2.23477378461739,-0.5417440271068372,-1.4295408579012137,1.9345794194598096,-1.6902303564265138,2.1458253206081217,-0.6080475569019326,-6.887204010000858,-2.0677543595168153,1.4322740637405715
185.0,-2.3475082371833946,8.507858192696812,10.855366429880226,-3.09971777242123,-6.6175878433237605,9.675573516536302,0.7075165138205315,5.713845968023759,6.444165569771933,1.4168413061674947,15.107213291970282,10.10134797911863
186.0,11.133207848249937,11.085095035707202,-0.048112812542683514,-11.132212449442518,5.569409118974187,5.514747356582165,-5.949612731930579,0.9451184736320828,-0.5491579560306363,-2.0738801570968897,8.5395215527271,8.366860123222116
187.0,5.467695589368602,-1.8206196288724055,-7.288315218240897,-1.7705513987167114,6.426797221969706,-4.551543759057404,2.0202186295727214,2.686464373701564,-0.31103251193577636,0.5653397646860775,4.699380053570076,-6.165026297177787
188.0,-1.0715700795704075,0.5939921631555174,1.6655622427260108,0.29156837485267606,-1.3301386116626852,1.1425359608019399,2.454163332361047,-1.153943903407294,-2.2246666665352635,5.258366101246468,-0.3403164953535458,-6.957573020282995
189.0,-7.381461354692647,-1.5171872154371944,5.8642741392554605,4.4260006195554045,-6.672978371794401,2.197308342027758,0.5221704265424489,-9.58962289728383,-3.142263991463414,0.2672085385880405,-1.8703286518772084,3.8227181642671906
190.0,-7.415865377539755,-13.920509591553147,-6.50464421401346,10.649244935641816,-0.4341257928181377,-10.257747473240627,-0.2119795276084393,-4.476537488863013,-4.741002984988317,-6.588308048822905,-15.132970755667596,-4.978481146471109
191.0,8.300730987631155,5.430194136765234,-2.8705368508661016,-6.880264445335704,5.525494901954505,1.3199454426439847,0.03590503769737341,5.883406521184895,9.042028793016517,4.501670891981583,0.14348721359442695,11.285805156548143
192.0,-5.020842732825907,-3.1606689638798553,1.8601737689458395,4.0779972319932805,-3.419472603281706,-0.6867676202443933,-4.253055874672887,-0.1528098334046768,-0.7667790775596699,-1.2451097348674662,5.829558537282956,4.499214206169851
193.0,3.463021398780701,7.293600035303668,3.830578636522857,-5.392100940944449,-0.15498927814014868,5.523446477104079,2.642467992102282,7.735174082164007,4.7617495542610415,4.085513013475337,7.276563196086,-1.6982151084378057
194.0,-3.265807349717603,1.8429681681573462,5.108775517874955,0.7724138238911311,-4.146731848020865,3.511054096424581,7.7252535652897,5.014758276797865,3.8131737798580128,5.465948031400548,3.890145922282174,-3.3388298145890687
195.0,-0.2155959480910815,1.7337587249629096,1.9493546730540592,-0.7827116801347618,-1.1075285634822143,1.8711148422587238,-0.1332033888080777,-3.97097216188669,-3.393880535478297,0.20406660549856492,-7.091563892210905,-3.690828636675679
196.0,12.296206859777211,-12.286242501903516,-24.58244936168064,-0.03493785163576535,18.425410838127462,-18.409120995009815,-6.458970515917005,-7.337047378972774,-13.326853672821306,-12.694155420949905,-14.699433253095444,-18.693890955342766
197.0,-7.104630157992924,-3.393277317724165,3.711352840268864,5.292416869561533,-5.415760803650717,0.10377116096434236,-0.1553161326860346,-4.0820899576819265,-0.38945677236200016,-4.588090041344863,2.7040898103219915,7.475445386281173
198.0,-6.704616653546099,10.619473093680515,17.324089747226637,-1.9959836190016054,-12.022456770986121,13.996578321413205,-3.7672621969182454,0.2777904553072843,4.052131034469783,6.335206591178384,12.500559929714218,13.464768861753402
199.0,4.174051750959652,2.4403458949643957,-1.7337058559952805,-3.2677863908883804,2.9395664641212784,0.3035279629705929,-7.147561424682035,-0.9503132051910401,1.3230867917110363,-7.894895199984181,-4.591959074132952,-0.6021545506756993
