Time(ms),I,II,III,aVR,aVL,aVF,V1,V2,V3,V4,V5,V6
-200.0,-3.801532304338313,3.3561384979559934,7.15767080229428,0.260949553086328,-5.434996996702181,5.295009230863764,5.169636880739527,2.5431560913599074,-0.8355888180005893,4.226555253027016,6.984121330838748,4.188613722139538
-199.0,-4.533304194534891,0.8040020839339603,5.337306278468803,1.8187684977642418,-4.955825124616084,3.1184587864337647,-2.9044895330292437,-3.5623058325928803,0.07280571159061011,-1.8159749065404642,7.730663980180591,-2.851557963341519
-198.0,-8.665536229451838,-6.1829985111907435,2.482537718261024,7.450660462211456,-5.583600147630056,-1.8746142846516467,-6.3949843561135316,-7.511613582152313,-0.3100871819768362,-4.722540710027755,-8.019846576584104,-2.651127514223969
-197.0,1.3352123792426682,0.15761621382770796,-1.1775961654149905,-0.7264619687634224,1.252530186728238,-0.5328656089144024,1.5956249158601215,0.6605386396572683,2.494510219865006,-0.9260755593581784,-7.74401795787588,3.0841415901227776
-196.0,0.8795238160960723,4.035177487652744,3.155653671556674,-2.442901048539286,-1.1430253372004209,3.5685054615260894,9.057667531410178,2.5941942417250785,2.2663431052529153,5.7161660348541385,8.208997182748234,4.057407698469826
-195.0,2.429788497255241,-1.1354277970476305,-3.5652162943028283,-0.6367777262528427,2.9848244909236255,-2.3853804485069228,-2.4356964543140736,0.6780401915608014,2.6670845434208963,0.08261115653136009,-5.41236985177509,-6.381163574303143
-194.0,9.512449985067358,6.5921754907659995,-2.9202744943013292,-8.12294380999598,6.191148696965421,1.8703835072410544,-8.379357921843484,0.28717375117256383,-3.1997762217360854,2.6749711669567264,1.7840330624410972,-5.911836552767627
-193.0,3.8461825640156135,-0.41818191346256417,-4.26436447747819,-1.7059875824696316,4.094377359856173,-2.3138013444228567,0.5934393544012093,2.8986224815757633,-5.786209637042649,-10.749295976567392,-5.167220171533007,11.030442208634652
-192.0,-6.89541773841909,-4.996294880849223,1.899122857569831,5.956562253569719,-4.37138596919229,-1.5234326680616301,2.6601066490817646,3.529173586715836,-4.282270444232577,2.735001851867417,5.736389955357288,-0.05751884750681713
-191.0,-8.557401166306091,-15.22854561613614,-6.671144449830095,11.90970019498279,-0.92682839452528,-10.922091619635244,4.623103710542608,-0.2338223778225309,0.34700687064479974,-2.22153551328343,-2.8364484346134224,-5.6494823115812105
-190.0,2.323449424455683,6.014247643889707,3.690798219433983,-4.142872693540871,-0.7508138156283581,4.8072244926432806,1.527640371083827,-6.215404674664804,1.1226297121331033,0.8442768063734516,2.034256517936063,1.7399906085047594
-189.0,1.3289031861669007,13.091408776892695,11.762505590725796,-7.251562579196932,-5.204884750545789,12.387461749198756,-4.330053290224301,-6.420428937629637,11.872002367825718,8.147068799238504,4.010152806199334,3.259177873518854
-188.0,2.835695242001433,-1.9794691618312656,-4.815164403832679,-0.37933633851830617,3.8418515122972132,-3.3549675079083254,-5.318457216267525,-3.0590256401370066,-0.14238142070998716,2.0407039640047353,-5.110557035733146,-9.45018281245483
-187.0,1.2513172556041399,1.2844322219614062,0.03311496635726552,-1.2887921714573858,0.6328187732435265,0.6212596647189599,-0.1599624245279747,3.7865211840095143,-6.497812122912545,-5.733273201611233,-1.0231050026986626,0.1515860341024
-186.0,-3.194216401078993,1.7821535582263066,4.976369959305288,0.6897961231549812,-4.132010982348475,3.4154983397467085,1.4213443103796068,9.47843291073534,-1.5532843182546787,-2.3461347859638852,8.82633504433905,11.135124754716816
-185.0,-0.5339454187516091,-9.454778341120655,-8.920832922369051,4.977667299772669,4.232956053981571,-9.237246774444742,4.724482576230438,10.277018671254652,8.719831437331036,4.5111269770899645,-8.27235791000312,-6.7213389652261695
-184.0,2.7897639861195525,-5.421180868021055,-8.210944854140603,1.2942371290564747,5.466161534486197,-6.792745129827378,3.199845765302046,-4.749188878783841,-9.272817664134244,-5.986655484695518,-2.3707290865400603,7.410840370312616
-183.0,-0.47021402442042715,5.850628152020016,6.320842176440451,-2.639880984551173,-3.349389344203461,6.106747900701682,3.8181952347104393,-7.246286628006021,1.116802840989692,1.9161217156475123,2.4430854299271356,-3.806549502980164
-182.0,-3.068865744975009,0.1326109574821288,3.2014767024571515,1.4332047552406988,-3.169891218369166,1.691092208018668,-0.7961835712383135,-4.526065806202589,1.881386902120477,2.4693524374657994,2.5277399982069686,-6.6826458622598395
-181.0,0.06148514611305744,8.880309252100808,8.81882410598776,-4.43100814937176,-4.4185628654645965,8.80321592129756,-5.61087114673194,-3.014532856764697,-0.1715878299962974,0.8523978254890554,0.7859034129998621,4.369672886378368
-180.0,9.00835154674952,0.4348884917966078,-8.573463054952922,-4.682244887119419,8.822793964431401,-4.024906961684464,-10.358703075244433,-1.6418256251218593,-2.260444628615957,-2.0042263561972415,-0.7767383505609015,1.430076569439647
-179.0,-0.13730789951178135,2.178432633567758,2.3157405330795813,-1.0574999803752139,-1.2019665962941875,2.225567681273027,-4.243522514670941,4.913442002465125,0.24237957210490413,-1.3114522124438273,-0.4293804076836999,2.2374631571823795
-178.0,-11.60776215318322,-6.492975087333102,5.114787065850226,9.017544529386276,-8.343326434813228,-0.6998230112937229,6.272700930205501,1.198918833809147,-4.0312582686142715,-1.6074782151426399,0.629399630198578,-3.419746281759534
-177.0,-7.592148680357644,-9.158793372066807,-1.5666446917090489,8.347166642658728,-3.000219682998577,-5.366912343998092,7.094370926262189,-0.4071121439000591,-2.5512743736793873,-4.153478425509995,-5.791706635386356,-1.465422245431145
-176.0,5.064012644019927,-9.530038700069309,-14.594051344089152,2.2876842210339743,9.758677482753082,-12.064802645700263,9.491026860821215,5.181511827407145,5.859896416982204,3.4367869072213897,1.5205488189354086,5.612486107544544
-175.0,12.154063872419814,12.135645566135349,-0.01841830628445873,-12.165109799190834,6.091966829744041,6.052813694465011,-2.3306474122569414,6.328913523894374,11.761012141243196,8.450302755783367,2.7713749943121107,0.7155592130593529
-174.0,5.126708234893901,11.20415055535002,6.07744232045603,-8.182198488255068,-0.47021720833000735,8.629180736912863,-7.197559570931398,-1.9140288509367058,4.995552427176088,4.527314564386763,4.7132281543568935,-10.066324241264649
-173.0,-7.205655258779609,-4.503713666482462,2.701941592297009,5.91954130607688,-4.946196327274534,-0.8402690096582122,-1.1623774694193862,-3.4744008150662626,-3.0016864410924047,1.4175405245907817,3.0346182375594477,-7.477606977527664
-172.0,0.3242289883298728,4.078907257254797,3.7546782689247973,-2.2140399133008573,-1.701444331217001,3.8931406682926064,-1.0289851217802752,-4.607134109322416,-6.5812189899136175,-2.6948603053513227,-2.0974525572249503,3.192843851611082
-171.0,1.7793505336292745,-6.987359700236888,-8.76671023386625,2.5903160828953826,5.296569707102315,-7.904345153490764,-0.6490053747713425,-8.147176609008374,-19.643025455328416,-14.733104615603935,-14.223402782654734,8.642796834347719
-170.0,-7.581168750990061,3.8453934222623865,11.426562173252432,1.8494575516976761,-9.547015777416123,7.685595150590289,1.80537663184991,-2.770088923078328,-4.538783804088915,-5.8528260613100604,2.5403088502406153,19.39235651175193
-169.0,-7.591689145140239,-2.947087791876858,4.64460135326344,5.242801525788903,-6.070391074631452,0.8190139024082038,0.5500796675404134,9.03372691027931,13.424156499340583,2.695080523015903,6.179167476320705,-1.021472204157269
-168.0,3.263683743720657,-1.7179584899541924,-4.981642233674728,-0.7308302268658733,4.101422197335705,-3.3797205969784954,-0.5594628422178811,2.901891394651047,6.230033223462513,3.2954961518350614,-2.705903756377861,-12.491781206004422
-167.0,9.144547333317496,-4.169017939556302,-13.31356527287368,-2.53408787794294,11.213228609215214,-8.692752403192097,-2.644693370269966,1.3016283689700021,6.197165453908817,9.051504766409266,3.445154200372797,-10.472322651774558
-166.0,4.639460195918971,4.492460299067262,-0.14699989685164994,-4.539867804406317,2.377791571963696,2.1419832206641285,-1.7132633864206535,-1.6568583974550282,2.1445749517896626,4.7367132525287525,3.970691182499726,-9.730150370970932
-165.0,-0.9182617434809384,3.2794961121792925,4.1977578556602335,-1.1556166027239128,-2.577238084969948,3.707293154340752,7.111041823490989,4.478305638256894,-3.679863737625582,0.12036391337898245,0.11486960454860262,2.210541805360635
-164.0,-6.447028392653259,-3.922440165399244,2.5245882272539957,5.214274223524457,-4.432222148264019,-0.6519166202858511,3.5225216318343593,3.6977137487424567,-5.46001331036016,-5.100361368732672,-4.179805913069419,12.191543498582538
-163.0,-7.366317652024517,-0.968729824238793,6.397587827785688,4.12705299448792,-6.912796390317147,2.761156291731429,0.023600025820778026,-3.7073020081892603,-0.7846394763826421,-0.8130087941890904,-0.4330093998171929,7.804458002282929
-162.0,0.2773186251219064,-0.4035095473274585,-0.6808281724494138,0.03274704307113341,0.5233945691323085,-0.5747973104352004,-2.32711892747371,-6.613947701969055,-0.2352950120749311,-2.064258820193256,-2.1043310538349687,0.0979510966141417
-161.0,8.729493924246308,10.137783132723357,1.4082892084769885,-9.377044701520074,3.62532899566672,5.738886530488518,-2.1588226296111523,-0.8219134659293701,3.7620797631352154,3.2805237271231014,0.3940449667873098,-2.2282146231854245
-160.0,4.297270278725954,-4.557658594062695,-8.854928872788697,0.11147148434923171,6.620836470302585,-6.743166992462904,-4.147882588040849,-2.999574719134108,-0.06842545489100726,-2.3483087789612487,-2.1816414581542185,-2.6441720050566087
-159.0,7.542135776699683,-4.685470327833089,-12.227606104532775,-1.449942435930129,9.852751771075958,-8.418304357201036,-5.80993356652467,-2.947896119438635,-12.36266130462098,-10.01191044670797,-1.277212491558158,-7.691523300516519
-158.0,-3.2233490206462436,6.124462957273994,9.347811977920301,-1.4812627974221577,-6.316712509135558,7.77051776590798,-0.0857091682928035,5.012169274913775,2.6272300730851534,0.5859946957167179,6.510307522797716,-2.7119102976291236
-157.0,-10.630060598132243,-0.734924899702472,9.895135698429876,5.716927782973097,-10.215760254281678,4.611177385329528,5.962199755584368,8.162440199635924,14.62467472519233,15.231896341508017,6.274476014069476,7.33209478453426
-156.0,-11.280531621611471,-4.970773061980659,6.309758559630897,8.144675006618481,-8.829372567840315,0.6196294315641793,3.2101092211120736,1.366904620947654,-2.3473493603208384,0.0405041563001598,2.140955943533632,11.47156350384174
-155.0,-6.269748974509593,-3.9235075057988444,2.3462414687107738,5.101349355835133,-4.3448506952340225,-0.8390680475650711,10.689509490274737,-1.1413500529545202,-8.891775212702093,-10.764769401789218,-11.09321099941416,0.8328563563990476
-154.0,16.49937210144186,-2.0490164536166176,-18.548388555058537,-7.23121319502205,17.564446950539104,-10.268765839611731,-2.048169906084171,-3.3857661850296834,2.49821062993061,1.672509035608389,-2.839559472254141,-19.580370167459474
-153.0,8.237373182182413,0.40763816963124766,-7.829735012551268,-4.334133160282047,8.075213482327488,-3.676710028958438,-6.141167913181889,-0.6891947054727536,3.6829835571448566,4.4239769745931845,-3.2182371320411622,-1.5847821114551284
-152.0,2.7959494052862723,5.267517703791401,2.4715682985050442,-4.043020248032002,0.128479702746227,3.8325027495445503,-2.0854226574919457,-1.6309100808600232,2.1765583939788953,5.61641758762779,3.324986194154938,10.372144345329453
-151.0,0.9573161655299445,18.25124002817454,17.29392386264454,-9.609325295617335,-8.119195199024944,17.823978536311373,-9.598917258997123,-3.889183881043652,-0.2520821855514579,0.26772120770261476,9.100292794812304,6.777200067893275
-150.0,-10.658208924862805,7.686797638814217,18.345006563677043,1.4919237431922974,-14.52901267709811,12.998911985299861,-0.9017386560677378,2.57206609107248,-0.8833138989928283,-5.667753612911548,0.7810843607429376,0.021348940852135456
-149.0,-4.246094261130003,-23.754918487351432,-19.508824226221364,14.021206887780204,7.602001655039688,-21.640121802961882,8.767993019388301,5.906761542583659,-0.522540187383418,-2.5671847774651315,-7.877113030634904,-20.649671938191872
-148.0,6.459817578078817,-17.403498992038735,-23.863316570117483,5.507542398284499,15.124976844081566,-20.636809372715355,7.636874915661718,0.2034259592485803,-9.308000494504626,-7.014387210323901,-6.435947577579541,1.2366399081114139
-147.0,-5.74004585897535,-0.9680875097606041,4.7719583492147795,3.323365336604674,-5.225512251501691,1.898045162769682,-1.7868445621618125,-5.626007821665306,-4.330900689401215,-3.832046813268671,6.896548812626999,16.835771295843845
-146.0,-2.557526060319822,8.33450251380822,10.892028574128052,-2.912336944368141,-6.707869816800206,9.6034832924468,-6.183431109401474,-4.163298392540599,-1.0322119933905136,1.5480306193380804,2.1470832946872673,-1.6471048113225688
-145.0,6.29635059879907,12.27322415011425,5.976873551315186,-9.308869428983796,0.16453266882403783,9.105391758162709,-2.6019030643420518,4.420361244890615,13.027683717481862,10.86220079306441,1.9082187680624596,-0.34593975367674235
-144.0,10.995729971488919,12.56093237609817,1.5652024046092787,-11.730741443169714,4.712574413049653,7.110806244704904,-0.21623483042538227,2.6208865417096177,11.267323998558762,9.917189014430402,1.3427277460577933,3.9766322541020074
-143.0,-7.829136011014739,10.403126917684979,18.23226292869974,-1.330042814088606,-13.034166486359839,14.276662862322468,2.3325762691286664,-2.9527039598433578,-3.3724798718639817,10.434066046675676,8.67573469010221,8.599853107700499
-142.0,-11.274196039845691,-22.753424367515546,-11.479228327669913,17.036014670361144,0.10551578130260131,-17.085041753833142,8.565186459664336,7.794866495630078,-1.094938170634277,-12.029750814224553,-4.8832918842386,-16.62560270673727
-141.0,8.063591421660885,-24.259439535304782,-32.32303095696579,8.108416542979501,20.20898598244993,-28.2617468576113,-1.8042874945689058,-0.8182926987452892,-8.261663851906398,-17.78993650092937,-19.864476521428546,-8.495450077550899
-140.0,3.424305444868263,6.508089213809729,3.083783768941318,-4.962985153795927,0.12375285817250692,4.749158224400492,-1.8876194473975807,0.7106717270064025,-1.419974740753596,-0.4811109330521699,3.8792360811858613,-0.41520122823199124
-139.0,-3.255849417160233,13.445249558106866,16.701098975267026,-5.093082654240143,-9.92885578832378,15.110436381884826,-2.8067178759949716,-5.775941126855526,-3.145102872478125,0.9907737655716482,0.44344798831007853,-1.5957463062585462
-138.0,3.0719333877203603,10.014466169459732,6.942532781739386,-6.537775888148243,-1.94946439591881,8.443151278499457,-7.522757571798835,-10.741378027526281,-5.632087206016641,0.4003274733609743,6.020936948647267,10.837052650614389
-137.0,0.06255151565337647,-4.2075014767485825,-4.270052992401877,2.0856371078596925,2.162006427020903,-4.268910957651822,0.5886329657339835,1.8914916413374012,7.0117909059634025,7.016729602533294,1.303000257450111,6.1795248411722445
-136.0,-5.795500598019485,-2.917891005901872,2.8776095921177,4.300804905951995,-4.3376216875584035,0.031596874459838165,4.9088396187303545,10.414500386269538,7.132366154708245,6.074851715954323,6.185528678998933,4.185624779960279
-135.0,-1.7835923069880848,6.319425021188142,8.10301732817633,-2.235160713180154,-4.947742965147847,7.184745373892982,6.25673894431237,6.789594253534097,0.3427093774208396,3.0971529013572416,3.2733817503217755,4.6872945484064985
-134.0,8.095536889357607,-1.461478159660027,-9.557015049017561,-3.354020401155794,8.81356437313034,-5.459000125718061,-5.0589874781283255,-9.246006411687684,-4.21728635953141,-8.279012635901767,-4.652705417518998,-14.12522226374973
-133.0,-1.7626540100294243,-2.7809319399222137,-1.018277929892771,2.3212658792182586,-0.39511524073678617,-1.9323408408077496,1.6251201546982217,-0.7077628964558582,0.008316235036046171,-1.8431713848971123,-6.400096477229717,1.8481891740654657
-132.0,-1.2515006424218913,-12.223580201289163,-10.972079558867307,6.7146668541459755,4.907309180974949,-11.636359660964494,2.7777730194061645,2.9817977729877763,6.960531188633705,7.232144053810835,7.096651426748811,-10.57279719841591
-131.0,-1.5901094305669654,-9.437432109270091,-7.847322678703151,5.495904571809102,3.0921098033481442,-8.608596269041396,-2.246471372437786,0.0885904228636029,-3.736175605503482,-2.646319473801356,-9.673454837130848,-8.175365321844142
-130.0,-0.05131046365468017,6.641093232135385,6.6924036957900395,-3.2308519724551443,-3.3294408893018232,6.694524741511115,-0.6767799280744577,4.08154617233458,3.1156319877864607,-1.2188371637842812,-3.5232431246100844,8.433868675827862
-129.0,4.588103153602103,14.507034685351542,9.918931531749392,-9.561792031105398,-2.619176543065061,12.157436479970054,-3.494623824503571,-7.422482496796091,-10.888232763972526,-6.925187847565542,2.9228031671190604,15.732684261548174
-128.0,-5.146661754994076,10.854165715452314,16.00082747044637,-2.870954448320173,-10.601773195138252,13.448188236241485,-1.368277257955803,-4.498486297965657,-6.967840981396078,-2.8386274283815522,6.661827480759155,4.66790262496984
-127.0,1.1599649929340583,1.9369294948629774,0.7769645019289317,-1.5722748552243968,0.16517151060097301,1.3772322062968456,3.5789423378608167,5.372787052037403,10.728841996153392,4.062671893093024,2.6376341280507054,-2.2708150979259347
-126.0,0.6622351313583968,-7.522016152916495,-8.184251284274865,3.3967017129314763,4.393559833969176,-7.8317501605025495,1.3575789493358736,3.1142180914782687,4.937027298492689,6.160701851334009,-2.307031223228975,-14.018640479006063
-125.0,1.0073480081600759,-7.273588148163068,-8.280936156323115,3.16854961247332,4.606153164288703,-7.833099948939704,2.3793469226452095,2.6970910714177814,2.0801562246834786,3.438214349129279,0.23276931387490962,4.931636390997813
-124.0,-0.9573467463534371,-9.309778451839888,-8.352431705486428,5.160497037329125,3.7276431607414127,-8.807390520196593,-5.159289027108259,-6.610619319362207,-4.807592447964387,-0.9853247190686605,0.7416876665475984,-0.8921005643551301
-123.0,1.2804665956681243,-1.4269235492814678,-2.7073901449495645,0.09527037102974312,2.015019251700525,-2.0441405456955035,-5.1148494680570975,-5.536792954327407,-7.413334994614733,-4.248344990893099,0.9213279922138196,-0.32925048571025606
-122.0,0.1272295668074423,1.233383969058346,1.1061544022509266,-0.7374516756771469,-0.47209753905680835,1.111775605946595,5.2664579138281615,3.901924673566684,1.0450430519386509,-1.6717537092313854,-3.1185070601519103,-6.828278779531129
-121.0,-2.464226887073552,3.5131847999276684,5.977411687001226,-0.49928272659756123,-4.200265240001629,4.762940401407739,2.2178034818749177,2.382470256000708,0.035782173631999314,-4.324774562716181,-7.9291835117280645,1.5149889152532525
-120.0,-0.4788964219843722,7.882397474850544,8.361293896834876,-3.6703385131050617,-4.390529744049675,8.136738084336804,8.21054345742759,6.9034229671875895,9.969852863207105,1.9756301576228603,2.3981886406773167,9.967062754351966
-119.0,-1.4653070923188687,-0.6898687209361221,0.7754383713826751,1.0372780793462013,-1.1580465131355853,0.056549762380590174,0.7069464199376609,4.982310567473188,9.974000406712145,8.003353169604477,7.525317496640375,1.907194409179711
-118.0,5.749037848994098,12.371818771026653,6.622780922032492,-9.094525382006575,-0.46463188804915845,9.512387368774167,-6.970110720936634,-4.034828028187468,-6.823003280042893,0.9673267964730217,0.9756767053109083,-6.688449078114769
-117.0,2.22860656158516,-4.217298110377979,-6.445904671963177,1.0433591950265382,4.314659215049359,-5.39134454671666,-6.927514733584134,-3.1144388244023204,-5.537990479766994,1.10325961939968,-1.8318406401158915,1.352970241669417
-116.0,-3.878534399132241,-15.361127204674183,-11.482592805541952,9.592240746727722,3.778822206678684,-13.396858655907062,-4.052098735401853,-9.302549998015072,-6.129002986217545,-4.191664765219892,-1.3433520896073918,3.02336735238001
-115.0,-5.327989648669142,-1.5759684709083261,3.7520211777608403,3.503198061715845,-4.489579971918721,1.120074233894524,-2.4740371467397906,-8.314659529289186,-7.643025228934918,-9.33206536576497,-7.165537506723596,-4.289153096237338
-114.0,2.2225283330983903,1.3304471742450232,-0.8920811588533137,-1.8056821108122634,1.6008948488759567,0.17927784416155434,1.401991593717569,-3.458825401338582,-6.301673536519868,-1.0142050248831898,5.360612224086381,-4.439468225493561
-113.0,0.38108815214678843,3.6704102654021495,3.289322113255409,-2.057866010217007,-1.494710247505146,3.5239591737851157,13.07992907449513,14.02862342582859,12.861733380785893,0.6059824040631396,4.562217124903184,5.708742862073056
-112.0,5.318783516612081,3.8587607539181334,-1.4600227626939448,-4.545792114621932,3.347166774786099,1.1674602750207486,5.648885450017563,10.685724206289816,14.230239869915474,5.321951196418908,1.3422241505210364,-1.5256103647178496
-111.0,-0.005181112119479359,1.4765603035245531,1.481741415643987,-0.7752867750513883,-0.7038185975577468,1.4472043019131815,2.216749411987149,7.6617693243246325,7.3659191893348614,15.912659263850953,4.3676259952221725,0.5093797637805968
-110.0,-4.449370322930313,-2.586144963537907,1.8632253593923556,3.5534017387743404,-3.1094478205998892,-0.3169836761889866,-4.183462638026485,-2.4463472631675267,-7.060672826830837,-3.042850917491605,-10.316468655578957,-1.767424930902172
-109.0,-4.6044240183192855,-5.624136962716737,-1.0197129443974804,5.1470864035703245,-1.8151715074208408,-3.359726581475943,-7.225792507440337,-6.662722481037685,-14.767472737934908,-10.293291550853477,-2.84096552744659,7.881927727586061
-108.0,4.970363885577019,4.68041074832201,-0.2899531372549996,-4.8732464099662005,2.61526632974574,2.2326959032067037,-7.265649039770496,-5.711893697529226,2.4247224414199504,-2.645501579322758,1.971643539855235,0.5670129319929429
-107.0,2.4312468169644648,0.9061548104963717,-1.5250920064680529,-1.7172682610540861,1.967224378109917,-0.27448266998392257,0.5789020271137035,-9.618285494578124,-2.017716457319022,-1.2805405828703518,-0.7883083919768321,-7.084357962587992
-106.0,1.3047953774553045,-3.8189734763944228,-5.123768853849682,1.2881100627294184,3.201750059009987,-4.516185406234357,4.571540583184116,-4.223699989710051,-2.2622930967229142,-5.101704691539626,-3.9632073703998985,-4.473956961308316
-105.0,-4.802533246611903,9.05976443617838,13.86229768279031,-2.0950521037700875,-9.351808229999445,11.416560875499385,3.231033439337824,11.21354143853392,13.581417581101933,8.95111365575574,7.502816501592874,0.9139162079631409
-104.0,4.448104115113455,-3.3542327494498356,-7.802336864563294,-0.5095277188250761,6.174363572005074,-5.542598392444537,-2.7809394851390854,3.8672608606201084,-4.881033579962866,1.1601336009344925,6.870311638418244,2.7083417311919016
-103.0,-1.3029148502279702,-2.434800667852542,-1.1318858176245872,1.831562513104774,-0.12588529130023418,-1.7457379410350393,-1.6724715845737312,-5.120454191789264,-9.253687555982774,-2.526721063561077,0.1176652423961082,2.4698991759388735
-102.0,-6.986980040777629,-3.170727637105017,3.8162524036725767,5.044359507613014,-5.371904021747509,0.2832466482349125,5.410252508746286,-2.7341140841618903,1.1357624315564507,1.8910260812213018,-3.963730173957242,1.9869806463601511
-101.0,2.0705337710002882,4.718175707390309,2.6476419363899826,-3.3496513014151055,-0.2637968518570697,3.7224710342562295,-1.972373797161499,14.767001675958157,12.470184524519597,5.34406744698584,-5.729624393879374,-0.4442966801827435
-100.0,1.9883894620491545,-4.425600431968605,-6.4139898940177975,1.1824966740918519,4.22492523428031,-5.460913103602346,0.44374883761062456,7.2479207361872735,4.5556142944683735,-0.8978598623548077,-4.224117038464011,-0.1021891194925803
-99.0,6.946261632065222,-4.034582803763952,-10.980844435829166,-1.495569878144718,8.91055174759497,-7.47475319950663,2.741961213282265,-6.894821656991412,-8.647675709118635,-9.5123037909987,5.817430193202231,0.7005196697477334
-98.0,-8.379748680603933,4.7043362849948505,13.084084965598807,1.8731768169306255,-10.781175186487769,8.841360986329175,6.8088271028216445,-5.724531387757375,0.5436182196639829,0.9922036781411796,1.879456437415504,-2.3714231942731474
-97.0,3.3109621073170583,3.2260806714810757,-0.0848814358359693,-3.235063351444722,1.7318642091058556,1.5883249318475534,-7.279193569115826,-8.099985700538964,-1.6238278012812606,7.032238577936442,1.1682856913174033,-7.2185299973807995
-96.0,8.137832647453417,-0.7852146363098722,-8.923047283763342,-3.6428763838006506,8.569060256590138,-4.843805093689014,-12.78301860050016,-12.612720267326821,-12.45083877875683,-8.179301732522795,-10.377693667497454,-3.2285440012951345
-95.0,-0.9321046700442972,8.586767241150842,9.518871911195054,-3.871568054532798,-5.260859690908114,9.05842216648352,-0.208359354849029,5.9879635743451365,4.463246773141157,1.7213272731028706,10.471847200188577,12.902668649558468
-94.0,-13.527661299090454,3.1230587696047625,16.650720068695136,5.237257023160649,-15.041145140199163,9.89170100131171,6.653970555129683,12.289646869900054,6.3444332894256386,0.947570625760318,6.031231043476498,7.745527271749921
-93.0,-9.80134805447211,-17.825235946264392,-8.023887891792338,13.76773854015786,-0.9152408500985798,-12.916404838733905,11.689887339215634,11.349465500511863,10.398136563289754,10.06325279239521,-5.920061849220745,-8.166449239818135
-92.0,9.283954075455057,-10.736970718775897,-20.020924794230968,0.6766494388929676,14.629131399113016,-15.364144798869047,-4.788841118424421,-6.544804253211881,-7.383023283257561,-9.215727890444892,-8.949198211602798,-7.9020634074901155
-91.0,7.083144691622834,10.595448290178467,3.512303598555711,-8.815959865303254,1.7638488888205286,6.998397385052996,-1.1611310257467662,-1.3552651278201782,-1.7829500188219654,0.4856713043170391,4.7120791588257624,2.967410451985029
-90.0,8.769338236466359,14.984230856751692,6.214892620285459,-11.857803876922672,1.33431090796357,10.631574287767624,-4.6452175986199205,-2.951408365130027,-2.0035654906485876,4.048131998390721,6.513968748411067,7.412865221632546
-89.0,-1.1021765224337665,-9.523118403314431,-8.42094188088053,5.330881005431512,3.6354773966333953,-9.010925736056077,-1.6522646173518885,-4.912684613881891,-1.1881177510585261,-9.040369709506818,-7.75623268923418,-4.569484468335009
-88.0,-4.728882388344324,-2.1628878148156594,2.565994573528758,3.468105171719657,-3.5973482626721256,0.24769640480234123,2.244245382239102,-0.8536981296734174,2.3843142968044404,5.140018204226337,4.841936043314736,-8.54986781147938
-87.0,-1.8805797125565005,4.2596035095263876,6.140183222082893,-1.1593526989717615,-4.046535594301575,5.1717393875187785,3.1116425461914545,3.4208372635328943,1.7180622100938052,2.1029385658575515,-4.079218272368207,2.7931690136883556
-86.0,-11.488216948000105,2.9195760590627184,14.407793007062711,4.245287596409532,-12.994107626271678,8.716758053571015,2.914942674014657,1.595340810694023,0.18392366265194782,-0.4966793267167626,-1.504347039694287,13.622189488879616
-85.0,5.4519210184390134,3.322144883545977,-2.129776134893212,-4.417636433121876,3.8122341208395705,0.5709240293070756,0.26084511045428527,3.6583261530650635,0.8447671856813254,-2.596880677974627,7.395003608508292,3.945448003881795
-84.0,2.1525435100787855,-13.08878678236072,-15.241330292439631,5.442951728602174,8.707716950333257,-14.191869545575537,-3.6869627009959305,0.43059069997911115,-0.7337293251819347,0.5948404151186962,0.4924993856399924,-18.087122606243895
-83.0,1.084250719486994,-9.112644566021519,-10.196895285508536,3.9911990116644516,5.643715562883781,-9.684624497740572,-6.358406246291253,-3.0383495932272795,-4.612718551035022,-1.7596701475974665,-7.573754051379095,-5.716720089812176
-82.0,5.9272509688578365,14.453922075617754,8.526671106759936,-10.13481893980322,-1.2993172532700994,11.535539242730138,2.27372240979277,-5.708233011618163,0.47257157304700703,4.142325616936205,7.415181601397794,14.042394453163315
-81.0,0.33586325867676825,18.363521539506923,18.027658280830146,-9.294550123167944,-8.842480804756043,18.237632690048958,-3.3363633384997167,-6.134927593579669,-4.512321509378907,-1.4159479342961403,0.1347098446843784,1.6833340572355189
-80.0,-2.174182272383738,-11.80004668134025,-9.625864408956588,6.963148116277793,3.7376166995217117,-10.751495921094538,7.6997508071180025,8.95473500140056,6.584992653559191,2.6529381495841333,-4.643556359720359,2.0306260242320238
-79.0,-6.376797695631319,-26.59591683331076,-20.219119137679563,16.462155419563807,6.945031212025713,-23.445948119797254,5.36161507884381,9.088322467975118,6.057245595512316,-1.2713999865720473,-8.868190255298085,-10.4622459208611
-78.0,-0.9399788297084228,7.670493088473041,8.610471918181359,-3.3904729567822223,-4.816473280068953,8.183078454255405,-2.7878837632060245,-1.3178781165396956,1.5589935505933403,-3.935602513357087,6.626797690253701,0.41213377334505186
-77.0,-0.4811119882970366,5.7645535927375215,6.245665581034491,-2.590939897695502,-3.3915462400851344,5.973270793900969,-0.8774210917720624,-5.171033754848544,-7.16822600320699,-2.216124278921774,-1.5034315691808766,-0.9765270947337317
-76.0,-0.6253288642178707,14.293167606511938,14.918496470729778,-6.866758790583956,-7.788954960704151,14.658562294260548,-0.34566068111740744,-0.7616581117990644,-1.0495332282464802,3.454257853574012,6.836540348320791,4.297969809006162
-75.0,3.712662692441227,12.859475320208501,9.146812627767272,-8.3253991090851,-2.64696318072565,10.983471030576226,-3.5439591680531333,2.698692452804784,3.090455705761851,11.795470546480281,11.060053556634239,9.131176747461629
-74.0,11.729746378602421,-11.912493003802851,-23.642239382405293,0.12390548732516526,17.682662083061178,-17.791450306829866,-9.453901363086839,-5.915095080227279,-4.308005699292225,-8.266876914775995,-13.588246669387537,-8.812563157484146
-73.0,3.656885169362034,-13.161949711728294,-16.81883488109039,4.779218497617501,10.236333747882394,-15.000947538198087,-1.7447383384931872,-5.85413450198681,-3.1136660486044723,-10.60805295271459,-4.703689603625466,-4.078804351572129
-72.0,-9.439176530592974,-0.8335150742251933,8.605661456367677,5.159261866997947,-9.026095942049443,3.8759793518151646,14.359209095111918,5.515942049730433,4.925873654715132,7.964957260655866,9.385778159006836,8.948692054424484
-71.0,-9.89284551652701,-1.1501638661199762,8.74268165040695,5.464217352788962,-9.327678342964255,3.8617928963025374,10.438266110235762,3.8647977017867423,1.201903591267318,2.492454096047168,-2.570721598586441,-0.17486038079465827
-70.0,-6.352639228717278,1.5884376500416444,7.941076878758882,2.403906248541765,-7.166435436051739,4.74491107615487,-1.932335138088301,0.34320992408205786,-9.05048539320928,-16.93628786119449,-10.801710301418385,-5.352823900968537
-69.0,2.8878343059784877,-13.354851868746987,-16.242686174725492,5.256530176794285,9.534245542855139,-14.827990463830954,-4.960666905417524,9.898250972068716,11.821552219997983,20.929921539446482,7.642099289104761,-4.941989022102742
-68.0,7.385741418680479,9.617808335635662,2.2320669169551506,-8.556294000677154,2.613673561755989,5.88510050027287,-10.1222915583296,-9.887255893431718,-2.0565098854052057,-1.4784597980556784,-1.5999332508450341,-1.7082371895419968
-67.0,6.266979632731306,28.364768920639932,22.09778928790857,-17.290946357828403,-7.886718972810039,25.26038663113019,-7.938435995232873,-4.3536136621030845,2.2497129370391304,-2.5784114808503347,4.922440101165706,8.297151251116723
-66.0,1.7335529030676495,0.6536472282945915,-1.07990567477309,-1.1685081553659025,1.4313017322912809,-0.1909989449109748,5.700380627175801,2.790437428027004,2.3984153480833177,-3.6872202485730505,-4.824897163984025,6.626246178457381
-65.0,-1.7720714109416056,-12.934595369348141,-11.162523958406501,7.299657419226297,4.64092517704778,-12.029363362416415,2.652053963512342,-1.0774972298807566,-0.5170396037835463,5.654145074542958,7.4853916623540835,0.18782474341744182
-64.0,-5.124003019039654,-16.786328133924957,-11.662325114885245,10.980498613843798,3.296281895651008,-14.204121494363363,11.222185623360453,3.848009972268996,-0.8105188455830301,11.7116989361961,9.199792020993893,-13.932422053503098
-63.0,-0.17140623500114982,-2.331878406625979,-2.16047217162477,1.2777890810173655,0.946637890610895,-2.301090909464495,-1.3248346901003352,-5.484938648816776,-11.942118215787522,-23.176158534930725,-24.853909998060992,0.04426419871893117
-62.0,1.9826783488624053,8.479435064437675,6.49675671557529,-5.203602814949178,-2.222996345895278,7.516308761866575,-5.464703282939581,-0.6979739573112353,-5.827574879311935,-13.16176183126948,-2.0495338831948438,4.141181428961976
-61.0,-0.943497652315501,3.833261819276731,4.776759471592184,-1.4946827752375889,-2.8244629892916637,4.258055785515435,2.238483928058808,6.430636631719494,4.751033072849928,9.959721351025607,10.080243845167736,4.082697077880445
-60.0,-5.919719247416323,-1.3495496565537364,4.570169590862557,3.5862664704017693,-5.288184217418503,1.644285405953334,0.23175047396159365,2.011182151146554,10.270097394822676,17.463093778591656,10.766695463565993,3.5601280282728256
-59.0,5.171906472133324,3.6347662350183363,-1.5371402371150023,-4.371550048016273,3.3099414813301937,1.0052256772052197,-4.11207791404588,3.4088970926023068,8.607956564405349,4.433105909961693,1.5583808206649037,-2.081758193442846
-58.0,-4.791821502863502,-0.512558456818454,4.279263046045041,2.685587028159353,-4.50276250694545,1.9196818627832606,-7.871651556612835,-15.530977607935064,-9.824126501098188,1.4565444195121051,2.7904069742555224,0.21354060596004398
-57.0,3.509851963468126,-12.946658901540669,-16.456510865008823,4.753724623986117,10.015690849582178,-14.663280645702375,7.027856397795492,2.21415018264738,-1.8069151116647229,-16.934151424615177,-16.418077713273142,-7.1694991138897155
-56.0,17.81325636712961,3.9323844037307722,-13.880871963398887,-10.914258168040977,15.881011587921419,-5.011792593487295,-0.08101815946761848,3.9452572663910264,-2.3687461915799,-5.953447968028199,-4.6250601268916025,-4.061267034793414
-55.0,-14.458511868636444,7.539925871135946,21.9984377397723,3.419432196052332,-18.270421564718028,14.813500854293942,11.173489398488957,6.301343369264424,4.317054525131393,0.4792576390589174,-4.6129385934966525,1.5013409645971842
-54.0,-11.032981742297354,7.699235963892157,18.732217706189445,1.7065487317696784,-14.921257721985256,13.183545866381955,-0.22079173510129202,-1.3270934103572931,3.2060649443667226,13.95814466962803,6.23246500578671,5.127306091044046
-53.0,2.4104171653465,-3.802166832565083,-6.21258399791158,0.656758928247855,4.354142309809563,-5.0389467053007495,-6.349638310191458,-1.5142337828915347,3.0948511831284824,7.978504492335758,14.334249155361075,6.83685618901543
-52.0,6.451106785209058,3.8076977753691565,-2.6434090098398095,-5.090391343075119,4.512059757930817,0.5496220782761574,-8.686752053498928,1.6544964479842632,-3.603174139846578,-5.332918077143745,-0.06576055504517164,-1.5075263829081513
-51.0,8.043226713599285,-3.954560760553072,-11.997787474152277,-2.006223406263508,10.06287925052164,-7.931530084118811,-6.82547616860495,-6.614019718835798,-7.062230953345189,-9.13026717873869,-0.647776940607792,2.2501443157344783
-50.0,-2.5355150245525016,-23.589095599995705,-21.05358057544317,13.020691990162874,9.219315969395113,-22.27770536670355,4.605905600654788,-4.363302667037218,-9.185592138270419,-8.005831347184518,-4.679236368848148,2.5467756743407595
-49.0,-9.302871292034986,2.4140998035315473,11.716971095566562,3.401895570781347,-10.47622243659427,7.030701913487473,16.18627887771748,-0.19299896518789073,1.5613629319153315,-2.4174549773719063,-7.427789845185434,-16.93097180537981
-48.0,5.426773514712732,26.402759881799504,20.97598636708675,-15.879000612632169,-7.747908106414078,23.73468354636058,3.421542835981141,11.624586780002588,16.048958787906244,13.55331536919538,0.5694416177656629,-6.246377835533206
-47.0,1.006365817365781,5.064263478542729,4.057897661176877,-2.9992056299320433,-1.5859063692725952,4.52923415249106,-8.379987384648214,0.22560422330116303,0.9812832759807781,5.946475542547304,9.734112291830737,10.494616507743487
-46.0,-3.949485632933705,-12.521793942522253,-8.572308309588632,8.194656361660837,2.3218387716077737,-10.578103001874195,-6.45268582582929,-2.6022571045530674,-5.012592720251386,-6.104632841975977,-6.582597122552203,0.009747589321088768
-45.0,-6.027304853213608,-9.21321393957919,-3.185909086365613,7.582505334145268,-1.4170631573916728,-6.23104271992665,7.088453360301072,7.023263109512602,4.40113570234689,4.611514393626717,0.36963853434116833,10.560876857399498
-44.0,10.669286027690024,-2.3304445374672818,-12.999730565157272,-4.123839555337602,11.834509212193435,-7.619071888164591,-4.531512673108262,-7.839277158110047,-0.26007502368122726,-0.41415209235539396,2.905734572540042,2.5159389525609894
-43.0,3.7141385476839215,3.9978856369612528,0.28374708927740055,-3.8053560041302363,1.7163013148861577,2.1857081893774764,-5.957259377849165,-4.865779851455196,-6.083925231018421,-4.231460810648721,-0.5629204128797896,-11.277343679666913
-42.0,-5.050323937675289,1.467393641550019,6.5177175792253905,1.7674843330177086,-5.776259602602501,3.9586748711436432,4.672646398693464,1.340908269871397,-1.262179540183519,-7.557855463979668,3.143462957234612,2.1431535296904087
-41.0,-12.442919570525332,2.8351404105643185,15.278059981089724,4.78148893811424,-13.840919551174505,9.024377572404381,7.5019489289275185,-2.077357560750198,-0.23324993756753054,3.400960063691879,-8.090144500022193,-0.4893358928266083
-40.0,0.9483215122838509,10.988413292412247,10.040091780128455,-5.992662758680551,-4.589836166781567,10.564185533104887,-0.8537156938041486,0.7829632580902612,-1.876241209773365,4.103985855363979,3.471255745108765,3.618023771268976
-39.0,22.970646698717772,1.1185853319692787,-21.85206136674845,-12.073996248982674,22.461992248662824,-10.390772507513468,-5.646768996454313,0.5326500195075332,-3.625574163231859,-4.762377604400342,-0.8420308541593905,-6.768302593843169
-38.0,-2.257690180029151,-9.293611445367816,-7.0359212653386445,5.818273027989847,2.3741775652513377,-8.183341347647076,-2.5430397494319186,10.154814398494043,8.860801454336872,5.395624684761605,0.22812642729280452,-3.4463711004211293
-37.0,-5.119737092455003,-3.243562234434143,1.876174858020824,4.218005513378062,-3.5052955713697154,-0.6971081723509576,-1.583476458275258,1.3980187705429534,4.1171203273523975,0.5039898917658707,-1.844463225056558,2.1844894057535926
-36.0,-13.003842877612337,-3.3295400535066526,9.674302824105602,8.120362753386376,-11.346074071615288,3.241330851374816,8.845883172416775,-1.1755785098156113,3.285265348123165,0.5584453536866558,8.717145136627503,6.543370668945053
-35.0,0.8173286207152826,-5.8318335987092995,-6.649162219424648,2.5389339087623735,3.71947963312871,-6.249678041239,3.070362084089035,-7.272063487950516,-3.230618462344373,0.5013680315222501,-0.35116810139410015,2.5056920588359928
-34.0,5.173366821999769,3.668502471461922,-1.504864350537865,-4.387088203751193,3.3135865118415335,1.0689311829770571,-5.479104928323732,-8.027851962029109,-7.764268126106703,-2.843631857389921,-5.551208478285844,0.38028475917910454
-33.0,-2.442425539402407,0.39145610068087766,2.833881640083352,0.9845875329507918,-2.5981662093682463,1.591097906415324,-1.5106026151598855,-1.5258115546603852,-5.684746053356614,-6.183118768908133,-6.787897314581082,-7.2321114476339545
-32.0,-0.9774020082741492,6.871039647742464,7.848441656016782,-2.9830273680214354,-4.3836943527229995,7.325123709354557,1.8686919176909311,4.357323835890622,-1.422610156043738,-4.804648943098227,1.9774955858019654,0.475339397304114
-31.0,5.395367745867074,8.931992892464557,3.536625146597601,-7.19521145689481,0.8747884307362008,6.263072586182501,0.45489307502879295,16.358676009809212,15.304622634533104,15.863910308433853,10.207522100551207,5.387953332948522
-30.0,5.968202151544185,-3.390194569032796,-9.35839672057699,-1.2372785923166898,7.689739274155456,-6.360206734611227,-2.2436125933788476,1.2993844334655211,1.9895613176830746,1.5843552863241657,-5.468589387781499,-8.155812202349214
-29.0,6.7626577621812825,0.9506130327548092,-5.812044729426622,-3.800647392629965,6.323047645739849,-2.427514287098479,-4.961207127818069,-10.217319197305532,-0.6579102769329186,-0.1219168117607583,1.0963551185106397,2.457167171474394
-28.0,-9.947771827915178,-3.122401212740827,6.825370615174177,6.515818977565319,-8.415570506425452,1.8497938714886888,-1.5832881051415995,-9.453622551596412,-9.02079300224523,-1.902234734161303,4.807912943220013,9.61896070216376
-27.0,-6.733688016714851,-6.715007390344242,0.018680626370452202,6.706714166639399,-3.3897389367142803,-3.3480669116539743,-2.8312543485727097,-5.37554101711194,-5.129560552009998,-5.123295629926768,4.263259114364373,-3.3906399928764657
-26.0,-3.1392388210419053,-1.36054755135447,1.7786912696873225,2.230831506832035,-2.4594165886137653,0.21665826620202377,12.090596385145547,6.668198470186524,-0.531885293081106,-7.1606547174214965,-17.47576968551237,-11.715897053878422
-25.0,-1.479067468022757,-6.874232614950654,-5.395165146927914,4.1524860706200935,1.9652014342502504,-6.1162072435451265,10.679102060191296,11.262422944238246,8.420134311232497,-0.14500406662544574,-7.106051756646672,-3.011058680027096
-24.0,5.070225934002533,1.4420217007719582,-3.62820423323044,-3.2098852678324064,4.356563380565347,-1.141913954910585,0.3574322873797695,6.801682793627739,7.244713157891356,7.418297629765721,10.511892766874308,5.889766491037048
-23.0,-0.713240634906013,6.084611710095024,6.7978523450012585,-2.728385071086275,-3.7557067814047747,6.480496837475313,-3.049492457581506,1.8757496934218603,-1.4677815147578777,3.0372136622993406,9.804253629506743,13.989850042358025
-22.0,9.011853724208065,2.556329709163716,-6.455524015044113,-5.75820035143947,7.719697357117884,-1.9835003580431567,-14.158264758695365,-9.53403273298726,-5.912747416992113,-3.4311320808554937,-0.6602281239100884,3.696933890650505
-21.0,3.231520437312438,2.9697073913967404,-0.2618130459155662,-3.08318745866023,1.7153276317799135,1.3215092563330308,-5.009964666748155,-13.171212180032724,-5.119788052997663,-1.2817355913326915,-4.348629592541286,-12.079287547316135
-20.0,-6.606583374074592,14.53640959228791,21.142992966362478,-3.9532976690581463,-13.84461275821345,17.88412127581499,0.9425080288279784,-1.7229256618710558,4.24688797492907,8.155221005652239,5.578071152496797,-1.0866349498949557
-19.0,-3.530163606833883,-1.2782759354217865,2.251887671411942,2.412827873609893,-2.874405507182839,0.5272955286029264,-2.9813285608406686,1.657130398611533,-4.818263970937649,0.02531037536886549,-2.09319575028756,-7.231014762469199
-18.0,-0.7552706899644246,-14.91997665226383,-14.164705962299642,7.766914818454426,6.714062092566742,-14.585313139113607,9.316548856138057,5.198924927481151,-0.7307114639036416,-8.401392029930609,-9.92441638386604,-0.9176435705681887
-17.0,-1.3062781183062102,-4.692042817780115,-3.3857646994741497,3.008633548526559,1.0491272853266498,-4.007765707870241,8.875321159315568,15.02984142026334,15.359233944290043,4.673091219277827,2.086344813936768,7.7403647170131595
-16.0,9.397135379169354,-13.272947289240738,-22.670082668410302,1.9504993673755595,15.970980182809061,-18.023202813143445,-3.3819168945174978,-4.624630331170751,-3.7982370521937803,-3.9945719781488616,1.1805959761446712,5.517942927225684
-15.0,-4.551433195929256,-4.384886623509114,0.16654657241998816,4.485209981423351,-2.3313661511029498,-2.0852263665179906,-5.717125349426379,-10.754724042121033,-11.44713954754536,-6.483103349490636,2.307817299359512,0.6713749467344248
-14.0,-1.7499842136287138,21.99354266526729,23.743526878895906,-10.09967565474069,-12.70557085033333,22.89082399315379,-3.777984205105109,-0.8678567879844232,4.034883560533498,5.892989517463558,0.12897789218615063,-2.168040573184975
-13.0,-1.7479880092875273,14.175911012592564,15.923899021880136,-6.187451342076971,-8.860785685994301,14.993887181940009,8.526448039066914,5.042210557526609,4.06918800243498,4.836410344105638,4.313809779949541,-1.7985037586903503
-12.0,4.065507384437162,5.814197063374733,1.7486896789377084,-4.989721129128435,1.1429602367226268,3.8072801559651612,1.2466760846489486,2.7745629299124075,-1.477713375700577,2.5555643784032576,-0.09667201315064933,-4.772506229959106
-11.0,-5.142910964325933,-13.263033292401705,-8.120122328075551,9.152597515862773,1.4776658518574168,-10.65980145645472,5.387601402901073,4.322967151972681,-1.8196398577340824,-3.4955260363027527,-5.488953509669167,-2.5244477221717303
-10.0,-3.78674561645861,-11.226073414451008,-7.439327797992214,7.531673599793865,1.8146534683924256,-9.371416651311133,3.766975573991852,3.26058857578007,1.7154528194120688,-2.9669894879443373,-1.854771084617542,0.9727890707827394
-9.0,-4.2425836847393965,-11.002746804674018,-6.760163119934523,7.643606535909482,1.3208410196940554,-8.83214124493666,-1.5944741239314293,-6.701594969017087,1.5546264665931735,-2.088189437448158,-0.7691523589329645,-0.6357945543250396
-8.0,9.641522739628218,-6.5415092782486415,-16.183032017876858,-1.5326561618907268,12.887801725448833,-11.383233304009694,-10.306824455219274,-8.895436771664961,-7.105768858898599,-2.9036093165145624,-1.6240306027087215,2.8035572388021586
-7.0,15.266120855267976,12.732860310167052,-2.5332605451009753,-13.983294431220276,8.866730562517498,5.084684886678253,-19.67040617374698,-6.222569107542508,1.2853730712567542,2.4961995742439145,3.5045256896842694,5.37076082945595
-6.0,10.096267679090325,21.65461526296726,11.558347583876893,-15.93582254250131,-0.692455529944968,16.59339623465204,-11.024905308329162,6.75502372356809,8.461568954087923,9.703475491616102,8.631717025037666,6.671630865540433
-5.0,-10.125958904138809,6.21336816774563,16.33932707188442,1.9800561462509556,-13.277099898980365,11.26131726907051,14.878753129701103,9.18383057060632,2.7551254079082472,5.150827086421744,2.3692789533472687,-0.32401980001629305
-4.0,-20.12189825749001,-7.460399578108768,12.661498679381236,13.822531429040973,-16.357813750437362,2.6592270775111526,16.73853472314312,1.0885804832386192,-2.7424885654233715,-4.913417215653833,-2.429726827866436,-4.469816295693603
-3.0,-15.535494644550598,-8.367876086763172,7.167618557787436,11.912593888792106,-11.314130383066285,-0.6267985505747702,2.8475709596514474,-14.160738946064757,-12.633791707259016,-12.707864677687738,-9.873056526324628,-5.462004108200858
-2.0,10.169729066694417,-8.949379776356215,-19.119108843050547,-0.5633167337620559,14.609735837119885,-14.067390661716042,3.0304548358989134,-13.54847721065673,-12.642043524258584,-5.721594477795007,-2.762994447789076,-4.562408918543042
-1.0,13.504769967769569,-4.346771498023849,-17.851541465793293,-4.606115703759817,15.65171090874406,-11.058571404224327,-6.246477706896017,8.207696131638501,14.564172484809179,8.538726259943306,5.060970661495928,-2.247281229683636
0.0,3.6094354911462094,17.425136196422763,13.815700705276782,-10.54250276750576,-5.121477068201369,15.658153617186692,-0.5908666322605711,27.552643174746873,20.066557481418055,15.479365703371469,7.749245646331342,7.188304372836776
1.0,-3.1816035336263084,4.51607505264381,7.697678586270425,-0.6927459414060682,-5.372906340450647,6.065238069689105,13.623949743847232,13.308014603891777,4.358509950741553,4.234917396889459,0.3296287246099592,4.060153316081094
2.0,-8.573261608659394,-2.444312783386774,6.128948825272577,5.561122235361021,-7.359921846034822,1.8019150054745587,14.038631490818066,9.59370335413141,9.604885482970621,3.071875194903365,-1.7562167607713768,-1.6870675603899459
3.0,-2.8928054025562795,-17.995733046553596,-15.102927643997837,10.41812048103626,6.095366995160475,-16.508365360402443,-6.640180252491838,-21.867081136148194,-29.9053119575176,-28.22175275798345,-13.188725685871868,-3.611639204011192
4.0,7.9698148862775104,-15.755103995357434,-23.724918881635613,3.9478243177802117,15.832429767905122,-19.774244587760492,-27.61766266686717,-28.90894442907537,-25.256036179248945,-17.761193225939923,-6.680362620909071,-2.9903954206204095
5.0,7.185619571944578,-13.163055658226519,-20.348675230171324,2.9699883021595253,13.743230014198838,-16.707409248725586,-13.001961830770577,-5.543452312757262,-5.147410794719386,-4.178903291554143,-4.05122461511396,-4.751551162409598
6.0,-1.4593233180433922,10.69981053940854,12.159133857452337,-4.633091888830287,-6.765527020803533,11.40263530868608,-4.520491311756073,-5.315066904197071,11.444182421632647,12.350239968170527,6.435031046181986,2.4384864979102767
7.0,28.165152710115063,24.948434973698394,-3.2167177364154753,-26.56456466790768,15.644815052197565,10.9195138494702,-18.812441462777137,-1.1256191006260128,14.78257883686636,12.527735113988587,10.555564474569907,3.244224235816815
8.0,1.9345995312566844,45.477569249428385,43.54296971817271,-23.71129152198817,-20.78037787198874,44.4839361976668,4.559792477968996,12.011101509938182,24.541498450759587,28.351015374703113,20.811048601711406,13.187783731064696
9.0,-26.429663695282567,25.265765744712144,51.69542943999516,0.5758188624134135,-39.04385340672279,38.4493737557183,28.883957027937058,29.43004037515862,23.637566903613664,24.92176799450944,12.185297427670918,5.116243141840004
10.0,-31.73274854427818,-33.87857383230887,-2.1458252880309594,32.795108480040916,-14.77591227358682,-18.05145111111033,35.78229134514721,15.312034550230647,-14.140414489716356,-17.093776132551202,-12.164687379162586,-2.7944630281751
11.0,-17.532783829296445,-57.20042960931743,-39.66764578002201,37.42768364002287,11.086901239972672,-48.40387477058981,28.047910862365423,0.6498815543262859,-28.192382061727148,-29.271821196946227,-24.603463972250957,-14.715826746761852
12.0,-7.6394012598011996,-22.266520747717387,-14.627119487917419,14.926760629885875,3.4380593145090366,-18.42469338002936,-6.632397646471747,-21.386738841166576,-24.15156942987848,-23.619162815657422,-9.293179834684583,-3.958862740900564
13.0,14.839811616686745,25.43212393457065,10.592312317883408,-20.1706180722268,2.0716894546947664,18.030022732457862,-29.56965294868521,-27.131290950778514,-1.5139791822282582,3.570559148437738,5.165584180972612,8.249037483236183
14.0,28.46184166415341,27.67048046291256,-0.7913612012404281,-28.028952896977735,14.656727725699993,13.458099380571293,-31.066604543092517,-8.944097516397765,20.944548859995486,24.49246290392279,19.385398026778194,13.181666595625941
15.0,37.89746876114531,-6.481024660817091,-44.37849342196115,-15.753807289761433,41.17131371534944,-25.484256966827278,-19.05553195015259,13.338065292979161,14.479232019020984,5.149280615538286,1.4446670158119126,-6.679672394455483
16.0,31.028427701644425,-5.904059533813303,-36.93248723545632,-12.52938623873175,34.01687519723819,-21.384593488499654,-6.164054911893729,14.88899918619579,-0.36961833735817784,-16.168087388038458,-20.68255585084393,-19.73107569513842
17.0,-5.426305018652913,-4.5258262918950045,0.9004787267587862,5.012241953178258,-3.203185353770337,-1.8464817454249864,12.480443861143499,12.564789288800752,-9.290926182949487,-16.566076256110858,-19.08217495188131,-16.577346200145506
18.0,-37.11327101244274,-8.70013041027013,28.4131406021725,22.870409120494575,-32.72327860714084,9.83381347872265,22.30011171014761,-0.5978983720901656,-6.389284465680301,4.384109642669315,7.317606502394639,-4.535992470723896
19.0,-33.259861724571174,17.227643837695457,50.48750556226592,7.987383869263805,-41.91421511901432,33.922796680880005,9.185908782985425,-6.304132979476767,3.7247037331415567,17.816815582478014,23.14290175510964,27.166797144569035
20.0,-38.11486908900639,9.816452682014901,47.93132177102039,14.206077831177895,-43.068486629023674,28.866004598125006,8.498013689964985,-16.396908884959036,-8.26580304329326,3.2830363136403466,6.2973109043079045,27.706568916001597
21.0,6.095974787282795,8.250839952416904,2.154865165133259,-7.19105534447748,1.9965316819623027,5.195850698887096,-1.671654301628248,0.9848187368350274,12.728019013726142,16.35889392574687,16.459420214131683,14.963960025918716
22.0,40.31643393174618,9.98419278031207,-30.332241151434722,-25.16763435969936,35.34202071331811,-10.185588191079322,-14.825261331546487,0.2870133625171537,6.983023638928435,-4.142817859184335,-3.0142672889991036,-17.337130366397535
23.0,5.549067185400681,-25.62990867111388,-31.178975856514775,10.019188022283867,18.374459859121117,-28.42576366651297,-2.3369057318972217,0.04278385398318951,-5.804795505597564,-7.434412614173614,-15.448913254327433,-21.81861552391124
24.0,-1.786215684920034,-26.750207799240087,-24.963992114319815,14.318339894784824,11.594684500336442,-25.813218740922895,9.026236024509501,6.9888122536996224,-3.403837091521749,-13.481902154672822,-19.78226222857697,-11.542492636196716
25.0,10.843101900334922,3.951420493042903,-6.891681407291458,-7.435057021375799,8.871830869537252,-1.5198704117326258,1.83000545970489,18.433919365513077,10.52410439290083,4.404279332194031,2.848455058795782,0.2763795698263678
26.0,1.2429719412402314,11.53802492864076,10.295052987401188,-6.358295017784204,-4.519857772472674,10.932411856167018,-9.009609087789524,-8.922587307838425,-2.137860286447347,-0.739523660375057,4.925220257882482,8.982583462494285
27.0,5.382951164166615,22.92250294199526,17.53955177782916,-14.205429600541997,-6.146728303929148,20.238401304381576,-6.5092326817147805,-9.591532641168179,-9.855032717797265,-0.29017315447689773,8.45330403290064,9.990156490960919
28.0,-2.467444375658106,10.50995799987958,12.977402375537874,-3.9972245830471156,-7.706425062036433,11.749117091600747,4.412792763903143,-3.5329508517725206,-2.094138897990504,4.531336307563024,5.054859227550169,-1.8932678588349194
29.0,-17.016646850148664,-20.264941620969623,-3.248294770821108,18.667350466616476,-6.861869350066371,-11.746256086080225,7.418882127670256,0.36381638670158134,-4.773452251519723,-3.6687037130796183,-4.5744176220051225,-3.8599969940643364
30.0,-19.381249088492783,-16.602395088443355,2.778854000049055,18.024426832065807,-11.05191023338983,-6.891142753905982,0.79252263253517,-2.042193508885625,-2.346948010846337,-5.173532019688379,-8.285925553976107,-2.057666922219965
31.0,6.5111562526365585,1.069686387971915,-5.441469864665102,-3.829210886868136,6.008398221483642,-2.2313770385428615,-6.742023538070646,4.262431664168409,6.041410953067839,0.783903477953132,-2.0458325576157237,-1.9354113121368872
32.0,18.042400208115335,5.265716234824677,-12.776683973291037,-11.686876308869005,15.36347298818113,-3.710764624405052,-6.438143445910631,3.4145140492064536,5.603494644274339,2.8096516381610703,0.16037347353294962,-1.9391875232727784
33.0,5.7106844179958305,3.991607096595665,-1.7190773214003459,-4.8028111947393555,3.6652215282788587,1.1094455627206825,1.064421971330559,-1.2639118529716749,5.068457864512671,2.805294802720698,6.077917869078514,5.353199501896104
34.0,-12.057426949840156,-7.189916287058485,4.867510662781812,9.591216027301908,-8.440720810534604,-1.1866938739088977,10.731580945062998,0.9189680969464465,0.0797423704591913,1.1432348229023064,1.571036411021792,0.9318943700525453
35.0,3.9613453380883175,13.175017174637555,9.213671836549638,-8.606387460161116,-2.6136479703414475,11.164515198297662,-0.647178062884052,-0.880004832521095,-2.4951308956579807,5.940436699930632,6.1664022795507965,7.024910500577975
36.0,10.327460969881997,6.329375781928189,-3.998085187953441,-8.295317823561719,7.166945322237874,1.2063809259867044,-5.1634464904194655,-8.632239265988968,-4.222358782270833,-2.3150768207536747,-0.18472653656220972,2.3547722950163488
37.0,-7.313809395341478,8.487188762220873,15.800998157562605,-0.5602376456331264,-11.55793141472796,12.175373968464978,7.075955201073554,4.028241966426559,2.468248617358654,3.4215045698372917,2.064952010681208,0.3288789144571336
38.0,-6.899588662148446,-17.947517223599373,-11.047928561450831,12.446134610979156,2.074353817094943,-14.474847340631506,6.1163836450360485,14.027131392323263,1.8774672035102418,-5.42713640516295,-8.726514450523908,-10.56440554487861
39.0,4.372305222012193,-10.365075956651614,-14.73738117866393,2.939900485123335,9.561301687184827,-12.613066784729694,-7.823914779993897,5.867244856794213,0.4547050194142419,-5.222395385511309,-2.9884087887253505,-7.737017778834194
40.0,-0.6800234260924886,0.4817206348201939,1.161744060912402,0.12405217447501027,-0.9041621864489038,0.8354859053555579,-4.460886547872982,-5.046303928060377,-2.171171984602286,-3.085782232648552,-2.2702931119772867,-5.580225131749621
41.0,-6.3389939242696585,4.4757007143131835,10.814694638582502,0.9604955555422799,-8.548694346671184,7.658265874957201,-2.9303454976637293,-17.468950889132202,-8.249881787319104,-3.691441508083387,-0.7989045436192709,9.56516658159599
42.0,7.972233272724184,2.855419253132591,-5.116814019591848,-5.460492079670847,6.503424206753159,-1.1164205434430916,-4.767228459193539,-13.824238546220673,-5.643834537050023,0.21354607760628208,-0.5101915357146547,3.201632506327141
43.0,6.862724546929879,6.455624893633061,-0.40709965329690706,-6.626226880432178,3.5991843815966496,2.9624185740115663,3.4556974464132275,2.9350469245429673,4.284776099647247,7.788240316529143,6.976956649413522,7.232863751145798
44.0,-13.876363429014324,-3.9019572536771046,9.974406175337252,8.841200589310578,-11.960355258965386,3.056956687237572,10.454092599894055,18.414036513498772,9.173363906713842,10.810737177177376,6.832139685276449,2.9171529123344646
45.0,-4.748854592985381,1.019425522845728,5.768280115831206,1.891007434251194,-5.217394657415031,3.419537415312535,4.117198018015378,13.5787509047064,6.871765541588953,0.8216031110196607,0.17840790408412355,-3.6477984920807582
46.0,7.1416191479282425,-0.5635654849366782,-7.705184632864794,-3.2676850260858545,7.460763134578618,-4.1027834045752405,-5.021184477943163,-0.21132172611417666,5.2320635547544745,-1.5749154210448246,-3.8184294097677647,-1.5527944113692151
47.0,5.725499043553919,-4.244161645034954,-9.969660688588728,-0.8009470619878764,7.881816148019653,-7.14767143946405,-3.6568431350678026,-6.535861467679052,-2.7082810835287723,-5.968082431582165,-4.040901081701862,-7.708959947472479
48.0,2.277654719794137,0.3296443912146727,-1.9480103285793113,-1.2836306155657327,2.066691810148439,-0.8437841827258259,-3.374917087804818,-10.986720656139287,-12.25445117715813,-9.197979774891403,-5.3270060208827,-2.7714867763111224
49.0,-1.0679270149593654,8.104557457000773,9.172484471960232,-3.491121381784478,-5.08801164546769,8.687776303461408,-5.004565595064596,-7.465877485054401,-8.838455572503662,-1.2978250734375427,1.9989132673057548,4.920821272744504
50.0,-2.568742415208921,-5.894172257765581,-3.3254298425566686,4.270826151611651,0.3318497487785521,-4.635967199700674,5.119488274399489,-4.4316413565339285,-3.795022239777315,0.306178742026469,1.3571621167696986,0.5957823306862688
51.0,3.798155074911264,-1.7934967877194405,-5.591651862630786,-1.0271381048984864,4.64855483519697,-3.638964964508471,4.933348045580398,17.288151936654202,13.529432227726677,8.30538993393551,3.835361176753405,3.0613495804298703
52.0,-4.223997208073164,2.91923359097248,7.143230799045546,0.6406074297094345,-5.650657341178388,5.004641025629384,2.474235747637508,4.1028360316212416,3.3809457765741913,2.024375500800865,4.248824133312345,-1.0144261216695583
53.0,-0.43507534074220455,-2.215183797061154,-1.7801084563190082,1.3208508014628269,0.7072313704762796,-2.0277520878210726,-0.7427932250855478,-1.4432123903658436,0.42785672394856356,-2.7113348554241794,-4.341781172342037,-1.994550247281276
54.0,-6.168663927317688,-0.7106982895531522,5.457965637764517,3.4346951730451223,-5.775019570497633,2.3390981174830783,0.2598835129612138,-1.2829691497636089,-2.6378817376262425,-2.860665643497152,-6.754908848035708,5.056245817107465
55.0,-4.868066100038626,-6.133548136101894,-1.265482036063211,5.4865816090322514,-1.8364040338801613,-3.658943702266292,1.0519883448793026,-0.012424575873181132,2.8696143069237903,2.0621192479058874,2.801291435794788,-5.654076720940684
56.0,5.630190933034075,2.460511534822851,-3.1696793982111253,-4.075126986878988,4.371172463634655,-0.3152099300064397,-4.215550664077534,-3.2493356912277798,0.2503129915100639,3.0436370014903016,3.2591807305675666,-2.1101781628353704
57.0,9.476489352836618,14.54882693227707,5.07233757944055,-11.981433406672185,2.1796037118016995,9.773344331416283,-6.664976562771588,-2.25320852150388,-1.0495852450028498,8.96133830835586,4.211239782537231,4.45937708251885
58.0,0.6482157153816468,7.803974834591868,7.155759119210304,-4.210154848831218,-3.192210841760258,7.526552172670644,-3.6919284149202634,-1.7705078177783171,0.016587467227668906,-0.3690697986311222,4.569810915163226,6.62287156669579
59.0,0.6512694979808276,-5.1164677077888765,-5.7677372057696665,2.2394003086475953,3.19596893819218,-5.467300467822614,4.415305419772423,-0.7664670827168251,-7.112974020955268,-11.257214508097812,-6.805278852606262,1.8501362896849465
60.0,-6.761228787175844,-20.951967543844837,-14.19073875666897,13.861936558539787,3.702976425452017,-17.589737334996585,9.03188849505073,2.5986290307738464,-0.8103224121951422,-13.06530985806775,-12.955829426915802,-10.58175940886338
61.0,-3.845276555783357,-7.6658797201491256,-3.8206031643657727,5.76614671923246,-0.024212284293434916,-5.756248474232815,1.8768489232311216,2.2691312879589787,1.425701325675691,0.4398412400245437,4.381697710055278,-2.4406886522825753
62.0,5.376978534526093,6.441264191149514,1.0642856566233878,-5.889588300635534,2.1428264467492903,3.743167790050934,1.8945835202443024,2.8213547896813047,3.340460228565722,7.704959153032784,3.822294980284411,-3.047919677283396
63.0,4.562741100170218,16.734732045944778,12.171990945774514,-10.69897021025739,-3.742139822633156,14.445414593740768,-8.253952968618464,0.7264089654384187,5.638286336328978,10.239814433474848,6.560173222210186,2.551200543067272
64.0,-1.9145243286314182,3.0323329556294762,4.9468572842608785,-0.6031995470778728,-3.450351640786185,4.0607951352934295,-2.6921546190354406,-2.1456306759143033,-2.382103680389272,2.733018504646755,-3.859625771428986,-6.383849671543368
65.0,-8.886793744118803,-9.291801858146876,-0.4050081140280568,9.125249529668825,-4.264194298377879,-4.856737781638943,4.225119861700131,-0.9798719066472421,-2.4417490676960014,-2.854676912175955,-0.6034349499123722,12.384944087472373
66.0,-2.177502015153842,-1.458865377672112,0.7186366374817627,1.8516937291562567,-1.47482510197152,-0.3809857425628047,0.5967434689980365,-2.8558770600573236,-2.71760233006195,-3.5266738540300278,1.0156500590427953,12.043649853210932
67.0,5.111101092440388,4.057548001946337,-1.0535530904940398,-4.634070017712329,3.131555230014476,1.4858997509898366,-2.9323044324930674,-1.7462910576122586,4.5884938343628265,0.22108623332787936,4.214596974928394,-2.7872835500258626
68.0,6.946556617603668,2.8492893773788075,-4.097267240224866,-4.873168468510602,5.490780016251039,-0.6486089964734922,-4.968203190772395,3.2777305555404146,0.4875810662260819,-2.156293066966046,-0.32172461735263036,-4.279027331941687
69.0,-0.20408557616236767,-11.615024989727853,-11.410939413565513,5.932172225795319,5.6508171744075195,-11.470327334507427,9.116420627579869,3.014494277469952,-5.134523555999358,-6.486351505616396,-10.178098673023479,-9.861777337951146
70.0,-4.075081185474267,3.3056691026722715,7.38075028814652,0.4081219514894687,-5.758273764734715,5.294205254728615,4.274136475535386,2.683802120070213,1.7927941714571147,5.117182579496097,2.642564733096151,-6.046150016102223
71.0,1.8516722692069878,3.8722255413870657,2.0205532721800683,-2.913817296725504,-0.11305603095424721,2.9641959480337015,-5.049176429088259,-5.643544409927884,-0.6384580557682961,3.9164483565773978,4.220211696552652,2.402026141203982
72.0,-0.10576289834602415,-1.1243927045875621,-1.0186298062415284,0.6471415499038643,0.5084034711959791,-1.0620747129400647,-6.285032477332515,-2.8748802210946875,-1.3744607673978115,-1.12188398049663,-5.404930859653853,2.569240710457879
73.0,1.1099504471038544,4.87022024735805,3.7602698002542176,-3.030892997309222,-1.3506269162647788,4.321825696028947,0.37624990998999985,0.5567037905392888,5.095687159669504,-0.9138339684948671,-1.0314133330751456,8.479179390882624
74.0,-4.788409193626566,-0.6341956041946994,4.154213589431879,2.67640321226255,-4.496445000661543,1.7698503778123935,0.9950645054679611,-0.08098886815284839,-1.492826006623133,2.496891322342536,8.141555956344908,1.4305632438131566
75.0,-8.553850818723607,-13.193026815654456,-4.639175996930854,10.922903580096179,-1.9046102235184588,-8.897874846123177,6.22051083494118,4.111425310929048,0.8238037136933374,-3.1243581862069534,0.23625260146440175,-5.499468292401934
76.0,13.059322956408078,-0.18651721692498402,-13.245840173333093,-6.381968362453883,13.12440778057618,-6.765482486253472,-4.720789658665913,0.9081270813882147,0.6586781691932764,0.3069951474068018,-0.968207950367775,-1.2548777345837978
77.0,-1.9021091441101463,18.015222393994247,19.917331538104357,-8.077262331508562,-10.941188793255833,19.006916983679517,6.6577288787200715,-0.09554151129094668,-3.973350410317855,-0.651340396902454,-3.988582372022179,4.965479753099351
78.0,-1.853719467183323,-1.3006112655198647,0.5531082016634219,1.5577109114465797,-1.1603581896428259,-0.4032514212917908,3.512561104318045,6.731653685703303,2.9397469898481483,4.051745487662091,4.333744243800428,-1.6831735145957405
79.0,-0.13252583731102205,-5.551743411084374,-5.419217573773387,2.820840389619158,2.681513669080111,-5.510504450236354,-6.131863255244637,-9.094955472019368,-3.579516176786446,-1.9200111803428164,0.40097642906566655,-0.7465265771375087
80.0,6.173952897439987,-3.9704267813664567,-10.14437967880644,-1.1278216596055768,8.113409207247118,-7.003556137240013,-8.835809710902637,-6.745937250661834,-0.47467322163617964,-2.9778449571583545,-6.052200885769421,0.2006292939057409
81.0,-5.045205819781595,-3.530096437561639,1.5151093822199568,4.333952694295141,-3.3307658577485344,-1.035638744519733,4.368741289553217,4.458540262879087,6.002785822800695,-0.09965790828910015,-1.2955932720739571,-8.0514239050779
82.0,4.049517008769168,4.383972306555158,0.33445529778597377,-4.25514848266826,1.882032647896734,2.32619714274054,-3.5493225201296763,0.028002345425297337,-1.4769908289960854,1.5965425770734947,2.8260179976898634,0.03201845353636834
83.0,0.5135294336203591,4.619503929808356,4.105974496187942,-2.5296686807257,-1.7732376589326186,4.403794281415906,-1.0844868693251457,3.200320741454305,-2.2313260104031736,0.5150946812993754,2.2384178525803207,6.026103065860206
84.0,-9.7518036751703,-5.090297442378552,4.661506232791689,7.458025376354396,-7.182619523241581,-0.1765487173431466,9.490990855278778,2.097537270219785,-0.6121938785682739,1.0239195733404038,-0.7225347667278297,5.3268774657653175
85.0,-1.405584052229265,1.5629951571622542,2.96857920939147,-0.11686627304037378,-2.15981852538772,2.2235074861430904,3.975720673970606,1.883638854552359,-1.1759212376692143,-2.2143825755590445,2.4241399181447245,2.2644688390334227
86.0,5.310949282633808,4.771509886411016,-0.539439396222801,-5.073642266649251,2.87799730111467,2.1524866742554813,-3.7855353227465076,-6.163693614185626,-2.6172866163061186,-1.1442351334114478,-4.798616997834053,-7.915967877523329
87.0,4.029488939129057,-1.8560286920370128,-5.885517631166019,-1.0345688265077397,4.9143968679731564,-3.912552543584793,-1.9412062509929133,0.0914322551287512,5.760055466762771,4.239905372954639,3.866215923507231,-0.887165239302532
88.0,-1.97511135430458,-9.227404284902367,-7.252292930597722,5.578474139463495,2.6773683476458467,-8.281141976322068,-0.3690576780594319,1.5580591823759447,4.281002277867453,1.49813753900494,-2.6026478466315566,1.1214918855023999
89.0,3.2519493489585556,6.142072840511789,2.8901234915532887,-4.719544667155424,0.14313398662626264,4.554004414563419,-2.3039133594644197,-0.9251649183401685,0.545277568678668,-2.537988202027762,0.12703383193239126,0.00016476770752910097
90.0,-3.1998360965280517,-0.11215737976863305,3.0876787167594117,1.7083533102537756,-3.1009997663234548,1.5265114594412554,-0.38833548541295704,-0.5784711080561755,-4.010986478571293,-0.7225653366673961,1.8399292765799033,1.9886199875321684
91.0,-2.1262736336398387,-1.3590222903504445,0.7672513432893595,1.70890654954313,-1.4021057689886673,-0.3342086860788296,2.173140078728573,4.002158509244623,-3.681038912689435,-2.963016708556139,0.6569513767577719,-1.6616616636498744
92.0,-0.6669058703740385,3.8686477252661,4.535553595640085,-1.643736709947374,-2.6331922645013353,4.2451031633627005,0.47052760903932267,0.6932886688025279,-0.24645161931226545,3.5587355043124447,1.361359277439177,1.232983857532519
93.0,2.385756063594875,2.3703105368312847,-0.015445526763631534,-2.350672742564802,1.170734710539306,1.1447915925426342,-2.0499599689083894,0.13573393373859022,0.786549729460719,-0.0761616279168118,-1.7011997534929881,2.046877764884616
94.0,-0.41643985401297,-3.9544957433528642,-3.538055889339919,2.2072179190542203,1.5326634888281325,-3.775867618182116,1.4834138055352086,-5.44508770999583,-0.49683184611110653,-4.388949934730316,-5.670038336578522,-6.154706340158172
95.0,-2.5155780453952046,-3.8784971409295608,-1.3629190955343844,3.2175379150538905,-0.5245321110263967,-2.5690647440176964,1.6220693006691815,-0.43635396116230685,0.7032645406120559,1.638760619605891,-1.5325727589284577,-2.0518246542095286
96.0,4.031820699977721,5.593269435890868,1.5614487359131206,-4.788826597152001,1.2089001643884938,3.55193870086295,-2.4169680315939845,-3.1736021168895436,1.4549717978957664,2.098419970217555,5.633100590287206,5.40119657723056
97.0,3.514258331092866,-2.9170034115738153,-6.431261742666696,-0.347070880155427,5.025303920218227,-4.698617672917651,-1.0672213871003873,2.6244209062320754,-0.42435391568178327,3.0154188753515703,-0.9744496170060137,-0.9447886710617239
98.0,-1.9710595714245127,-2.234467774641018,-0.2634082032165046,2.0626286696699587,-0.8808098506332931,-1.1942757730354607,0.34842651596584084,3.8873722064534775,0.878828931892343,-3.6509228924494517,1.3015290439709708,1.8027409578733506
99.0,-0.0019743157653386856,2.2709793736067185,2.2729536893720685,-1.0873190973139968,-1.1664315604769826,2.247960071494476,1.2801720620400379,3.053161719295395,-1.5556244596639375,0.7552196123091874,6.755240254138743,5.815862270215239
100.0,-12.646127054529028,2.5930063512050827,15.239133405734108,5.002934566284434,-13.89611515796597,8.891956213444443,6.269599015786464,1.742129619439737,3.3083674429870826,2.085785823466219,1.8221637079234592,-3.2886818599773497
101.0,-0.2212106713854114,0.9949297605112493,1.2161404318966307,-0.4036063412236084,-0.7549464155412835,1.1599119447985453,-0.04039323422751906,-2.833727859293271,-0.6829596868950161,-3.3736133771613126,-9.091023544915899,-3.2767816948310866
102.0,13.238579285502361,-2.725221580544435,-15.963800866046842,-5.1892624598438015,14.561286655285485,-9.369250785892573,-9.016839001432203,-4.7995629931777515,1.2159117075708146,0.9683352312202491,-7.791623798056145,-2.1643831999435963
103.0,3.289683784619541,5.046994426245148,1.7573106416255886,-4.176460918034698,0.803304684129718,3.377120359491201,-1.3089250445663798,2.562585666996027,2.383006092730501,4.710908525645352,6.386192790738464,2.7708941597373515
104.0,-2.134970376443225,-6.93403909791364,-4.799068721470393,4.526345133563243,1.3705181109856155,-5.891457871862013,-2.3885043257856937,-2.1402779351788985,-5.766818275221121,-4.560868761264733,-0.05241887533488576,-7.364506290901656
105.0,-3.063400030692973,-5.433990942395127,-2.3705909117021267,4.236367160794117,-0.38209528251696345,-3.8475639402239272,7.489561910396019,0.03539842754612654,-7.032064684363054,-5.470081724582978,-1.1295207448602451,2.0015187454425787
106.0,1.2983148704694334,3.104858515533049,1.806543645063613,-2.222239317322226,-0.2044064721186689,2.4332647290679557,0.2212094351247793,-2.6810038695221383,-2.6300361648827866,0.4403805008366437,6.073422970493646,6.760759804292929
107.0,-4.742247347475392,3.5998015319979277,8.342048879473285,0.5393743240267332,-6.564722810299346,6.028814547836823,1.283144374324816,4.44270903495739,9.27790129736953,7.043408007142326,2.9928358460757547,2.1824064113981883
108.0,-5.1961803808757105,3.3048111272286285,8.500991508104299,0.9809737657004809,-6.867356742892241,5.882324997674818,1.124719094224998,0.8917882962934804,4.487045416546843,0.32673957388273767,-5.618690569281279,-5.632253948811862
109.0,2.1042602678160223,-0.9750108494196881,-3.0792711172357246,-0.5384710952262683,2.5723931619556066,-2.049961951588555,-1.0370384427378705,-1.2231394758332814,0.352764818423863,-3.4883616231750736,-5.721131228023382,-1.7594067133635953
110.0,4.92279441932907,1.4492662741420066,-3.4735281451870303,-3.1641790065310316,4.17345881924728,-1.0400856368473073,-2.317807341042772,0.8202979260874936,-0.27785967423645896,0.8433071151960487,3.8379992719078184,4.758175466400166
111.0,2.7438369608988915,-4.170992118575553,-6.914829079474391,0.6582921970748659,4.87447384234169,-5.577834956398354,-2.1781883651587925,0.9449406618135376,-1.162614635456342,-0.31210025922695883,0.3307546375907805,1.4340989398390729
112.0,0.9576168966512293,2.9373837765627315,1.9797668799115473,-1.9169294712698635,-0.4763350703595446,2.495860159112194,-0.9057393146411012,1.3239188950678198,-1.2947886049557553,2.4699557581914977,5.2097822652398795,0.960868590201962
113.0,4.851603119067139,4.165905440633252,-0.6856976784338983,-4.546040685638752,2.7149663757380673,1.7738061785849615,1.0427311924290552,-1.373177130660041,-1.5693032209639923,4.292617916524819,0.8295029930635851,0.275277590327324
114.0,-4.204893861050583,-8.636011880966231,-4.431118019915737,6.474070825577811,0.13094310190198719,-6.498898792834181,2.8347432004035125,-1.3479853224084002,-0.2811352809365022,-4.4533957514173785,-4.262294754803728,-4.913052040227984
115.0,-6.95674073808023,-1.3304338941657634,5.626306843914325,4.129103242468114,-6.277599927966707,2.109215441374775,-2.1847470330481844,-2.911464090844036,-3.0424969766441943,-3.8855183157239797,0.3884099340484708,-7.2156856771549185
116.0,-7.005741738746515,-2.0070901817406477,4.998651557005726,4.498712832945501,-5.988791266952422,1.4649551862822303,3.6620274856038053,-2.133869315273369,1.0389533535567037,-0.3899874853720888,-3.146147553481345,-3.1373560804108225
117.0,4.082595495910898,-0.2609458666138442,-4.343541362524812,-1.9169109625937637,4.1500247066607905,-2.2467318769614915,2.02725496013017,3.861829578301618,0.5319672504478246,-3.416176752985324,-7.444429918640349,7.724044232988988
118.0,8.419829223004582,9.456932526728488,1.0371033037239417,-8.94778098471416,3.711255693196075,5.228326515435048,-3.3160827485392836,4.07300055317992,3.092920215149751,3.4234792946611656,4.409541656569329,12.651720140189008
119.0,0.8020750631776705,2.723200140126778,1.9211250769492463,-1.7784939886640885,-0.5346548911361686,2.30337839845844,-3.5640164124708225,-0.48526462558477856,0.14880716478251355,3.2592582939358268,7.895913020926065,-4.358997247737368
120.0,-3.9530863858874503,-1.3126510104698452,2.6404353754177325,2.6102004512626333,-3.267251450338679,0.640552478179921,0.2399990009848485,-0.4613544182025262,0.914551546253536,3.698911945378522,3.754988982788055,-3.6466080505490224
121.0,-0.9164039129395158,-8.954200511181735,-8.037796598242137,4.9869631470880575,3.5147745319766495,-8.526410393447476,2.447112583147124,-2.272863211824987,-3.133689355125227,-3.6688396767234748,-3.4308699468002923,-0.21473993855757723
122.0,4.609124717948356,1.6559235768010794,-2.9532011411473027,-3.0813129432701527,3.8154889072475924,-0.6069479742426518,-1.8573375130200538,-4.4642758884117075,0.9450890784341326,-0.3519204215984575,-0.9822352294187691,-0.05646281816300425
123.0,1.5692748427817005,4.880079114107927,3.3108042713261634,-3.2489391947794886,-0.9151642734071039,4.133548596403519,0.5681695610400801,-0.07105261851281197,1.2955949720329059,-1.2503261594266124,-1.8356196294811942,-3.3931692429835465
124.0,-2.4434656699452466,-1.7707787765898897,0.6726868933553098,2.087995871445283,-1.6026449676946393,-0.5103329948722819,3.2508309706978276,7.428079767343199,1.8243678991586023,1.8233823689462525,-1.6414632400330076,-1.8360365714318654
125.0,-3.8513751965219347,-0.42036869051773385,3.4310065060042065,2.121230119769209,-3.6056196257362103,1.469231911708228,1.5356195639858798,-0.36707557392234014,-2.4266548270570283,0.8930040759060701,0.01608617476552099,0.71720826712811
126.0,-1.8388904331172569,-0.8373872262067509,1.0015032069105458,1.3253884914508642,-1.3804000731286408,0.05098721100468284,-3.6339933669374025,0.19620397952855173,-2.4977352903175305,-0.3324162921974291,0.8425921179973372,2.828856646692217
127.0,-1.7586598278684065,-1.215077571064971,0.5435822568034925,1.4728460849283866,-1.1044323064231083,-0.3632525164420295,-0.7902481524392868,-0.5913727414908938,-0.47877456894280246,-2.4073561556742655,-2.8841587976403806,3.034154978174882
128.0,0.7090427115106477,-2.8476436150176174,-3.556686326528223,1.0516601816665019,2.108415304471311,-3.15039469793234,0.30068728178424386,-2.0808191084435235,-0.5118291384282375,-1.5640693927257043,3.9410785397861092,1.2910752540774844
129.0,6.471809480112977,9.8140380954564,3.342228615343431,-8.086273542857185,1.5456292041153412,6.548566026497031,-2.0334973114597625,-1.0254353525322677,4.555899079053681,0.06927736228140385,1.7442006697017691,-0.46315292615081227
130.0,0.22871950323805557,-3.9821347082583793,-4.210854211496457,1.9292742576746802,2.200894358908969,-4.130449772170476,1.450607717251546,-1.2651470889197087,0.022132945866800036,0.5568623248304821,-3.6915622248607987,-6.043031211684786
131.0,2.786009486467352,-3.0434110982814975,-5.829420584748886,0.0991192990834861,4.283197283160105,-4.395819746697198,0.4606386828521768,-2.0627984868771665,-0.9679977356173723,2.1384398794400576,-1.9709911785626806,-4.532198428572793
132.0,-2.8179233441283342,0.47930642078688535,3.2972297649151816,1.1365262588558203,-3.0919663744882744,1.9265558439431625,1.4832289231046616,3.7185090788533888,0.4950736944433549,1.3368053010817436,1.9857024687638165,2.287153110522422
133.0,-0.3221328545751052,2.4002460659136498,2.7223789204887154,-1.0754316209594277,-1.4883321763607056,2.521021441864125,2.065498055540267,3.045144357254526,-3.6618671228577475,-1.0573854942822716,5.38483967613414,6.476075235250584
134.0,-1.3303912362155783,3.1010239231422885,4.431415159357849,-0.8469074603005795,-2.8537710560611824,3.8065026436451057,-1.1498349827868108,3.5667335783731198,2.0864955222229984,0.7711591913401079,3.802075208779521,8.039151555584942
135.0,-9.239774016428141,-1.5140089303918072,7.725765086036339,5.333027000592435,-8.455890841770298,3.069010871428279,0.07259640661638134,-3.743590925069756,2.8664724566631024,0.5333866724762923,-5.090000002111318,-2.0792156255475294
136.0,6.503825457479374,-0.38168866619446495,-6.885514123673817,-3.0281052150509016,6.728116093559274,-3.592388814918797,-5.543315586202369,-6.276476506754938,-3.737166272997589,-2.435412587308346,-7.650608114201953,-7.842023793067833
137.0,3.263847557326486,-7.511465661717292,-10.77531321904374,2.1571665442228634,6.985214963511955,-9.185039016998063,-0.211340243320417,0.2029670655859368,1.4678408045995015,1.4985824963208982,0.8488838672690902,-6.020448044456526
138.0,0.6996181042084539,0.7148533498565084,0.015235245648086426,-0.6714861872438747,0.319030733489595,0.31630414531571827,1.3465968012363172,2.1522043147415166,-0.3983674907309091,-0.560110055758672,1.491298702110922,-1.1305258806374527
139.0,-0.9479636732533104,1.6502502248166213,2.5982138980699414,-0.3910826434508109,-1.7888153600228356,2.146358266243529,5.884248485100814,3.6887162347964697,0.9728419778583499,-2.256503709729135,1.1109014123817809,5.008318982376888
140.0,-0.3020045947225316,-0.4394677540660341,-0.13746315934351072,0.33286703180325317,-0.09676613364498299,-0.27186654336913874,1.1056106180989258,3.4197722382489504,-1.6998824097442014,-3.52576686415465,1.4265612894369943,4.352751677660024
141.0,1.5190485448148212,4.723761764993113,3.2047132201782658,-3.159284673842816,-0.8624241448581769,3.9804213009872527,-1.1856372715420223,-2.55093162402728,-1.011931862569736,1.5942300858435667,1.5440646731677052,2.1540331788558373
142.0,-2.5207813297898265,0.9203042822413248,3.441085612031113,0.839015453285898,-2.9313312937407545,2.202596088245022,-2.8318047159829414,-2.602447347984079,3.5290088197398304,5.444906709395205,-0.27604660249800395,-1.6002735153468355
143.0,0.045374553841993626,3.6203542286629027,3.574979674820896,-1.7973467861590482,-1.7263772439003575,3.6300493135075524,-4.753929934608859,-2.429822133971223,2.013536611392464,5.668492925451611,5.483310596887449,4.16437578268368
144.0,-0.49795070060248564,1.3308393445592748,1.8287900451617551,-0.3841306625868591,-1.2138214181697182,1.545334399645848,-2.8246999533203874,-2.9574039205166978,-4.155351445205295,-1.7792563064530476,-3.6425759751813596,-6.367135323536363
145.0,-2.953094728086917,-6.186981052912742,-3.233886324825836,4.521420447264254,0.16137964891231377,-4.735658240772255,6.241941756232391,-1.190150728837306,-5.274197620907624,-7.769463826155904,-9.198934792464321,-13.28977456449132
146.0,3.200261448938442,-5.209491439305044,-8.409752888243487,0.9553505036178565,5.822160193989913,-6.831318719388539,2.3799024299194897,4.738942623671014,1.665147297743217,-3.099462896024546,2.17042757303987,5.878779077536079
147.0,5.3267684757233145,1.865588138819942,-3.461180336903326,-3.5657172170414544,4.331849822920994,-0.8226678045676246,1.2304181354377353,4.970822312470055,5.203633122589307,2.2588991255287714,3.4988240880252115,10.739308828666648
148.0,-2.141988620494578,0.47879912945178876,2.620787749946435,0.8643257312527842,-2.3626591229462606,1.5951712338302182,0.8165589698721554,4.714832372879148,5.513316515856459,3.7825130548990176,1.3248252643026788,4.1680643015327155
149.0,-0.6724568439880751,0.29402269642771217,0.9664795404158575,0.22472129206945934,-0.7968923252833335,0.6648262578202908,-1.261703991782666,0.6409806564884493,-0.23106572033853734,2.221625520922095,-0.6306472163321477,-1.8040793458255964
150.0,-4.74128105199585,-2.7533629211059933,1.9879181308898657,3.706236380229199,-3.337392378805753,-0.4365383353554555,0.969182158728563,-5.3830083975823575,-2.6097842201083545,-1.1644226103854098,-0.7726066296641961,-8.000864719937361
151.0,-1.1450275257490887,5.112365216125877,6.257392741874909,-2.024189284164592,-3.7482271978464086,5.7040793812709385,-5.208977860389193,-9.625171042692271,-6.853807050577889,-2.5731381747181454,2.522841071536417,4.673548500197509
152.0,2.645090501865524,1.0562053026538503,-1.5888851992117647,-1.813722867989906,2.1525597244973356,-0.24769774546292256,-4.275769752537948,-4.042308327968973,-3.695954292451198,1.2118199346210823,1.153084963895065,-4.0920850514656495
153.0,1.0921494870086554,-7.3468592084904785,-8.439008695499233,3.08307255430311,4.725544996070551,-7.870112566901044,2.5422548628948607,3.467774574163091,-4.299221501725146,-3.3718867228768294,-2.8036553194345677,-7.238432600453821
154.0,3.3997020029214573,8.610844411515583,5.21114240859405,-5.9729472003835395,-0.9426822425654473,6.862155632675765,2.7301828374723756,7.822108059149841,8.744490932666215,2.170533086606607,-2.1934955705557178,5.901019690802814
155.0,-3.12214383003386,4.564141250571035,7.686285080604863,-0.6889392873124622,-5.358496965764561,6.162674824381055,6.219531025208024,6.014941686817737,9.340252422786993,2.066299177848755,1.7552674914537865,4.153196989299003
156.0,-3.1691446062083415,-1.5177170910486053,1.651427515159767,2.299255229435719,-2.359175565876174,0.03142159079232898,-1.1982826592087736,0.1899140487268287,3.258836041343325,1.840861496056954,-0.20505999707159,3.0354826565164448
157.0,7.520570679170449,-5.959487969659216,-13.480058648829598,-0.7408990325468843,10.479240220273946,-9.752178833928486,-3.7488159287450946,-6.2327851228019995,-5.014810804842686,-3.0502977024266418,-2.6692286096151507,1.1749411757276291
158.0,-0.7514541444246394,-3.037456380626446,-2.286002236201723,1.861569571690516,0.752637787454753,-2.615072022672551,-2.59240267201052,-3.457783359540018,-5.553259971798396,-2.822689261843211,2.8672338526064967,-2.0691604875864855
159.0,-2.699080439527988,-5.085194001505487,-2.3861135619774654,3.943218532037726,-0.1666502663446764,-3.769136105634633,1.2308228651600848,-0.5426536244886875,-6.079888623390338,0.31784732084353684,1.4660910979485957,-10.955699355231568
160.0,-2.9750656050599007,1.6563208847161928,4.631386489776078,0.6337307194859214,-3.8125168009861583,3.187258157869608,-2.4752795796098104,0.8486418608780659,-1.7112277904377757,0.7979071156043773,0.8159889453578086,2.4554178583565047
161.0,0.14729272165407536,5.718423844532529,5.571131122878399,-2.9610329942166556,-2.7246992969741557,5.686667437068842,1.5505914068065159,0.7996867778532969,6.487623320235073,2.8464678942143022,-3.308584921775875,5.846748488019776
162.0,-2.2232064785834256,2.762158904788705,4.985365383372087,-0.304675221823721,-3.5458368606044326,3.8359563284388765,1.6681836868645252,1.5762691400711883,0.8336823745673083,-0.186144006231044,-1.2278440267280302,0.42331683879292514
163.0,-1.1751992587865292,4.006045731780153,5.181244990566671,-1.3818013684117374,-3.2087588640220894,4.555379759395272,5.43243965084487,2.8565173989340997,4.499529328744802,1.1090544495582795,3.887523257515782,-1.8963043617925348
164.0,4.489592382994495,-2.3210144988978816,-6.81060688189235,-1.0609635226064031,5.60855407967361,-4.603960273488728,2.7601965400262856,0.6318986931885914,3.2868322008120714,2.8300412788924607,3.458026474915925,4.566421850640714
165.0,11.405430856146317,-6.054320622534321,-17.459751478680605,-2.6603389204565477,14.460099252869302,-11.715312305995358,-7.018826878573395,-2.1610564794580367,-2.8343123724918047,-3.89376998586217,-4.792675595000201,-3.464859527776002
166.0,-4.969531382436619,4.740936199992717,9.710467582429352,0.12535200996993479,-7.319192406111022,7.269975676084025,-4.112413351373432,2.2951012004910774,0.7683009654003361,0.509908278146793,0.08200994847800525,-0.545060888477906
167.0,-5.089264909562617,-1.2505605861513749,3.8387043234112332,3.1026221255869197,-4.446067848851043,1.263377631286497,-3.0730056220934876,-2.603568502849845,-6.297493383740928,-4.6340870515430685,-3.8499534693518696,-4.109197624027027
168.0,-1.5572641605294302,-6.480463626283647,-4.9231994657542435,4.034871107690924,1.7016141399884046,-5.649884398704788,2.062553806054798,-7.711315645821793,-7.921600882612187,-5.727693926919398,-0.6140247360833677,-0.5398391781520315
169.0,-6.999746976476491,-2.145907420057208,4.853839556419261,4.596345143923494,-5.983429195480673,1.3294436696874652,4.765137501098275,-6.844782144688139,-5.196580493328638,-1.1816283095226692,-1.472144972502259,7.952954213030614
170.0,1.8881772769464336,6.381174234449427,4.492996957502994,-4.102326253187403,-1.3538515196628715,5.411803600005505,3.785116870808998,8.993167308197954,10.770958981775987,11.227423885574833,5.637467243306407,4.976862575733949
171.0,2.8139942462053615,3.6563341948628176,0.8423399486574752,-3.27319030690256,1.0192845848659262,2.2200902993156144,-1.9164912052300216,11.289598955106134,12.036474797007312,7.586114488354799,7.763800734193575,-1.9559782286391556
172.0,8.810123311868715,2.759399320044245,-6.05072399182445,-5.816362502174068,7.470338487865291,-1.680535970164789,-4.782258314822789,3.0283751210443377,3.886283920921315,1.8996099935838284,1.871186352884989,-6.9012426739567605
173.0,2.236274600572965,-3.4366346381934836,-5.672909238766448,0.6510151021469546,4.000338202174339,-4.515413014503275,0.4371933746860073,-2.8458203415924683,-5.533981779031086,-7.924671404312214,-6.455350882584047,-4.797130146692222
174.0,-3.5076493451007327,0.15650183386165994,3.664151178962369,1.6487273640381521,-3.6151053920496095,1.948993589524179,2.6856786262501138,-6.139288641557904,-8.081316227647852,-5.692815936052313,-5.278730622076738,-0.3251491036764813
175.0,-3.2163402760332884,-3.987759242671042,-0.7714189666377956,3.5745632926078326,-1.2513712288708316,-2.336565349566956,3.948743251995692,-3.203554434898635,-1.4576724194929414,-1.0562720836218675,-5.026369003142254,-1.0471729044832239
176.0,-0.4230037828823514,-0.347396329954345,0.07560745292795645,0.435406698583674,-0.2821245342430594,-0.16326337928550028,-3.030548972701994,-2.839839514063502,-2.3006867846534726,-3.6339459814163853,-1.18100575701631,6.751705918958006
177.0,-6.068622515301295,0.9783221072922099,7.046944622593472,2.516273753344853,-6.519192914938475,3.994642252990674,-5.033152454323764,-1.058446490413809,-2.0877970167890356,3.171122113667278,8.02290582649759,4.154267800710452
178.0,-1.8563967778662103,-2.0494393609986004,-0.19304258313239764,2.003727908366923,-0.8803246888110214,-1.1324771019928617,4.975413563535625,6.0275520547505534,5.587721011258678,5.988840064822465,2.325155944689251,0.22712236865548974
179.0,5.50450224565889,-2.737112987579027,-8.241615233237914,-1.4096253467835422,6.896589758789859,-5.499237433151016,-1.9968374501300474,2.7105860953090164,3.7628033573178308,2.89520477835472,-0.18592618021046503,-3.001169935539143
180.0,2.5245582972436984,8.507410270159166,5.982851972915485,-5.539558762548966,-1.7076460817127104,7.230422041155755,-1.9568266020014753,-1.120280995181146,6.288081540398003,0.7893240523642775,3.028342100287383,-3.988391709123359
181.0,2.076216903161985,4.181862610845547,2.105645707683573,-3.1507554869422116,0.010310374551169899,3.1193750572556302,0.44846294280849125,0.4367902284934887,-1.9183757694393595,1.4099703461016204,0.1614342335181167,-2.5723484433538872
182.0,0.8393970903714361,-3.666182512808854,-4.505579603180267,1.4711726622709684,2.7054443279449463,-4.043176302004387,-0.12409779455890257,-1.6241954786379522,-9.662789804128455,-9.055585804244489,-9.513211959283716,3.607176210408422
183.0,0.34804720560597824,-2.1210888830298718,-2.469136088635831,0.8649222915147888,1.3722434722653392,-2.262993766808432,4.3467966614606315,-0.6468289494829629,1.4768917288301235,-1.493050697685927,-0.3959626537702281,10.44559880145533
184.0,-3.961837527685822,-2.442731242272278,1.5191062854135544,3.178731687284278,-2.7692411586782684,-0.43705135707878684,-0.44622202311338466,-0.40897556298378024,-3.0244597259856008,-2.9524741930502656,5.209882274208139,4.45147392619748
185.0,-1.3374286909423247,-0.8338610855884108,0.5035676053538978,1.1378416429025964,-0.945926843263772,-0.22259602371735832,-0.4677605269991676,1.620821846585275,3.9042259131680406,5.557173612555953,2.676594138315877,-7.638272855313382
186.0,-3.3523612449799067,-2.2677267627303137,1.0846344822495577,2.7799114408353462,-2.2452140368552014,-0.5704068543274212,1.3272929247849854,-0.017237005491309354,-0.19076309854216067,-0.23287037151888423,-3.430486134344179,-18.186725713043582
187.0,5.492617187293299,3.785554932601447,-1.70706225469189,-4.672751411246689,3.6475088353539245,0.9835726495559554,-3.270259761733597,-2.0672579154624016,0.747935543956574,2.642126471779352,3.3509175594789165,3.175757038735603
188.0,2.7517718110730103,5.50315764366408,2.7513858325910494,-4.085178811710762,0.0429496678917205,4.153202195316642,-2.58686740872474,-0.43965509854284424,1.575972211121134,4.643307812758108,0.24257872238630052,2.4521895750364138
189.0,-3.4742905685742818,-1.9168599409351978,1.5574306276390877,2.6575794252067944,-2.555101309290063,-0.1508985960350948,2.39552424305971,2.5188992982591194,1.1691872871765245,-2.6668847989171005,-6.2041112339902345,3.6802434118481937
190.0,-4.978585663733551,-7.0197373618418135,-2.0411516981082323,6.039749398002156,-1.4298412465392238,-4.499314670674829,-1.007019717393682,0.035631545291317956,-2.838211972194328,-5.817922392718757,-2.447123236981713,2.449784861690415
191.0,4.609416539291088,3.0752401687010193,-1.5341763705900253,-3.801022444012891,3.0333682562807316,0.7242876245238807,2.6254700140970746,-0.22528405376389765,-0.34321421865761725,-0.20484826790422384,2.5512640394173554,8.263707204172224
192.0,1.8820324350593503,3.4402432629581745,1.55821082789886,-2.6978440729194113,0.20421926370162224,2.453357396100543,1.315991189782241,-1.3870413879538095,2.4647044288524627,3.7256876445483664,4.613456616254059,2.663314037984455
193.0,-0.4186380295211083,-2.853890372072234,-2.4352523425511188,1.5996042256316012,0.9727268099676837,-2.6120238614042117,-0.5698145812971395,-1.3044063747983656,-1.21381695722703,1.196168486536267,2.6238003333360544,-4.564439968443231
194.0,0.5703076513056167,-1.3118796387230491,-1.882187290028685,0.333480005974281,1.189491657369151,-1.565018770798007,-2.4965851387298854,2.8702543732092254,-0.732946772220729,-1.6472491986930038,-2.5294736295947655,-8.865489147173239
195.0,-2.0063539254665743,2.7669709190504737,4.773324844517003,-0.33936422275824185,-3.350710155865255,3.801860787276557,-0.6610195283208569,2.0993991611770446,0.9091660308889427,-1.556028647706359,-3.4212057085921517,-1.9087530552100072
196.0,-1.8461690564847517,-1.5597437774838319,0.28642527900087256,1.7447350306412501,-1.1089846139669055,-0.6835826360374315,-1.0536667456946356,-1.6702620939256234,-1.669989729013479,-0.36067672438307075,0.08945598826888856,3.9997957639962296
197.0,1.8182209039183623,0.3007060091195841,-1.517514894798813,-1.0935517124691603,1.7025812402055809,-0.6547608481557122,4.318178825443801,-0.8068755207722904,0.1875152043733464,0.3835927742426589,2.3516981371275554,0.6654604177486846
198.0,5.364775472196097,0.9302794753781398,-4.434495996817994,-3.098302535801895,4.936087685113674,-1.7186032852241826,0.08794876656491568,-2.087695271363424,0.5201017343544816,1.5733201553545992,1.1391954427530169,1.3615124237734988
199.0,-5.799837452030256,2.453994554496673,8.253832006526928,1.6481780217184314,-7.064269092893806,5.389239045505656,-0.1826786537676598,0.4365771387867623,-0.023494215380225225,1.0008882337754534,1.3526228635631947,-0.18827827873896785
