Time(ms),I,II,III,aVR,aVL,aVF,V1,V2,V3,V4,V5,V6
-200.0,12.81417980875281,1.1612835120586107,-11.652896296694296,-7.022553731148709,12.214029379067325,-5.239274733675328,-4.343854769192763,3.681541009523709,-1.3141739241651194,-2.474273663703119,-2.136656801946047,-1.6892018859663065
-199.0,14.715926106013606,1.495921377092703,-13.22000472892108,-8.134934459750786,13.949709999990459,-5.8545459248678435,-6.56397811443997,4.397930893931129,3.588759185886935,-0.12498684849803898,1.5019142767870388,-0.6270839766862792
-198.0,6.680479214348808,1.6786838081136173,-5.001795406235396,-4.126507773993897,5.8215736628866175,-1.7278722010596237,-3.0029733500227027,4.816549956600495,4.067837998991344,2.6868632069578036,5.542509708835001,-1.3024348393094436
-197.0,-0.660491098747717,-1.580435836618665,-0.9199447378711234,1.095938866225623,0.10746279055102903,-1.2305432456446435,-0.5511072646763413,-1.6348528682139136,-3.3111069341227077,-0.5216756720393418,0.8044336457372196,-3.5722113262870767
-196.0,-4.899895759448579,-6.237371372184243,-1.337475612735736,5.622605008426988,-1.727051215130201,-3.759716609203374,9.272000074520715,-0.07485385555321356,0.9792047967105525,3.5521550084615634,2.416987279536448,-1.9411472316559804
-195.0,4.905804693199074,13.868409651554863,8.962604958355909,-9.412957283417821,-1.9748489204354809,11.372446017942059,-7.423824677667448,-4.970572090217378,-2.4570079995559433,5.2379529126365245,5.358966465212841,10.068953786910175
-194.0,-3.6180410298361023,0.15047032644706126,3.768511356283409,1.706075533947488,-3.7172259648430774,2.002531670905813,2.7279249097528164,-0.7840294469079585,3.6919962989514996,-0.5349269042474574,-2.80474285459134,-2.468046619286656
-193.0,-11.527247879330194,-10.791789557860964,0.735458321469459,11.207419284285077,-6.153332716670454,-5.0576181925364185,6.336940396119685,6.812113304382029,-7.176801377641516,-11.466960657809635,-9.05006375212496,-10.409275004510583
-192.0,-17.742892108624954,1.6242709644466187,19.3671630730717,8.023359705005348,-18.57605350012338,10.549584459914,0.21676183622583434,-7.883832131799389,1.0289257266747533,-5.3335408703238,-8.14935164062737,8.207152495225017
-191.0,22.968474618914847,6.230433683298961,-16.738040935615913,-14.56413571928288,19.830766272612195,-5.276493487039234,-8.274950580202647,0.44923663567208916,4.821344676256983,9.188119662491328,8.8551105831888,3.5268473401282305
-190.0,-4.307679010692983,-6.677252946479282,-2.3695739357864474,5.439443619321109,-0.9170984978912102,-4.546794376072825,1.8511630308498996,4.006868802908215,1.386593742345401,2.221400403532803,3.1624225799645,-0.6410288108108628
-189.0,18.16152659189274,0.07121798046625027,-18.0903086114267,-9.10116233783883,18.092645418540588,-9.03645200134601,-1.7705007796290126,1.3331042602018126,-0.12178430976989718,1.942583325753564,4.478617049153165,-0.5595682614813242
-188.0,0.0047995947855525856,-4.027859363621117,-4.032658958406841,2.0172803175882748,2.0569771937670653,-3.983997850451772,3.5702466864830926,0.08989967024300749,-0.6156490894739302,2.027178978445126,-2.872857331573743,-8.31213182657358
-187.0,-2.0379185705662373,3.828550950546664,5.866469521112871,-0.8956590611594669,-3.9990215269733613,4.808685220169124,1.177925800445734,-0.9289136270806471,-0.91533277714531,-2.450061852308429,-5.918225479506629,-2.2070707832848373
-186.0,-18.454846346655565,4.110772137371468,22.565618484027127,7.170895996413788,-20.482310798270074,13.372345866081735,-1.591419208306389,-3.4454436492158775,-4.330063466160683,-7.064754261594018,-2.999374850709575,0.38194123186576645
-185.0,-12.622661682267116,0.7659262725597049,13.388587954827026,5.932596713713155,-12.978540089573585,7.106990512836732,-2.337770627848097,-2.90877678450227,-2.418749198033032,-2.196272536886385,2.5631402017495395,14.084630185664478
-184.0,17.365416123681598,-2.81469507481121,-20.180111198492604,-7.260178796453413,18.723532537579732,-11.549478359060645,2.961999516685943,5.9939379005320905,3.4307346393237586,4.034361943194652,2.9681880459308045,3.710006267361199
-183.0,20.812775963247876,7.591927163436547,-13.22084879981118,-14.172629840141616,17.05146771750551,-2.7901594230486273,-6.558776523405047,3.0210702419263655,7.458000532218372,9.387598133707355,10.0957267277564,0.23381788157898487
-182.0,-6.535028847463721,-2.3072939255985654,4.227734921865261,4.387414098705113,-5.418668690503823,0.9819185403318569,5.958752589790983,2.2273625355943714,-0.36726945259157384,-2.0411322748737555,-2.26597355972784,-11.083679047710472
-181.0,-12.863273208685758,-3.061588071376672,9.801685137309141,7.941923927362692,-11.283759239391564,3.3095321024225557,1.1503738378359103,-6.896662608073688,-1.263051014854202,-1.6745886435849577,-0.8800164102676555,-4.652546193125175
-180.0,-10.21553829771598,-8.926972107886558,1.2885661898294485,9.56012776785761,-5.775535512334207,-3.805268598832188,1.6746856721661758,-2.9634898117437514,-2.517945470798517,-4.252222937024627,-7.060006147389343,-3.079904837075712
-179.0,-0.8979316811748221,0.9008921708596582,1.798823852034506,-0.0075116840555251585,-1.366911057672365,1.3593804083464058,1.2080169890291255,-0.9900924353454321,-5.880027549948174,-5.532446357473578,-4.483388439476663,3.0886092894552286
-178.0,4.129566272865582,4.944128036110367,0.8145617632448232,-4.541327216554,1.6418237557640547,2.8854318249787716,-2.8481720747761,0.8146464640017752,-2.778659179735887,-1.3510214449869093,-3.2187695140494905,4.332158413282533
-177.0,21.365910372142753,-7.208218350581557,-28.574128722724282,-7.0054164205188965,25.03371731090214,-17.886612668825652,-3.3978639883301804,6.774109840429315,4.978244474315265,6.7362620063648695,3.1180724133794646,-1.729833458085957
-176.0,4.268058706710962,13.60885135602745,9.340792649316505,-8.946215605266541,-2.552912868844988,11.480109200658607,-7.165860155657168,2.9889584616802463,6.920394773405963,6.979988240798941,9.740339817061685,6.913631375002856
-175.0,-9.69515044241426,-2.465381700235204,7.2297687421790995,6.068587744506031,-8.482356448149924,2.3900957357288117,5.164561547747718,-4.301322224774137,-4.793135360405305,-3.242734335003293,-2.171316494231392,-2.7054371493336546
-174.0,-13.18350600831781,2.7597243913266056,15.943230399644445,5.194596951599391,-14.588034307113583,9.363070443803583,6.567998139566837,-2.2384208478221033,2.916313103520166,-0.673092866163279,-1.6986744650272385,2.2787744321656698
-173.0,-6.131260730356492,-7.207094642121897,-1.075833911765395,6.644682644697797,-2.479154143843557,-4.204616947909406,4.334243742377985,0.8741317326698563,3.865436983458442,-0.0611803779496225,-1.6576375055459325,-6.355106120064694
-172.0,10.330919138095933,1.6476179841414131,-8.683301153954536,-6.021622935106901,9.47147073407846,-3.498173682651575,-4.761996191323852,-1.1671115929720226,-3.00886847741387,0.1873876914357826,0.20004810030990683,4.148314239990353
-171.0,3.9906890468578027,4.751757149167563,0.761068102309788,-4.331711675318788,1.6533792980660298,2.7806259663615194,-4.543607726627789,-0.42662511705619804,-5.573494761509767,-1.1382741657045228,3.2353678690978493,2.3873974236343782
-170.0,-0.24097949486560566,2.1854369353600993,2.426416430225765,-0.9369651661785539,-1.3768736349519193,2.257175136039547,-2.363562068328551,-0.9690088035405506,-0.340638021048445,-2.025562271779142,4.494078275660028,-1.4120353348366301
-169.0,-10.34334069557545,-15.776972684493852,-5.433631988918301,13.09469706308446,-2.4204177847544264,-10.567755399618122,4.831705633423979,0.7785642353783135,-2.2595242645518034,-4.832990399791521,-3.4675813064628818,-6.348197893419515
-168.0,2.6740546178976357,-2.7420299871939076,-5.416084605091392,-0.007685569667261749,4.001367676838742,-4.03249148273675,2.978465043539832,3.8210369441307233,3.7987487297188145,3.7227623486762123,-3.5084042408090386,-1.1507943422838198
-167.0,13.736618185628101,7.347733375160635,-6.388884810467269,-10.579223234692174,10.099598223967684,0.4564104879183666,0.11889384394086777,1.269405084621501,2.1376806858570996,3.4849351512741515,-1.8436486461313222,2.628868293410397
-166.0,9.033683265866436,11.05341100015307,2.019727734286808,-10.07536491233617,3.5458555642301213,6.5208844315568015,-8.725602860873295,-1.408917910647944,-0.6914593154364783,0.6996202031984708,-3.461410488283268,0.13622216630112938
-165.0,-8.646519448180527,5.592525942977968,14.239045391158575,1.5784002219967403,-11.481487676199436,9.903718034285989,0.4890272055838305,-4.7826238842762026,2.073614943659467,-1.285388691136613,4.2834079472417805,4.207939436175071
-164.0,-17.427985279988462,-12.728867116319208,4.699118163669228,15.132374069675054,-11.102754853089886,-4.0279509429325735,7.407420683177743,-0.4300637174023647,-3.3064288016705268,-3.392846396212235,-3.2658471263338407,-3.1935588182911525
-163.0,-12.125048445493306,-10.098835392151535,2.0262130533416096,11.086712260763004,-7.038328743484628,-4.054566997598522,4.562094961403949,5.9623365600148555,2.787392712243845,4.8887133424369695,5.4224999797123665,-0.748220368147172
-162.0,20.28131939877148,10.055838548789286,-10.225480849982349,-15.19799055592097,15.20870548171347,-0.0320625863400652,-10.844727919316911,-2.0684591909307732,-0.007142379276295827,2.9946783243637656,4.435702287420679,8.818256853897854
-161.0,5.526092139055112,0.5131603046941386,-5.012931834361027,-3.0571071488780195,5.3005482646392075,-2.2840930367919428,1.0286236928346235,-1.2034691089722847,-2.3275097615166556,-6.945026075858507,-3.904757024736169,-5.827328318215551
-160.0,-0.10665905491507566,1.001076395989497,1.10773545090467,-0.41707064122329385,-0.5778672764103376,1.0919909431585584,6.630516367175865,2.035714969789993,0.04698762338073381,0.14612430246864205,1.627067775989302,-0.5879625234904826
-159.0,-9.143859689653064,-4.629314304114907,4.514545385538311,6.90422788855674,-6.799861476360214,-0.024596542733660853,0.49630452231980193,-3.529253363457605,-1.6016055893415204,-0.21957102644267157,-5.540296094710624,-4.170235947996556
-158.0,7.515574037607651,11.857648998628022,4.3420749610205,-9.680741948479518,1.5386834343949976,8.051344917689846,-5.58290100390778,1.1944688188878374,3.395194166788355,5.70318218892897,6.051569955909541,2.6786253554945154
-157.0,8.35665303137059,2.466648979014521,-5.890004052356041,-5.4149017161681545,7.077115751173637,-1.7608196259608155,-5.393487388945549,-1.7495219152363473,0.5119138171730979,-2.6806385419154317,-3.1069451335166605,0.6042744095206309
-156.0,-6.102466128967693,-2.8855149216509552,3.2169512073166926,4.485652491625055,-4.625551207385104,0.1963970122908391,-3.0809525138395504,-0.051560347259065636,-4.498831530309302,-3.1243564782929383,-5.094739549448064,-2.0589652605854614
-155.0,-14.150216203735871,-18.325769187552957,-4.175552983817184,16.229303929797243,-4.952156680541217,-11.217226164659682,9.871913820778628,0.8865292607361155,-0.013496127719772266,-0.014671502917523171,3.9809373726781994,3.7194977391221533
-154.0,5.302050278359658,-4.886570592031608,-10.188620870391354,-0.21203234045190822,7.702141685294231,-7.578513807856216,6.292071186385785,8.6063148653179,2.0675059315694435,3.453309818670191,2.6992764395099496,0.1871525949941688
-153.0,-5.149690584159336,-3.4504902768831665,1.6992003072761914,4.304234629619828,-3.389049699489864,-0.8322609106449406,6.867567504911693,1.8861851102147629,-1.191673607711498,-5.527615044254757,-5.043686013986186,-4.333061647187606
-152.0,5.9276345909920956,16.590118434535643,10.662483843543646,-11.243717385064572,-2.411438144386939,13.596480556534795,-9.69901625195047,-9.738116960347938,3.699736782833385,3.736500883015297,5.44263473476699,4.204466511342585
-151.0,15.719710050450173,17.61302557201305,1.8933155215629673,-16.6397589991724,6.946689745413845,9.805933563624482,-9.10925979426829,-1.3458964784709266,0.7872684581096259,-0.5188712200175376,-1.420105395461473,0.5144237429003139
-150.0,-16.371748419846995,-5.48167455451142,10.890073865335621,10.88397174829843,-13.599424183949832,2.6786052359279795,-0.4055344938721248,-2.9861638560094397,4.258939483564163,3.7968590813692957,-3.597909057522881,-3.4616719479729654
-149.0,0.5969199156833018,-1.1651244586529985,-1.7620443743363352,0.32527896106551557,1.1293525206210129,-1.4932393338934018,2.3213055024125673,3.894457308643103,-7.085325175742813,0.49181751797057516,-0.8825467053019254,0.836020809887916
-148.0,1.6592609736292285,-8.732993125659819,-10.392254099289136,3.4990810774901124,6.050895278160409,-9.600465750777799,1.647569110438945,-1.9610530877603711,-3.481291464607881,-1.6495252937239289,2.722307302214946,-0.9144872833069396
-147.0,13.30319090429778,2.6011471392386945,-10.702043765059173,-7.995115100503662,11.945698610910346,-4.020083354414848,0.7159458227630391,4.990885211571785,2.423940953006615,2.1889806096901046,10.993645179159866,2.618260389928622
-146.0,-6.226477272239485,-3.7926632270645073,2.4338140451749277,5.03725635870084,-4.310199118421354,-0.6593186846869044,-1.7633167110196277,-1.3984135945848606,-0.39568986247654436,-2.3422522955701717,-5.359541359751823,-0.22457712635813143
-145.0,-7.957835542082587,-2.17269514463416,5.785140397448485,5.084786362152369,-6.850787382085803,1.8188475413300154,4.144505261066826,-1.972824066214735,-0.26683274282712244,-4.448163645451948,-3.767131906913191,0.19948257576244785
-144.0,-11.396438327100661,-6.43512543905829,4.961312888042505,8.929870902741989,-8.154259174162393,-0.7275611083689599,6.377484952401493,4.628843309168911,-2.1558011994658806,-5.567005398523651,-5.642092813968987,0.8660197669164194
-143.0,4.049792248348988,-0.1297342178781919,-4.179526466227041,-1.9469355966030384,4.145757396656987,-2.1443965014668573,1.281215920589421,1.6586179562247245,6.027467436903658,4.048520966503718,0.19157838247075842,-2.6726680474788145
-142.0,14.366179349434987,6.47128505713687,-7.894894292298025,-10.401971258016822,11.090382273464263,-0.7764884088705539,-8.594731863349764,-1.5425550564882045,1.3015460579753442,4.652742067049239,0.6793336241755796,-1.907898710658428
-141.0,1.865992596412501,8.3122001738472,6.446207577434718,-5.143739084813459,-2.3235226583885513,7.398298373101396,-8.11104489996098,-2.9252475725843357,1.4412603893613407,3.425431279881239,1.5615555807382113,0.8494010745040046
-140.0,-0.9468814974556117,3.516057398613791,4.462938896069328,-1.3297502926878826,-2.733486005874319,4.0132426944283575,-0.35654637503128495,-3.300532421580881,-3.5318933823037977,0.3567284839006981,3.0326376827736237,2.8162415674227095
-139.0,-7.876649923618388,-3.8813452173007184,3.995304706317553,5.922660556437496,-5.882940680723673,0.08407800353286943,8.076412563413363,-1.0247411356407918,-4.186022969864187,-2.2826815858388887,1.3685675202257501,-0.6131288608096754
-138.0,-2.1489222867839706,-2.976298892607656,-0.8273766058237935,2.615602199947164,-0.6848436670817879,-1.951460399228111,5.60887112291847,2.020789043065623,-2.3124029769989236,-1.8344962347235392,1.6492361037074184,-0.3809986342597278
-137.0,7.1329595493606694,0.44545083567014476,-6.687508713690576,-3.807591232024895,6.966255303942679,-3.1691016676730004,-6.814519621393688,-0.9385597723566701,1.228975511875822,-3.0396826233034124,-2.948330371683701,-2.3703638211215736
-136.0,-11.950511391631693,-6.799619170973836,5.150892220657861,9.361045452587453,-8.571946932536676,-0.7912612210365135,6.384162312902815,4.561630677663045,6.470246028271044,0.8185507809806474,-2.7581905709040737,2.602094637398558
-135.0,11.894721174999713,5.856124113257114,-6.038597061742571,-8.888685269838742,8.946755610826637,-0.05371340213331721,-5.88074415528728,1.6246877354325404,5.454894850205877,5.805702966866582,3.1344716423233208,0.3066018929538627
-134.0,-0.5347418113980789,-5.7070950038063994,-5.172353192408326,3.1049985172552694,2.2992764011349607,-5.395718994297346,-0.3563012882722876,2.2526447680953257,-7.2232866933357265,-2.1122464429669656,-1.3102766078660428,-2.498557090591361
-133.0,12.973782009044445,-1.2012214127355487,-14.175003421780017,-5.907209894466148,13.63207175595417,-7.715666240080251,-0.2167735017629152,1.5748226112560422,-2.850849778524801,-0.36922473830866204,2.3943987616298674,4.80188274796066
-132.0,-13.922382166838979,7.899104397280233,21.821486564119212,3.0636626330185184,-17.897100043297925,14.83831447570488,-3.54972478461911,-8.604315890242578,2.9382148912919037,1.147717005237653,-0.6650453480048604,5.120654051780198
-131.0,-14.807437146954207,-1.7772960846137482,13.03014106234054,8.339268576414906,-13.950587955090175,5.606156095279871,6.050133552890189,-7.023752205462872,-0.5795033172517884,-4.69888904078483,-5.649606790270851,-9.793949016888737
-130.0,2.646434891035499,6.054014131505891,3.407579240470473,-4.385607027154,-0.34194756756362743,4.7073183803996805,3.1872150919303373,3.7377598799955667,-0.8879094259034881,-0.6853307444624077,0.7095678601851014,-0.27483361680795415
-129.0,9.534355095874044,0.6796594186006109,-8.854695677273405,-5.143983764100052,9.145976082307108,-4.03975684112609,-3.4679454774370426,3.199566230598637,-2.5710213625305047,-0.5518793879792685,1.9385201706480026,1.5506009631474311
-128.0,4.151428197307488,-10.963099384116491,-15.11452758142402,3.3693013497891746,9.656609825102285,-13.079534374317388,1.103432907839613,3.056775646072994,-2.8373730807916444,0.8042216089099189,0.206787827021091,-4.087841218776745
-127.0,6.201555319034934,0.379915231208499,-5.821640087826473,-3.2459870457264586,6.032206305422709,-2.6920839897050053,-8.30371539607585,5.415479352013969,6.442712405340743,6.222530602197267,2.4782700087170424,2.2406317907769777
-126.0,-4.164702063139371,-7.074584130082284,-2.9098820669429135,5.668914383679475,-0.6054536437915132,-4.969871157925865,7.836407400720435,-1.8753055486991874,4.8799034515578334,0.40212516806331866,-1.0185764592929574,-4.65169132159034
-125.0,-9.315532343973862,6.238269714953364,15.553802058927234,1.5151407191889905,-12.486095758244408,10.916106951042549,2.149143986457484,-6.921717387155898,-1.3977465810810519,1.0599901805830139,2.4024397696000954,9.776704514616302
-124.0,8.220511161831617,13.014761589932506,4.794250428100871,-10.634703570361449,1.7484046489670515,8.84770521464322,-2.4367498819231956,2.7166952395623034,1.5415297030825519,-0.037674553454121185,6.386119298041034,8.569132910802686
-123.0,-3.666840769743067,-0.904359742978051,2.762481026764978,2.274108172569398,-3.2496624569397627,0.9561668716084419,-6.394934795144061,-1.8817756253865396,-3.6407535884162257,-4.766352740559775,-7.837216811718075,-8.743284012353909
-122.0,-9.824286213898093,-6.165332823671063,3.6589533902270013,7.986884648143168,-6.690997154763763,-1.2976887805246557,4.3487757318814495,-3.5026966047832495,-6.931209256287737,-6.262118022725892,-5.889463058618839,-4.1496118769678265
-121.0,9.970536012808328,5.340915710809607,-4.629620301998686,-7.662909256556227,7.275615945661942,0.3977499503692705,-1.9388101462538547,1.6642854512178846,-0.5971281807325393,0.28428927576320095,-1.3793092517258287,2.6644626667851448
-120.0,0.12918241802356434,-12.846385284253442,-12.975567702276935,6.4275848712687935,6.527712017082527,-12.940205635694841,5.667121323887395,5.204390396224014,1.6011460243965776,2.8906212988773223,1.5741298261939431,-0.7305357793716296
-119.0,-3.6289089470724076,-4.233953755440378,-0.6050448083679445,3.9154922488285573,-1.5401910826070724,-2.3640470581671345,2.115405765494271,1.019521341845285,4.906113858955263,-0.8349214598370023,-2.5554772767881957,-7.407569750749463
-118.0,9.666935225853106,7.010186365287963,-2.6567488605652017,-8.36420584033699,6.206721426251189,2.156869816724294,-2.5678978441993405,0.22214256932217102,1.0599807947953317,5.308400435724307,7.031301340952638,2.451911454836253
-117.0,-4.539672837908673,1.1141500476785922,5.653822885587148,1.6745279379182314,-5.057777254079857,3.3643298464014695,-3.5203552894595336,-3.66700569424613,-1.3317014256232307,6.124263041085831,6.449075594558124,3.3017801200851196
-116.0,-6.600183718124698,1.661038940147221,8.261222658271787,2.4960683782674318,-7.475261265180512,4.93816457657815,-1.88810130329489,-3.150027339969154,3.112089778340906,1.7541052042664513,3.837467963250297,2.7672086218508953
-115.0,11.213030287311934,9.358681740805828,-1.8543485465062082,-10.272709500535237,6.565017479646852,3.8016711976696795,-1.7748232749649795,4.279667005967121,1.3222763389236771,-3.331577131099356,-2.931546628681328,1.912589708809078
-114.0,-7.903770285615241,-6.881080492517985,1.0226897930971943,7.39513351159515,-4.5114231721570395,-2.966367757878501,8.948769665488271,3.2915063321151488,-2.927240363657884,-7.557795642770783,-9.90751529591642,-0.13268959503054156
-113.0,1.1856489648231707,5.273039042660772,4.087390077837592,-3.232424447864253,-1.4191708177513878,4.714083641205056,-8.709230181422377,-7.589417815642641,-4.851112937937752,-3.8531325619008014,-0.8693582248077814,4.261883326458717
-112.0,6.2734664174916155,-3.106841574691335,-9.380307992182928,-1.5867718438201743,7.78256707920457,-6.29394357079807,0.21684623275415005,0.0869959266707887,0.6222076111003516,-1.9487557820097217,-0.5945118274532426,-8.619677173635251
-111.0,-9.69288165462488,-15.311865768253668,-5.618984113628743,12.503547608340018,-1.9986423420672734,-10.438655196188448,8.76197061634331,6.079343058341597,-1.0160143761884732,-1.1449882195567254,-6.903590530775496,-7.6486140396519176
-110.0,-13.23362826861274,-7.2652205420006455,5.9684077266121625,10.258815551423965,-9.558313156055517,-0.6185374496574001,4.683050656626174,-6.301638196642618,4.046154834214164,6.767896647510183,5.085467292691773,1.9386299004277934
-109.0,14.271816652061878,17.180313794906493,2.9084971428446975,-15.706948967504886,5.649750005119421,10.003009579375064,-6.815897648601013,5.67237815692382,-1.6686923534068177,6.910602536870936,11.613519821415851,10.066678061368586
-108.0,11.728126087615625,11.744985399207508,0.016859311591982173,-11.787113986842018,5.826891448196637,5.92862465140335,-4.83220278411256,4.743809860567418,3.669329134650255,2.111337113100883,2.490460490312654,1.7558532888844027
-107.0,-7.9123395412579995,3.642057291407127,11.554396832665262,2.1701289803391797,-9.760197664619753,7.578011532299584,-1.42025128843258,-1.0828544537133529,-1.9233406449583699,-3.7585961582197687,-4.591848950921223,-0.583793035557318
-106.0,0.9581495147438016,-6.7321847841328495,-7.690334298876512,2.847119765905925,4.37709293627379,-7.222744368131377,-0.3823022946660961,-9.340572250422369,-3.5372320657637975,-2.5323833272519236,-6.0790432069113365,-5.675765735379043
-105.0,0.3009181125387541,-18.16183541096048,-18.46275352349915,8.97068917564682,9.356514804040579,-18.319202329546638,6.800428493459003,-4.305925213229725,-0.7794177133979047,0.2593892159267064,1.9840792843415453,-5.129723031638448
-104.0,10.939790604064992,12.814647452089853,1.8748568480248773,-11.915545290410435,4.586707045831236,7.337297417612569,-10.836044002278037,0.7407411123544674,8.5595651111065,4.631377726896316,8.16678290384216,11.971159849098411
-103.0,-10.6820186192931,-4.755940088754274,5.926078530538798,7.760064557827802,-8.327244665325356,0.5722015497648276,7.102847876551894,5.219679640555637,0.9169427419454053,-8.59938740497623,-6.688772631877182,-1.3949198607604565
-102.0,-9.73966253374913,-5.36330420321908,4.376358330529947,7.516376471676038,-7.079395334658804,-0.43666252843047904,6.660746436907604,6.637837033726759,-2.634817186753054,-1.4115237221745647,-7.2430739287691885,-13.370073406598518
-101.0,-14.404369745321931,3.208859073236829,17.61322881855852,5.646590533933363,-16.027904986918834,10.378018422319162,3.739361158428884,-5.01709992182267,-7.240761770242854,-3.492107226005631,-3.013034393764143,2.878833511702001
-100.0,16.39990980366359,-0.2678782163902178,-16.66778802005415,-8.08826620526789,16.517595890351885,-8.433591248236198,-5.897599454721522,6.962722157162231,-4.592623817589255,4.561433311321442,5.341757259976427,8.660738525486847
-99.0,14.522458716108364,-0.622582809423069,-15.14504152553176,-6.963020688353457,14.89976941425996,-7.938856500563715,-3.6965905372743983,5.160124971821026,-3.1431732096111853,-4.753792943464345,-3.1169014471314815,-6.263712105576349
-98.0,-3.221953889143302,5.182177178882895,8.404131068026048,-0.9839903989395289,-5.8218525479327035,6.808277272429163,-0.45164322152849357,-7.791575059744785,7.859452982697321,4.582531996961436,6.408396440229288,5.2899796009160305
-97.0,-12.478909167526986,13.756363551673813,26.23527271920102,-0.634976668767808,-19.362465540683363,20.0049557489495,-1.4053077567846661,-11.500085826985023,11.925926938919087,13.947359654008899,12.037211461024674,5.364117624249054
-96.0,0.6380756197680109,5.899441243949533,5.261365624181807,-3.260441850239657,-2.315426874468857,5.58635383568193,-2.0660785562539283,-7.1834601935369005,5.003950449446831,6.980838573583721,6.221775620296276,8.84246128418982
-95.0,7.891996555558707,-11.835913196819426,-19.72790975237789,1.9805916464701177,13.804593856751687,-15.776644566881133,-4.541941518486917,4.81216804975063,-6.454800112700427,-9.392537718874022,-8.6799650459584,-9.578936931099376
-94.0,7.308944058764442,-11.597911348182102,-18.906855406946466,2.148488767519564,13.097102208673535,-15.245975261749855,5.961664811896669,16.08082651350413,-3.0108840029436683,-10.731391192265596,-12.459166308416176,-11.757055112889274
-93.0,3.39574160773483,-11.172700496454576,-14.568442104189426,3.882961845736295,8.962341432770017,-12.861932378994826,10.692717169868367,9.936296962846896,-1.834463115997286,-4.827075032779793,-11.374284890522379,-8.790278986610799
-92.0,2.187097310355784,7.056536164174311,4.869438853818529,-4.640707792570639,-1.2932453630691154,5.895825372165394,-3.285091349488633,-5.814056744600093,-3.924260800558493,4.570893543367959,5.1809967594615225,3.2141849159804936
-91.0,-14.413078648661124,8.242289727403318,22.655368376064548,3.0513533076344097,-18.576171357575067,15.464324966736282,-3.746283648302997,-10.174997892587403,-4.996783873123924,-2.1897695041982286,2.7238728499143607,6.379900034053272
-90.0,-10.320037771871755,1.7667328591143905,12.086770630985907,4.307170635828178,-11.175600645986853,6.94781520567807,-1.6720640897355104,-4.891543886408983,-0.24471996615696756,-2.991066061880798,3.803547034789105,5.311433191879345
-89.0,-19.28942326444298,-6.978202768651855,12.311220495790216,13.153727803111764,-15.777680683442545,2.6954171691982447,4.151485100094469,-7.629686652304874,-2.525290915046323,-2.2199975227780313,1.9069595567955737,3.8981469901416874
-88.0,5.436618909529418,11.744819371012985,6.308200461482626,-8.576181331919573,-0.49236058708832653,8.986698310621712,-8.132744046728131,-6.527080466632586,4.368887634619117,13.76760031616508,13.575675930938422,9.72404473646673
-87.0,9.818759259207873,3.452730145532847,-6.366029113675115,-6.621262428948693,8.118686544815638,-1.4066249139934937,3.020070614766878,9.977527518039912,11.82199100465061,10.521352156826753,1.4895302878469243,-1.8131738085577074
-86.0,5.016059239560988,-1.295016602547788,-6.311075842108314,-1.9209210780739907,5.69748584625449,-3.821614273846156,5.347199154252258,11.343473230431469,2.6612925492456654,0.08901379859733005,-8.850443536215138,-5.865650662211924
-85.0,31.522317807393378,-8.581844970843944,-40.10416277823652,-11.446388509404455,35.77778318496949,-24.354548694717526,-2.0635899294560054,11.776582174768617,3.8842004621066355,-5.050282769206434,-3.528900022238755,-11.062582692917431
-84.0,16.785403825613564,-9.895911344500712,-26.68131517011387,-3.4161309645034565,21.706909297010938,-18.297866409587822,0.14573548244855972,3.004171015953183,-13.092718169751743,-14.363973624724718,-6.510154700632109,-1.5423787347022522
-83.0,4.0135087628459845,-15.328673572694836,-19.342182335540922,5.609799609157446,11.736736412595913,-17.347451141458354,-0.2629982455328097,6.411660244599995,-17.294378394747685,-19.434624160361434,-11.590398398932775,-15.684774089377463
-82.0,-28.4687520951902,20.207013701551062,48.67576579674068,4.161222565842655,-38.58952779186813,34.42264742489804,-7.495419745350139,-19.017726021466906,7.692576347322339,9.717890072719923,8.630341191951743,13.033638106046322
-81.0,-38.995218281173265,18.854521390734888,57.84973967190798,10.019031859166365,-48.44196516453678,38.40361202552957,2.0132208129210905,-13.83236766743612,13.791922070363078,15.996752992837859,12.336324698915977,18.087746355161865
-80.0,-12.936537997524884,0.3249679313521092,13.261505928877032,6.329502707091768,-13.125370674841445,6.7579824510036595,1.6245268369075943,-3.476342896029289,18.022285022366383,18.710535372992613,3.9032905376219427,0.9329714308779806
-79.0,9.213383327751117,-11.396393749040202,-20.60977707679123,1.1123619364952106,14.953596957871092,-15.965337695428936,8.796825493987075,2.3196618036956886,-12.107804408375095,-1.159714433836001,-6.140416592832858,-9.594797190399003
-78.0,14.430344126689851,-5.8641673685875375,-20.29451149527723,-4.2632213297286174,17.392382513133974,-13.044541403860606,0.5026133170411917,0.7966184268484024,-8.746639864870684,-14.263585499740769,-6.988495347637407,-5.149240711357321
-77.0,18.388624105970223,-3.099141067835239,-21.48776517380534,-7.624051406106355,19.87785467072235,-12.338041647799574,-0.9963548279796132,6.678418066901639,-7.512149057147425,-14.031508909007592,2.163960082731192,6.04626899971111
-76.0,-15.79689890642765,-8.695384934743803,7.101513971684117,12.189735466421887,-11.439649659497196,-0.8407935135852753,0.3824159945475795,0.9101442220851848,-9.524889497471001,-16.269477541561436,-6.396803011629686,-3.6110361398127484
-75.0,-4.575041832800464,16.554688187284512,21.129730020085063,-5.96624925804894,-12.847191433391998,18.878485030643255,-9.660243163976181,-6.006323306990319,1.6898421720694488,10.659207685786273,9.365900427556241,9.460611997063964
-74.0,34.22126243766238,25.28771138644962,-8.93355105121324,-29.809633681757983,21.583777971847773,8.136525201104392,-13.207177863537861,11.700971421380128,9.819788121471232,25.915457413513664,19.9134112366639,12.094089863997302
-73.0,16.433817241751253,-19.777932421629632,-36.211749663381525,1.6945733137596672,26.33583189580223,-27.953866346010404,8.818420877278745,14.05503662338889,11.207788336498325,9.605820076037542,-8.778703123088079,-20.99715745933087
-72.0,15.126474947124866,-6.7924939942466676,-21.918968941371865,-4.145902177607006,18.546714725203284,-14.310816962431703,-1.628362861957818,-1.7305609090210803,1.2531110230916873,-1.523167081549638,-8.057191403828645,-13.452692408878384
-71.0,-23.959454188970494,-4.6744646886219225,19.28498950034869,14.337202136072609,-21.66393726373754,7.276413429523831,10.839377117132392,-7.301396464188299,3.295986023431936,-7.287344808838716,-8.955878762132343,3.9422901010697338
-70.0,-52.87699311385821,-6.787346892970158,46.08964622088851,29.852703737443758,-49.512434344737365,19.627786067054757,14.259400002374436,-7.794730192574357,-4.016293773430245,-21.19500898656415,-11.716146002648127,4.996309559893899
-69.0,-28.700200752843013,4.188220526468729,32.888421279312254,12.19925680246212,-30.73478298640557,18.5202493254738,-2.7862703181717112,-20.442766186569273,-9.104648372696625,-8.060659203273392,7.496103289079685,12.938121976979794
-68.0,13.255593440327592,1.3364114409610455,-11.91918199936606,-7.271488977783498,12.573838479495869,-5.304911276504516,-10.277308541569276,1.8334213597338138,-9.40256901012421,-0.1132299057584385,11.51124901662662,4.779394978010424
-67.0,28.73484540352288,3.1346039951069056,-25.600241408415553,-15.98549034146905,27.154940693155567,-11.164188467959818,-4.332211902568512,11.71215781887067,1.1202183239861192,2.4666472863725675,-1.608503704940695,-8.33181727730016
-66.0,17.805028356279532,-3.566694615833595,-21.371722972113176,-7.086506963723329,19.57252841902961,-12.477474267396556,4.442153280669769,12.826270115539312,5.971527474602965,10.598535796680284,-5.868285946601715,-11.796250818489641
-65.0,24.48120516342432,2.6344817263114386,-21.846723437113223,-13.519031195325029,23.1420574623859,-9.614600556566456,-3.1322890954788574,7.169887304984236,8.032258472959896,20.893712474608215,10.39275783754792,2.6529154954400473
-64.0,-0.08729860914253074,12.87988745415027,12.967186063292308,-6.428706484837005,-6.47751293249857,12.9123704678946,-8.001954701295123,-5.839831728751353,8.601072947453352,16.4331671145895,11.182755332359477,7.489841244866536
-63.0,-11.946536181601388,2.962172708840152,14.908708890441284,4.4678741181036905,-13.3844834004353,8.919234474967563,2.281989844070657,-6.542705439394405,0.6108715285122881,-8.513395177302495,-4.053512082745751,-0.4821546517628974
-62.0,-19.73372932692251,3.616268501834365,23.349997828756806,8.12034355075404,-21.58252516561278,13.460449958671784,-3.993452333500296,-6.0118534045566925,-6.283342251677228,-18.743030528279597,-4.314944020084292,7.074900899500936
-61.0,-13.504391076893638,-15.77133684118559,-2.2669457642918918,14.625028127130797,-5.662427131749187,-8.969404044513471,13.417252621729387,-4.0601522009458355,-16.414111596302526,-24.650892888712285,-16.635649704923328,-11.367491181235737
-60.0,-5.466800412498845,-10.947670275858469,-5.480869863359546,8.194033387612693,0.04124400078690016,-8.247753460160265,1.6475594699769953,-0.6056798638609453,-5.359391579362102,-4.891837688993698,-5.692661569775264,1.9100928036365383
-59.0,19.230521892599818,11.112897067343182,-8.117624825256627,-15.190919169100233,13.631025961301617,1.541434663312848,-3.8933485868785866,9.79370257523491,6.726804200527589,14.36370594678991,8.412505513039969,10.159839458080356
-58.0,7.244104467931594,-8.967006541833964,-16.211111009765638,0.8309627861871522,11.767067367664644,-12.622405391934233,5.218450438160726,7.863012067144135,6.14103662096954,5.869559049028242,0.937564016233285,-14.669322234305758
-57.0,9.377937703553194,5.733450950451409,-3.6444867531019574,-7.522210332711046,6.556129564860211,1.093490388077261,0.48296256982533836,0.5234938360005943,3.624020077883735,3.572500221976611,6.812480897586177,5.503895711746172
-56.0,-13.157294524914025,0.048527531758571385,13.205822056672414,6.5722696517849295,-13.209465252135967,6.601241377408929,-3.315093342832977,-4.438691485137677,5.206879486683844,5.169150436774524,3.2397913736606023,-1.6696146494839756
-55.0,-7.403609238469625,-1.342221189677737,6.061388048791775,4.377167903366532,-6.755696523021264,2.335896952969015,-3.400280057764526,-8.129936091065343,-4.197111945653924,-1.5208225458892102,0.6057595913674425,-2.0422418154886883
-54.0,-16.781105959028473,-4.9369254712256145,11.844180487802829,10.853769568640722,-14.333926582786702,3.4296642060568368,0.08671068128501247,-4.76594883192462,-4.508064184544455,-3.6175302453080396,-8.612052180627519,-3.8712407455920923
-53.0,6.979673891620309,5.991956449618491,-0.9877174420017028,-6.495245495120454,4.039406174758644,2.554369450434579,-2.256053123684463,3.75526051715632,3.739604352309345,3.671464005598862,2.306084009762002,9.46716083943109
-52.0,41.23577844861637,25.339639548359127,-15.896138900257116,-33.29585325473662,28.53766066805177,4.691821156148079,-16.63188829175447,-2.185126474666265,6.150252530445737,11.23154375377528,9.641391042855595,9.918768710486065
-51.0,-8.4836255092263,-12.13929138614688,-3.655665876920427,10.309340029506634,-2.449832871965132,-7.92986461789099,9.451402270839553,7.686960598699308,-14.594196904145168,-8.353080632127108,-9.068002920952708,-11.763175348942461
-50.0,-9.047075882867677,-10.22241134437407,-1.175335461506271,9.641935460349455,-3.900898001624198,-5.652474672082263,17.56532138497766,5.667187899182531,5.6292401436109705,-3.549188547962645,0.07398940470470894,-3.3121386412000824
-49.0,-10.559181642612067,0.2950843191380397,10.854265961750132,5.149825694819533,-10.677935317679163,5.624026769956539,2.1403929888072923,0.6977071291675445,8.18601051376708,0.7985577449366641,6.694923363156847,8.57589284848929
-48.0,-4.164994740037939,-6.467732121385519,-2.30273738134764,5.3437206739924505,-0.9838421246369657,-4.409723792991097,-3.3964101313861983,-4.943279087424278,-8.116450365155758,-11.188941389646004,-2.560343055518751,1.493559558186065
-47.0,-1.878582337573424,-4.6089038611960085,-2.730321523622651,3.1988547720248395,0.4533849312066045,-3.6892073517928154,-4.7612125805357834,-3.8042077474404086,-5.043672110555253,-9.289321092325949,-9.289477651487541,-9.351303536894722
-46.0,-1.8995421444420733,5.712810336590924,7.612352481032993,-1.949375992101821,-4.723014503673329,6.64580212928918,-1.9959503860807475,0.31325396206845246,-2.266581117631741,1.7283100687785389,-5.281253009238158,-4.333024804346626
-45.0,13.444440490925414,12.464316175778155,-0.9801243151472345,-12.920675496772335,7.174548509114387,5.724856324397548,-4.227122398228701,-4.2581116765036935,8.849592916976672,14.357125658065948,5.029224071371658,6.647737977042639
-44.0,0.3116214797002552,-4.614219611731439,-4.925841091431684,2.1793210470919933,2.5898591659826886,-4.790868775831329,0.10702367485420705,7.966215854462366,-0.754500086826603,8.862797048322124,2.8641187754429596,-3.941518900285302
-43.0,-3.899351450161565,-1.8543882625095638,2.0449631876520016,2.897685889251447,-2.9146506828026575,0.14768730738574115,5.645208151282841,-5.421424531124878,9.440135831609313,9.285914585879912,10.33726818031966,6.09947513445613
-42.0,-6.235001426975425,-15.049594249959918,-8.814592822984523,10.57775310672255,1.273274952176243,-11.88553357544868,1.0183567247844811,1.282357042846095,-5.002218916617102,-7.1310281121620545,-2.6007751366866083,-6.695830925916638
-41.0,7.969358552875671,14.4359387732588,6.466580220383088,-11.192488610909882,0.7357043792396081,10.414135076323042,-3.4836703709642367,-0.45162494285259935,0.3773434366395343,-3.679676726719725,3.3486133380881555,5.180553182986404
-40.0,9.28740113182096,8.379084640550841,-0.9083164912701864,-8.82310264490928,5.079054383283724,3.694821943318236,-0.2801308945497348,9.824009558197682,-7.949219086559058,-10.574634733796026,-3.8072244955747867,8.41052876835252
-39.0,8.220406371858447,8.450396846985946,0.2299904751274502,-8.320677104702023,4.048955119555602,4.376526106910093,-9.069625879311056,-9.891945706484599,-3.633125313809146,-4.041793751314282,-3.6945363669116436,0.39121190170500375
-38.0,-17.000484739883326,-17.329495473976017,-0.3290107340927517,17.1883178150568,-8.368391889498621,-8.872098195310269,8.494228147146718,-1.6812301710886115,-3.062424233173962,-2.189142248843226,-8.734556888910474,-7.57670756643603
-37.0,-9.362584941170756,-6.392546097446608,2.9700388437240797,7.833036838981064,-6.20610937409558,-1.674615044278101,5.586757686407247,7.265948993568558,8.874858776614744,6.364702351976129,0.3573858381597299,-6.51905323808834
-36.0,-8.480615362654973,-5.305394178429201,3.175221184225744,6.937973142084579,-5.7938501810051815,-1.0269537231673898,5.843174237765241,0.47033725682082617,6.111973790890971,5.047299245635709,5.467212562797968,-0.8309394770807126
-35.0,1.5830603399898364,5.939225888508888,4.356165548519023,-3.786729875185451,-1.3541455752202793,5.1087956775185805,-3.881275870190764,-5.405976597262697,6.068472117094896,5.624906461977492,9.68269098303253,6.697361050961067
-34.0,9.596843296937589,-0.4082389062072469,-10.005082203144847,-4.615846870400022,9.83476857062827,-5.244162401101635,-3.2286201120623543,-2.556523829047567,-12.041850752210934,-8.546784490969348,-9.08550766823464,-4.9696457771898075
-33.0,9.333029327815511,8.693000362268014,-0.6400289655474785,-9.034966426248737,4.944899486826922,4.068450500529096,-1.6712391648164293,3.89520392586567,-2.4276887175555317,1.537327854066489,-0.3433581106304081,2.7105808483537253
-32.0,10.835414449957698,16.427182765866064,5.591768315908364,-13.578341233147707,2.5839557777317217,10.972589484650017,-11.640364672155895,-1.3058730308215831,2.1979431859429863,8.459800259850828,5.936144562049709,7.6547546338572285
-31.0,1.749589109026087,-6.732599739932262,-8.482188848958394,2.4602760897041946,5.081218427584352,-7.566505769693903,-3.2505430303785983,1.4089743964208,-0.42722250395091566,-1.6094975557442484,-0.8591625216901666,-2.6020983813287675
-30.0,-9.350107618248675,-10.333303339741038,-0.9831957214924498,9.884118276512721,-4.136936890453846,-5.619365905460034,7.809406233345025,-1.5610540346792703,2.1914560251367803,-1.709696657185157,-2.171753900677198,-4.372297758820767
-29.0,-17.68431087173527,-15.54523815112042,2.1390727206147417,16.57501565473322,-9.863117593148186,-6.746206429692554,19.324523041796166,4.344921230559724,0.13007516073368564,-8.049235247638096,-1.2182439967045984,-3.5063406619386477
-28.0,-1.7477722549697052,6.2579264158942705,8.005698670863927,-2.217367707669978,-4.904902409807449,7.084182429158899,-5.331868101254436,-4.033725976570043,3.69403739599036,-0.41103258530462705,1.6670166672560618,6.9869550565280285
-27.0,0.4392861314913965,-0.6638204141027584,-1.1031065455940947,0.07165411206783279,0.7448515191736123,-0.8575316596051388,-5.662032975381378,2.207827406139999,-8.283625513236803,-7.6670610485335,-4.160104543628024,-1.7332014665475628
-26.0,21.690263017679687,16.07693540622864,-5.613327611450924,-18.844349159216208,13.705207874613043,5.253063054271959,-6.940238212860646,1.7376404985120686,2.068108270750113,2.371574814696471,0.14727654328673956,0.12078329521422433
-25.0,-19.733292261649666,-18.31657994684597,1.4167123148038534,18.98604591759849,-10.600900961859335,-8.431315428263048,16.48141669719952,0.1264478905895764,-7.810027795775536,-0.2134715732981296,-7.931455010966758,-9.825189607902766
-24.0,6.591230912276527,6.320985497494059,-0.2702454147823524,-6.417056982891859,3.4023092457556356,2.965952827884512,-10.783705985729082,-3.237511925804722,7.979021111263645,11.08603410473426,5.9453170973251215,1.2198616949963568
-23.0,11.675410349995222,13.69595651413701,2.020546164141812,-12.727909444471896,4.79476561418926,7.882297759152168,-12.725808539202076,-2.728388462376302,13.750554627243726,18.823441957551545,13.242068954968168,14.024118606452156
-22.0,-6.538987340791425,-0.43672136735033984,6.102265973440986,3.5205990755519823,-6.279645368285314,2.8651538308030036,9.171019550008687,1.93984845392782,0.6025090619157885,4.291784030871427,8.16147913284935,6.604002603743447
-21.0,9.64979876591901,6.8776596618385435,-2.7721391040806034,-8.31363725727847,6.24695036309264,2.0168209483498325,-5.420897016592728,0.6607200565709671,-11.056935503479963,-15.46081311178511,-3.520880880433006,-2.6616669098032584
-20.0,-9.112956605697352,-17.691580652209062,-8.57862404651185,13.428500620800293,-0.23549223813174258,-13.082244716366214,12.420046969514283,-1.8115850385053882,-11.542588924612199,-21.32590973695558,-16.1709828011825,-11.920930037029839
-19.0,-3.987476350007914,-3.759827012761386,0.22764933724644854,3.899728539242532,-2.158169379315388,-1.785133032843202,-8.033227894146735,-3.98423948971182,4.83081858314743,-4.266590402310801,-7.894406836787297,-6.673064937990596
-18.0,-8.055606348374578,-8.239833543491159,-0.18422719511661145,8.176529050825836,-3.989125005854966,-4.229663721630653,11.860613165313037,10.618295917155558,-8.82512900088863,-4.438606005589317,-7.613911985978104,-7.561722148725275
-17.0,5.865271339271021,11.855033795363106,5.989762456092081,-8.904921618869082,-0.038815733859525414,8.899988242429593,-5.913861295247682,1.489928970197003,21.470493955701237,21.14253453485599,12.341457942803807,10.89278429436301
-16.0,-1.0026448440716202,3.078019810289657,4.080664654361246,-1.0759322445523427,-2.518462600651853,3.547172397674501,-2.268566941748414,-1.4923311195585542,0.8375896991574248,6.5381610453338155,13.376502234823905,12.164633204951043
-15.0,-3.2950151991461847,-0.0261820547281415,3.268833144417956,1.7076788676593138,-3.2564935648807376,1.6560200409674959,1.9689287889845182,-8.102770733491408,-3.930596005874701,4.599264508725066,9.879146941796508,7.643290244914356
-14.0,6.158963506931926,-11.878438811640045,-18.037402318572042,2.8335011720322596,12.049981547852886,-14.933748880838094,0.9651266406881209,3.8694794855879806,-2.751580319187341,-8.357984278147867,-14.754201394604818,-16.837997454471328
-13.0,9.937304091410915,9.614830869522521,-0.32247322188840233,-9.720207520288742,5.168004651357199,4.664020214490135,-2.166528715139773,-1.0236769562293302,-9.779401454777165,-9.917009620594255,-12.479406197885211,-4.8260484025479515
-12.0,-0.20525874460548055,19.659908165339903,19.86516690994551,-9.749560136499488,-10.067172802709283,19.77947498294887,-7.935710970502118,-6.355839734762638,0.257078883200232,3.5584946323002677,6.429732587290756,7.805602201364793
-11.0,-8.214105835151386,-7.1622292771775955,1.0518765579739888,7.663812145404482,-4.578416295860551,-3.113012698925383,2.907482027076991,5.3009937540681165,2.5518631507560237,1.9146720793798302,1.9606553278833185,-2.3273942707047537
-10.0,6.516425868862543,-13.434136169148411,-19.950562038010716,3.4302415440525182,13.214110670827946,-16.664381082440514,1.9009273475850335,12.650735004272624,9.205603700359585,10.175999260033418,9.60385745504848,2.735561234479105
-9.0,-5.891727727327361,-12.209225644075904,-6.317497916748375,9.095548402302649,0.19381089056506795,-9.306229230917708,3.2685927084562905,-7.796091692760461,10.548824053237553,-2.792146979005575,-4.995868470788876,-4.493854295959446
-8.0,-2.6821905406201876,2.161969726234882,4.844160266855123,0.2221906984261901,-3.7866458767750935,3.545807545364407,4.828240998537164,-0.38946686353814797,-9.521990680115136,-9.236725900644293,-5.945072371875772,3.684966459202284
-7.0,-5.9755236305570385,9.435746346545153,15.411269977102057,-1.6914275542630717,-10.724699420629547,12.39206776447326,-3.3116294005186315,-7.4072747978252504,0.567420027434479,2.927613312427197,5.46788320754672,4.340896667637314
-6.0,9.1580366483241,10.822906549364731,1.664869901040407,-9.951507276400957,3.785071935803095,6.292965124954418,-3.013948472283555,1.3031045521285596,-13.783267000140132,-4.329364132033155,1.646586244932665,0.2004012000424329
-5.0,-7.6401037335663515,-3.7056685802026044,3.9344351533634874,5.635028783228186,-5.756528729077316,0.0837961051457663,0.932023397139615,-2.0846709511362733,-2.1883366696175415,1.5583664882837605,-6.4523875119935665,-7.348675042440657
-4.0,5.587839567454503,3.383631414292117,-2.2042081531625417,-4.521553522844022,3.9215461719415354,0.5561275463404671,-4.4356719646229985,5.8055582443764155,0.19069662740060656,-3.127505569583512,-5.8094547353728885,-4.621355277590647
-3.0,-4.375439393508692,-4.914479421307997,-0.5390400277992686,4.688435128108257,-1.895517024406911,-2.6857574445459194,6.134710135537341,2.6492473273929797,12.128009806664206,7.867644906060639,4.11383677278404,2.5779441655061643
-2.0,10.598419794648876,-4.100508247599373,-14.698928042248033,-3.2861963238520513,12.590975543443216,-9.363005229912826,-0.24863394755871493,0.4045253072592345,5.944329193965542,3.4220364979207676,6.813123153422624,4.79327868212317
-1.0,2.8672234735474853,-3.0001457819275976,-5.867369255474783,0.1034351404853572,4.308045311220182,-4.47922174985223,-5.798716238841818,-3.60746123804016,-6.8550000090439935,-1.523366961453946,3.672147000346071,2.0060712373086997
0.0,-13.855254529081991,-11.607365901676198,2.2478886274060548,12.683318165112315,-8.033694717212285,-4.726953445727531,8.928521206809384,6.077531538994272,-2.866209667714749,-9.051446245602596,-5.553853473312197,-2.9587128126054134
1.0,10.43837137734059,18.1357391629896,7.697367785649085,-14.262672712916315,1.3876931449797212,12.94851937923827,-11.573089806367847,-8.172407925311198,5.495060838493017,6.796009758160939,0.8475846534941605,8.108300777109653
2.0,1.6892053541269583,-1.0624430618807423,-2.7516484160077868,-0.2938777598170699,2.2393245380427076,-1.8725160864411086,3.912833603648967,1.3411803504370727,-1.1760635848890366,-1.7995359111971638,-5.84870073991064,-6.283337739499768
3.0,3.58838586973001,12.270158556341718,8.681772686611511,-7.911864326335948,-2.5228750326010987,10.514360999002573,4.3775417362043205,-2.176538860015353,5.3266042843616175,5.432144367840547,3.805121021494552,-3.5682086844373826
4.0,-18.46408141115674,-8.43980041754308,10.024280993613495,13.391881948561018,-14.212779911932385,0.7555305687721408,2.6712089736396116,5.892574244770383,-13.22506603114376,-6.820558528162222,-1.4014704297398657,-3.7942984989693787
5.0,-6.853543191862425,-9.209482649578856,-2.3559394577165635,8.054689857675417,-2.2877718023259206,-5.817657841017114,-1.0633577885496182,-1.3458729154736897,7.455070871755474,3.3050107816559615,5.948734976539507,2.255486363228836
6.0,14.714925784493108,-7.208589529879384,-21.923515314372505,-3.7231572834889715,18.28705941869602,-14.602178545244495,-2.159144660251198,-1.0616054832097888,-1.7730443704638388,2.037233351923558,-0.024148574163055603,-2.0982284662848825
7.0,5.728488332338817,15.136134830687169,9.407646498348353,-10.473231889026794,-1.8683034034608497,12.31035733672501,-8.462146919286837,-5.014991203815608,-6.465693720910961,-2.464243946255041,2.2223496718904396,19.85923239527203
8.0,-12.932675070032843,-10.444308244035543,2.4883668259973906,11.733495497908594,-7.660980294504028,-3.945810054089527,10.841039213651579,5.581371132155606,-9.949000448379145,-12.896546474273777,-12.136617708244081,-4.676788834783379
9.0,3.0994646871712077,-4.561151453919934,-7.660616141090973,0.7020617234693576,5.347111541549323,-6.0860268003303615,1.2201798493768257,0.1307462082197175,2.968262769335494,-2.334581614726705,-7.799463354870648,-17.966702144343888
10.0,13.152989978931243,24.10494718876971,10.951957209838575,-18.65612938915328,1.1407319150821968,17.467253447643664,-9.561468096398826,-0.4660029902786563,22.667816048408977,15.558316401017645,12.755138629900308,6.307505499210462
11.0,-6.259606481660141,-8.144940990033664,-1.8853345083735622,7.25171564696999,-2.153096865795636,-5.004200683434656,5.404022086725411,0.23015963479153856,13.725867521173104,8.894076838373303,-0.252784356753061,-5.3966253367399855
12.0,8.875703457041167,2.6859892275913095,-6.189714229450009,-5.815693452659676,7.48214065641378,-1.7463583357158532,-2.5240939794474757,-3.432382033517365,-6.367585495917479,2.0246864405091642,6.552479027104139,7.527861595165724
13.0,-4.776144914298239,-8.078908737333412,-3.30276382303529,6.463575000411448,-0.7135245375595545,-5.689194453756546,0.026745307014262254,9.056067009879941,-19.739624092935554,-6.126911457651237,1.1564843388235233,2.8214219709161226
14.0,-9.875539682305286,3.751033236540601,13.626572918845861,3.0109219209298006,-11.810340939992978,8.6884291957106,-4.1581584022727425,-5.302205024950094,-0.6985626378121346,-3.1392436051091908,0.5187326045975154,1.5244972828725647
15.0,-3.588453628383032,-7.360736469663846,-3.772282841280834,5.494291281234972,0.1096310671080758,-5.566976792182285,7.054545299680958,-1.514488511664484,-6.76919860765177,-7.523039913557825,-6.234990756094069,-3.9283749503121546
16.0,-1.2637249569345457,-10.96595538101318,-9.702230424078627,6.129157414478254,4.237822891123964,-10.332924113821534,10.144416369102025,4.239414643560231,-2.7658176565856527,-10.09015490791224,-8.361684560590412,-4.640976856217371
17.0,3.569751938871783,14.751506638920368,11.181754700048643,-9.148517036801408,-3.7837464813335533,12.970713645112976,-7.996604340748344,-6.22032289287098,7.903366208339508,5.029934053568039,5.358002206620758,10.83565540813774
18.0,9.672960127907004,7.6122559193915835,-2.060704208515388,-8.62947922708805,5.8950346019919255,2.7834601807751884,-6.309915692594457,-4.537058172470104,7.053722383074178,10.722370225862191,4.081663580662517,-0.8313972780031689
19.0,-4.848309371573067,-11.935177215234962,-7.086867843661893,8.32973135611605,1.075610067327533,-9.499569049605757,5.119433713816193,2.9846379942144514,2.905939852720267,4.5261513626995225,-2.897212825096128,-8.920475878794093
20.0,-0.7977728101250599,1.8829729623092484,2.680745772434199,-0.5206604722839835,-1.7767296250967055,2.2182804621000063,-0.8647932211717088,5.43288027209676,-1.5489712064543144,-5.148209845769777,-6.768272575446472,-2.4031880088555164
21.0,7.73858627285283,9.280330586407715,1.5417443135547877,-8.481807511074592,3.1439721674077195,5.430047496265804,-7.890943573151149,2.1817357161415383,1.8019732479501922,2.3323317888599853,7.045205823809432,2.999232665607641
22.0,-10.732499848118886,-7.83983189622775,2.892667951891111,9.240256350648565,-6.843904742459603,-2.4502219216792227,4.708437691789875,-0.43748802616121707,-0.3485380738045487,-0.01600345064455211,0.07867773792863364,-2.3612207390069697
23.0,8.379742557621459,8.13095280788962,-0.2487897497318209,-8.218803485619857,4.361526144486264,3.969515764521144,-1.0917760030346664,0.7199026470597025,2.9163762420314994,9.023828914595606,9.184511629782035,4.676779347117477
24.0,6.0519422161836,7.626300464010505,1.5743582478269138,-6.801208575832308,2.2059790955052785,4.555492635532584,-0.338917125765551,-2.2058409208291394,-10.531990212012227,-6.002916879421219,0.33349985107102986,8.047154699738751
25.0,-18.72008039507519,-15.620577281213873,3.0995031138613975,17.127984024576048,-10.944036293621496,-6.22164703327069,6.923776767328538,-7.162786741076229,-3.7177908205648897,-15.290327309400526,-8.738343277586093,-6.735125692784942
26.0,-0.7476814173812887,-7.851456515358159,-7.103775097976805,4.252915170472347,3.2217896123787533,-7.514190653264125,2.7357626537209985,1.5550933865772025,-0.8941038462956494,-7.518763179183814,-5.650187724811056,0.810705201070077
27.0,3.152940583934693,-4.59192189033174,-7.744862474266431,0.7453739182282368,5.492715355382669,-6.125574834573404,0.5013675389115305,7.37769578300048,0.41294154840324726,5.509192329549799,0.5917936560226877,2.613503561910128
28.0,1.1335622098655096,-2.9087978933315872,-4.042360103197179,0.9069708794854003,2.5533767951254553,-3.5137175176705813,-3.6837911451758454,-4.997462869449193,3.4364069310016396,8.520429441314814,-0.34134473666638177,-3.7362904151047247
29.0,15.533936679110163,22.398771799419357,6.864835120309128,-18.952053723891105,4.299601438452176,14.589417979944901,-9.667635876609808,1.5551949150340487,9.114979994765307,15.838076068451162,3.7393074893612757,-6.787671460502954
30.0,-3.286541726908597,4.5246060624542,7.811147789362785,-0.6068637279208833,-5.507005739671765,6.199612464140183,5.287294232782003,8.38343336216128,5.884231319390457,2.510405529575335,3.3979504108462706,-3.358382927001799
31.0,-2.923476354077493,1.7375451171654301,4.661021471242987,0.5279065595739358,-3.832931879503259,3.227914301917272,-1.6987671263878694,-11.965932574457899,-2.9796027165677446,-6.424669277898282,4.867187557346505,11.024245682730335
32.0,-12.887339534955029,-13.4642845245515,-0.5769449895963379,13.194609127381414,-6.122012282283725,-6.992197573826525,4.842395313910578,2.764803085241133,-10.662338416872052,-14.232153239306086,-7.683872368547307,-0.38961615652566106
33.0,5.094337201620152,4.774875019233852,-0.31946218238617674,-4.90795372265199,2.6567935085981533,2.1803415148170178,-4.388909156667274,-1.7110176742951186,1.1065432629776462,-1.2973156977481821,5.073721136083739,9.487336323668512
34.0,7.315592070769635,-6.0110483589740005,-13.326640429743556,-0.6164921179709448,10.34724124394556,-9.632082671981271,2.536096264860091,4.617051838460297,-2.0038660006965934,-0.17374234568704283,-2.7060189267622095,-9.612990484844767
35.0,-7.264581255928412,1.6026872262749343,8.867268482203329,2.7965530297127628,-8.039079445453568,5.199433949468524,0.9608034991397776,-1.304760970838828,0.08003817874318553,3.169452298341456,-3.4075475595087554,-3.354335746179715
36.0,-2.11030138704103,-3.9622523794742817,-1.8519509924333124,3.008264685291834,-0.09819113951631742,-2.936391754044485,-0.5486378107189656,-2.7239873702267587,-2.55862779077082,-0.517737205004511,-4.633661061780328,-5.0026080803911945
37.0,0.07129260772847523,-3.4169151403002687,-3.4882077480288216,1.6480831018284905,1.738535622396148,-3.397760595690525,3.8219576211297364,1.2536173519375797,4.680737658471158,6.709330391075068,3.934051530656422,3.716847660745695
38.0,11.380883803097475,13.325808470509365,1.9449246674118197,-12.299044909775384,4.683916779303356,7.615738530184331,-5.2278933832577055,-0.6241570963218387,4.768225873948796,4.069121006310758,5.612361491915662,8.19620694217187
39.0,4.134001010050998,1.176818452266068,-2.9571825577850195,-2.68170407634491,3.5960968519991066,-0.9062494435482513,-0.07875082258254062,5.984070975462628,-0.1573274818414343,-2.7183548884284456,0.7275628101684495,-1.2977397439309444
40.0,-11.020688056440347,-4.969039706891872,6.051648349548375,8.04451027646719,-8.561352539375635,0.5282515261594658,1.9128764035881753,-4.070286181759854,0.03627227903463803,2.674777692644257,0.7111710056036924,0.6048027961515754
41.0,-1.0702657072764388,-4.1727941823853065,-3.10252847510889,2.5896260023151023,0.9906782321305578,-3.5697149394385193,1.0253138577563143,0.018439442392358396,-3.9783287356198973,-6.721869982062405,-2.641830320844692,-1.4779227399912378
42.0,-2.1794880668170977,3.4530069851408975,5.632495051958096,-0.6709033745853694,-3.8560061153927174,4.532608688576454,-2.8734771457166053,-3.0091325653142804,-4.588309627438242,-11.609731284543713,-7.412004092659801,-1.2026301268024535
43.0,-2.7760651878820335,-2.796844473919733,-0.02077928603749024,2.829483098642341,-1.4118550011884043,-1.4210739229189033,1.0603177480006205,0.17295437618996568,-2.5802518897060343,-3.461066668451798,-7.118077530488567,-9.95654781738605
44.0,6.285065109774894,0.3058003185444736,-5.979264791230198,-3.332383242328124,6.1703002624851955,-2.8548220564103923,-1.2432718704978405,1.5667886606510133,5.754395719319644,8.33584528647318,6.619304811046661,-2.079133883304458
45.0,-3.585375928773953,3.7621513105262787,7.347527239300373,-0.048146737624932934,-5.513279667789234,5.527298591312807,0.8344398956122209,3.0212190003430757,14.56681234199025,15.51221489206016,12.682756307334037,7.6347167172999875
46.0,3.142525998005197,-4.772393501242737,-7.914919499247951,0.8524075139868523,5.555524307006389,-6.304013338863259,3.0309201150208795,3.3135004563245376,-3.493988029288383,6.395534083102753,6.29186038408889,9.98621138513527
47.0,13.692933457772613,4.455620288863225,-9.237313168909537,-9.120211347905602,11.488461583817859,-2.4409289997955277,-6.920263560961266,-6.3830995073843235,-11.143650595174389,-2.9077764488590456,-0.6394563873873276,3.532375802863636
48.0,-4.480160093564251,-2.8734604645526494,1.6066996290114197,3.624392340468601,-3.1004426125071536,-0.6120427466306098,5.309125528429675,-0.8482598643688632,-7.035001614851682,-11.169356546553246,-11.334560195550218,-7.635111931325558
49.0,-9.627245313251658,10.362376575540727,19.989621888792254,-0.34835419567955617,-14.786551754860573,15.19588377877211,1.371337314201868,-1.3847726514790628,2.789115925671588,-4.539703905952529,-4.0060893097779156,2.391091462139735
50.0,-8.110748629267151,-4.775602851686485,3.3351457775806246,6.45676908472913,-5.699545463417225,-0.6955443455676189,0.31702116614060494,0.2790578164858014,6.375500872902858,-2.7731551477205025,-4.366684444466745,-3.0299427292763212
51.0,-3.9275198517267103,-4.141480013558253,-0.2139601618315785,4.046299665216047,-1.8309985729606852,-2.1438467539457897,-2.1930325650692346,4.628991460158176,4.208076902717222,-1.4270181840426281,-3.402349015021104,-4.588491600282243
52.0,15.229494536078928,3.5660357473297983,-11.663458788749166,-9.382437546415328,13.396272602327851,-4.083551036188129,-5.823464416460172,1.1515906982711415,1.9806816508276115,4.955862704989447,5.3011613600211005,-4.920753444333755
53.0,13.644073832241826,-10.458806055983079,-24.10287988822495,-1.5685076792318706,18.82619951674092,-17.308643332607662,0.1288908304907368,-3.836427024281835,-6.367412547491501,-0.48727371905427397,6.710212129839162,-2.9653147245680342
54.0,-5.8991677821489095,-8.404348448280485,-2.505180666131624,7.109506493848588,-1.6623701444499233,-5.481087453506354,5.3936224316303285,-0.5795037913158319,-7.688565069059639,-1.2362164633039416,3.6704421339725757,4.004096573339331
55.0,-16.331293108251604,3.614745383060357,19.946038491311956,6.329138018073424,-18.100598588802796,11.74972259084146,13.223055248877559,7.9331780978866675,0.06949213288446288,2.441058659473094,-4.316877034617374,5.240405032732017
56.0,-13.876299615302862,12.729338171575279,26.605637786878166,0.633831551928518,-20.199486966779297,19.70737775013143,-4.433411020057967,-7.044759459258598,7.43862623935814,5.161363575364684,3.4147213458650736,10.499373090905618
57.0,13.973976525404774,11.600292892395563,-2.373683633009195,-12.799748199302204,8.139140869006205,4.644315896442809,-13.859954552346641,-5.464069228094516,5.734785633864731,4.061607899700537,3.2107930913830303,-1.187656485844439
58.0,6.295935498194776,-0.09266474411934489,-6.3886002423140935,-3.1147710142491114,6.308474853777085,-3.2163003659961573,-3.8307148149943036,6.716869668139017,-1.0523457089126347,-1.9429188380372355,-7.296906530186374,-9.290073678278636
59.0,4.491950077277666,-5.421190074019273,-9.913140151296927,0.44490082588435653,7.1677934850576595,-7.64573898782574,3.8928343905805427,-0.6230357429171427,1.9152920949738785,1.7243479563457216,-2.99219184046979,-1.1661636118336682
60.0,20.75363501983248,8.433646255266293,-12.319988764566176,-14.624183759966176,16.57892511742856,-1.9995451703243754,-5.579270786849194,-2.020503554855687,0.23056567054781207,1.9142535635862283,8.328035936881921,13.086072577526242
61.0,-16.9324320642801,-17.757172543023348,-0.8247404787432275,17.380769785867418,-8.091527793496748,-9.34337495264992,8.866829858180001,-6.333884461403732,-9.75560963295712,-10.750936755550269,-2.211819009367252,-1.2240909548635992
62.0,-17.228318653329463,-19.800575173088866,-2.572256519759376,18.53958211113045,-7.285431337372377,-11.154181374582878,17.5145334521857,16.224398287167812,-10.115601435086909,-9.705590493482523,-8.591401238704417,-13.27754860760818
63.0,4.843441270882729,5.927632511238624,1.0841912403559282,-5.368032473695521,1.9270510149708429,3.5450954843429674,-11.425930746907536,0.7967168222765055,5.512663931730407,0.06439884448930577,-0.23757900294669065,-8.611687681940046
64.0,3.285143866704085,15.189950946068635,11.904807079364586,-9.22423779354413,-4.333873801542193,13.514976187926077,-6.746766499236658,-9.671460446737292,10.841545039340268,5.659450189980263,0.6870693721250087,2.149460503400771
65.0,-15.782390798706071,-3.3026421581481635,12.479748640557919,9.475209706153718,-14.147520961596891,4.641296471198029,7.718266036019798,-0.18640869993816,-0.9158536491527887,1.386033739373902,-0.6784791048515406,-1.1928248494361862
66.0,4.996165972528039,5.522604778051037,0.5264388055229885,-5.249150267314972,2.2237830562628895,3.0030260436696965,-0.06361006535526259,1.071240695617377,-0.9783794200943166,9.550838175556198,11.828864082361447,12.983312017071208
67.0,19.38043679167415,5.621664194889505,-13.758772596784679,-12.492734180187968,16.559872114547392,-4.088325577491991,-7.598134316991741,0.24513857735432731,1.251517934100634,0.05294075511662033,2.068374155241938,5.961788581972103
68.0,8.858400320578935,14.649358538360751,5.790958217781775,-11.748722449766172,1.5209710462190706,10.199116452343763,-11.667945523485894,-4.351330907143797,1.7794242150079242,3.3162717490064324,-2.0251676782524743,12.721819945324167
69.0,-10.582685314311277,-11.77155089833435,-1.1888655840230915,11.178282978936664,-4.71589769463384,-6.504790879042891,5.696298075353723,-2.777567048568508,-3.0756695919950516,-6.732586140854456,-7.797927983891439,-13.734835242521529
70.0,-2.3384933629257096,-12.10171266145019,-9.763219298524458,7.217570047597517,3.7646595328813186,-10.882694761789796,8.331675231125999,7.612041353030815,-4.060211294799822,-5.304513430634023,-6.840237669841442,-14.547496891656873
71.0,-11.671263861084222,-6.31067016066492,5.36059370041934,8.98650230184312,-8.47042100364365,-0.429042597333237,4.032561233557658,-2.004807992854666,2.767570299867723,8.205610644526343,10.873029810095154,0.09620791228686443
72.0,1.016118334235533,-5.4985527047776595,-6.514671039013176,2.2379660137172177,3.727143719604954,-6.041597890939444,3.283102348440199,5.684923585873969,0.25206412805878187,1.9573297928439977,5.61872169105826,1.8137578073987308
73.0,-2.554759090088238,1.711167514316973,4.265926604405195,0.42374229925807727,-3.4516718978347143,2.9530222291353563,-3.090979762981987,-0.6255782247043871,-6.831027964443621,-12.89948953710483,-10.099419168615889,3.9445559405165826
74.0,10.715741759997513,6.630890110128339,-4.084851649869206,-8.662268883873429,7.436104746571985,1.3169855044782026,-1.3150092391401802,2.523619685275867,5.334743319300455,-3.811669036712604,-6.646470690310742,0.9321659492751837
75.0,1.9908895941362221,8.78747894004544,6.796589345909205,-5.366320813895262,-2.4465711763651052,7.758676341153809,0.05775333408226979,-4.400563134370514,4.054846426061127,1.532483764312484,6.973453119013525,7.3305561665005925
76.0,7.991145678515694,10.718792526959113,2.7276468484434484,-9.398483900298771,2.666280480132653,6.691444065177961,-8.477614020912151,-2.5394001021652564,-0.44552049369373803,6.604492018277832,6.209350105349415,0.013701804722670463
77.0,2.968786110592604,7.414756126058046,4.4459700154655195,-5.146264652096169,-0.7047426755792676,5.978615279993736,-6.176654240876869,-7.017720664341348,-1.3803418228330702,5.814561932303822,2.0764372125411974,-3.2347889627045814
78.0,-17.042868386607385,-12.799777525239959,4.243090861367493,14.89380850211299,-10.689181478009843,-4.229649258747045,7.080194444028716,-1.8013984718834886,1.0042159852930905,2.933194295131279,-4.549240709294397,-2.340540708033669
79.0,-5.495396763724293,-13.206373239135626,-7.710976475411316,9.323052395923678,1.1380655859218671,-10.489754519471893,8.25845999356098,12.658372537373003,0.0009500268918962718,2.623961831625591,-4.935650838987575,-7.043190796734226
80.0,-7.114403569533729,-11.415496465888117,-4.30109289635444,9.309431680626687,-1.4584853360742165,-7.8923287773882125,5.118638064535722,0.32064931185970824,-2.3145919470957663,-3.1242698769473822,0.09621126676209046,3.861655087816551
81.0,14.899396493835408,5.21969724549133,-9.679699248344178,-10.104902215009329,12.312265517014728,-2.268804950694294,-11.196161884951536,0.056535639157168305,-0.18480727444452483,-6.484468274859101,2.4176722168568436,3.3021826814480404
82.0,6.80212399584091,-0.9975052897032457,-7.79962928554429,-2.881984403327495,7.319069699178222,-4.364329922119049,8.479891694230151,-2.3804780326885298,-6.51057733035325,-11.636171465630266,-3.9873536018413076,-3.703614868037596
83.0,0.5078747854774832,11.328596367544668,10.820721582067048,-5.9097604832120805,-5.142444610197965,11.103578021226333,-6.523706406719633,-1.9356951815072865,4.090942546831485,3.394128006845464,8.080051774055434,1.9743169206726447
84.0,-9.25851293645442,7.534765726798904,16.793278663253183,0.8626543474630619,-13.015200730142178,12.189159850950318,-2.4228742594167176,-1.3057977940943846,2.6764622979630546,6.0499905512741945,1.773398531164025,3.9482959371047253
85.0,-9.235256026327942,5.8695730113874856,15.104829037715316,1.6820520858896173,-12.239804233684968,10.431780462806705,-1.3483544165123558,-2.2294407479599387,2.6547568346779062,-0.13653055191065988,-6.179050004448035,-4.282583303341742
86.0,14.03345160789425,0.6540018061216761,-13.379449801772575,-7.339372715837172,13.716052414143288,-6.339610643678138,2.6388003850994246,5.403925612738725,3.588029946608545,7.895214268982038,-0.24836143539258604,2.70228220002414
87.0,20.029620867258032,-2.49522646158155,-22.524847328839503,-8.751820649691892,21.290463295928397,-12.486443907394847,-2.507769073861859,2.9291950789727146,-0.1546928578546295,3.8133038518956703,3.4204815859270457,5.009131221006916
88.0,-31.60817035859683,-28.36598722682932,3.242183131767595,29.938636267520906,-17.405106932683196,-12.616804114250549,9.758756186163666,-3.6683400497916203,-8.099182202043197,-8.627769356222942,-6.369193002682751,-3.4655639147602546
89.0,-0.692116308956539,0.49861612979561265,1.1907324387521432,0.14328931208940254,-0.9120976127783473,0.8680556115892353,0.9906097775497988,4.993738662588765,-5.294829141869924,-4.108480990041721,3.0908266601461847,0.3519011805746557
90.0,32.62920257497859,26.25359248541717,-6.375610089561526,-29.458756653847985,19.46271350564436,9.961346341126111,-13.861271014194195,-2.4323635472898433,7.131017008271561,7.189456198476387,5.903091172993212,-1.4231141969648937
91.0,-26.673500251305157,-9.917783663999728,16.755716587305297,18.2895088135193,-21.667989071973324,3.3617450631684616,6.642372221698912,-10.245233314408432,3.3886247932880558,-1.234308995767182,-4.625664300956887,-11.232660639628374
92.0,-16.22179589898302,-1.2214647763586899,15.00033112262424,8.721665513670668,-15.640189915611534,6.911346805942859,2.594787890699202,-3.0453553356040604,3.4335876581147353,-0.6282466931293733,2.131398487923555,0.13614039962764846
93.0,22.74309188810886,6.980275143425958,-15.76281674468292,-14.86096756188293,19.221202456457924,-4.367010283446194,-3.0844487216729997,11.519430937099571,-9.11576756756137,-4.838794669685144,-3.6886943216603014,3.542097843345221
94.0,-2.3773542916254966,-7.4107851965013705,-5.033430904875842,4.890512776254892,1.2889402261001948,-6.193519443606174,4.99426054484905,5.103172741220961,-1.1773071725845332,-6.398686174129335,-4.588930762372421,5.739474656071144
95.0,-4.960833644899381,1.0629228619797602,6.023756506879205,1.9374276554583043,-5.46198362915668,3.4986194089032394,-4.318131692094007,-4.906629643319947,-3.2045881207952176,0.42375014853611914,1.4969346696820884,6.5677809388117945
96.0,12.774298765488197,2.1739698504046565,-10.60032891508345,-7.416950052456636,11.709782074956115,-4.174043000933697,-2.348160930558802,2.4408887244428428,6.284284486610615,5.393349492579891,1.8160558842579912,-1.670352641948686
97.0,-0.8831407128319544,1.1644208333325723,2.047561546164612,-0.1726223803016238,-1.4464835846295623,1.5697821427581062,-1.062116196762426,-10.564364453865206,4.931796341796122,6.762405823172854,7.502142031737198,5.426496717079459
98.0,-5.3906860738583084,-5.367804683611469,0.022881390246882682,5.338016929907937,-2.6865040098734343,-2.707588096511608,5.97266742568533,8.602065324963277,-0.1984708815729146,4.4858153737112,-1.9953020830015213,-9.303568630747144
99.0,-4.195154171395867,0.31248036134354695,4.507634532739382,1.9720755634488665,-4.326202184486982,2.452886405222277,-0.7362986518689056,1.8034590565536162,-0.35879745716829026,5.192174276400304,2.21715205836417,-7.028981013424093
100.0,2.7392839285546717,9.399168180049813,6.659884251495065,-6.041917146408103,-2.0084460810035867,7.992219373865196,-6.208419779801754,-5.654501082910047,5.716826477590212,0.5453582542416507,4.164353866613083,5.246438461968291
101.0,-7.021985921021646,-10.222975106857195,-3.2009891858356205,8.571244791407985,-1.9557005086521762,-6.671039688117133,9.962676634015695,2.101850479250595,-14.582858860945338,-17.132404524267667,-10.067356186364178,-2.0433983702421425
102.0,7.7124825207108305,7.90298727792419,0.19050475721333882,-7.776865555235244,3.793571998253106,4.089018066738558,-8.171470891980036,0.20641540605877753,-5.310823326390756,-9.419213455778731,-7.75031356664224,2.557450003032322
103.0,-3.2060226356440333,0.1480659648042526,3.354088600448321,1.5651181076520349,-3.3302821918068988,1.717783060899439,3.324320439566939,-4.961239761044017,5.837769100888933,1.9449525647393573,1.071388003590274,-0.4949317300633387
104.0,7.237588641824006,0.45309528786213704,-6.784493353961807,-3.882486283231463,7.03509627951579,-3.1947256342704744,4.9562221021617,1.8354889117586646,6.8579281592087895,5.3281877834084534,4.058767239140475,0.0240159812770393
105.0,5.720907230905647,-0.8916492636323852,-6.612556494537955,-2.447847998141718,6.1891798403029945,-3.776863731714287,-8.342912133236393,9.84315003613773,2.5438325898549117,5.36961865660833,2.9203525345315855,1.2078275119985937
106.0,-9.375775136234154,-9.398439498911817,-0.022664362677612626,9.433779692869004,-4.650591042264862,-4.65324720284038,-2.598436140721218,-3.5275544470038565,2.2240840938035706,6.949584284135184,5.726483642131997,-1.8646101866454625
107.0,-11.981494931159128,-11.795494077192224,0.18600085396691324,11.85435617968195,-6.049029130293837,-5.8244684862896055,6.879997038957176,-1.7974795725160797,-2.009397274823584,4.592550394978634,0.8454091724770336,0.2661386894712503
108.0,3.1758999549522384,3.810081083039341,0.6341811280870364,-3.4531857526238667,1.2386391169209432,2.2021267240145113,0.7087442435518458,-4.478301142805261,-9.409210972815398,-4.597392357167443,-2.6734725345337855,6.299768184295747
109.0,5.484911474731166,10.21553808459127,4.73062660985997,-7.895577125790253,0.35622511432885196,7.529235519268556,3.1559227312759655,1.3495354939769424,-7.9761071801358465,-11.235984852137033,-6.866552632159312,-4.526241394780443
110.0,1.5852364620870727,14.857174866093864,13.271938404006624,-8.19428994760299,-5.856908214899422,14.036867176748434,-6.189945068898993,-6.854137962192954,7.895148806365409,-3.21472330357651,-0.32450353862847825,-1.5416430468728708
111.0,0.8971942058215285,2.39520631935285,1.4980121135311522,-1.624296583308384,-0.3124696191618226,1.911408338939303,0.5536654904326213,3.5225682031970234,6.903846967590575,0.6094254463744573,-2.1921315472007796,-5.743198747426718
112.0,11.498905784955866,1.9921340437341835,-9.50677174122175,-6.8047019462084535,10.486664503266828,-3.7231278249855615,-2.779051051529702,10.767176535716139,8.741266211768062,10.943432088724343,9.529534481238864,9.03616463461944
113.0,-0.3331470154569982,0.7093180178098732,1.0424650332669074,-0.16762560619551725,-0.6327878542696874,0.9000720527982171,-4.609589553767146,2.3271635252992326,1.673345013468225,7.531723530021974,7.57182801625565,12.733145638530925
114.0,-15.08600413591889,-22.79313376281314,-7.7071296268941225,18.963808329198553,-3.7210414030024053,-15.313610594245281,4.588599514292806,-4.8991661361979135,-9.767137768975822,-6.396013096195727,-7.733010820299683,-13.910324727219287
115.0,-11.81482172953006,-20.186245042049944,-8.371423312519743,16.03014979441069,-1.6798080203613825,-14.269357357054176,12.618505660371168,-4.599972636892012,-15.724182200916806,-11.986902830413747,-12.502182242335289,-12.780911614129584
116.0,14.969131530201846,5.137573167634864,-9.83155836256694,-10.097476755503056,12.362680378386118,-2.33846287821547,-0.6740451915666741,0.43022994869963105,-2.092483314383693,-3.232808720361434,-3.8451216878254915,-3.1805365631444227
117.0,11.008711583646694,25.286922301668415,14.278210718021626,-18.11052367199788,-1.5896760606711307,19.795744465693865,-10.138286753703506,-2.9195709550495956,14.030606026964854,12.538603435420804,16.613404623777352,16.976496783394495
118.0,-11.563458995982252,-2.0207060127822096,9.542752983199886,6.749832343151349,-10.578984360649244,3.7836249614172015,0.49113375262549486,2.349478978625693,3.9645893794814144,-1.830272746993821,-1.0528394350583277,0.36568525650938
119.0,-9.12676733725801,5.549224252557083,14.675991589814945,1.7426453039749932,-11.917423349655571,10.146943341670557,-3.747312650603834,-1.8818478355130235,5.899237386979381,1.0205197250843545,-0.731409821098532,3.1037697755869607
120.0,16.60691644968489,6.740369662929892,-9.866546786755041,-11.646079079034408,13.230639876075223,-1.5968948309604114,-1.5109992193222535,1.2690518543190854,-2.7088006715898434,4.347350308190221,6.418706428272621,4.645036900674721
121.0,-11.786295189549424,-14.845299202530265,-3.0590040129807643,13.339811646241793,-4.361264861442516,-8.9796026489753,13.340952336610155,7.132590902633906,-10.459245863291791,-4.95105246241643,-6.115569022436728,-6.075425429930193
122.0,3.7712232751595516,6.375604389917825,2.6043811147584073,-5.049122108390488,0.5916561362407335,4.463156952088554,-10.082311507150607,-3.259701931028125,2.823604618176608,-1.0718302033636373,-2.6468918727637774,-4.1738998458735725
123.0,-0.6452607657486861,-12.810563687747644,-12.165302921998872,6.757230968665186,5.770690523464871,-12.51906031221625,5.079955510652798,-5.1427271165010495,6.020640976083804,1.3636483025557968,-5.369894621741919,-7.0580119624360895
124.0,14.824599820966837,4.372396098086284,-10.452203722880544,-9.638958853879181,12.647465351382289,-2.9987283283311115,-6.46018546363131,3.3462566911339233,-1.634198426451129,4.068564570944542,6.451100591042508,1.7094763736149186
125.0,-8.370160766419664,-3.064898488530735,5.305262277888818,5.687885725614487,-6.834700501645627,1.1560809889098138,4.516444317072406,3.2513444080716893,-10.10195375304858,-9.546797685198948,-5.390440706957624,-2.5710123497644113
126.0,-9.697794981646886,3.9728266689337053,13.67062165058049,2.842970522821551,-11.691604241316213,8.855834462891918,5.77094594656949,-2.458536489865835,3.228171072953952,1.4664357510921762,1.551578962011395,4.7423898926995545
127.0,0.23794838225792247,5.136317856699023,4.898369474441128,-2.620648364727224,-2.35138835479818,4.974700103273442,-6.6110905872985875,-4.883731379509251,2.7354944861681076,2.320346354987908,5.284542802730308,5.754689122909445
128.0,10.419763084345682,3.8928520158697517,-6.526911068475748,-7.16561550324734,8.43705906686451,-1.276810873201213,-5.806863290520981,2.998284166005593,2.263728500745786,2.8265584037703384,4.228096791973327,4.57445978479157
129.0,-13.046224322446715,-13.79165393617539,-0.7454296137283226,13.407871770718804,-6.12149758205993,-7.303469330355274,11.80492985882018,1.6547224031966128,-0.00960760918445791,-6.165781513938798,-4.975230503000988,0.6581019397277657
130.0,17.610534900811032,2.8964050166419737,-14.714129884168837,-10.270363324981627,16.18202230399921,-5.942870012606538,-3.3407031367783415,3.7764727408636034,-3.5207765508542117,-2.669182324455984,-1.0516062386722234,-7.711892714503901
131.0,-15.41389009790193,-8.212665543719694,7.2012245541822,11.788169047737295,-11.290899765485342,-0.5421307945629659,-0.015492797497598382,-4.125020895033469,1.1499506461958544,2.9797360703276636,-6.597994909449053,-9.389676629640137
132.0,-6.6170045010940015,16.328746106636114,22.945750607729817,-4.810478550839132,-14.761487632494697,19.674998885856503,-2.6560016480290747,-1.9897717296422397,3.560824271687372,7.242366248521238,3.599399913199772,12.778731452404909
133.0,12.122507828134957,3.7075287368866343,-8.41497909124866,-7.954314266395793,10.21770717403653,-2.3205249551862623,-0.41343801004028924,-0.13057800575110634,1.0214893565146255,2.3939919136808667,-0.4516220881807246,-3.6916343253045243
134.0,8.41485094642173,3.038348605879206,-5.376502340542884,-5.6892702597141005,6.933030007168769,-1.1382382488439264,-4.01352684473201,-1.767748254057274,3.3216666724975665,4.5100223063238705,8.33009044494296,-0.15317607769322358
135.0,1.114919679536611,-4.150417771513904,-5.265337451050664,1.556816402813223,3.157335456778756,-4.754847264779153,-0.5019029183682167,4.925606046482617,-4.965466516942599,0.7594039302778075,4.206284438283473,1.1640211416622643
136.0,3.731915904890431,-9.590170106743319,-13.322086011633651,2.893558793752645,8.499796975947621,-11.420317827684293,5.135018927538892,-1.1738056871476337,2.1327170505950264,-6.7138766113622035,-1.1284646060096393,-1.3851332629357536
137.0,-24.27890291365815,-8.976327200730704,15.302575712927663,16.596061708887124,-19.737193389606045,3.126119743783555,5.32912192724627,-1.1760845611271264,-8.706213695081559,-11.84680228380949,-7.884415095106609,3.7459231117543808
138.0,-3.636538877498163,6.222007908780692,9.85854678627906,-1.2441326555753776,-6.773527903912118,8.0096264357709,-0.8020810821943196,2.0038682007342694,-8.240154043635911,-6.139538151426757,-6.783386593349034,-2.8266944166137704
139.0,17.049746722092877,9.582209275587218,-7.467537446505565,-13.348914024606156,12.230799683551638,1.1109734468204033,-5.942916523712541,-1.4097495098148403,4.824209723857341,-0.19737136940941746,-7.888937519598312,-7.383332258450176
140.0,1.4363509208224716,-4.268840141853507,-5.7051910626759845,1.3762629564867588,3.6205982001854182,-5.0081556140418355,1.08265564012604,4.279942587841223,11.07917191167056,8.01869847167978,8.587416130190102,2.116525395573716
141.0,0.7141579879201414,-4.291913396456231,-5.0060713843764555,1.8178089684352239,2.8321265853199047,-4.668065292928252,1.3036331691561684,-2.336397133020156,8.292113254722203,9.375360360856726,4.362961622892912,0.3989891055317264
142.0,-10.876302094921492,-10.741635590008176,0.13466650491325605,10.827706295202821,-5.451667804558164,-5.24376264137691,8.663902556945263,3.061629851162902,-10.640015073213508,3.3486134159777547,6.569954258742213,9.234134043300685
143.0,-2.978604977327947,7.233516393861191,10.212121371189122,-2.116752103120161,-6.616193743466436,8.701796665673573,-1.7218175893411396,-8.548319169674027,4.572958333316159,1.8081037334924428,2.0072297027959807,2.9431520305823042
144.0,16.403168313271845,21.768895879626804,5.3657275663549555,-19.079397742408464,5.501285991847156,13.542368621503707,-16.34502718419299,0.8978594735432637,-8.701463699247663,-5.261232970054765,-3.149723056722019,-3.076267278868679
145.0,2.087230098439967,7.733625599107829,5.646395500667803,-4.903169110474676,-1.7959464239387941,6.659570742532563,-3.3636777318356916,-2.374376313763795,3.8320161442584286,3.415539031295377,1.9904641813383497,0.12901876390847677
146.0,1.8299154338104193,-2.0732816783684678,-3.903197112178912,0.05527341456282864,2.848201413845552,-2.9463938335242625,-2.1555028119816697,-1.2687782477582608,4.308336361629894,-2.4342462637802993,-0.4694864504610403,-3.6592144093090946
147.0,-24.82119729163753,-30.056934757367486,-5.235737465729963,27.460081662548568,-9.73692188194855,-17.611223926325422,21.912793709484898,5.956582326299802,-8.44188978939913,-13.859361944154749,-13.470440232121364,-12.973708744275388
148.0,3.6057465002875944,-3.648244983156248,-7.253991483443787,0.05330022160249648,5.40120849724541,-5.501194648809179,1.3292309849655428,9.397228151169589,1.838412712699815,2.7491610108577635,1.502285077320554,6.660635517627396
149.0,23.985806678442827,8.32310890011808,-15.66269777832462,-16.18930924076519,19.790634776640964,-3.6469144307536663,-4.362465857901831,0.7783374329163126,2.2195251013786166,4.068017190739764,5.667595790720735,9.33258554719876
150.0,-23.810868674236087,-12.6264459556157,11.184422718620542,18.27335345401299,-17.455080746253874,-0.7030078171711609,7.610774333733893,-3.470346943250667,-2.85525662795391,-2.371878163749286,-3.7160016821829256,-4.157297331172973
151.0,13.601228445067216,16.178282341479616,2.577053896412548,-14.90606049573751,5.555251173226635,9.31336525382919,-13.21685687269077,-10.792892640414072,-2.0913666361665735,4.2071300476567535,3.738255585460505,-1.6513411780782188
152.0,3.162452783359367,9.892992850045697,6.730540066686374,-6.541004224351792,-1.8161931689309654,8.324567452882688,-9.880050103206289,-2.6047559851573165,9.292057423724213,6.478191545265354,3.3639610340585286,2.9737558426356836
153.0,-6.398380906287789,3.181003569979911,9.579384476267723,1.5929597523233792,-8.015990025330233,6.393801813470792,2.575985526460671,-0.2599816316463195,2.6973816685142906,1.0636514148787581,0.7084229810027911,0.36758201814297586
154.0,-1.8932793175477218,-4.587815875191547,-2.6945365576438762,3.217527115386112,0.37857566405769916,-3.624290710952047,9.30802340747092,11.488344913914393,-4.626756741129743,-7.530175563512349,-4.5254899933842125,-4.457019196371817
155.0,-9.282537625931207,-2.499291066533238,6.783246559397844,5.936487486040413,-7.972523578511472,2.163692917591532,0.7657708033760873,-6.393130077546347,-0.04161264067144965,4.024444219386218,5.438374703828796,6.121020915351155
156.0,9.7673431625591,-6.196759430069685,-15.964102592628885,-1.8287253351415567,12.84876617423805,-11.054158919316206,3.0647021298383916,6.292729743587309,-7.9738112099229665,-7.497621076828105,-4.0307693596925365,-3.6295425753545025
157.0,7.697332254900568,2.699343557385832,-4.9979886975148125,-5.17074457629065,6.3296442894087726,-1.199608636793534,-2.6306470520617355,0.7637981502650089,0.2759341210596795,1.0338170118722751,-2.340356216989578,1.5511351937511024
158.0,6.897192357671804,0.6884467389032589,-6.208745618768587,-3.768814271202868,6.531746742471114,-2.811971045275806,-3.2746175162467597,-1.394947125329554,2.880913659386202,3.704882957186056,6.1395204218545825,2.33451155321315
159.0,-19.529832984577848,-16.686476867879787,2.8433561166981067,18.132769454971687,-11.133666481773872,-6.899734605489319,5.640186008801951,-5.521162083659947,1.3715414770582357,-2.974879107561108,-2.69719218982853,-2.161472341321858
160.0,-4.998567380821268,-0.9199799221764762,4.0785874586449316,2.9085951818146247,-4.569471280391547,1.594218621675791,-3.4593323456014833,-3.949809043983894,-2.7218576094858458,-4.741217597209243,-14.060386270842669,-13.029837839804866
161.0,11.71925944125341,24.279714865707433,12.560455424454172,-17.967144139312406,-0.3774287856126328,18.428914969513666,-12.063295724065258,5.445996961036659,5.347752299454848,8.58409546208057,7.585038310109878,6.089825318057974
162.0,2.756047737123667,6.938303980284745,4.182256243161284,-4.890234987574916,-0.752298318847963,5.5662280218001055,3.4298878054097424,-1.8689488912838308,14.438476410411718,15.330049013214047,13.833995323555156,11.468137423171607
163.0,1.054063106647558,-3.074139706347218,-4.12820281299468,0.9686894159339232,2.5499252100967524,-3.5937581309155653,10.47319267018555,6.330817892083303,-5.418390322942139,-7.232533454941568,0.7536022467551531,5.218057872142703
164.0,-2.9596231434339524,-2.568097400323866,0.39152574310998567,2.8017475297052483,-1.638118278658185,-1.0755500344326627,5.577571660390509,5.613365802900607,-14.216225839563556,-13.544085537584058,-6.733578562754537,-6.6046582072216
165.0,-2.7335558002854627,-7.7024523671220875,-4.968896566836863,5.2561558459024145,1.1569233294032024,-6.315568035360466,-0.7288307204280078,-2.825673601654727,-12.377337888277465,-10.01141831835675,-4.845804390779443,-4.615297684631907
166.0,2.9085166474008757,-22.06161209598175,-24.970128743382848,9.615548390440294,13.902894611950153,-23.56734739468151,-4.1382499877062635,-12.645195149063106,7.610961632996495,2.260324966288896,-7.186630629135086,-13.620400316240048
167.0,-9.400748650729803,4.324782960338332,13.725531611068034,2.499802872060209,-11.517605593135293,8.978982072795528,-6.9785828592721675,-1.8131414739201785,5.344870397292478,10.308561636402095,6.821315845570225,5.615297393331383
168.0,12.410371891801137,21.70514567646109,9.294773784659998,-17.094062387926304,1.526712991180844,15.535572387044192,-8.530713726290148,2.547512276854988,7.9480510493097825,8.813960232560657,4.140502381838016,10.069286198245694
169.0,-14.050389676563626,-9.641011973306105,4.4093777032578005,11.811103475695953,-9.260622904907828,-2.578597941303242,11.789550619012807,5.6305038630100075,-1.0170678711585746,-5.771610140386078,-7.707391258794826,-1.8506044156481662
170.0,5.730770816822957,8.061038521163864,2.3302677043412467,-6.850403440975153,1.6683570928267333,5.15571433865471,0.6821138726177196,-1.7351428520893544,3.4274761414791044,3.0154639398840546,7.844098565527989,6.923712833216321
171.0,6.7555899876603585,0.6402852516136344,-6.1153047360465695,-3.6514034386541265,6.480842490691831,-2.695967706779353,4.697705377208255,9.7897799795215,-4.155677969157834,5.560403392987574,8.750498656952402,-0.2761363743493024
172.0,6.999242601086846,7.091193701087908,0.09195110000090523,-7.076755591037499,3.4987785942496137,3.5585041448437176,-4.109500060914176,2.616251155636969,-4.937096724147163,-8.02350942373008,-1.3058686968239956,-3.813592787747505
173.0,7.816042360049529,-2.1325575765456635,-9.94859993659553,-2.873275193111807,8.850640782333684,-5.990126393416856,-3.689975555854101,-9.38521327551432,-1.0752703715962508,-6.559129737858752,-9.072800107854405,-6.712359884745217
174.0,-18.061254007543173,-17.25141973253177,0.8098342750110925,17.70237583041548,-9.4631282309412,-8.245203040183682,4.8954815848397555,-3.0231941382209695,0.737447558118101,-3.2961453968533165,-8.279039568816552,-3.016911709760803
175.0,-8.822868884278254,10.748686555813732,19.571555440091934,-0.9983946232099807,-14.140893441817985,15.137114384589239,-6.3017963457916855,-8.246959854783267,2.4726079683643727,6.797657480137049,5.328605778086797,15.186424841515134
176.0,-5.338472110361761,-8.200977900228098,-2.862505789866108,6.808607103235261,-1.2559342251894074,-5.556809267680171,0.6477991417569551,2.1854285919191287,-1.7628107100914154,-0.5613668907000653,-4.2355243099272375,-13.484589379980594
177.0,1.8592872683861164,1.7323909242581994,-0.12689634412753872,-1.8410879702962095,0.9772897941606262,0.8509721761823638,6.693635934148602,7.378453185638873,2.706479562713672,2.8803117481024283,4.135664968454468,0.915614918086751
178.0,-1.5536283666282626,-2.20221811273675,-0.6485897461081004,1.9063157190992603,-0.4693850301989868,-1.4637029429806385,2.4355765805528753,1.1936221492608956,-3.015518949650439,-3.1719797876418205,4.6975515036983415,6.1053712800026485
179.0,23.03799061161689,2.8310555164831754,-20.20693509513361,-12.988006760979177,21.601643267044476,-8.655910317685539,-3.157357906698165,0.32528690883039735,0.45132245887502853,-1.3779980786880004,3.2877952574995413,-7.248019629753826
180.0,12.344730248794312,-6.64615477030121,-18.990885019095625,-2.8235506502679524,15.720348939629272,-12.793863260012944,0.6666547744077664,10.92420209927071,-4.173860325542366,-0.46755221760811394,-3.2093813157181468,-1.191831969669697
181.0,4.869562170872892,20.60936820075505,15.739806029881954,-12.70886719906705,-5.466119571479081,18.11544376567346,-15.651968479544255,-5.840836431344604,12.227951347947444,11.23508247076389,2.2213002313251278,18.116332771708763
182.0,-23.14139346276702,3.8108937803909546,26.952287243157745,9.704483160159857,-25.001419766715166,15.399086834885829,5.323595591009968,-11.176746578526691,-4.332203063739964,-2.560532100720665,-5.7040485362601485,-4.582025145499527
183.0,-21.385727973594893,-17.74442555147891,3.641302422115846,19.53589522818233,-12.545668245816989,-7.033330520744418,12.81906517771349,-2.0835356111899666,1.0851626889986123,-0.12733646829340728,-0.20016457183507663,-9.654386866400003
184.0,5.070743370491497,-0.8824822298430277,-5.953225600334483,-2.114152481454367,5.484460200677432,-3.3967742938150303,0.479908341502564,10.927684437136168,-4.080173382203645,-4.290816557230482,0.7620885755372735,-3.5377461483840875
185.0,-3.2770157683436234,5.371044185426301,8.648059953770003,-1.0616219327932708,-5.90436006806157,6.9556917667902525,-4.943033571959541,-8.686698164661887,-0.6404536774515859,-2.073389873364337,2.495410575165218,9.206089537846523
186.0,12.387490433588871,9.40414763388973,-2.983342799699144,-10.910033843824092,7.6722156694922585,3.238854178239974,-7.273674083359319,-2.7779933838173436,0.9032316987029312,-0.16088623903487576,3.1491173560894867,6.239555367669211
187.0,24.608666205863003,-13.660658007969174,-38.26932421383235,-5.492461300536429,31.43142466483704,-25.934065766189136,4.949053813034605,10.903755294750466,-2.5634622972676993,-0.19615204107270942,-3.073800328636054,-10.525535685194725
188.0,-8.512695388279292,-11.675268784713394,-3.162573396434425,10.147058178421872,-2.680483332056065,-7.465494609877722,5.294127236251628,1.200266548687324,0.7469469316870981,-3.880650024601386,-6.364141237897753,-6.6885058109609865
189.0,-6.35486839359165,1.5214567039145792,7.876325097505903,2.4616818334534063,-7.12303039056411,4.653011159101511,-7.183885245748781,-0.3592357585495516,-1.047102289743219,-2.042043928013203,-2.462506259700688,-2.209633107441849
190.0,-22.76149773467125,-0.24357437231699985,22.517923362354015,11.461515345840349,-22.65258447220563,11.171358674441048,13.079404954878207,1.5068619896174682,0.4054913539873889,-1.4749899549739736,-2.578084371324998,-1.3824171632033346
191.0,5.491449935535362,19.645721414405394,14.154271478869841,-12.614966020756139,-4.35117976722727,16.937146736624264,-4.1258611748529175,-10.787651196032327,2.6211851438803526,14.81568399578929,12.837277991263148,13.928246901025489
192.0,24.580528777328123,26.20769928254306,1.6271705052149006,-25.36482097624343,11.529849940552673,13.959368894089625,-22.934878941667954,-4.449685535467292,8.220464608819707,9.841882946882901,8.657674798894126,15.01396607352637
193.0,-12.767730545521735,-10.738588023806482,2.029142521715387,11.781610456428083,-7.426590167281621,-4.385926273339663,4.574341175506582,4.966585870736051,-2.470304460496309,-3.1206078030836273,0.05746591335361817,2.964690135270267
194.0,0.21628029599824505,-27.135719874766416,-27.352000170764434,13.410433744795087,13.836333184741193,-27.270342880294415,15.881003700374443,9.25261285082068,-2.9020605794343224,-6.854675758768269,-5.617537423653598,-16.739773755259833
195.0,-3.9186914125774175,-15.67425977648491,-11.755568363907397,9.828142354289689,3.8970452372789612,-13.739123964518024,4.281790757644704,2.259671496388112,-4.609517008801789,-12.770879425970085,-10.895309380984694,-12.630253957416782
196.0,9.76192251828063,3.8840108649824376,-5.87791165329828,-6.788762132604943,7.805433405347485,-1.021946257301881,-0.9729892956844468,0.8333752367864333,-0.39243865735303185,-3.7219380461542455,-8.806372862992408,-11.047985324644147
197.0,-5.936526741954513,2.9099713961005893,8.846498138054848,1.4707627158339893,-7.399588260023181,5.928659654950132,3.577954290026842,-8.620663615847029,-3.836253207872157,-1.4869134256360983,-1.3498096170060974,2.2981242289735686
198.0,-11.732529333202516,16.46275705873939,28.195286391941554,-2.4066733459502094,-19.96787734657688,22.37477972504921,-12.867748821484682,-3.7877576124205996,2.6615610822410134,10.467722374730847,12.479376673877285,21.46890223977465
199.0,21.9655475510218,24.13411236354433,2.1685648125222556,-23.012889601858898,9.89554513461528,13.113575015646388,-8.800592289893075,1.1178949954990811,2.208891583988447,10.890218424923734,20.764337087568272,20.468468160980045
