Time(ms),I,II,III,aVR,aVL,aVF,V1,V2,V3,V4,V5,V6
-200.0,7.282739791955189,0.5039168921031911,-6.778822899851926,-3.925826657431589,7.070954129728777,-3.1950189970512732,0.18319474996533325,0.03580420747656003,3.74493508565286,0.8152564638401588,0.6221617106480506,0.9405631388302855
-199.0,6.822354176454913,2.230746367021945,-4.591607809432901,-4.4852376192724,5.743030956800622,-1.1571000231248874,-1.2629274027998725,-4.774836575728633,-7.981629139560573,-6.210834339687142,-2.649263976474095,-3.0596374928730183
-198.0,3.612300661385923,4.998805085580184,1.3865044241942854,-4.267005265534737,1.1464365600589383,3.221988255588723,-1.6563823354980203,1.5611212991798689,0.7300682660009072,5.234205851348513,2.274649109119066,2.3015552760948292
-197.0,-15.074939131394883,-5.840558182485479,9.234380948909385,10.41759706304515,-12.200525587467121,1.7358953909010917,4.740865673478472,2.4526455299387724,0.8757211267234172,3.5520127854116086,4.114389036126584,4.228628029910275
-196.0,-7.995522099453016,-0.4034320568908685,7.592090042562089,4.24019169633746,-7.8390354671438995,3.566427462179039,2.210800357779416,0.5575532402897225,-0.01172843998193801,0.03434494740872274,1.5254346874590168,-0.46258535464735906
-195.0,0.9570459621886949,-1.8919984552311786,-2.8490444174199236,0.4319416434185701,1.9375299718809806,-2.386730190036216,-4.109156468982668,-0.38482384943572123,-0.024074355700797627,-5.418390362026065,-4.461656903882466,-1.5469933064022796
-194.0,9.698765963820714,-2.927122965081196,-12.625888928901919,-3.4202569959079594,11.197201126840547,-7.783762455834152,-1.1871323031512921,0.6353852324890197,-1.129471089393305,-4.2148668259068565,-5.185001938681204,-3.983408053849388
-193.0,-0.3423386417860299,4.02844682388374,4.370785465669784,-1.8001644275547797,-2.401185044741971,4.19667724457431,-0.4192564404319884,-1.2493557165926035,3.107137579844761,4.135199521873791,5.1771322105275,0.20895431484269267
-192.0,-4.553290909620478,3.2530088873209673,7.806299796941458,0.610251914522633,-6.147622843077712,5.525715086171153,2.340064597337233,-2.427827580993785,-2.5741130439766478,3.3675642303419115,3.8394423261451487,2.402003799594978
-191.0,-3.591570805807749,-4.557792792044259,-0.9662219862364845,4.107772201487037,-1.3619392554154643,-2.771701370329418,0.9141338196314861,2.443308596471473,0.13686015445275335,-0.509602368795218,-4.961076176775991,1.4716738682668042
-190.0,7.504580616978537,0.9662243550071743,-6.538356261971324,-4.2084418039982125,7.048482035632027,-2.7260833660538526,2.418079327018797,2.027708404795345,2.309644731697544,1.0610508586313747,1.381387049486773,0.4717152167454728
-189.0,-0.6842979766685584,-1.7865894482244105,-1.10229147155581,1.178579047255964,0.23491733049111607,-1.4738287875442628,-0.8978737798963455,-1.9164591416318593,-3.2593696116195368,-4.133423097651982,-3.737201002297359,-6.154908773177269
-188.0,-1.6917088307194414,-2.4828763739464508,-0.7911675432269792,2.10622782686412,-0.5018265330914775,-1.6769282425803493,-2.9004587828535704,-0.5168222336480371,1.5673824042672118,-1.3419414176162836,0.6893072089317605,2.3542356588458175
-187.0,0.5960374929545093,5.44497337133657,4.84893587838208,-3.001874050915852,-2.095172949616359,5.1766307281488295,-0.3270884775895748,0.007845986727844312,0.8825628292941713,4.223083302231072,2.5588193799121433,3.8981533237497112
-186.0,1.6935647889473409,1.5434755393363953,-0.15008924961091452,-1.597619967567696,0.9596826794582863,0.71925630355793,-2.6430538702106006,-1.9754419805036076,-0.4612562368680835,0.4438937258328024,1.2975529656057005,1.0400623060765894
-185.0,1.457276384355632,2.0835952380240714,0.6263188536684784,-1.823983799722181,0.38264668816963143,1.3726197266289326,0.39541329082488885,2.2820126458392793,-1.5788903643272676,-3.070195980548889,1.1780229636108737,-4.370942744226258
-184.0,-3.515650556975307,-3.354957882701442,0.16069267427390554,3.4661047128205498,-1.8628687209989234,-1.6611109158934045,1.7975381679522093,0.04784674465530714,0.9106608146495385,-1.7958555490028671,-1.2837364818537451,-1.7404585244118307
-183.0,1.0518917810041573,-0.22669810304474813,-1.2785898840489092,-0.45431805696905414,1.1473630056168342,-0.7389830841091969,0.8254350410776368,-0.25421727688373813,-0.021224338444914587,2.408572326847323,0.06941858899141051,3.101970208816213
-182.0,-2.5086094851222396,1.8895457302167369,4.398155215338932,0.35291766864122276,-3.388065557730858,3.1582102340468383,4.2822323539951865,1.7982774821765504,2.299411509917566,4.900094913904586,1.3179353905008795,4.7929375339459925
-181.0,0.54954430155817,-1.2216451096244185,-1.7711894111826791,0.30673150026529833,1.1483842663270005,-1.479213011871718,-1.9022663709480212,0.22363827988518636,-1.3354396822502037,-0.48627640573877606,-2.101656835528911,-3.254762219814061
-180.0,-0.2233787644111871,-12.709796462445764,-12.486417698034671,6.521207271323106,6.117836246707402,-12.654221527838443,2.1684383401795273,1.444819155424635,1.822922483116866,-3.907752027094819,-3.7940811297746495,-5.020602396990416
-179.0,2.332440625537868,6.276950701190672,3.9445100756527367,-4.325167925784948,-0.8242172868510096,5.141598398354988,-5.131834310146773,-4.596138623815834,-3.248806657922784,-3.2147329944017873,-3.07354252056339,-0.11002417488697658
-178.0,1.0896440311504367,7.136228164838462,6.046584133687991,-4.131871602098011,-2.5030802341639466,6.632973270308439,-2.707644950674019,-1.3519620612884369,-3.2574489480261013,2.266879693250742,3.467995500477411,4.4341030508477495
-177.0,-3.578449671085604,5.098311527560257,8.676761198645869,-0.7796303639832063,-6.0806117481372475,6.862473756543544,1.0689852365932242,-1.0677272857062574,-0.5686570450855059,1.3688104143293185,6.5311581808612775,-0.8828117760312679
-176.0,-2.1780629984463338,-7.297997270414427,-5.119934271968047,4.71567137832913,1.511257822527913,-6.222116015769178,2.24627009367133,3.702054250238915,3.552370720688875,-1.2278360395741046,0.7976487632082461,-1.1611547403152018
-175.0,1.8951082494497717,-4.737249984744714,-6.632358234194413,1.473720881824819,4.219966342533155,-5.688058224313726,0.926856643745219,2.367592313177399,4.091706606633602,1.2432018447950732,-2.0943646971412226,-0.3449303941545823
-174.0,4.841936810280144,4.367281212209766,-0.4746555980703291,-4.555983692713125,2.6109523468856013,1.949442656211417,-0.7097694385325405,-0.8744695094568844,1.6439297267534683,1.6629561529180896,-0.9463731124746957,4.557461338552812
-173.0,-1.2454528159949934,0.8812955214265245,2.126748337421567,0.1481141452821194,-1.6564296225704689,1.509203451248835,0.5697897255771717,-0.9652589287421627,0.5197885821765185,-1.1693397004521364,-1.916350766596113,0.6325680163315084
-172.0,-1.3085635906517592,1.6144605836868522,2.923024174338641,-0.1903678597693425,-2.0862294967036874,2.2716452911381344,1.4535999788871448,-2.867558454445427,-7.375588612781865,-3.022469036825087,-4.078605473098994,-4.1925915946794285
-171.0,0.853918392178854,2.2354905394406206,1.3815721472617621,-1.5849447315372693,-0.23324498556249296,1.805609357141151,-1.6095177141346821,3.4955151637172373,-0.9642827560942244,1.8363262799552635,0.9550853671308015,-2.6449164572203547
-170.0,0.05534710837052237,-5.1038434153013625,-5.159190523671931,2.561032228535218,2.5605551357629155,-5.142421152355693,-0.3981053535862703,0.7495261764715349,0.9939086613207087,0.18342508687770542,5.2513121357900046,-0.150654205195063
-169.0,1.8735833223003346,2.9013385246359795,1.0277552023355858,-2.3508754638988023,0.37751911674015903,1.9451968633203167,-0.847046917060978,-1.0822047460834558,2.005204125119455,3.8069813122351457,4.516802781860642,7.419848849987151
-168.0,-4.731149089762664,-1.8129769805656584,2.918172109196941,3.309934907921651,-3.7902838461487227,0.6046800862130433,2.521210816755958,-1.3933954600726928,-0.550409439200281,-0.21991102241964655,-2.402444291719456,-1.04682658800583
-167.0,-0.18708556155346856,-6.288836682059819,-6.101751120506382,3.1991518303694413,2.992713602992683,-6.227075716652474,-0.7748866549140029,-0.6164020577445554,0.2322488568252027,-4.745998327676846,-8.624082351988921,-6.87266391096899
-166.0,0.3803370713375079,0.2814491588006527,-0.09888791253685203,-0.36790858035480745,0.1976787165411582,0.13564687335490833,-3.151043869366325,-1.1627180579401193,-1.0608292699903137,-2.324664018113481,0.4930330976306374,-1.6978478125956264
-165.0,-0.14241123292739366,4.208506019888468,4.350917252815898,-2.069402832597515,-2.207713332910462,4.244836079186178,-0.7212328691991382,3.0981478289127775,4.684747043700159,1.7362019133755053,3.7325093031736283,7.277108728788083
-164.0,-2.2765938968348096,1.4198662328321876,3.696460129667033,0.469943360130999,-3.023602756631482,2.5241116822330794,2.857021530847225,-0.6238124783177753,-2.2389413947549928,1.143778872711885,0.3664265661714248,-1.0413232511742687
-163.0,1.15913460575947,6.848197331360744,5.689062725601317,-3.9643452766688823,-2.2204380283475262,6.314663825095322,0.5458591493233018,0.6325672481837551,1.1607329074545911,2.383703229448863,6.315419757205379,3.3503249878414922
-162.0,0.8580169398248343,-3.6579356883679766,-4.515952628192786,1.435626920787704,2.6551278063227315,-4.118394685359963,0.9028130653842831,0.028436210812037677,-2.360524900808691,-0.9014904889799761,-2.734697501287177,-3.9849788689140055
-161.0,2.3192673507974835,-5.91706293539996,-8.236330286197429,1.7507376943510955,5.247303189297265,-7.028523201821088,1.4261969515905408,-0.24919949153805643,-2.0028533165492175,0.2093169280751182,-4.3551149384966585,-1.71267441443555
-160.0,7.961168914068819,2.7716460467671737,-5.189522867301665,-5.420844572782212,6.623685762486079,-1.2391575420930958,-1.1793192651292157,-0.6050820970167543,1.9260592952915085,1.0809695443989398,-1.7447375831758245,1.9004997583675869
-159.0,0.036376276777679406,2.849344441364294,2.8129681645865703,-1.4250905727134267,-1.4199243398487735,2.8007987693545466,-2.57005110255421,2.007984655295333,0.08182678468396187,-1.1588727241529342,0.9042752888701433,-1.3461519783450098
-158.0,-5.558076369219559,-2.930398343040069,2.6276780261794412,4.25691195554749,-4.048185318565111,-0.10347801677759749,0.3695471831544641,-2.226907482970036,-0.8949021508178736,-1.0892825310014307,0.30007784398318854,-0.6673164200241084
-157.0,-4.275904922427994,-0.8842709128917761,3.391634009536196,2.5911052871789977,-3.871341057885026,1.2220774497308184,1.7487517157351078,-1.1304835837889342,-0.4763002295167895,-0.5143781768182538,1.5503473130165677,2.6611946401873263
-156.0,-8.574007376070627,-3.515572028007377,5.05843534806326,6.059033270129873,-6.7794134770953525,0.8176796135339714,-2.5632356119948105,-0.5057980510959446,1.68705080156257,-2.588074557282443,0.9058419832868785,-2.5386074322007603
-155.0,2.1751630998455433,3.7001521257881156,1.5249890259426193,-2.9150697375189516,0.2784261743983478,2.5789486299588775,0.347015920135901,2.6289300578377173,3.060582002093329,1.8961872360466574,2.3871928020849165,1.5020318604030831
-154.0,5.218379748590356,-0.4608075385414587,-5.679187287131771,-2.4226482221123335,5.476744273156457,-3.1050907844558853,1.181854466804929,1.4197155639201553,3.2822022173701737,5.81834202367606,-0.6555765643095693,0.6608881622873886
-153.0,2.824738262689358,2.5003684498852072,-0.32436981280410926,-2.6924160027984088,1.5215187593415784,1.129719815461439,0.6499235038499519,-3.0701888734215244,-6.953522556344345,-0.5869747323241787,-2.5013883905314387,1.984820285647899
-152.0,7.631299564191373,1.386155783057416,-6.245143781133944,-4.4469270780073655,6.964817265911216,-2.3902272678140233,-2.589277307186723,1.2529452065234672,-4.384121411236239,-3.2614393012003284,-1.6744157744443258,-2.205419060673785
-151.0,-2.0068272970137038,-1.1382331571609776,0.8685941398527159,1.564689670600333,-1.4065363909841997,-0.17723533237053446,1.8513895047995763,-0.3129270961568982,1.9831014544161765,-3.344895219208848,-0.24886823956228765,-1.8290687323480501
-150.0,-6.176748123108778,-0.9945225641821088,5.182225558926628,3.581013032462601,-5.640665137405806,2.048228334380757,0.11031152488526957,-0.9361286823320194,0.1299819606254663,0.9679362772645995,-1.1572910175269169,-0.9705115894317997
-149.0,-3.8295508822907,-2.7386654816521308,1.0908854006385118,3.275899675458411,-2.491292962709128,-0.7938344845164675,0.5033299034360075,1.2631767841528054,1.6746631811672827,-0.0815808004290988,3.2627635008135893,3.414090675630618
-148.0,0.2342281732174305,-2.0438526629760996,-2.278080836193583,0.8868762531870225,1.2326616388834328,-2.1333538307992828,1.5581947314720719,-0.7511928621714962,2.3292977073328496,0.29575716770394744,1.4254275074793215,-0.5468662259778704
-147.0,3.135493764963513,5.172053600203747,2.036559835240204,-4.185315897555253,0.5301895818610569,3.6304248044985923,-0.6826136533925169,0.515459642596904,1.930083392365123,2.9583446974385157,1.1788148366916926,0.35720703506932694
-146.0,-2.875369893923879,0.6787061458568482,3.5540760397807345,1.131372079692012,-3.2340365644110642,2.063202984532417,1.3003870616702558,1.253366650545624,1.4139108694745488,0.8485712492819264,-0.44841989761229417,-0.6314864164930306
-145.0,3.232718238931732,-1.2696587459486222,-4.502376984880288,-0.9598705348819834,3.923241448471863,-2.8603092576902407,-1.252205758919895,-0.08965790812825486,-1.8178391879735207,2.272885293259361,-4.763063302934459,-0.7862838015290123
-144.0,5.575880219971296,1.5194649864995933,-4.056415233471606,-3.5323356529503087,4.7871983212871605,-1.320883267708634,-5.559626793575511,-2.295563007986702,-3.010258579105601,-3.3780868387367153,0.6322325093832699,-1.1285438752145156
-143.0,4.828628653322761,-0.27298836075338784,-5.101617014076079,-2.2632302527325106,5.008710010897508,-2.659904467002391,-0.73741974850251,0.7265249213109162,-2.4544478592078613,-2.3527771543872795,2.050651375622679,0.32901533968177626
-142.0,-3.1497410682316214,0.8281168118577232,3.97785788008935,1.10028834497757,-3.6040307445429205,2.43185270662071,-1.5759291694806714,1.2543578289727215,0.4830511521622334,0.445517359872444,-0.24682142093516968,2.5679781597699782
-141.0,-9.236756631923106,-2.6092714075037096,6.62748522441932,5.947045336939456,-7.896730478131506,2.0396895336211687,6.894764505472436,0.6376063292424434,-0.00966107877147826,-0.16893723177249492,1.9635547743064738,1.3778384588386918
-140.0,-11.60104688273927,-3.875253709454322,7.725793173284838,7.767868706779897,-9.70781055890407,1.8787188039699765,6.85246427069981,-2.3230569254087237,0.4212186618235536,2.024525149533185,-0.3410252165143459,-1.3612296256511534
-139.0,1.5093611045213118,-4.500495817333983,-6.009856921855391,1.450564192967882,3.7947698509308587,-5.300551331198168,-1.0769307828451105,0.45269028045592374,-0.24805757786530425,-3.5753462111708973,-4.617776089710799,-3.962723551198754
-138.0,9.494356414848372,7.988119211599871,-1.5062372032485642,-8.784251763069904,5.458874847448593,3.2749661882967986,-3.922567190405885,-1.4061216838642372,3.889192567955016,1.511125654655189,0.3859830445907242,0.13266449909391698
-137.0,6.239037366079518,4.4378701819031665,-1.801167184176359,-5.302119074863224,4.060405743795124,1.35268286523479,-2.816503018261958,-0.2274312186523067,2.2771113843056314,0.31330605628979136,2.6152328122812163,4.732566918147704
-136.0,8.520167894435943,2.7236022957839015,-5.796565598651994,-5.585290370325774,7.123044932358985,-1.5807383425725283,-5.06624997383441,2.06597183431306,-1.4376576189867363,3.455834463576014,0.3448744422086365,0.3412089732312755
-135.0,-2.957630340641381,-6.987313706423456,-4.029683365781999,5.009663656805476,0.5819186096366291,-5.474049977186451,1.3443790656920087,1.1184377860913384,-3.367996708922395,-3.052769141574238,1.1706032550478436,-3.639095654504652
-134.0,-6.792770492066484,0.4944131106812222,7.287183602747767,3.1084161959225147,-7.071960591383131,3.9246159742708437,2.2491978563606714,0.005055817594998624,0.5858354682648839,1.5361635578807533,0.560978006423289,-0.011275383969230557
-133.0,-6.283325489286493,-0.48770004874016504,5.795625440546326,3.344964978408902,-5.994267570484267,2.607368112460847,2.712284829142857,1.0326113487396806,0.39594781643111343,0.30474098222210233,-0.792570104693755,0.4709154056468431
-132.0,-0.9080483629542844,2.8474155819506803,3.755463944904877,-0.9326869023642375,-2.369689731089384,3.252053790375712,1.835677987217362,-0.8292211025964144,1.4792151957865558,3.339180783532833,-0.5306891207012879,3.2748681873316903
-131.0,-2.497505142832315,-7.01637143691946,-4.518866294087249,4.71219799212613,0.9659121827163633,-5.74166398427243,1.466268066870814,-1.9580978262390434,-4.693914648304263,-5.855769850775974,-3.5255843030605876,-5.052559529042638
-130.0,4.160424343632493,-3.21652443418741,-7.376948777819983,-0.4424291999101797,5.7946432257625435,-5.273838655432022,-2.8108324064926986,-1.3365838687297582,-1.075462806127113,-4.8842380234814655,-3.087709295271852,-2.416421238728863
-129.0,8.114221599230078,9.68178490014083,1.5675633009107237,-8.873758456544492,3.291820740540466,5.645787133305408,-2.0935067317137426,-0.5064933492403056,1.8051566051501005,3.9662803365901103,5.649214402691793,6.748268534737608
-128.0,0.7494850577315013,2.6902507528732156,1.9407656951417156,-1.700862206898396,-0.5824973633075081,2.336489961109106,-1.1735587735496285,1.3028572558364675,4.775673833813115,4.097447675593017,7.899375930632457,6.7527038184734645
-127.0,-6.6579051934685305,-3.6290919397440544,3.028813253724489,5.079293202315183,-4.832718459212237,-0.3566351100567251,0.7305891533530706,0.3441144938757369,-1.0536202472065115,-2.879302876293776,-5.909604945743838,-7.406905064720278
-126.0,4.027619945907052,4.3326157925218745,0.3049958466148246,-4.168600245919851,1.8719952926511625,2.3431981208311017,-1.5321487011705126,4.503395649400524,-0.5013271381700326,1.191462703017636,-2.305349313190033,-4.275204195491729
-125.0,3.295202935800852,-0.49335832476697894,-3.7885612605678234,-1.3903994175353236,3.4753781117097815,-2.1926651317131056,1.835926819879897,-0.9202500263387314,3.17112757235771,3.0765044490343882,-0.2989394627081856,1.9671142463194198
-124.0,-8.183136866500504,-5.8166085238923655,2.366528342608147,7.011869146443187,-5.260671301086687,-1.6947623810048182,2.8895055621117645,-2.4919571191709347,-2.674635429768297,-0.576623106965773,-2.4919900387692677,-0.5439666212746423
-123.0,-4.9269405156808475,-8.988466325341324,-4.061525809660465,6.973705163578074,-0.4171120680406737,-6.490589561388416,2.9647321877489516,-0.9610214232668008,-2.444264218526417,-2.5586903638887546,0.675390441263676,-0.8998874550612193
-122.0,1.953151601432404,2.5320436435203733,0.578892042087954,-2.2992797465287143,0.7033430623202281,1.5162978174103046,-4.021087174416064,-3.811441850052044,-5.91433933236516,-5.668798125957736,2.189462846677668,-0.17723108795053444
-121.0,5.585560254126005,5.491117935169804,-0.0944423189562387,-5.509164491956756,2.856104612692949,2.7437680600675054,-2.3730950123750274,1.8327537124036073,5.035417661770117,2.6710551006359604,1.9724663025531801,3.369162305597529
-120.0,2.4723005941246337,8.587821314313775,6.115520720189112,-5.494182720683393,-1.8847144573158716,7.323937407073982,-1.3066348807112693,3.167810255025606,3.6042134733474303,3.1294628454716276,2.9934070276299467,3.291463625191079
-119.0,-4.632202738512358,-0.5813610722775788,4.050841666234796,2.5686039436706114,-4.326129558931329,1.7110806956074955,2.4539135829588052,2.4276519166212003,0.0238571309659239,0.9189305192198236,-4.6999937941347145,-1.119894815089551
-118.0,-2.2237067384741067,-5.929954975534559,-3.706248237060417,4.11873846008247,0.7571519745667692,-4.761546772609461,-0.020448644872259614,0.7699444239908271,0.043417943199035025,0.34377023753146796,-1.6169619806701956,-2.6290661400553677
-117.0,1.995742447788997,-3.8569051971404513,-5.852647644929411,0.8911531722738002,3.941546821489712,-4.878589219501464,2.8965744933787287,-3.126981473566188,0.7970713302693877,-1.0800592158582873,-0.8506931327140068,0.6345816966479925
-116.0,7.589372707162559,2.660190124528249,-4.929182582634292,-5.170087953591896,6.278809569774948,-1.1625213269512251,-1.5044070094217608,-2.438570716107804,-3.3488940617684166,0.7691301212565389,2.8180995842832397,-2.9094464968055
-115.0,4.466361857178305,1.0283800485616705,-3.4379818086165983,-2.7212943719073492,3.895110789360176,-1.2381497623424857,-1.9028074825364125,-0.8471399163274325,-4.84719262751164,-3.490188025573894,0.9556620312156653,-1.2019363457421035
-114.0,-5.1513439487295365,3.014705649635556,8.166049598365149,1.0879338014861877,-6.635719476209269,5.631419849853019,0.5391937791234876,1.3765364397981597,3.6645498205560987,2.226320829855934,-0.3259316425026114,1.3157681438735818
-113.0,-6.865322443160263,1.3964425809050796,8.26176502406538,2.7505287230913686,-7.540653755304228,4.86862422942208,0.07501540841671972,2.4990622120465362,4.935805172751659,1.2517733105273552,2.4947108362981734,4.463073315745031
-112.0,-9.207365131589686,-6.745259405325779,2.462105726263918,7.992652706251475,-5.891914333731568,-2.1786773934552492,1.9694150894964308,1.661980144685493,0.5422339771949138,-2.2429378278975554,-2.974650268138025,-0.009212813285438992
-111.0,1.1215835706148174,-0.032030184567537034,-1.1536137551823789,-0.5249896326910863,1.157442138833591,-0.5460881975630322,-1.3062710021842834,-2.090161413574852,-3.2941398162328683,-0.5535944734942875,-3.6935970630346797,-2.606728723132694
-110.0,9.454001353894691,2.281527097923897,-7.172474255970816,-5.921607055118094,8.332171127109115,-2.471441559325633,-1.6147385911284078,-0.8455201013245867,0.08507724316013943,2.2850694260704385,3.5958013255346724,1.5723660395456578
-109.0,8.87050319833497,0.21174078639309468,-8.658762411941865,-4.589741178048824,8.784631867926267,-4.244974171138732,-2.320936933452026,-4.454680483217391,-2.314702142463124,-0.0572160662860145,-1.9435004624432564,-1.9048016514727624
-108.0,-3.3314046220959836,-0.5117456465538546,2.819658975542155,1.9561480070583004,-3.130614737547362,1.1334095493277343,0.337360315177903,1.641608845464075,-0.08557401627415107,-1.7285275012480787,0.08918583134733524,-1.8537208204822164
-107.0,-0.8755923337564764,-0.7900105109721385,0.08558182278434567,0.8709880618374631,-0.45083063629916387,-0.2975079464661641,2.9376009599396586,3.576134664093061,1.8543087558902258,0.1736975395311947,2.6034079717236844,1.0802441453957066
-106.0,-6.935069340540151,2.7876180162649327,9.722687356805064,2.036330746526285,-8.291614179713779,6.223867269838346,2.782926887860258,1.6522852802854033,0.40376280519516405,2.44442100432745,2.9354247818754216,3.0847257675592323
-105.0,-0.512839564680144,1.63023553582944,2.1430751005095523,-0.5143921547579996,-1.3620995837289858,1.8462875616619239,2.4197449052324966,0.8457344629530263,2.427054325183298,0.01876791141643852,-0.796521763103109,-0.16941296855533672
-104.0,-2.581497611007099,-5.890248139423488,-3.308750528416426,4.203886280715894,0.3349616483265301,-4.569576153818726,-1.9503284695320842,-0.6653623911213549,-1.2650896967073832,-2.3751439956748333,-5.266416774183364,-0.4922761651035553
-103.0,0.8306768262563239,-2.2549857738722947,-3.085662600128633,0.7601862421684906,2.0105966514845357,-2.646127572722626,-2.960394375855424,-1.1598185757999806,-3.481576136620178,-1.7202302310497415,-2.2278209660403077,-5.563656873089632
-102.0,4.096075719313664,1.9888618772229811,-2.1072138420906645,-3.073765194724756,3.074136160547586,-0.03704125264435598,0.6931877241707225,-4.058007412521166,0.28833391796377406,0.7448259291992251,1.480413948214983,1.1782038166324935
-101.0,0.9768554055369356,2.584994267796949,1.608138862260057,-1.8146775131819295,-0.3472015223781897,2.119738479163228,2.6065910860230184,-2.6964239405704187,1.4626106656391784,1.3643269268354699,3.564908796580581,3.7617813712414216
-100.0,6.5416623950702535,7.28536197983079,0.7436995847605852,-6.950668814363485,2.940802937781088,3.961432926896504,-7.544395421104703,2.847860325477084,-1.3569092433610987,1.4019078384290817,3.6697231120967393,1.634867800143048
-99.0,4.927903395610956,-3.2311342286317553,-8.15903762424271,-0.8094927930221341,6.501795455624602,-5.746074302513725,-3.809686993929949,6.334104782971448,3.2357612274223677,-0.25624072981744017,-2.6762265853942737,0.15938746535704285
-98.0,-5.189878072397901,-0.5959750897503466,4.593902982647521,2.9313700617946754,-4.857303170696348,2.027397467711135,2.67634249504252,-0.4803341287308496,0.6766873106875158,-0.33763267868442676,-3.9075960052256713,-1.188701124482329
-97.0,-7.036322007458846,-5.240242648543957,1.7960793589148385,6.179040361423839,-4.381140664057778,-1.6943593040111786,5.4984765949994365,-3.812006185491253,-1.6708597780385759,0.5146183769389797,0.6936713099997611,-0.8582323678455737
-96.0,-6.433942623333954,2.0526382632762448,8.486580886610165,2.1567755311810877,-7.501021848043411,5.296175742245003,5.819199064106809,-0.1575093440567592,2.2432380514466077,0.6682112112768219,3.1220434351700557,0.8131800705065211
-95.0,-7.167431223313351,-2.823584632642893,4.3438465906704575,4.965521299941663,-5.713695446311631,0.7076290701354612,-0.2800488636577163,-1.3160541720730234,-3.8448738051053475,-0.6500019982376672,1.0604010674278932,-1.419633586869349
-94.0,5.947513985775858,-3.118428997580521,-9.065942983356354,-1.4429528750646052,7.473268001108563,-6.06428805547984,-3.740562738709255,1.3833591767021802,-0.29226184819766354,-1.9817423306821107,-2.3566137140862162,-2.970519541490838
-93.0,8.585654630851922,5.809031438815925,-2.776623192035963,-7.148894554765115,5.649433836259068,1.469593776650152,-2.415683416980662,1.3355565923512467,-0.1545107273264087,-0.977189398835441,0.11593614971313593,1.7845800145517723
-92.0,6.828330572184411,3.2919154220886666,-3.5364151500957273,-5.095499914149477,5.15099568808021,-0.0834158926079491,-0.38841336487265954,0.9148163594000185,-0.042605310585361544,-0.9937424218459995,-2.4743279281921535,1.8253325040495376
-91.0,1.9589222093726812,2.4391220897411867,0.4801998803685037,-2.1623021810510292,0.7867707459038642,1.5066038270114124,-1.3024208102343078,-1.740747905799041,0.6057063521979668,1.9221408008873904,0.10961528869507353,-0.04974576155309962
-90.0,-5.276760740565132,-7.438901136253726,-2.162140395688617,6.309935377332131,-1.5088354661552492,-4.824583808365814,3.7534096059339594,1.9562339766842973,1.3256829569507005,1.2879699091565957,0.025438951811702526,-1.3472762171653596
-89.0,-3.6795303305047122,-1.1586057274332626,2.5209246030714265,2.4471882262892612,-3.127851899314364,0.6625338026548994,0.2342296646893749,0.5402801916353538,4.4756512306640825,2.5884980873274923,1.1701369358906706,1.2925459590341557
-88.0,-0.4356093346691541,3.2866117457662636,3.722221080435406,-1.3954394243588835,-2.1030414618245534,3.487660761122634,-5.943606954245109,-4.073105335576624,-4.505191673924774,0.03460039549531335,2.6716085850874305,2.910084238001901
-87.0,-3.1495450092862107,2.0687704140440095,5.218315423330231,0.4985065354664421,-4.126830110820423,3.6251773544776222,0.4767466283784685,-3.3572795595170066,-2.1449962357320533,-3.7862732265125967,3.3494071560255283,-0.3308394296572901
-86.0,-2.1233929400446794,-0.30542803085256853,1.817964909192153,1.2616500168125133,-1.9931077340606713,0.7342961175521865,1.5697743156697206,-0.35341497679323286,-2.065740595156078,-1.216208976917811,-6.843711347846156,-5.1289181355549545
-85.0,4.7027334102186265,-5.023711962179462,-9.726445372398025,0.1404706132427435,7.186567172064607,-7.321712396668442,3.998020922427391,6.572234231563211,3.1200663550827095,-2.675218432895955,-3.351609003973361,-1.792851216593452
-84.0,4.177699201865705,-1.3466646559571782,-5.52436385782282,-1.4257517243483113,4.812601528287373,-3.3835444690539465,0.7242255337372703,1.512888313062402,1.449656959280248,5.055405579709775,4.341407182532055,0.7340463528893688
-83.0,1.1077643393265042,3.434382950399432,2.326618611072969,-2.2755478127588527,-0.5824621112178292,2.8549249733737283,-1.6814251784990493,2.2469916309070728,1.416884078238699,1.6217798394252803,2.3479568450448847,4.7815901029387256
-82.0,0.2479967802599825,6.479157957337329,6.231161177077351,-3.3673800121717434,-2.9776754666361693,6.332592152441987,-0.3561219165554812,-3.403449687886502,-0.15885305014052814,2.0659020885208053,3.9125082909725366,4.397584078020522
-81.0,-7.428215870719471,1.1929427822860008,8.621158653005452,3.109917614135388,-8.020043071100178,4.887693287314272,2.3908664059273996,-2.659208829717655,0.5150052342295797,-0.6141120350239031,-4.384205855579931,-0.7745971859705076
-80.0,-7.290209720551574,-8.557037128700506,-1.2668274081489588,7.909249963481471,-3.0100325415714675,-4.929415737803772,-2.795080634189778,0.17789835037261525,-1.9018910937098366,-3.0573804427697544,-2.3489221189471543,-4.46342977951766
-79.0,6.060256962301449,-4.417281647189842,-10.477538609491319,-0.7639628585931,8.274396383895304,-7.38641552985074,0.4814594140401778,1.8529474039666318,-2.064406693763603,-3.8320562152924884,-1.8923457060027626,-6.084909585600128
-78.0,2.249476657784337,4.632574589283077,2.3830979314987233,-3.466909408359561,-0.052266680542294885,3.4878167743556974,-2.639200272575596,1.0707765292184015,-0.06968019482853971,1.0916170141608172,1.7085290385389895,1.1604640999137952
-77.0,3.9899472477043143,2.4519807698472675,-1.5379664778570616,-3.2477948990906382,2.789487793923592,0.4337260075069194,0.5798708377295579,-5.541359175141808,-2.6984715732759446,0.8907305536606133,-0.2856762514619309,0.3513474797020236
-76.0,1.4946711687948,0.8110926180748059,-0.6835785507200192,-1.0979396565686401,1.045070522039427,0.037695019176170685,3.398576222099886,0.9636372950955926,4.393628321733285,1.8010365537282773,1.3322362915638437,6.16805121495411
-75.0,3.145628806926596,-0.367516460923792,-3.513145267850435,-1.406860035675733,3.289795906984523,-1.8885240831739118,-6.450202082546931,0.18323586005899373,-0.3137318733867347,-0.8808057630816064,0.5104719381822773,1.4156693146063213
-74.0,0.6992768230769515,-2.497355596026632,-3.1966324191036337,0.888355397310022,1.9859627243798317,-2.8722035764234155,0.6670361749924513,1.3648424669941428,0.14420234150873135,0.06901592808755952,-0.8766351809902088,-1.2000407066575471
-73.0,-9.734658591202198,-0.6111624593971204,9.12349613180506,5.168338707523552,-9.475225839787043,4.313575354747281,3.495486761420021,3.5581267275148853,0.9411928900715717,3.0734808370931255,2.7919497694884288,-2.2561959149249464
-72.0,-1.9229205847510755,2.4936402545502787,4.416560839301377,-0.2865583547914139,-3.143788484001915,3.438071622940667,3.8964145440953746,1.6411659417684394,2.983156569528008,-0.5517806402624781,-0.40434949619072935,0.6700563115537832
-71.0,5.394298674565473,8.275475456601535,2.881176782036118,-6.836336109787979,1.2780275974899353,5.563762768958623,-1.3103332861189183,-4.5767927652117,-2.011847296558825,-1.376857375642805,-0.9915137012931006,-0.754649089139158
-70.0,-5.172288108727271,-10.399487784529942,-5.227199675802614,7.780642914943559,0.0490439574372421,-7.829155877092438,-0.9952733329622548,-0.5326176227063364,-3.6853246818178,-1.55826587022217,-2.516509056954929,-3.159881207803539
-69.0,-3.8547054830505143,-5.390952776405248,-1.5362472933547142,4.611070580345235,-1.1322966849953655,-3.4848679175049044,0.9154869547429041,2.415099864566136,0.4799347844111783,-1.213195851967065,-0.6658607276680164,-0.23946228541131775
-68.0,3.6988502957912437,3.4295316373176896,-0.26931865847357495,-3.505268847766333,1.94159707723125,1.5504111171650883,0.4060057752531314,0.036052990731957044,2.4426238870675787,3.533601363109121,5.631159583668842,6.225731729247644
-67.0,8.092940069384575,3.74597517369527,-4.346964895689366,-5.947832210422791,6.188418816845141,-0.2603718850741388,-5.509199648775781,-1.6646153015850327,-0.4203802140402342,-2.25683339031474,-1.3324667102141046,0.19839904558323518
-66.0,1.2353099715185207,3.9334278052978657,2.6981178337792557,-2.6210146133889753,-0.7528508864322947,3.3490172340698723,-0.8583081467207618,-2.4358630878817644,-1.9928835674363135,1.6889801598700187,-1.9313862486059323,-1.0727169150329356
-65.0,-2.447991107365525,-1.2188692034579023,1.2291219039075492,1.867941540716335,-1.7739253533799477,0.03498860675135007,0.5020594737760881,2.160854173055408,-1.1588435098434724,-0.3420683699272494,-2.3437319080932104,-3.7537625235830574
-64.0,-2.7649145090217613,-4.0972728167218655,-1.3323583077001424,3.458854410116281,-0.7268908478278402,-2.7638781715571694,2.864198033694407,-1.9755551814313606,0.16338772385883876,-1.6309213693083724,-1.805059621842855,-3.7171347139349105
-63.0,-1.0871684060883058,-1.2668461765442443,-0.17967777045590705,1.1201994192251454,-0.4650172725493751,-0.692292137265615,1.769681492485536,0.9191029752060286,1.6318044345609664,0.8106031753168781,2.2854858015579644,3.3525413975803464
-62.0,1.1896847753406194,1.2026346472238036,0.012949871883244257,-1.1789138397761902,0.5724878323777425,0.5605037174126076,0.10599818950411488,1.6881132201539701,3.260939710732931,-0.08474645090083549,4.334850355389207,3.3058506806505457
-61.0,-4.020917197595674,0.9822545916968412,5.0031717892925895,1.53341896935759,-4.457021956144521,3.022262713392859,1.7365725826231244,1.5706424809641046,-0.011161795988986478,1.21123317283854,0.6878220816355625,2.9837727419275017
-60.0,3.5228195365008945,2.6301981951053315,-0.8926213413955058,-3.0633995982543993,2.1741072958340975,0.8150726341672481,-1.720392362583385,0.4790069554125256,-0.8457520146849054,-0.5134953962997812,-0.9751162280141811,-0.2116186304072043
-59.0,1.5224415060588297,-0.9971515852573212,-2.519593091316095,-0.3263670994250838,1.9771613833700163,-1.7391418936211482,-2.786562470259689,-0.6303402610790467,-0.8534924393675519,0.5103887635878326,-0.355917728973109,-1.8903001006021822
-58.0,0.25151292757191246,-2.113957601616141,-2.3654705291879976,0.9515652126028773,1.334787797407664,-2.225346561064662,-0.24330428554588535,-1.2517121740859363,-1.5042185428821395,-1.9596634032944968,-4.302921631934841,-6.003318766697047
-57.0,-0.1339366229160115,0.13075880199514445,0.2646954249111668,0.03052783809152393,-0.17804121629354264,0.21028708785225714,-0.8062965221002147,0.20758212792730335,-2.6038138849404913,1.711682894879592,-0.9000506897552456,-0.3271091475696233
-56.0,-3.1232882432874396,-1.7427322655979434,1.3805559776894323,2.472753695750926,-2.230779153176106,-0.1662610610536031,1.5092254104746112,-2.276571872236123,2.014802304324953,0.19796305816656717,1.8239961477581828,2.78319644296458
-55.0,-2.1217629820010186,-0.3962739363436524,1.7254890456572816,1.2309915892556673,-1.9762455068562303,0.685230734751095,2.50425816755782,0.7228171073692939,1.96174603103194,-1.448059987982326,2.333164018709036,2.733892039004081
-54.0,3.6646316280883164,3.932803212341078,0.26817158425267507,-3.8180685432331485,1.733449343076503,2.0498310855267374,0.015633499963073394,-0.08562244529629426,0.9470737179325734,1.520225729425336,2.379048869540784,1.6260738879246037
-53.0,4.678676231412439,1.986070634963882,-2.6926055964486144,-3.347409071503558,3.6531943315246442,-0.318351882121502,-1.8843841299656625,-0.48068190983089676,-1.4043920797765042,-1.4159606693990767,-2.650993220694679,-2.439576781523683
-52.0,0.41765155548671196,-1.3570778298481403,-1.7747293853348807,0.45378014683823187,1.1527865159903365,-1.6053477721879672,-2.051358447023352,-0.7853088578065589,-3.3200844524865394,-0.2948827477993791,-1.060515578031947,-1.8546088009196429
-51.0,-5.851947128109417,-1.8245599891616022,4.027387138947821,3.895613298507391,-4.9551831689127095,1.0633763631864401,0.396898205756101,2.6812535248219382,0.9527309605129517,-1.7047094877329747,-1.5149240770369592,0.18397920097688147
-50.0,-2.9067921257502842,1.3554224329765123,4.262214558726839,0.7461672310002878,-3.5992160690517343,2.848683223678404,2.923955286678157,2.552377812793164,1.5666767659972693,4.739933236100386,2.117850620165795,2.455473212836269
-49.0,5.346695577557719,1.3000326972236547,-4.046662880333971,-3.361217362908661,4.676186299691932,-1.3351432394891454,1.46912441360156,1.3359008093252842,3.7565155450302035,0.8650141185293752,2.763381130472909,0.7058925415338567
-48.0,-0.45390252725843006,-4.667790048410772,-4.213887521152262,2.595416107077318,1.8482298951033247,-4.48276285919625,-0.22591826680987526,-1.6028283658310307,1.871269238202634,0.11302206177016827,-0.46027222669122203,-0.3451867488642698
-47.0,-6.252206672106954,-6.874436032622277,-0.6222293605152367,6.5948060727416635,-2.7820440476165462,-3.712232657005976,-2.354602460591045,-4.252404546697509,-2.8934105557902705,-5.494405795105793,-3.6331829636812083,-3.9721418671298054
-46.0,-1.4637779850721366,-0.7842387499941668,0.6795392350780576,1.1555071168246798,-1.0520565380505191,-0.01713195913206289,0.820241184606683,-2.4588451589572147,-2.8165790169893654,-1.3697198523102208,-2.4269086064952843,0.955305201156412
-45.0,2.6626427333690055,8.010791952692593,5.348149219323673,-5.382174284076918,-1.3327171674890108,6.633576519390425,-2.4129481363996153,-0.09307126526262754,-2.871700911420768,-0.12051998647445827,1.1048115644967949,0.6007465601471158
-44.0,7.606053199997208,11.387495084126924,3.7814418841297837,-9.540381775812708,1.9183146564280782,7.533744164571109,-1.961931036901411,2.426754258190087,-1.1148502074648234,4.395397890320389,1.767340321835129,0.0695312918558636
-43.0,5.056699261471671,2.161833726795976,-2.8948655346757075,-3.573416676364319,3.9834423857999677,-0.34566512524166537,1.4265565304259344,5.3696385691075665,1.0439248213722172,2.662085243948574,1.8420586352835548,0.042440023102441216
-42.0,0.8953438432338543,-7.081775799816524,-7.977119643050504,3.049774114762319,4.371297847848223,-7.5166688193351,1.886724359124045,0.306254118685263,2.955536578612786,0.4892839145657486,2.511559205220998,2.8697387533211316
-41.0,-4.54579964161479,-5.55910152381839,-1.013301882203797,5.086853283765544,-1.7436227876866355,-3.2801060418542614,1.684458573274162,-2.2071060323389844,4.0830419894920364,-0.3280357137164593,0.712003395852436,0.1169637707255251
-40.0,-8.823044169442154,-2.7563712623480905,6.066672907093912,5.824093455906354,-7.412712591051764,1.658172389307815,0.0796654806611663,-2.041685984717111,3.084152340255071,-2.689778778145885,-1.011549449636498,0.9541614650078865
-39.0,-3.979759195442524,-3.035886823748318,0.9438723716941748,3.4651920176870297,-2.499881382170367,-1.0411568780696379,2.100821789020306,-0.9107016771944245,-3.787885680958408,-3.3487460886484226,-4.911156794495502,-2.2566297605134418
-38.0,3.217887423478094,0.8045686058770034,-2.4133188176010507,-1.97164587284612,2.862560353465965,-0.7928857610991837,-3.3135572342053368,-1.833688424128578,-5.593546080654856,-3.222250380590689,-4.042818115061111,-6.945602618962776
-37.0,1.3464951124460818,3.4938504902029184,2.1473553777568988,-2.4550774968913496,-0.4289940206538776,2.8421553365537098,-1.6441695447505738,0.7881825943047182,-1.4681956008027566,2.3535968984727607,0.29755918994838826,2.377990358025059
-36.0,1.3350737563295634,3.4020575952517085,2.0669838389222113,-2.321090708712961,-0.39451339226871496,2.688709417823498,-0.5675678875141741,2.0503431333883286,1.3537349714154487,5.545107928760406,5.116075586306721,3.050973647318305
-35.0,3.6704613728957343,3.8036550245302756,0.13319365163460584,-3.7666134250568106,1.816051624255664,1.9333006043612877,1.1455970394458914,0.7778546081975426,3.291975795592498,-1.0795620420606107,2.8838476042900614,1.2395038120645268
-34.0,0.11234001489798118,-1.2295016473271452,-1.3418416622250797,0.5283690366792615,0.6911509587801397,-1.233376717674109,1.8455780041134977,3.3771856590723477,2.908145264838871,3.028362710049772,2.16313833486533,5.042386446567127
-33.0,-0.22388318472939495,-7.110639270651652,-6.886756085922235,3.6346857214687156,3.368991982071881,-7.018950703252356,0.4594484493591424,-2.025496871191418,-1.1197510851224173,-0.11642910022148456,-1.9353545004285284,-4.401575680629568
-32.0,-1.013257288665856,-3.32696696988458,-2.3137096812187643,2.213768981281361,0.6042465081666447,-2.836706918762946,-1.3282727381958388,-3.0273055513704064,-4.366362629259365,-5.558809980075885,-5.221021038728424,-5.183667565713165
-31.0,3.5735096917343303,8.642768470308152,5.0692587785737535,-6.065507237217956,-0.718643773854425,6.920243865864327,-1.9391357627129406,-2.095673616774222,0.6641242758122075,-1.9903826259451276,-0.9647230800191418,2.1152853860369314
-30.0,3.2416028091468694,7.9951241695585065,4.753521360411533,-5.653196156748602,-0.7287494628489388,6.3596993869183915,-1.671200315705377,2.714145475142247,2.0327856357210727,3.15740925510227,3.3281185224619945,2.678295191959223
-29.0,-6.277235095883257,-5.909536862797022,0.36769823308616134,6.140373464345833,-3.374744932145346,-2.787709928765253,1.4982208602698819,2.0469013764712436,-0.907487592708565,2.0500794664626847,1.4017141801875943,0.4196653352001486
-28.0,-10.075048642425713,-8.654635322082568,1.4204133203431346,9.336251850032252,-5.721283080113792,-3.638127222399048,5.550128904473602,0.7744226073709564,2.342511629589258,0.8098826672080759,0.716846372306215,1.1797181008827742
-27.0,0.691248103852725,0.11318581011443385,-0.578062293738245,-0.4296038784192566,0.6611991789092864,-0.25926765696289866,0.2927203779209393,-3.4175961600516516,-1.828438488745301,-2.3644409944022513,-1.3061111280459297,-2.1756897946717237
-26.0,1.641832733947072,-0.8476335380988793,-2.4894662720458305,-0.42679218604772146,2.013367636072058,-1.6230121292964692,-0.16795366404119932,0.7718317183151875,1.0318223135665532,-0.332705994067539,-1.6554229352210013,-0.8593288879954691
-25.0,8.020953821155755,6.086867032346405,-1.9340867888091768,-7.011064928962747,5.003967089351866,2.116281285809065,-4.744854366844392,0.1495596774875513,0.7273714289098283,-0.47720201323237427,1.5396555190326802,0.12735710520557642
-24.0,5.273335186333486,3.259217212295253,-2.014117974038149,-4.232724190071637,3.5921640559269057,0.5799827141480559,-2.418367054269601,-1.7242575388568167,-3.5257681722183896,-0.001128539152019506,-1.5279207200936922,0.11514561666038897
-23.0,0.529530326323993,-3.6706449116200512,-4.200175237944081,1.5146928758642249,2.3943568200445386,-3.9789252589482595,-1.5469749884307311,-1.5933625207133306,-4.5138227391575985,-2.532981723585727,-2.28828362976387,-2.8072081597376597
-22.0,-1.615420100855004,-1.4258533112952665,0.18956678955956252,1.5335777495083707,-0.8687857406182591,-0.5807836730923663,2.233106193571845,2.9569514765447487,3.1581433809158392,1.1464617000671766,0.3010208258547324,-3.2637668752761737
-21.0,0.8170211187061716,-1.446424399943115,-2.2634455186495597,0.32040081110445184,1.5793404470158134,-1.8126536323480036,1.638124531337501,5.571511045390287,3.4388775240376015,2.6039029398549194,0.9111058676125137,3.6652918047229965
-20.0,-10.129120749095478,3.2668444543355797,13.395965203430908,3.43370127370644,-11.797273180189134,8.301746345866485,5.004995310290896,-0.8440285664013871,5.199348550827566,4.516581893475242,6.1753884837174455,6.039032706135973
-19.0,-8.783081083503333,3.6942770673373673,12.477358150840656,2.5483960118978435,-10.662545450932495,8.063423882302619,2.668561259293651,-0.7377534115126726,3.1518982004028846,3.065116172683407,2.845702384963343,5.665972854972823
-18.0,0.628977929865516,-0.5633385672337046,-1.192316497099129,-0.023444906332917848,0.8768253404852957,-0.8941781736742294,-2.2827233071028123,-4.759030722428911,-4.416624961117557,-1.8408761714144157,-0.3925298591233011,0.200670815277034
-17.0,5.6419490433184745,-4.174554435446257,-9.81650347876462,-0.7164925066178935,7.768709163556156,-6.929888553830936,-3.6161049129001412,-1.9075872203833448,-8.06900879616541,-8.549802077133895,-5.821949506711124,-6.872375296699176
-16.0,11.606672745056601,-4.3194995682961554,-15.926172313352744,-3.696736037337356,13.797883228593438,-10.13668686056162,-4.832038059294037,-2.0187689974993632,-5.655896575547063,-8.757393492525978,-10.755053192615444,-10.974896725694656
-15.0,7.926022321016203,-3.000177583806214,-10.92619990482245,-2.4299987239935144,9.370498603837564,-6.982238938168571,-1.7103606026352705,2.5669698566748593,-0.2685520512735553,1.972639277644927,-0.5190925198088916,-2.415188084968533
-14.0,1.9364764621603046,10.085792151304178,8.14931568914386,-6.0516151810368815,-3.089531469611426,9.089383904586043,-1.3848044539579998,-1.653703717122362,5.390846477883176,6.073490374973582,7.346656798732927,7.357860289442659
-13.0,-12.412141250687718,3.716909156638802,16.12905040732653,4.389221491723015,-14.256204682351658,9.962215390624959,5.680090733253963,1.7118444891475502,6.7918120187458015,8.531210992841382,9.77231206142113,8.116126064877296
-12.0,-8.796900559311196,-6.7911547406170305,2.0057458186941854,7.75881545376859,-5.385265314994762,-2.4431720067092417,5.280347548069256,7.208593272101903,9.563562138780988,2.0646077992524994,-1.498631330671576,-0.44002924906939445
-11.0,-5.462326108125569,-3.6289725865967846,1.8333535215287409,4.590496074873224,-3.6269595564184893,-0.8772386302460677,3.2151229183949734,2.562434296694774,-3.525499930010169,-3.904073007498166,-3.539915254761734,-3.2474609397337004
-10.0,-1.7445722047502992,2.2684605757248306,4.013032780475027,-0.2946583716550464,-2.9307364690029534,3.1589814657090214,-1.3778792487387612,-0.9502878562318569,-7.673600408879919,-3.5054003711220125,-2.5558666010063646,-3.3826110655596326
-9.0,7.753122878885076,3.798403783726637,-3.9547190951585396,-5.728669095028111,5.885529613661026,-0.05631764142850659,-4.702037992287911,-2.6413377403329354,-4.196094566199691,0.9403754194491287,2.1865294070647256,4.571749805273447
-8.0,10.570373202101637,2.2539465155841154,-8.316426686517541,-6.443339960167965,9.398351437686896,-3.0011888272182725,-3.0777031047315324,-1.3591944993387992,-0.9052315402205062,1.611090037725174,2.048273277780053,2.657726663077738
-7.0,2.4599597764272687,-2.87562223564677,-5.335582012074049,0.17597549534280965,3.930615846463043,-4.144278833633247,2.295298347021715,-0.9694319341323465,3.7773216439016477,-1.598845554474789,-2.6408971715755802,-1.794963533782699
-6.0,6.740389368994084,0.04752252596534379,-6.69286684302873,-3.349190466270381,6.668016672465354,-3.3526746216867567,-1.7221999203558138,-3.5377308710332422,1.4006829716006148,-2.442171626548407,-0.04002417963257354,-2.4605389482322853
-5.0,-4.314188536733344,-1.2912446628504106,3.0229438738830066,2.7653427463289293,-3.641074555454246,0.8408994556479641,-3.317770549418352,-7.345836172970676,-3.1128902756805497,-4.941089214865015,-5.2941036719396255,-4.43354715046965
-4.0,-7.807656380519244,-1.0018165232053278,6.805839857314073,4.442124095861424,-7.2800236764630455,2.9566476967329116,-0.8086795662953006,-4.92125265542585,-2.84320504789735,1.877539248845178,-1.351290339032346,-1.5073986597445677
-3.0,-18.923898803993158,-6.612219494022643,12.311679309970696,12.72300610948858,-15.589077365867423,2.823336654936879,5.004070902145389,4.448224212739536,-0.6420042182203944,-0.3669612335004766,0.536049778107174,-0.2107864513990662
-2.0,-5.947538639097208,1.5067968664822922,7.45433550557957,2.2514817660850257,-6.746697791625916,4.450894605233078,5.37071893527906,7.214427420453836,2.692046157415184,2.618398576873978,3.52542126338963,4.226047372845821
-1.0,15.600802030367184,10.159171420502723,-5.441630609864558,-12.84993282990859,10.559241564439791,2.4056799944973593,-1.4994281631484618,12.216086451059041,8.941639709825862,9.280714455575572,7.721164230030688,5.395790109246259
0.0,18.309213423285364,1.3822640292080304,-16.92694939407755,-9.894056486557691,17.58133250189367,-7.7253384306459,0.19119973456442863,16.923395766742413,6.916490921796891,2.510274199168297,1.0093489799727013,-0.9421413829886536
1.0,-1.675323505248345,-3.1787996277598727,-1.5034761225116906,2.4587822492988214,-0.1209843065197056,-2.370803253659576,4.522185559946287,-3.6119716872692234,0.7405160768529044,-2.2838012654546533,-0.6106400611006443,1.055644447678263
2.0,-2.817024363485085,4.290422950252542,7.1074473137375875,-0.7822329886571747,-4.91924564133115,5.671834094870148,-6.527483859169324,-21.809631265225324,-16.47390895227832,-7.325095609930397,-3.677150525176086,3.692732838390647
3.0,-0.5512291567132497,-4.97533096980967,-4.424101813096332,2.7975967077273545,1.898572923961805,-4.725740817602423,-9.364223250036659,-15.81187063223982,-8.885808600020717,-4.717895055335077,-4.943917010340025,-5.517514959451664
4.0,5.205331983253209,-12.550948245253808,-17.756280228506867,3.7075300651696868,11.519694799475712,-15.102872450285531,-2.3616287371738407,-6.8404839288206105,-8.454468916974045,-8.764151170885231,-8.36043062508883,-10.546667567744128
5.0,-6.45822295980576,7.728906105576666,14.187129065382504,-0.6795316366579445,-10.284380701398023,10.924377815058879,1.7122074898649302,-2.443602181289498,6.072721535488094,4.781129380386448,5.70710907177393,1.8278204651265444
6.0,-17.194860026350504,4.5247995134263626,21.719659539776806,6.290711692387245,-19.496346824039794,13.158633180985216,4.357362052703918,7.676075445432687,14.77164811507201,10.755127933869952,7.780328051206213,10.090872995328589
7.0,-8.068479561931206,9.182236428356738,17.250715990287652,-0.5215998682961884,-12.695652384659311,13.163915688598165,8.38894463218855,23.20926332752073,19.01222123700848,12.275553981931902,11.070200989154097,6.07535987215448
8.0,1.7758608226215813,-1.6385259046588683,-3.414386727280771,-0.03067534414179196,2.641605472435384,-2.5098458362501814,16.963735637168053,33.28182480785667,14.78034236611164,6.424847063352076,-2.8674781320512093,-6.033734260964056
9.0,11.906706892223355,-13.858658962183412,-25.765365854406994,0.9401169965802794,18.807141777690948,-19.802241826243613,0.0233550493764767,1.8213293187794584,-10.973596172757922,-12.498477569224637,-16.346510223306062,-13.116081126961298
10.0,18.747839868972672,-2.843148005325032,-21.59098787429776,-7.9029437034034755,20.221142878911458,-12.210015747223043,-19.365730740111143,-31.480655154691817,-27.519116567441106,-13.659384358415405,-5.108987022274429,1.177096748348558
11.0,0.4858448665439088,-8.151261505072883,-8.637106371616746,3.810159742418109,4.534131383215264,-8.385576436936043,-10.800766636135325,-27.19577897520916,-24.103916061783618,-9.375199387028175,-0.4920377806026983,1.9047955853491372
12.0,-3.0441976440449503,-5.030951043177611,-1.9867533991326531,4.020616233272892,-0.5586098688981345,-3.495567018367925,-5.796517532446017,-14.2545438938782,-13.00895491178136,-10.611987869093287,-1.922952766578907,-3.3017841527361993
13.0,9.794550538328036,16.03012611834755,6.235575580019733,-12.925857774117343,1.7455892414521044,11.15196065536376,-5.58420757962254,-1.5792231227860833,9.172262760119164,7.218193812847466,8.147788143452065,9.736414375413903
14.0,-0.3708912695426707,22.29441762442009,22.665308893963292,-10.97391727180839,-11.477468495569575,22.425286312941246,4.222707615741971,13.539513863448914,28.889073684186105,19.285696539385825,12.915111604456838,12.575772641355835
15.0,-12.75990890852705,30.167764643699776,42.92767355222712,-8.71577018005299,-27.806456384607383,36.49649989945048,10.224172553374565,15.848277386760444,27.77865701324795,17.823298846554568,16.142450197837427,12.5270906941802
16.0,-24.895305444333484,3.393667950768922,28.288973395102236,10.81832964134352,-26.55678587827949,15.870911808669774,13.804358126946507,19.099907118827957,15.614858036606101,11.569008164595555,6.830745648329426,3.994846802817423
17.0,-27.916777622430846,-49.857669512466366,-21.940891890035594,38.87773938087562,-3.0324854339318934,-35.867573481121894,20.250994614542613,9.76320927128544,-17.760073664792642,-19.803599989512577,-27.440770872608148,-27.53630600501813
18.0,-10.379638256476419,-50.69947522676409,-40.31983697028798,30.532825407663942,14.92439713193825,-45.474464220960336,10.818841957022146,1.8181512623302662,-19.126668608614946,-18.94243545269533,-24.110613063389117,-26.685738271672093
19.0,37.10836214085311,-22.403356229789424,-59.51171837064265,-7.356600794560158,48.34147941695441,-40.9959184182206,-14.1592916039123,-4.865811970745252,-11.190641031562581,-7.563149223139142,-13.731968666761258,-15.198010168304604
20.0,50.358619006341385,18.616205177861442,-31.742413828480032,-34.490499842543734,41.00160169346317,-6.516870785235204,-25.521421133483095,-10.886252481270734,-3.8951370240798724,0.849635310947555,4.286292884761825,4.674232508375887
21.0,36.023756801462326,60.221079210877534,24.197322409415076,-48.12722810062225,5.942610497136178,42.18134060136254,-33.750235801977986,-24.57260208524722,1.6760301066440526,16.360216141522724,31.262302568957658,33.409957211439085
22.0,11.015611367494941,53.223503110275274,42.20789174278012,-32.12892233377155,-15.56490800864072,47.68944377903722,-20.25984531568641,-15.359833338924735,4.126595185428146,16.58390635568159,29.090415954034736,36.23133157609434
23.0,-46.45333952816212,15.680940835580891,62.13428036374316,15.370527224078625,-54.25820770169785,38.879075553154465,21.45650110016195,2.7493604642403557,9.241636441829812,6.061065812822633,8.575089675783456,12.955701879136189
24.0,-44.58887542294406,-42.72954561136523,1.8593298115791939,43.637361551117806,-23.261357278079004,-20.39043888233682,33.07792647635995,21.125860331353515,2.214565662967024,-17.68015685711704,-30.85729121181957,-34.68077267376954
25.0,-33.261016498764874,-50.95841669201529,-17.697400193250186,42.162434824702544,-7.813607469016754,-34.36897947106352,31.585890723124507,20.99286503798125,-0.05045734974396865,-16.130557602216975,-23.75044982917351,-26.83861282911114
26.0,-33.830480251534325,-15.961546744106471,17.868933507427883,24.947495306320576,-25.7998192846635,0.9851088596469637,11.297177282325197,-16.388396627669167,-16.466351652333636,-12.300986738614727,3.898654789366427,4.785840767228031
27.0,-3.4042214913062696,1.21775046502772,4.621971956333827,1.0672616108317303,-4.042811077519202,2.947257079763858,-7.104473454083296,-30.241566000822424,-19.940376431996096,-14.529489572765382,-1.0213235852326896,7.8758258147670706
28.0,34.6049924175463,8.9220877517065,-25.682904665840162,-21.787162974054887,30.10975738866518,-8.354590046792964,-17.359487234831064,-2.94699566258374,-2.4663536493837492,2.21806133218029,0.19381433000166504,-3.255943131861888
29.0,85.41777494355327,21.239040361227836,-64.17873458232619,-53.350233237795855,74.8363878849181,-21.523025774841724,-32.14544941101361,30.124764411096898,29.238926580842854,33.399803870887,14.276971393404533,4.016056113030819
30.0,78.08056831744507,18.67542231520207,-59.40514600224371,-48.39937868419691,68.6965147679671,-20.33995009479983,-28.522617764005464,59.92804204169686,49.63910639718699,44.37040472586623,8.698456140841822,-5.002642502867098
31.0,22.518318937512877,12.753500743330637,-9.764818194182585,-17.65784554786047,16.171550934088415,1.4380335929247412,-7.667945700540669,24.529124730550542,30.207599448918028,29.34296601267563,4.163849614063775,-3.5814472949761775
32.0,-83.66440378549707,-14.604810423052909,69.05959336244435,49.190939229096216,-76.32973459831418,27.245253107293074,29.268792807135682,-52.934999485015155,-38.8250441609509,-30.860180187927277,-5.54157153426701,7.997033644641905
33.0,-117.27582453931593,-27.622367283369886,89.65345725594645,72.50584757006206,-103.4259352669973,31.027673801817294,46.493265499594024,-62.11356938458614,-65.75366526462763,-64.39645120212921,-18.924469371943168,2.824657549440949
34.0,-42.474675903158094,-3.2693858812359284,39.20529002192236,22.851208101456557,-40.871869830415484,17.974983983394832,16.28671567236533,-22.442316223901237,-21.99296313244819,-25.295005259969468,-2.119472703421085,7.444894671591932
35.0,31.148247599649515,2.6031243934838466,-28.54512320616563,-16.895701655688985,29.821275898196006,-12.966551313238131,-16.33648833504818,13.716866803365981,10.861087346971516,8.117418731853142,6.691270829741964,0.14937719518883763
36.0,58.74657670460482,16.821370661966785,-41.92520604263805,-37.80490190266394,50.31234861736557,-12.546248912776047,-21.987320211331465,25.708270467192044,23.21916017753721,21.6201107576992,8.12700427168025,-2.792390540201915
37.0,37.001720452730915,6.9553627064103605,-30.04635774632054,-22.00271066949105,33.49647154119019,-11.53445783323329,-11.322124685463898,25.477598886794866,21.98287978125462,20.367810508119884,1.1266831944276179,-6.133438564783409
38.0,16.863638572846483,3.131181341245395,-13.73245723160111,-10.026508534174713,15.340081017663316,-5.359431423843638,-11.392663473293908,10.7240081802207,11.347983894197036,13.794281821999032,-0.3415964852598341,-2.513575529816091
39.0,-0.06915245276375614,-2.883814393383351,-2.8146619406196827,1.5210864408406923,1.4028759698378188,-2.8181449294292467,3.6349815418222278,1.144572601591058,3.5137222040754956,5.1291832765399175,0.10887333391490228,1.5989495728326983
40.0,-10.626048130954452,-2.9853704311364204,7.640677699817988,6.846692466058906,-9.11486629936239,2.370366026606516,10.120679650308254,-6.620666818833104,-6.34503299057602,-5.91281462169051,0.014756073450227114,0.45809993540827326
41.0,-19.836552444377816,-9.7087944404866,10.12775800389128,14.812035272645268,-15.05086012986244,0.18374101775708818,7.082174519519733,-8.136489890267539,-5.336120998029371,-7.646303466726,-4.219931172048098,-1.0136645460195821
42.0,-23.7089187245062,-6.847828599523728,16.861090124982574,15.238656562520164,-20.27807270142618,4.988394414580366,8.60356108948865,-9.635445757858232,-8.001035062149786,-8.07672076016322,0.07267384102597796,2.6909681105250707
43.0,-7.718678984022144,-6.259598513851007,1.4590804701712443,6.948966295580629,-4.5786300953108,-2.414528650559271,0.9324199412249854,-3.626829128128298,-10.726536701017485,-10.01006563432654,-4.670912607969839,-6.113876399087555
44.0,9.894052923863088,2.6015865194742647,-7.292466404388764,-6.289705748184167,8.612999269244066,-2.3591285527273644,-5.466411663837694,1.2798062040695406,-2.2625850784923323,-1.802784459874072,-3.1308619974197547,-0.37276298204644964
45.0,14.730036874931406,12.822786665176128,-1.907250209755322,-13.74264978448753,8.352307230337601,5.520880597030981,-8.623448949140094,1.0453366552703647,4.721718628821041,3.597028363765375,4.481715402570532,4.758161713253314
46.0,6.308607806041284,9.927510702710558,3.618902896669154,-8.08793287764932,1.3151669382903473,6.754193624031425,-1.3442835422155133,2.155121824625422,6.870780340460284,7.9494941824513585,6.497081637651534,6.392557505116754
47.0,-0.04509939747693359,1.7353771328110783,1.7804765302879177,-0.8179524793010815,-0.9290395181351334,1.7350403277740916,0.08158871423213965,1.9439659761851806,4.525654940598257,6.302671119688404,3.225311075854272,0.43567686811383677
48.0,-0.2792984002884009,-4.0432818582992525,-3.7639834580108738,2.108396118564743,1.7346090882079521,-3.8515349665761365,1.9580150064231883,-0.4855819417501026,2.3662591438104954,-1.203623668342706,-0.20537202497712848,-4.975119309319883
49.0,-3.654011734266936,-7.332498925520579,-3.6784871912536103,5.519652318783085,0.006460918215529188,-5.535374518933564,1.5704552685286934,1.474594259549636,-3.8285757364275153,-1.6139169419444632,-4.457740862342737,-1.8711589643662232
50.0,-1.582795354642614,-6.404991328637384,-4.822195973994709,4.022419126943052,1.6092854256295792,-5.64564750209354,-2.03476658330401,3.219844700704976,-3.9929246931619247,-1.8293891476086916,-6.6007049527469075,-5.00700631978299
51.0,-1.3638882201280031,5.818432562483846,7.182320782611921,-2.2742307920230616,-4.214654909983744,6.467933857404903,0.3240811456871051,-0.006218151041911896,1.863421751917147,1.2908877045535454,2.091645823722007,6.542905411062797
52.0,2.4924544826029673,3.513593073351561,1.021138590748638,-3.0458146740764604,0.7024083277359103,2.31575009739163,3.1475556524542685,-0.9201438507587671,0.6527653568371861,-1.660803439612377,3.668298777206414,1.9017291595521146
53.0,0.02773510268901258,-1.4236039739535167,-1.4513390766425198,0.7390809909941709,0.7715019204982037,-1.3844676815663315,5.489976442499389,0.33968111028150894,1.0462221739951096,0.55527421876406,2.407242696807616,-1.3843028184218686
54.0,-4.221884027562383,-4.4532813888218366,-0.23139736125946078,4.3851911523755085,-2.053746298434,-2.3619345017881077,1.3722414935619573,-0.6239738872161724,-0.5057809350962059,-3.2386516444356346,0.14731384858662355,-1.3938453933714663
55.0,-3.4524748678417145,1.4299420843755906,4.8824169522173,0.9878609095973072,-4.155012997010881,3.1422204469892443,-1.9168161719666155,-1.5653037434383223,0.42487122675079914,-0.473874043912065,-3.1638878945608364,-0.10854527724097196
56.0,2.6791159500266657,2.5385438943919594,-0.1405720556346759,-2.6237220622010082,1.4198499376439158,1.187758741177951,-6.511972391052277,-2.128414206032163,-0.12031881190704202,3.8212231668597894,0.07597738668015341,0.4319100050071548
57.0,3.4757063647916855,-1.3927074652163358,-4.868413830007972,-1.0480211596561702,4.185535584766952,-3.143703323166303,-7.449414832493289,-5.111186979130499,-5.07688579371882,-0.5492710196211252,-3.298782420081649,-0.8854941426583215
58.0,1.7152569535705875,-0.29784785493161414,-2.0131048085021757,-0.7080762041920838,1.8862585451645142,-1.175517411763008,-0.5393499402351019,0.9954623672017276,-2.158624950586014,-3.830357153865997,0.8501521018219056,-0.9389110997047596
59.0,-0.5354304350265007,-2.237455158497676,-1.7020247234711945,1.3920046624466742,0.5383360259922805,-1.9216613941758807,5.131510125342823,5.592046082029918,3.1337676768541587,1.6695627386489629,2.2745624600728465,0.8174011489197215
60.0,4.481786720743694,4.4659581469320475,-0.015828573811682345,-4.466389348004359,2.2945711992996145,2.182430946393547,3.327530907300742,-0.22679297234254037,1.340793616968381,0.8088723502107643,3.119473179296209,0.3968826291048376
61.0,-0.7288217712624608,3.7654131639259045,4.49423493518833,-1.5124341582015632,-2.6351869196520683,4.15537319633574,6.8807020641372105,1.7045964556399618,3.8618282445749954,1.9499604743253056,-1.2118725937793373,0.23306018525639705
62.0,-4.86379195790866,-4.32028427116681,0.5435076867417745,4.5925846388138645,-2.722775665172729,-1.8698224623392115,-0.42811980058115795,3.505554931789878,2.1462933890339277,2.5465342222610734,-1.6273283513718872,3.142254727071723
63.0,-6.190265402001029,-2.5319721044135504,3.658293297587388,4.353069322177012,-4.944444462713786,0.579371077594658,-3.449515117152848,-1.7038630602040112,-0.8620491703694287,0.4843872821558457,-1.0235786395592998,-0.6011925470547057
64.0,-1.0515326120630966,0.5904077993289494,1.6419404113920164,0.21175372300142614,-1.2939934321149436,1.0556399167193842,-3.585643856900614,-1.2652294198771175,-3.5644806965695413,-5.206026822607042,-0.8863402560214358,-2.6716414074221895
65.0,8.286570781840373,4.845579312024251,-3.4409914698160424,-6.596069289084624,5.829142645709043,0.7255432838959336,-1.881612983606996,-1.6722014249763764,-2.5537881923839914,-1.777887682044312,1.0765407577853576,-2.138722934992453
66.0,2.521072862481763,-3.4335355371528435,-5.954608399634436,0.495301220586172,4.273163967163283,-4.664686885680757,0.8655257258158797,-1.876938032872466,-0.47825603039365827,2.0692039225449315,2.89180659241954,2.000169749674171
67.0,-1.4337864601718078,-2.038470236758371,-0.6046837765863784,1.7684652176613116,-0.4643791974280842,-1.3657217057406887,1.716754161941102,-0.20227231945918978,1.4702472865604854,0.6588547871801315,-0.11685411192323181,1.7187842286095651
68.0,-0.6442519230434713,0.9533493547126753,1.5976012777562445,-0.1255438986481756,-1.0941978313254361,1.3127178893084013,2.87907903423157,0.21039332781121853,2.79566461129876,-1.747425479568227,-1.6234056766742249,-0.9828426036733837
69.0,-5.9047420250177245,-5.024669681057882,0.8800723439598169,5.4144424642354085,-3.3630354442772603,-2.1147194952479382,-1.068773876243943,-1.4131965671708882,0.8264267872432944,1.7367398294799417,-1.4469056933847921,0.06756057853952788
70.0,-0.6694676175558167,1.7853297457746578,2.454797363330345,-0.6070041309692382,-1.6048111853144742,2.1518762136248255,-4.6395740183469485,-0.17577434139604453,-3.6801940095903825,0.5304184097189995,-0.49304382854244333,-2.6230026164763727
71.0,7.080809749517636,5.66024610486736,-1.4205636446504202,-6.338877522454943,4.295460269100646,2.144447687166321,-1.433255615157231,1.677555259771601,-3.1493584704849584,-0.5805230380402375,-1.5483657676672884,-1.7572538119326957
72.0,3.680283754883222,6.7833890167575674,3.103105261874261,-5.197757821290435,0.2624927287447212,4.880974740637056,1.4260572531868534,4.006418701328933,0.9733004569920647,0.22984754308858593,3.4385344496072947,7.051552951404734
73.0,-7.5741307927974235,-6.534644002201352,1.0394867905960796,7.012831096893312,-4.328682503844571,-2.7378198167709873,5.530593790726013,0.9349391827107816,3.322455243013553,-0.3960967490771714,1.4910577135217027,-0.12850318917716086
74.0,-0.5699868148040443,-2.64843662150611,-2.07844980670202,1.6506752128770126,0.8096518158894126,-2.3566072681610915,4.868332493319196,2.9124921804652066,6.6677809981505165,3.5130625391040406,1.2605119537192129,-0.9027111595468178
75.0,4.085079658066887,3.8424167118098995,-0.24266294625695428,-3.9952793859767315,2.132876557525868,1.8093114161621893,-3.480646776942838,-2.3485797922849065,1.2872131303834164,-1.3468316995023184,0.29368499633669054,-0.36884449307299805
76.0,2.0132143894867633,-3.7337752868634344,-5.746989676350154,0.8358870027630975,3.836549129662076,-4.7224607159091105,-2.7149504358131464,-4.890536093808282,-5.7783831162599455,-3.2123526735257526,-4.648376129062559,-4.883450026436922
77.0,-1.591919879340779,-1.5672786642086787,0.024641215132107597,1.6417461828756121,-0.7875017122083559,-0.7403424376519834,-7.03286705125025,-2.023799543635251,-5.491870277515725,0.3399734456639203,-1.1116973824417042,1.647418923961073
78.0,-3.673138676366916,-1.035448782679976,2.637689893686936,2.344745542524224,-3.146871301613083,0.768253604672805,1.490053685000353,-4.47871433501902,-3.6518993469356076,-1.0207921768514707,-1.363433783656457,-0.15252520000066871
79.0,-2.615804441500667,2.7714806634190254,5.387285104919694,-0.08286965149431169,-3.9991802391742484,4.060041957414313,2.520442880398661,2.9426619554721065,2.3159815126371903,1.1129247944996203,3.2761560400689245,3.2100627140944704
80.0,1.4190903120635856,-1.2129014682467034,-2.6319917803102975,-0.10780257592320475,2.0302032951229383,-1.9323087914265855,3.218231553833725,3.051555595435882,3.093423836496682,0.27732544276440474,1.7272124866528271,1.1948655354835147
81.0,-0.24120902903689356,0.5636516050826144,0.8048606341194832,-0.17058803919683418,-0.507575101295087,0.6785176970520631,0.3058587155468424,2.052998315167082,2.1357816787360533,0.24539849136703729,0.06855926842141313,-3.1713646713987584
82.0,2.266308310620903,1.0193155259446605,-1.246992784676299,-1.6612056879701638,1.7888128079298524,-0.12058458061916216,2.805865372998246,3.9240030426321333,6.313894731577268,2.8132750129176785,0.04901064049241388,0.8585278637036863
83.0,2.6330293375379403,2.3541619165299537,-0.2788674210080203,-2.5233444102988902,1.4273940248128762,1.1048503155071505,-2.3159710414859154,-0.11797159085929843,-0.9861241196852775,-1.0709214022469444,-0.4578568186037623,-0.2241737105136361
84.0,1.376308010201357,0.21313969764868845,-1.163168312552653,-0.7565497676563391,1.2553502644577503,-0.493381342709746,-5.68456181884512,-0.8651486597466449,-6.139082290860807,-1.0707645181677887,0.13337919174833301,-3.0856995221611623
85.0,-2.3913904496486285,-1.813257385179241,0.5781330644694418,2.13282130222273,-1.4930387870704753,-0.6431161360428324,0.7805754450894185,-2.432372193471064,-5.319434909302119,-1.9192961469246668,-3.2302649192421358,2.498058657747519
86.0,1.09400924279602,-0.27893828371035356,-1.372947526506341,-0.3801745589346992,1.2213979666882968,-0.8577988647829627,1.555478182521222,-2.941851745124177,2.419230987296278,-0.059943678764392994,-0.631399374663627,-0.2691396753152805
87.0,1.8788612981835926,2.762518297743591,0.8836569995599917,-2.3709493676410625,0.47280564335039343,1.8653165055202756,2.2535993321864574,-2.4828056761817523,6.267620487864473,4.109997515917625,2.5763088820427766,2.8669693382961685
88.0,-4.750597454604475,-2.118510376846059,2.6320870777583987,3.46684440504561,-3.6555793108650927,0.29618343668564273,2.526172539679229,2.212525244566211,-0.3910862419610295,-0.8198263135678472,1.9606925728181734,0.8101434372281094
89.0,-1.52034033437243,-4.810912254577932,-3.2905719202055637,3.1235939033989495,0.9019185089025737,-4.091449614321498,-0.3077574727840955,2.0150997711873657,-1.8535992723930534,-3.703435571773372,-0.19347350419408782,-1.271326673577744
90.0,-1.0124438582862798,-0.7887859763761191,0.22365788191012492,0.86203725137403,-0.6164483676591734,-0.3238611674345808,-4.446315404033781,-0.13862825192530837,-0.08011122092725076,0.5149354399554844,0.5435851759294817,-2.8109536144485663
91.0,0.9690114759930439,1.9422470363773296,0.9732355603842829,-1.4136690216427787,-0.008794239064590759,1.4945753561019288,-1.9734975388077254,-1.687665876516563,-2.2293758471775864,3.40653171749777,-1.9780666720764126,-0.6611807696136318
92.0,1.041970527960054,4.643875740273403,3.6019052123133783,-2.800733179113714,-1.286882154053372,4.158460793066573,0.5335708569492661,3.18352162429093,-2.239931233460473,-2.3016503699018354,-2.228817585860318,0.8952984225706819
93.0,2.8785234227717518,3.238269562019284,0.3597461392475654,-3.095800159064651,1.2593563813239885,1.753625387470481,0.3943268471496914,0.28526496350676234,0.36116203239859307,0.8809826534543638,-0.9165155071684055,0.7154087082258662
94.0,0.48639128446011615,-1.6854112047127678,-2.1718024891728374,0.639442217151097,1.3404631390364008,-1.8982482599639607,3.9299918934350715,-0.20727682360203528,2.544244653847905,-1.1943235721644687,4.149260303719167,0.1355395421295309
95.0,-4.600226963475589,-7.703504630160005,-3.1032776666843676,6.111514501655126,-0.7247127639824074,-5.454955104830707,2.107528099131213,-0.9033594059645622,3.317207686488489,-1.4109803538852448,-0.5613787448885401,0.71228572904813
96.0,4.02172501336958,0.3656639597056235,-3.65606105366397,-2.2351823322022955,3.79382154638287,-1.6202475375760503,-1.9556856541816905,0.35762686312828285,3.9639350439786183,4.345893131467202,0.23261721361041066,-1.5007172682022376
97.0,3.3015006149262156,6.892754670124189,3.591254055197899,-5.059990563980304,-0.10617746483940127,5.266926632199441,-1.6453133733922132,-0.7402903338040512,-1.849833402299032,-0.1383358303980302,0.3610927716267025,2.595887704663242
98.0,-2.408407207301104,0.5893471490410898,2.99775435634215,0.9480539106858752,-2.7435692367475895,1.7428507436263394,-2.227719684970438,-0.10236227143418064,-3.8432592679879414,0.4257104014265009,0.40906687390116964,-1.406946104381198
99.0,-4.231869249259215,-4.067170934602863,0.16469831465635698,4.112244552725436,-2.2431317778378137,-1.9167671733077434,0.3162919715268888,-2.5042374504665847,-4.8618406684720785,-4.779345379491092,-1.5378734784798493,-1.1782314963199774
100.0,-4.879147946106954,-4.956632720168146,-0.07748477406115639,4.9633214819639155,-2.3721086241119007,-2.473840800876192,0.5768038261457882,-1.7572432902426693,-3.2580849629974793,-0.8283844866528125,-2.924580055128425,1.2640743478281564
101.0,3.6232176371238984,1.6724415342366115,-1.9507761028872337,-2.6771536490739045,2.8131382849897437,-0.16556278648618605,1.0271373303573725,3.636905936668641,2.714966747742428,1.4435414044055528,1.0842946268833924,0.12697508577514374
102.0,5.751330715151165,3.9743173180711957,-1.7770133970799529,-4.889027344997091,3.7925504625215725,1.079423022999565,2.0707547786545413,2.367056456351309,7.866616466662495,2.8827254576020005,2.6222573757724787,-0.9105185692581712
103.0,2.9292252581215203,3.7289714192696444,0.799746161148122,-3.353483179505531,1.1001418921397044,2.2483748944047357,1.2380825868434455,3.1684474115707078,3.218140775138726,0.35886896929478307,0.9223964791877557,0.2870965204036316
104.0,-0.9559489822444318,1.8230428704113169,2.7789918526557154,-0.37851381025356057,-1.9013219929375516,2.2835025912385913,-3.329124425209224,-2.337485283754565,-3.3151382484170173,0.2621693022419773,-0.7147667634520533,-0.7276677661031948
105.0,-2.3101405531102253,-2.6365773395854353,-0.32643678647526053,2.449602081807594,-1.0172850065102959,-1.4261085072928543,-1.3326223464080844,-1.5932107993189502,-2.2009916562071092,-1.1870780965237775,-0.2889197903190715,1.2285304868503615
106.0,-3.8543242389860692,-2.4212501511690716,1.4330740878169368,3.19233965594499,-2.664975994538387,-0.5260624886760975,-0.35382652247931423,-1.9183477100036104,-2.834748793439043,-0.7310433833281529,-0.39230654913599244,0.00755870918229451
107.0,-4.310115709853547,-5.346819155048772,-1.0367034451952546,4.803390293243029,-1.6595540136292057,-3.1543693322752997,0.777818598649269,-2.834837770029967,-1.4662994455312837,-0.4599613161524482,-2.04380987417606,0.7949174063546163
108.0,0.4440954663472274,-2.402489670842093,-2.846585137189302,0.9525852232467371,1.694695470567829,-2.6740376371024204,0.3025675394932954,0.6518112430213728,0.7284792576974997,0.10597466371121811,-0.7438356170810279,-1.7936279136752744
109.0,0.7738141761091402,2.0709110103622344,1.2970968342531495,-1.4511749330840835,-0.3000759628739684,1.707951100966219,3.2448269209640097,1.9046852763736515,3.2740256929582263,-1.0139241296479942,2.1652782996590574,-0.2540120451761122
110.0,2.082426949430114,2.898548964704469,0.816122015274422,-2.442966973908024,0.6650195469662094,1.8797794162746884,0.1076986361699741,-0.6589070320861112,0.46545313238740893,-0.2555092134731617,2.6095989689907277,-0.19732169134374067
111.0,3.659634448962875,4.166677011565733,0.5070425626029192,-3.9462161393335737,1.6027732164647825,2.283045393098165,-3.058652659674732,2.8563382118562037,-0.7845071760977564,2.4615647012177573,-0.5793233338753374,-0.21708899182310082
112.0,5.048008301765371,3.7091211166034412,-1.338887185161889,-4.333376491482491,3.218653231083846,1.215952061082734,-1.9708098807099388,2.491303464987431,-0.8591357148592071,2.5800283746635575,-0.7831812259469813,2.4084975506395914
113.0,3.023034179679129,-0.34418888172920836,-3.3672230614083,-1.3719002102912246,3.144000482754668,-1.8168206522949835,1.0176187513532544,-0.7498554640891315,2.3181259668092493,-3.1360880387159336,-2.14769897520047,-0.2725813772005987
114.0,-1.3991183263650497,-0.44812296445622657,0.950995361908853,0.9721473083353462,-1.221465670315459,0.2201234985791254,0.21426899192093993,-1.2974639338672045,0.5750820514005646,-0.05293994973093774,0.7839606688422778,1.9502321241983755
115.0,-3.3020970448754343,-3.4359490288172605,-0.13385198394186282,3.3413200699728103,-1.5463621777523684,-1.8087656939327958,1.6787646049648226,-2.097940695919158,-1.4195064299543205,-2.0922528506915548,-0.9902759229098643,-2.3420166381188494
116.0,-8.313409088788951,-5.593903771654839,2.7195053171340238,6.927801760748688,-5.473878134266382,-1.4558273048938055,1.6224480510076855,1.162777595647639,-0.3688628969717538,0.43974207190665204,1.8362951643544765,0.5066425598398854
117.0,-8.418045572206722,-4.669247459229522,3.748798112977062,6.518453508858679,-6.116185339698589,-0.39741418775961657,2.331867806210946,-1.8288875822740773,-1.4805800109165008,3.075636585909166,-0.9372099263334914,-2.508419685220436
118.0,0.21967713339982797,4.014576442019857,3.7948993086199243,-2.0640156125544085,-1.818696737976812,3.889348092225169,-3.040030318860853,0.7824797327195135,-2.804678149245749,-0.04338393200142443,-0.1403466074966136,-3.917598324897963
119.0,8.565717868510795,5.7424972449159535,-2.8232206235948762,-7.18084326988521,5.742212050311916,1.4436067878141303,-2.4944167778300113,-0.42825894262628783,3.035289572392468,0.2307076718687905,2.3590012493132626,3.255029106413136
120.0,8.16927821535171,3.2278049886359974,-4.941473226715692,-5.647856936902248,6.523340757738872,-0.8734881706174478,-2.2708910283038675,-1.885883371327125,1.6864273164364096,-1.3660517603187534,0.2825909418883962,4.942727390677622
121.0,0.9725353448883638,-1.8481369709023951,-2.820672315790645,0.40825476009255546,1.941905704602089,-2.350526182836313,-1.0032242487443588,1.0624908523142644,-1.6161799362273666,-2.10705151625088,-0.16306525024598525,1.705600723518769
122.0,5.362424991270746,0.35395509614987186,-5.008469895120744,-2.8896215145889985,5.151012788073127,-2.262315493732878,0.7473678848128007,2.3568506234495477,0.5207002896476991,-1.6551862254952852,-2.2746335604026076,-1.3864272621522118
123.0,-1.9186054700581432,-2.2525573808904467,-0.33395191083217335,2.1302615612408897,-0.8265352492693734,-1.3032593556600733,4.588703857647352,1.6422216257076834,2.1405834923398306,4.050776147641811,-0.5276825456815198,-4.0131198584121135
124.0,-8.655381159942944,-2.364079062611041,6.291302097331954,5.4721085343027545,-7.426763775824433,1.9575852071113666,2.798274364287301,1.2149253912953093,-1.9139665761805693,-0.26887139539803995,-2.4577407650154104,-1.8667800365572234
125.0,-11.881135337260183,-4.75339168252069,7.127743654739469,8.354125778467917,-9.532616011557398,1.1833376552042374,1.7092237021051682,-0.8864057914268362,1.501601226351901,-0.021568678572502664,1.052241738443566,0.17479449215390863
126.0,-1.776680560513042,2.046410452521614,3.8230910130346025,-0.18115685393357817,-2.7439150750966013,2.9294466923627596,-1.0816252131172572,-2.5990631941995215,-0.8404577432259936,0.052308543883446273,1.005611311098419,1.1153469674383765
127.0,5.662114963289649,7.998187990523785,2.3360730272340735,-6.801396145785204,1.645741907585011,5.155748501353265,-4.584814198760233,-1.9727370428763908,-1.5351357291963843,0.26596320917644056,3.8568556553251763,2.3540514776317853
128.0,8.643385878188123,2.07892923483961,-6.564456643348531,-5.334506943885374,7.5905521227209345,-2.2643934659536225,-3.905135416215204,-2.444262414280447,-0.36335356918799466,-0.14106299826248508,-0.8839358007173308,-0.12513484638734718
129.0,7.400109772993583,-5.56390774185321,-12.964017514846763,-0.9699862126738319,10.169562116405602,-9.219442309566963,-0.6546075148440851,1.6550706784672193,-0.9582700159147635,-1.0654980266702552,0.7439310110172808,1.0305912061189122
130.0,6.657289394054182,1.4815447232916257,-5.175744670762492,-4.039678340162047,5.901232219543182,-1.8936415033215401,2.2571862950123274,3.920559317402524,1.7808834379592748,2.1488126314244265,2.176752881897775,0.11866043582074412
131.0,-3.651203665717769,0.5212600170547392,4.172463682772566,1.5212816570494525,-3.933102149354763,2.3696212846054983,1.1342827102246467,2.3058691463473746,2.2744625473190703,-0.5887651300057961,-5.416239430627646,-0.6235992757131337
132.0,-11.475373015005017,-0.9237407561135091,10.551632258891571,6.241472184927087,-10.963999733123766,4.831713230267229,0.7539802460848082,-1.1096131692359872,-0.6616131174804045,-0.5023969896154697,-2.4113255265790174,-1.1723620966844313
133.0,-11.324910276345545,-3.088372567825166,8.236537708520412,7.2553126130052075,-9.73985615514954,2.591329298377072,5.215497246350822,-1.3848778845366705,-0.5314729182682476,-1.249817544162008,1.7508861709173238,-1.4297517730509868
134.0,-2.2320511732058446,-2.0937627594260477,0.13828841377983814,2.137434567908692,-1.231391479310754,-0.9581056825131502,-0.7267016387151555,-1.5227984385251236,-3.474390471409699,-3.3304388943565075,1.6832969873035297,-2.9132625903482405
135.0,1.8211683555507654,-1.5057962966794856,-3.3269646522302416,-0.18244580006331323,2.599025156027815,-2.47267140909916,0.19921478746020083,-0.2558302906522263,2.6190418270750575,1.5261396830168992,-0.5273109257248558,3.353872904771083
136.0,10.118481680821477,0.7187922945299693,-9.399689386291545,-5.447125513957138,9.698798544599462,-4.316958760553663,-5.854404189239484,-2.0616155774959295,-0.5514559178938664,1.5845230516833384,-1.7233467094308612,1.177107462256068
137.0,11.048749520785043,9.000660681057116,-2.048088839728016,-10.060190933190029,6.561954872081629,3.4192859082098064,-0.1922713435843737,1.9102273495313629,2.2524613962093403,3.564365073928014,2.2007945499178225,2.497664035320177
138.0,3.0142588684134903,4.255518401585846,1.2412595331722827,-3.5992985448812043,0.8974177540013102,2.76636756076381,0.2164122547232299,4.199337854405214,3.276415336021722,3.258365115811951,2.8012446046628474,0.7201166034022619
139.0,-6.4919546251433236,-5.006870749020489,1.4850838761228298,5.7795475744067515,-3.9772472386906985,-1.7466478019365146,-0.1979326918114067,-2.632118664462105,-6.146919851617893,-4.390681967597771,-1.9308437204117683,-3.4490443464089235
140.0,-5.25013327231334,-3.2477639473730577,2.002369324940334,4.277674193585612,-3.6115426819443353,-0.6097683153601194,0.711731507960392,-0.36385350691441853,-2.6424881808602727,-2.369858658271168,-1.92268412183864,-0.3671472971549812
141.0,-2.1966196605748776,-4.737950504647253,-2.5413308440722933,3.4985592528782488,0.19289104038174143,-3.6240880381855978,-0.31691622743417525,-2.4658175434949556,1.339664381066519,-1.8753645702359456,0.11593064560521738,-1.6266082154674812
142.0,0.26285191100911875,3.166023024545028,2.9031711135359894,-1.7572177839051122,-1.3714674004446021,3.0566363375241377,2.8482151637246846,1.6453182967224844,4.111425367014942,0.4625820391570803,1.338626752504029,-0.48921891966198483
143.0,-4.636029773454093,-2.712999934951943,1.9230298385022393,3.6361698977843853,-3.2454753909740246,-0.44303157249712855,0.7147737000343823,0.4409369958314098,-0.9191991992095243,1.3390203570607981,1.3375950103187773,-0.7324446620534208
144.0,-1.329423378109074,4.481143331809345,5.810566709918479,-1.6116456891773534,-3.6092042390017727,5.184803981194898,-1.8232223345893679,1.2094440099981099,0.1903233803540646,0.4936643033711713,-0.31649645038342816,5.333415388117764
145.0,2.4132729622910585,2.3790804457652674,-0.03419251652580513,-2.352527288709336,1.1888917382572903,1.1380214413442657,0.9750846190418903,-0.8204910000124045,-0.6516767060215706,1.2672860410115332,-2.7514857990668924,1.988924132022183
146.0,7.974192190609347,1.8945598154983305,-6.079632375111087,-4.969227633529274,7.0747045313382095,-2.1257933820049923,0.9654152032196334,3.059526565782476,0.1353861920279681,1.0981881550269026,-0.746326058015586,-2.0382158876007734
147.0,1.9820483908260336,-2.983153699711109,-4.965202090537237,0.5461144201954857,3.5254682632851155,-3.9315217305514514,-1.402772293599863,-3.333958929673214,0.8321492099282493,2.232237959590284,2.067513578605013,-1.0932136897543665
148.0,2.1430547837887923,-0.7654881593622949,-2.908542943151132,-0.6391191300297601,2.503185966481444,-1.878398963725781,-2.320518104801934,0.7403562347183161,-0.4826829082683195,-1.9202369266272663,1.2311296618832892,-2.90269866171429
149.0,-2.2665172623335215,-5.210601649993238,-2.9440843876597396,3.715464155487556,0.32004308976585316,-4.045606218423561,0.11871222108222823,-2.586692963098281,-1.617587483301195,-5.901993576209288,-2.277783776853478,-2.036358214027814
150.0,-4.54072193011904,-0.9530667253748444,3.5876552047441788,2.729698395879478,-4.080520494033878,1.3447733484948454,-0.6572765775856129,-2.049131956301053,0.160349282437795,-2.0563607613217525,-1.4629706825343676,0.4294214806485599
151.0,-4.095558018406072,2.245965142875411,6.341523161281447,0.9109407300754944,-5.234747227000375,4.318959606863988,0.9108052049832116,0.18843679624659343,-0.9821222889645322,2.63081901724295,1.8392832994788386,3.3300308451610277
152.0,-4.438826748434433,4.618441948470881,9.05726869690527,-0.10464163012943117,-6.6878080286734525,6.783502039878609,2.4474504392971532,7.184951359801116,2.6068604310823273,6.631080132444345,3.543925143294893,4.245979671732023
153.0,0.6421153497454188,2.1870448300039116,1.5449294802584652,-1.4349301881044618,-0.473996631279757,1.8898272790736574,1.7642235319349053,0.9878382802454762,-0.7088894289632335,2.29279172189251,0.31158680406544836,1.20840027010887
154.0,0.8480769286061602,-0.4474894146204311,-1.295566343226622,-0.1505257556759012,1.044676039856815,-0.927741440477209,-1.4452619063861551,-0.5462576102247514,3.81421350788556,-1.8322361687698843,0.15138820663477032,0.7866389413929948
155.0,7.9191226649549415,-2.4127596864930103,-10.331882351447936,-2.7914482511649066,9.094908254706844,-6.352078885424172,-1.5051163453718241,-4.348553725297571,-1.9070419187588785,-4.735524536771263,-4.579929647683681,-7.930014456752287
156.0,9.187873445367085,-2.078906928817203,-11.266780374184272,-3.5214005540417777,10.274459943484619,-6.655289252418062,-2.0052218614676764,-3.463516034131901,-5.439487961947186,-5.319518881422532,-3.073735569683489,-5.483686459398941
157.0,2.300328577368855,0.3839227910511722,-1.9164057863176591,-1.312849112548045,2.1573251902056123,-0.7507215474102056,-1.6084919873485433,0.4973888840579366,0.7428764413382651,2.2033417055671105,0.08959974119043723,1.12352156246705
158.0,-5.680873668178158,0.7484567505272323,6.429330418705408,2.4169086306225065,-6.081092427607152,3.603986570569761,2.7788747515984493,2.0805155815350953,0.6396754330272764,2.1079788361513865,2.5065478971644266,1.929172766540769
159.0,-7.9157051061153645,-1.023758322557583,6.8919467835578025,4.502424892104708,-7.426040947568741,2.8721014728082297,3.9836143391879957,3.103800001647396,2.1972316745582505,3.641679278074205,2.22464295669948,5.3375363599262595
160.0,-9.736142788166358,-0.9385850665929776,8.797557721573394,5.295861761024899,-9.287724286053319,3.9498971438656727,-1.4713186428863003,1.3837644584620785,1.434803636851195,0.8765594026082795,2.9346125422820153,4.461236900487417
161.0,-0.9138917528181629,1.5883368234666362,2.5022285762847885,-0.2960875348872727,-1.6531360684664431,2.070707746886197,-0.3131084716702779,-0.9736351159868182,-0.48928561113819624,0.9868282089563563,-1.8815579065678554,0.42827320264673396
162.0,5.93544894583999,4.617859743266791,-1.3175892025732034,-5.312665229973996,3.5949182948248026,1.6809417741411994,-1.7106791013966312,-1.980528653378701,2.2071488969750703,0.18607953417592132,3.967392565270684,0.9867374726534548
163.0,5.650706298357575,-7.075969719739833,-12.726676018097388,0.7538698749651629,9.145639026032486,-9.94457726688379,-1.4751297802302146,-4.133196102423939,-4.93046137978067,-5.912257257449353,-7.146403396340233,-8.442698602816144
164.0,10.062277100298125,2.380202021527911,-7.68207507877017,-6.263149717334466,8.895373739395598,-2.6909035728474713,-2.6604083169542267,1.8547595946258046,-1.240316646476808,-2.4588269969570393,-3.3712516932450476,-5.126918703322661
165.0,-3.5175048459529084,1.039017080200204,4.55652192615313,1.2700364816339156,-4.024000072901928,2.8384005216622503,5.694883098648482,3.5203550369041694,4.092682600977443,2.210086877441523,4.204194079479567,2.048455531479502
166.0,-6.281729548496969,0.18108886383059275,6.462818412327536,2.9966905556155794,-6.36412841848288,3.2848403325166506,2.07512017108935,1.2929903374042007,1.7240379066442346,2.8942617423561057,0.02735152207921132,4.3147795991069335
167.0,-2.6302354703097235,1.1091702125018794,3.7394056828115407,0.7825822314358066,-3.174646119912241,2.4668876518403424,-0.4387270999067261,-0.9572284886884719,-2.1887382756658638,-1.4200036687847404,1.550888002392685,1.3149985852514248
168.0,-3.9220492196763663,-0.23583701872956883,3.686212200946744,2.1021592351786795,-3.785457115616504,1.769161207295563,-3.136616783721381,-1.561904478770735,-1.6700412304648284,3.2336710327485667,2.1791722810795404,1.7772734071927287
169.0,-1.6414934848931066,-3.2934164728920865,-1.651922987998995,2.496366371740614,-0.04221889443434668,-2.505831452251602,-3.8361789934768895,-2.7381199080192924,0.46462381843608624,-0.07750863062780211,-2.292910888179639,0.4250135477157235
170.0,8.792203742854811,-3.624197287073981,-12.416401029928723,-2.625010785109679,10.648908395545844,-8.052210907447277,3.001407860253394,0.4752433478139937,-0.9169358700674255,-2.6406035444227154,-2.015682115059011,-4.735124716392375
171.0,5.753611204387251,5.684365467371252,-0.0692457370158861,-5.6720340953875645,2.887625601711485,2.775978301816665,2.0233252140517144,2.580289368456385,-1.3309182365893135,1.1220778347968614,0.16391331037230306,-0.11976927550506544
172.0,5.198391816995278,3.124051311867597,-2.0743405051275907,-4.186599565998841,3.6173153807344685,0.5713257440165259,-1.461078483756551,0.18797768226596046,0.9490514650348566,-4.095027125828545,-0.10425469783557585,-1.9145261907825097
173.0,-9.603283461993204,-0.6286369213926348,8.974646540600606,5.091839508210958,-9.30983000452679,4.218153397510665,3.054123249963111,-0.3065923588891839,2.100802590374572,0.8264975379533535,0.9176320253575067,1.8763798673642462
174.0,-7.335335604737393,-3.6700769369348727,3.6652586678024988,5.474153290816832,-5.449959000528061,-0.03720679989706843,-1.6524930584635333,1.8159626890449854,3.20919579262067,2.792358169553731,1.7894423900334773,6.6717283113814165
175.0,-2.2634721370540296,0.3811440363361882,2.644616173390147,0.9829257754331673,-2.493517121758948,1.4779179123548352,0.9206992978340408,-1.86210358042413,0.14893558071206825,5.281308100759538,-0.04558091535828712,1.2244813992276105
176.0,2.089060540112518,-1.6942883932847106,-3.7833489333973196,-0.24339651551683927,2.9637227457483215,-2.772040538232461,-3.8502705312757484,-0.36566780533579046,-1.8815903267571217,-5.0787014324045625,-0.7142151203954183,-6.667527647737691
177.0,1.6466233951046068,1.9945285852639576,0.3479051901592687,-1.7935096715318632,0.6670163152370927,1.2208737845203563,-0.8922497793774213,-2.368099082968197,-3.216614847144205,-3.5533018516767916,-1.0877863724983998,-2.3681234839790064
178.0,4.265699759083496,-2.8103973361492187,-7.076097095232794,-0.6999438593751692,5.68240066196859,-4.887500402297776,1.4755574689663333,-0.4470591758760727,-1.7335731623367647,-0.22483512908896386,-2.831512469214502,-3.0845529819627373
179.0,3.120595797271337,-0.24137676618355747,-3.3619725634549473,-1.4041463714971183,3.1724003876750655,-1.818298368409645,1.7261121283984584,2.7271879468713154,-0.1927773628826961,0.9362574302663106,1.988820678266353,2.128248390611369
180.0,0.41719041783309696,4.865092846289041,4.447902428455931,-2.6713251105141245,-2.0027314432110104,4.643916147248005,0.7984984167293964,1.733087730275507,2.7217182128869495,4.3827958015032396,2.6923385422626014,5.0202136861566204
181.0,-2.2840568629251274,2.9604087470041027,5.244465609929285,-0.35367195975501675,-3.7454370449081296,4.08895829926748,2.519481348870428,3.31769437251654,3.657126389090923,2.149647742623219,2.0877419117035227,4.791674852318833
182.0,-2.4078763663929394,-0.9872388316047718,1.4206375347883005,1.6938682779538639,-1.8874945324621866,0.19604433533793397,-1.5152161149305043,-4.15039894372923,-2.1981610753921546,-2.6851991302818314,-3.5311559316663343,-3.169176802292759
183.0,0.8242267151653602,-1.076463118982375,-1.9006898341475973,0.1276693992694553,1.396662426125833,-1.52191609022432,-3.696108293233868,-3.0565209293935824,-1.6507207370177888,-1.7698248215247945,-0.09789734393071337,-1.4360433455659383
184.0,-2.069330847930035,-1.61909571519868,0.45023513273142557,1.842679037599801,-1.2995720271353515,-0.5543498673931263,-1.2764500730321522,0.45905227849643127,1.515525834407908,-1.3812335682729993,-1.3984311339151791,-2.8857033336588973
185.0,-1.3773626803692556,-7.49529405861144,-6.117931378242224,4.424053618006105,2.3313038578560894,-6.790472907554596,2.2571780037257083,0.48916683898187907,-0.5253143285782853,-0.12583887677365402,0.2620865108322421,-1.4303891027153721
186.0,4.489974823830658,2.4212098861406015,-2.06876493769018,-3.483387425961313,3.237630428185309,0.1835869947555726,0.806210771525968,0.6500434581555989,-1.0175279996680318,0.8678456511127016,-0.5903754259456657,0.34281513507240136
187.0,0.8408447693811065,3.589379540597625,2.748534771216373,-2.1802572846225274,-0.92113846448592,3.174906395848649,-0.20496398796587945,1.2854491182279402,1.102342538438362,1.40336264331588,3.514325273767609,2.6717189461398454
188.0,-2.515303628308263,1.7517125514144918,4.267016179722687,0.40422003908695103,-3.361549261184384,3.021185883113872,1.1597314098754248,3.837302153003136,1.0914958606873157,0.7512181151323325,0.03129809753866275,1.7856818906356786
189.0,-2.1696423287820243,-2.1972991910514588,-0.02765686226940911,2.200184653937895,-1.041181403995377,-1.0896544962747923,-0.30440563278149413,-3.9701921299472094,-1.792097631902392,-2.8811036549209894,-1.4152421864395035,-3.088559476362489
190.0,-0.3816048896011143,3.4015737970056965,3.7831786866068766,-1.5699582505376362,-2.0487442280627333,3.5492735610140054,-0.40570854152687574,-3.220821121067697,1.7337915617967665,1.7758320213346783,-1.0032104065338563,2.4946564906245667
191.0,2.7101661981332836,2.1650528618440346,-0.5451133362891964,-2.4100875628185525,1.5884580192034985,0.7783293871773138,-1.4399222006000583,1.4161561864740453,-0.339004269398952,0.2699759775734826,1.3865916836516423,0.6069062386925663
192.0,-1.7305348192356413,-4.953212299175396,-3.2226774799397297,3.3820311833825842,0.7123134884311226,-4.111506488378712,2.333158840105754,3.1179596678238513,-1.9302237585811468,-0.6652460298124185,-2.6319233791509737,-3.925500230556101
193.0,4.101248714091799,-1.792941270356171,-5.8941899844479515,-1.1798718200569738,4.9666006881752045,-3.7842073129698806,-1.111872082102055,-3.8061978969991044,-4.422923083647431,-1.4781308377176152,-0.33855526286701176,0.7498375876890953
194.0,2.862930082410686,-0.8463710491610359,-3.709301131571699,-1.024323285607282,3.332641832433193,-2.2964101066178118,-1.8621340473237937,0.9244928282955411,1.833513550861537,2.3249999926333924,3.8062568352012995,0.30304831544071104
195.0,-1.997063627064955,3.726167060992275,5.723230688057283,-0.8763157492762488,-3.8965860536186483,4.783216365631926,-0.6743641164596922,2.0894551592112953,4.163279698316025,1.6086029773680026,0.9035012748784192,3.384132435421759
196.0,-5.8370652674276755,0.9764007002063062,6.813465967634015,2.417128088121601,-6.288534686048797,3.8712012334816936,3.916298050770743,2.0131249360135723,5.243008816238896,0.5770551361884646,-0.17197731327766885,2.2775047037103193
197.0,-2.8765805606683754,-3.152082687330222,-0.27550212666186,2.9954384512840084,-1.2687416156984708,-1.74252925146952,-0.18460941250127383,-3.847348654094441,-2.304960318398707,-5.217188592786605,-4.393621952071689,-5.788014593128301
198.0,4.878747352696688,1.5501395540672527,-3.328607798629448,-3.162021912411553,4.053965735849744,-0.9241236810086737,-1.4789512502733113,0.6951071521833543,-1.1975674213726344,0.16860892536024963,0.9684030518004463,-3.3061209240663407
199.0,-0.2694265643144431,4.659930238879317,4.929356803193759,-2.149568811258436,-2.570284684500286,4.831892900271377,1.4289732256826393,0.6388868924467566,-2.5629770240376812,2.390524997152497,1.4978876906794212,3.28012807130639
