Time(ms),I,II,III,aVR,aVL,aVF,V1,V2,V3,V4,V5,V6
-200.0,7.096709439387925,1.9027185195081489,-5.193990919879714,-4.439617070880184,6.157448733719793,-1.5942733748622944,-1.5315605753169446,0.007766652759285897,-0.6293228534575657,-1.3686349475969242,0.23461230275655506,0.45395683737623826
-199.0,4.894450950886297,2.4407190643467587,-2.4537318865395585,-3.683014079557748,3.678190282364239,-0.03210778817580595,1.503771399608592,-0.757556894714453,1.544529033787103,1.6510932966923506,0.16563927879858464,0.15191779652970006
-198.0,-0.0329126741174508,-0.25456545122663754,-0.22165277710928666,0.1267105690956969,0.09273405759021225,-0.26442493218343227,1.6748862071530353,-2.0454725445083044,-1.0701049508653808,-0.5411499828370673,2.1818040166349997,1.1740985289929011
-197.0,-1.6238997992348359,0.11428203212766286,1.738181831362402,0.7312497034911226,-1.6855866110341038,0.8956441985088709,-0.7582123184589973,-0.07731115615970063,-3.2756544636265175,-1.3320897272988528,-0.3228218049091667,0.6547105953163812
-196.0,-2.1616814085741964,1.5696213634787148,3.731302772052877,0.3407580669956697,-2.95110307683781,2.69118960367509,-2.163680720080379,-0.7163877207747139,2.691848097482748,-0.634001159554418,-0.41539201660277947,-2.108514720167928
-195.0,-0.26976401243894754,-3.3456098328608848,-3.075845820421855,1.761232000328128,1.400868363604609,-3.2573975104507804,-1.351012208142138,-0.25494972539713245,0.37752415132728134,-0.9805180502494173,-2.479132591907172,0.04009876796121081
-194.0,0.17554534694910595,0.14810743945977856,-0.027437907489208324,-0.14147818989752725,0.10374765107283634,0.08542042929353155,1.0482465383893156,2.7255477441489195,0.8985207187872982,3.436809851857938,-1.2413686454860504,0.8809497748070286
-193.0,-0.13721196545789027,1.5171146759141254,1.6543266413721205,-0.6787665729194121,-0.8876475480255245,1.608147840679258,0.9629295599343536,0.35615498768801745,-2.6022274195783996,1.5029350253299758,0.7387654939425008,-1.0477832167355086
-192.0,-0.18409896992359617,-0.09703385405304413,0.08706511587058274,0.14689300467976873,-0.12066507420405015,0.02054188284202932,1.6900731445528372,-0.1639626767734088,2.1956368376142734,0.1074820260729078,3.424910100919207,-0.08218030301276985
-191.0,-0.18263473688674375,0.21686774263681435,0.39950247952352635,-0.010948985221528436,-0.3475804778557094,0.2633683249794304,1.090490280789823,-1.0039253442092726,-0.6221657902774448,-1.9866482581977893,-0.20159624082624306,1.124725174836516
-190.0,3.436994377528464,0.11406228496018553,-3.3229320925683337,-1.7655060607083097,3.409765104369625,-1.5589952130937221,-1.8056185549346246,0.4844701478109602,0.2427707580719472,-1.3282152539911383,0.07676719232538626,0.40903926997433304
-189.0,-0.7137475436338792,2.3424156849804394,3.0561632286142713,-0.8765576742025492,-1.8475694242685894,2.6773926682344262,-1.8854783446523207,-0.9602916541009608,-0.15172249017121017,-0.4178287522651879,-1.5152574303632076,-0.9234437490463159
-188.0,-1.481820295248927,-1.409195289306434,0.07262500594247912,1.4696636657103954,-0.8112442949488988,-0.6819065802600055,1.0715689447288286,-0.5226685937951114,1.1314744536108834,1.158815659240398,1.0138107639847513,-0.3071971567175771
-187.0,-2.7883978626327277,-6.357563150259531,-3.5691652876267943,4.604582923444217,0.3631082696534643,-4.973674065111476,-0.08385893158137231,0.9608267516226765,-3.025696819515721,-1.2954274038720546,-2.2454837335020126,1.0442146079564623
-186.0,1.1156915045055384,0.34442539475731593,-0.7712661097481776,-0.7709110500897456,1.000694513729313,-0.22537675296141635,-0.4820109186491326,2.2068376863934698,-0.8079459060018114,1.4393313770802374,-0.6814975759966658,-0.7565334958487979
-185.0,2.485163545847334,4.741419374523329,2.256255828676017,-3.570914565588824,0.09728865552881985,3.4820089213296095,0.06176930339030976,-3.7129386332702494,2.6127813367986072,0.48326993108665195,2.3581497935758295,-0.45722250702232653
-184.0,-1.5342592037127503,-0.17771448704983417,1.3565447166628948,0.8218826126600647,-1.4597774783486694,0.6458991280248485,1.274740609831931,0.706498846198071,2.2197026582026123,1.4225581750343839,0.26355855922841476,1.0537648206357333
-183.0,-0.2966925498856926,4.296393189923283,4.5930857398089335,-1.9552235869414987,-2.4580004142862393,4.418899305525856,-0.9073098856800544,1.3251821265491421,-1.0430591742394377,-0.7466004656069196,0.9379688046730674,-0.2660147003052348
-182.0,2.4233584925754044,-2.2140158385123447,-4.637374331087779,-0.1407450926418774,3.5173107573949665,-3.3733132849718963,1.5518812530230681,-0.4055534692579382,-1.6889280085250604,-1.7615046708599504,-1.8807904659744261,-1.0685367141644788
-181.0,-1.9812232791781907,-4.2052795624178145,-2.2240562832396273,3.0541626326309506,0.18638065077181976,-3.2390043358692964,-0.030155179639008656,-0.05856581413261154,-1.4816854072740901,-1.77362067170302,-0.2696998250488999,1.186540928042926
-180.0,-0.3252568357653719,-0.7965489417928171,-0.47129210602740734,0.5977524831785539,0.058021936730558,-0.6555125707733913,-1.1084726557282356,0.15136557917237342,2.084735266729279,1.749840769696084,0.6383134640458177,-0.1220611918489094
-179.0,0.9786677040787022,3.1574984872111234,2.178830783132455,-2.0325314269532813,-0.6166712432771458,2.647653957706201,-0.7353903019227541,-0.2858098664564342,-0.7425090076619951,0.7848865410014862,0.29422376984845533,0.7979385619453119
-178.0,0.8580807332925235,1.5311898453094837,0.6731091120169506,-1.236737328526768,0.07391568071725785,1.1578557809221561,-1.0713802604493163,0.9350417513184472,1.7229323150553364,1.1394277646326205,-1.6898074323506993,-1.4688158342584496
-177.0,1.4448709283055807,0.6749247106211432,-0.7699462176844718,-1.0196374626312854,1.086540675297892,-0.07750806438379032,0.48008476196337785,-1.9193441051601543,-0.8753998903984657,-0.39880965244209654,-0.36638453094870427,-0.8567112618541006
-176.0,-0.3507637836916308,-2.2704745156903474,-1.9197107319987494,1.2775924075952463,0.8398879764283926,-2.1358097331410657,1.1543856066675,1.4934596887396072,-0.7818974936814396,-0.30082615326797657,2.550535971705159,2.2347228214928827
-175.0,-4.42260974694485,-3.4133244552947466,1.0092852916501172,3.8910184571144293,-2.741880482126432,-1.1765034313085825,0.33485002965098665,1.225455908053429,-1.1117512877718247,0.5581876804340492,1.0320895801382324,-1.4150088520599238
-174.0,-3.8183656667880714,2.0950291463199484,5.913394813108067,0.9186573269117908,-4.816030083654532,4.018110227778271,0.4600029801804466,-2.707762899448542,2.2580644189438255,-2.1099514987008923,0.6536410842117005,1.345630357499009
-173.0,4.343614745831818,1.9382319865325346,-2.4053827592992283,-3.159890134882076,3.34182702893825,-0.22783692259157684,1.3520127628423728,-1.1058210608926267,0.6801127147256364,-1.4837523998781137,-1.5171992431429806,0.695878298191389
-172.0,0.47283977471903116,-1.447513686970463,-1.9203534616894677,0.46753186486008413,1.1590871921247776,-1.6812838066911602,-0.21215753772021365,3.940742968868982,-1.1227371875147243,3.2018595619989085,-0.7844669525598879,0.40764484748506946
-171.0,1.3957396254449905,-0.0898572478284635,-1.4855968732734781,-0.5991311130158897,1.4763419909287079,-0.7828638560527599,-0.971911302741314,0.6147460870357135,-1.5926798033615195,-1.7252691079670808,-3.3498034061548907,-4.651595573099805
-170.0,3.825476172077009,0.2199781098003364,-3.60549806227671,-2.056844486805534,3.6671940003383834,-1.6814617432688561,-1.6496956497498152,-2.403754964683699,-0.12682163106410282,1.088017236173808,-0.3176551952211877,-0.949484542424951
-169.0,0.8450026601698671,0.3300575771368361,-0.5149450830330865,-0.6334565811757442,0.7070791159000913,-0.1511534093103809,-3.1168433104300473,-3.835558434899498,3.7112978903338334,0.11525655444949395,2.0003592072431324,3.5192174351208134
-168.0,-4.016591294234327,0.7490094608751785,4.765600755109468,1.6546644172262752,-4.364168071169483,2.786282403204689,0.21120615898153583,0.24282007215960522,-2.569650373578476,0.432015944841092,1.6529625285882146,1.8490534515226262
-167.0,-2.6258382491182686,0.5280036402230428,3.1538418893413125,1.0607225928446165,-2.8594459308255535,1.8772627076845994,2.6540949934787297,4.688094253769213,-0.2903894906904963,1.501981028877323,1.8671214738880708,0.12500842951170132
-166.0,-2.086144543639686,-0.8255379328435197,1.2606066107961895,1.4640785535392598,-1.715252500762064,0.1798054482339697,3.684731089483516,2.9487059745876643,0.7126514495186579,-1.6975889188407165,-0.05394419913717874,-0.41299382270151036
-165.0,2.621573797914216,1.59421481989694,-1.0273589780172379,-2.096477205893305,1.7906007123083665,0.24734952589144335,2.47588509629382,-0.0406438770507378,0.530149878954344,-2.412927617190731,0.8239630479106922,-2.1020269482350713
-164.0,2.525880567258526,-3.4049530641195513,-5.930833631378059,0.46019978236761117,4.281026669488893,-4.626299743680481,-3.85706634825868,-4.189930087875323,-0.41158459298066435,0.2830550155673669,-2.997937351307166,-1.3666842668270465
-163.0,-0.796712355269483,-0.9803727664785253,-0.1836604112090554,0.8432767304547539,-0.32652110731112893,-0.5435483776007688,-2.241598807715425,-0.7596161205330385,-0.5457916853952423,0.24543479264672616,0.6695076236231694,0.7714379086835488
-162.0,-1.8923773607126728,1.1379413395202418,3.0303187002328738,0.42356334701906817,-2.477813726678708,2.039439136624847,0.5468677415584098,-2.8022871264419127,1.9055684408181486,2.361566682780478,-1.5057882194893901,2.1886694462255765
-161.0,1.1188939129195048,4.181555823660524,3.0626619107409936,-2.673144382519098,-0.9875563466399782,3.6511890378672556,-1.7081094733469018,2.4694923237121986,-2.7148877554033346,1.9085129092852104,-0.07400262913932942,0.9424557631435755
-160.0,2.1036655073248345,1.6713110218154774,-0.4323544855093122,-1.9064391913571208,1.3294684062057884,0.5649894984643091,0.17029121195580288,2.9701710728660444,-0.5422900517659691,-0.7834293086839492,-0.09140281570320807,1.765109645036722
-159.0,0.2937373142102756,-3.8586807469012534,-4.15241806111141,1.7618591361899465,2.202300175832535,-3.985106798010551,-0.9450333899165394,0.759370325600961,0.5787017400678727,-0.7495405244130389,0.4248049174001879,-1.6741166260578566
-158.0,-2.6967658397244367,-3.0362591436982846,-0.33949330397372135,2.840532225365578,-1.2042115790300945,-1.669366300307931,3.8754649759713393,-1.7091282680145017,1.2843926990602386,-2.650368753142778,1.1148917218127854,-4.496359172263716
-157.0,-0.49283709405911624,-2.4962490742781553,-2.003411980219006,1.5413764761399786,0.8028840857069539,-2.2306747646044873,2.2059184436691006,-1.7794548939270298,0.8720342318869165,0.22597086319260207,-0.3718297945238245,-3.1861675589294394
-156.0,0.4007570246732485,1.4901260763030382,1.0893690516297179,-0.9021316781120936,-0.381210156426319,1.2336169092561033,-1.0278417073994455,-1.033099230135782,-1.4776091665464557,-2.7157583793350124,-0.7875243420653265,3.2509093656650405
-155.0,-2.114833731029277,1.8863437137963956,4.001177444825576,0.07922723199371862,-3.1000893112390435,2.9723127454191878,-0.05105590179617675,-1.0832839452626144,1.9611051060384823,-0.4160145976412508,-1.3255683864833976,0.5431061705220481
-154.0,-0.14508380402132381,0.9779079087138378,1.1229917127350357,-0.36881739532974056,-0.6012412077635696,1.0864994066999931,-1.8468410997144733,2.4945668381858206,0.4088004688652007,3.135780988143177,0.31789916008097796,4.007238348415916
-153.0,1.8843350948813304,0.8801772944816325,-1.0041578003998408,-1.4082730431065336,1.4748525292110872,-0.09690799327936639,-3.0494474553409194,3.389613185858158,-0.6971555359142155,4.161091443918164,4.376338946472767,1.8503815467790858
-152.0,3.046881873794422,3.6067194492976027,0.5598375755030676,-3.3490872348239678,1.2732474255305044,2.055080597182518,0.36440983557923956,-0.5227726432222011,-2.616043882785953,1.1847404298603534,0.9886045545225042,-0.4657181995044172
-151.0,4.0071976190442085,2.4798695099717887,-1.5273281090724318,-3.265367956747471,2.717526428369238,0.5314150956486636,1.1061625366383951,0.728738146612511,-1.5879366944136803,-1.0163306945025294,-0.09608046528125577,-2.036830059914295
-150.0,-1.233927544994346,-0.6173365963211329,0.6165909486733603,0.9008060307094922,-0.8982289258568659,-0.022024725346434293,1.2939667264979344,0.8213955243585565,1.09812291573526,1.176099956180841,-0.3650244787340202,-0.19225771378296175
-149.0,-1.3560774781466134,-3.2260745707178735,-1.8699970925710203,2.3401237454183947,0.20101278927849858,-2.5702342444910737,0.21536164158114746,-4.58279867006828,2.0512497348297534,-3.8690467892733924,-5.0722888462263365,-3.352189433128622
-148.0,-7.4749831748076065,-6.813209116367476,0.6617740584403279,7.110077588913771,-4.0519255190833094,-3.100287430042837,1.7846417200122944,-3.037749232989358,1.6823904615567637,-4.354667459579663,-0.362876105479629,-0.6118350001888406
-147.0,-3.8062928734092236,-5.319530448439198,-1.5132375750298608,4.605947937706194,-1.1372056335755347,-3.3654990775789773,-0.48059633732544693,-1.3101974917296189,-1.2292320250731956,-1.9092185610724839,-2.477097867465684,1.3335997375824975
-146.0,1.5133435063133853,4.655480246834697,3.142136740521322,-3.0398442100528347,-0.8108633991404218,3.946219816494269,-1.7332371138189089,2.2921870956910784,-1.075706257249384,1.3360139143077105,0.6336112107777402,3.5353577217182393
-145.0,6.074715170431151,2.7185501003247587,-3.356165070106497,-4.4272636886684165,4.716656020101826,-0.35340043506019647,-0.7289017989483513,4.541211228110593,1.0313925140768578,3.8637476371085713,3.458702812625312,-3.5643961479598896
-144.0,4.779805494530704,2.4471023517181716,-2.332703142812723,-3.6410087256497548,3.5599877407827902,0.01979577209270067,0.3750710325353036,1.987876918367753,0.27960074244973687,3.597671619263357,4.118380191354043,-0.2500746460405978
-143.0,2.6979518454799196,4.071157167589774,1.3732053221096177,-3.412176249684047,0.6735780103511804,2.682826254223856,-0.6379435679054861,-1.4537429303568503,-2.1988522922816527,0.5235173757871676,0.7003159101028662,0.7555805230243273
-142.0,-3.786274691695756,-1.4023212132554463,2.3839534784401124,2.6405081057620654,-3.0626430338770265,0.5298628094455293,2.00910640206998,-0.5264258395467154,1.024517269515745,-2.4858914134443784,-2.3809963433591284,2.213320636962185
-141.0,-6.642217381397294,-1.912502117727787,4.729715263669548,4.234963423373922,-5.729215541151008,1.449631113540048,0.8403418424064373,-1.17186435002038,1.6513314607484242,1.1148046825392557,-2.242292240548986,0.7077206806532503
-140.0,-3.2910221218507307,0.41559195211101496,3.7066140739620153,1.4608336839486538,-3.529515422042828,2.0277631090800483,-2.0093726611178364,-3.4173578690653215,-1.8066386638273229,-4.360179320867381,-1.5332673082873365,-0.9391626964368809
-139.0,2.0096131550567855,-1.9191073483244865,-3.9287205033809665,-0.03602010197629424,3.0274680606140993,-2.872681653489865,1.469053646473229,1.237266580020016,-0.8741866198129364,0.29850764279981457,0.807929217224689,-0.2514935553357427
-138.0,5.6744646252499,1.229983422508886,-4.444481202740863,-3.4543699403104497,5.045915505401918,-1.6293683658517053,-0.45940453806949555,1.8334629919885397,1.1455862992013215,1.0866125332185463,1.9207359742691956,-1.0082181676711404
-137.0,1.2235433663253654,1.443388893385197,0.21984552705974547,-1.3416628156126764,0.4916001380033439,0.8124493310309537,-1.4255328597721113,2.608155386430849,0.18089636753753974,3.4370459962883917,2.6322791620432113,1.023310413916941
-136.0,1.7331209742119928,-4.840884954337861,-6.5740059285500925,1.5467977078527368,4.143502234852154,-5.727356873354341,-0.871671480726088,-1.4360424228430615,0.9807738841061987,-0.8441411353204329,-0.8597516532026566,-1.2098445058335265
-135.0,0.016045496676304463,-2.591508012536803,-2.6075535092133406,1.2893025810962326,1.2996909590092374,-2.6237114994240747,0.5028146544347059,-2.4987208953674234,0.25200962586231956,-3.502847951929171,-5.472497610410603,-0.8091992169585585
-134.0,-2.5766678562143026,2.0667709566715575,4.643438812885755,0.27140249337056255,-3.5467218227479176,3.403442262989503,1.4778085004578239,-1.2637698342046035,-2.6278283622792773,-1.911269482464137,-1.881754720933832,-1.6650258426372455
-133.0,-3.3656292154676875,1.4017811253118801,4.7674103407795965,1.0165724464741352,-4.085752515837859,3.048228249323394,-0.23537423844217187,-1.2678632652927926,1.4896283539523756,0.4059269522092529,-0.582189327473398,-0.08983766290536394
-132.0,-2.1168574835866347,1.9727841683920662,4.089641651978872,0.04548431227459698,-3.126366508380869,3.0697655835423614,-0.037234171418409734,3.319764192557354,0.507179420615316,1.8762956956417456,3.732195264296976,3.7520068012108108
-131.0,-2.2424895338514665,4.672576706869303,6.915066240720988,-1.2286882875408396,-4.60563696022273,5.831227982868913,1.2197304016167863,4.161403638393188,0.30028026083318204,5.470477593314361,7.928806018525442,2.3015788045692576
-130.0,2.670668383109436,3.1670469223601825,0.49637853925091324,-2.927100787301308,1.1355755583212668,1.790895296224377,-1.5336861503426271,0.9325437156578302,-3.646261619130441,1.6599165765423614,3.209745386193022,3.268336791069653
-129.0,5.065834588582924,-2.389357000872243,-7.455191589455124,-1.3494212654410032,6.2271084481775825,-4.884218387798618,0.6907848235508065,-2.246254794406944,-0.1217209376992554,-1.9065225178765337,-2.277274847351169,-3.5305927607495304
-128.0,4.34156790133355,-5.542665460710405,-9.884233362044052,0.5795290754932386,7.155484775703641,-7.756471365626561,-0.8519230692658162,-3.137225560692539,3.2776807747211723,-4.497767204614898,-9.039549706812487,-5.395126066043257
-127.0,-1.116801406248194,-5.06689830599794,-3.950096899749968,3.1360673483236505,1.3777718322520807,-4.557163226438664,0.1531405314796298,-2.3365189488714746,1.5332812052823321,-2.348168154775428,-5.97070365430712,-2.3550885342503594
-126.0,-2.86960384853114,-5.7609180809415275,-2.891314232410596,4.346274798144783,0.04763593680454481,-4.304041505983898,-0.08434505090407021,0.44952179478528764,2.756934507184532,-3.655621194941253,0.03857909613323418,0.9204654196500794
-125.0,-4.47682242850343,0.9966459464591721,5.473468374962459,1.6830904426517215,-5.020989543743947,3.249263128727365,2.056508552393008,0.8958548638910545,-1.2000346247761593,2.436121156661112,2.321299218658032,1.9899845978321156
-124.0,-0.3688866059774667,7.010514456398637,7.379401062376079,-3.3019457680653503,-3.8460147033838097,7.204451388889993,0.6327895102577151,1.622143082600179,-4.865626991487074,5.061682017989126,5.378110952266317,2.372973767147582
-123.0,1.5957043065361765,7.484441339065494,5.888737032529464,-4.516912219342472,-2.123729423259926,6.696716723384736,-3.7626331130848643,-1.1819925375185034,-2.891896826064463,1.6707994195980942,4.410579025325503,2.024457987181957
-122.0,1.7262824254495088,6.988469266132593,5.262186840683249,-4.402408405693433,-1.828985769739322,6.141809407584159,-0.6714074951116922,3.8367702290459125,0.3863379860427505,1.6400749370533572,4.317020448433613,2.0703308630624075
-121.0,-1.6568699901486132,-2.0473908162937504,-0.39052082614501404,1.9002707605179738,-0.619057224683859,-1.1920549773675015,0.13792166000911577,-0.995929444642339,1.2867971477973184,-0.8781891786522061,-1.7505191279361012,-0.21173731906127335
-120.0,-1.4888622413157733,-5.8939445864899715,-4.405082345174183,3.675689199041637,1.4713116802713788,-5.189909586001069,0.7469695199025962,-1.1329456883116775,1.1935292375059445,-4.061790117881181,-4.32651865835692,-1.4917136422022568
-119.0,0.8797018529689055,-9.12691924298487,-10.006621095953806,4.119588931756097,5.458856725694414,-9.597879206557321,1.7749766417175412,0.47590042928947773,4.170043126124797,-1.7566772913161781,-7.734648440203735,-6.055907966036326
-118.0,4.687283922096591,-3.5114892549642738,-8.198773177060957,-0.5865378214207282,6.464438382723094,-5.881292227262346,0.8850046606650936,-0.1393695064589625,2.0271628783341304,0.2691188305562042,-2.7370216040987048,-3.598244193908069
-117.0,1.6542630067896493,2.612652918884564,0.9583899120948134,-2.134802191140764,0.29832650967643737,1.838186093704472,1.7303930625228041,-1.2454750245910728,-1.1200273430421583,2.668408655127005,3.801763256001316,3.4250116731202276
-116.0,-2.271648280860957,5.250892688955814,7.522540969816681,-1.5016566204093273,-4.860117833270161,6.3567652709095155,-1.9178584229606488,0.273255244464337,-2.7610818553788503,0.3968618349780475,4.733775340275526,5.386683663185109
-115.0,-3.04232020238756,3.110016632427635,6.1523368348151495,-0.06253672122804743,-4.633178587088269,4.673849782259876,-0.8797536133074361,-1.7473711966038405,-3.6984370034869856,-1.8826975178682015,0.7602125838300431,-0.3373326356678539
-114.0,-1.2040535437734734,-0.01800906821925574,1.1860444755542243,0.6419454052432083,-1.1496405084200116,0.6199957483487291,-0.6950831576409834,0.5545817478740009,0.47539550376495443,1.3384003838804985,1.9372326322188715,1.03105407079086
-113.0,0.7456649417060903,-2.4240372876964305,-3.169702229402486,0.8524547656244339,1.9229254428072915,-2.845589637393605,-2.482136729113822,1.2959114512781655,2.1531993890811116,0.6299368004131289,-1.1322418010662232,-1.407837111759178
-112.0,-1.1084758244317876,2.8004216496004766,3.9088974740322775,-0.8454091620459364,-2.5481334006781755,3.3017232226033357,1.8068310275762478,1.086986973909244,-0.3325632459724843,-0.20853464259195736,-1.4137314146152373,-0.7589482622468986
-111.0,2.066756307069826,-0.589730039393962,-2.656486346463758,-0.7437059079875061,2.3945649628026855,-1.5989597661883046,-1.5402063084949567,-0.2915296234889677,-2.9522766342787214,-3.2204260637341617,-0.41357708179756036,-0.4670098569460166
-110.0,1.8765897489431933,-1.6704380778922023,-3.547027826835368,-0.10691967934554539,2.7386871757135087,-2.583100338219346,1.189589312736908,-1.580589947255839,2.628821408539114,2.595567700903504,-0.5049094866529682,-1.49035281365504
-109.0,0.8359470394596327,-1.4475725318494785,-2.2835195713090983,0.3088139113690036,1.582453636600839,-1.8352333831165761,2.6522303087467263,1.1957758710420212,2.7674174812655563,0.6364213772031919,0.6916011418545346,-0.20987655730210708
-108.0,-1.6760351593261356,0.32733605799029597,2.0033712173164737,0.6868216169608883,-1.8972207408341797,1.1239881930955185,1.5984458247880817,0.2486187965134202,-0.3050868862915521,-0.39826154600620917,-2.2276611396553085,1.0219431377799901
-107.0,-0.9075504500289455,-0.12758698964790977,0.7799634603810841,0.5388214874162597,-0.8214969023562753,0.3714578101901948,-0.6132401928929843,0.31022000944144323,-0.49111098960479604,-0.056744806302139794,-0.7079385659752165,1.0978233781186761
-106.0,-0.42358081764434696,0.414826108109616,0.8384069257539799,-0.04780810540224717,-0.605971579810029,0.6000028440381261,-0.10784084224751589,-0.37471568425231894,0.872229426668506,0.17768547036067572,-0.007461281283851366,2.01072129187387
-105.0,-1.0912487434328777,-0.2861721983815756,0.8050765450512838,0.7157915889507188,-0.9983714250497684,0.23733487201772352,-2.646612983942638,0.4046163566204137,-1.2650064540989063,-0.568195501792952,2.44724874193651,-2.028267832987197
-104.0,-4.129343890667228,-2.4421569988901224,1.687186891777072,3.2304423066920775,-2.8762538430889126,-0.39779892112066717,-0.16849317450327117,-0.7272763347862254,-1.84177809598775,-0.48269507748901863,2.007542379756664,0.3135731799131931
-103.0,3.1221752502636644,5.463951060209544,2.341775809945842,-4.274989942639625,0.3464347870888801,3.882388888411123,-0.920882680633357,-2.933902171690218,-0.8638428320585263,0.2255216017708332,2.1922602859648865,-0.7391518323496609
-102.0,6.139755954006525,0.175931840886852,-5.963824113119693,-3.1435709053240903,6.089112252340048,-2.8366037987774186,0.1813490610585807,1.3481317528950225,0.8931286303626315,1.2241568814258588,-0.5562175750792513,-1.061108306182936
-101.0,2.5315578391755373,0.6946694725242282,-1.8368883666513398,-1.5982548506602643,2.223213491520036,-0.5146930494143922,-2.284268571511142,1.003044648770124,-0.3445777468313921,-0.6262082336966789,-3.5337470401647106,-0.40167389476498133
-100.0,2.2513586019741565,-0.3176955015232761,-2.5690541034974355,-0.9458910898384798,2.371354412604816,-1.4668238893591306,0.9816050549725437,0.6503031264101158,0.3864631997041871,-2.7827525125521446,-5.040930006417943,1.0697356238862405
-99.0,-7.177531043645903,-6.343436316495541,0.83409472715038,6.791866945813187,-4.044655814123936,-2.7804060979723304,4.863427792029206,0.2494805458177457,1.4094825457465134,1.6967825037177808,1.6982432961956913,0.3646983002479398
-98.0,-5.434176196457125,-0.5314735278070906,4.902702668650082,2.9473230389932725,-5.129461216838279,2.1555083270307094,1.8302969341531987,0.5667997695374507,0.9371735943563969,1.9212283085806472,0.98370200476726,0.925556966348708
-97.0,-3.129836342923658,2.0453283847094856,5.175164727633188,0.5165426337013337,-4.115205131060323,3.5737447182468296,0.6331689376220122,1.6037271757604068,0.653515043958727,2.0681529794253013,5.125354151443226,0.7874683124668569
-96.0,3.300119664314793,2.537622490368917,-0.7624971739458553,-2.9394499100189395,1.9878513131446427,0.9227326951714299,-3.5614678771818458,-1.7614119926896272,-0.41120785765620216,-1.757549788898073,-0.7816081248697033,-0.3273505211059188
-95.0,4.071877009891299,3.4193574946286835,-0.65251951526264,-3.766408229822356,2.317047029808924,1.4129416144870395,-4.62727309490923,-2.526441261656017,-1.8763306353029419,-2.8976634047702006,1.0846795378029208,-1.602481365604276
-94.0,0.38336727266048154,-2.9395140693454076,-3.322881342005944,1.3317380651948492,1.8859876741868193,-3.1039992605976146,0.4827144651056128,0.08177247859354031,-0.9795287489839608,-0.469956859766127,-2.3609122473564783,-0.6055210064288958
-93.0,3.3779521772642305,-1.555010950163817,-4.9329631274280965,-0.9425402797819291,4.1888950062837,-3.2937380220614187,1.5734435922555976,0.17318456016643502,-0.224729738610561,0.8177500309821234,-2.4654169205925314,0.4479249251073686
-92.0,-1.6109245195623496,-0.9758937855426714,0.6350307340196606,1.3357371642050637,-1.0879250775483558,-0.13611639596322123,1.34598892762097,1.2491692374590777,0.2053592871083171,1.5229769864675051,-1.8776086379678834,-0.5769169159133585
-91.0,1.1392157588523733,0.9081863036754979,-0.23102945517686305,-0.9847987055493876,0.6431880824514733,0.30122814385083346,3.052973750737372,0.4064054519897973,1.329710149705769,-0.29280053747139245,-0.8599859954898383,-0.7253728744735168
-90.0,-3.438981170129444,1.592171274662668,5.031152444792133,0.8820497776127875,-4.2761634668805515,3.359670948145523,-1.21869603758532,1.9857361576087365,2.019031198553878,1.5961312971070258,4.054396339017603,3.2678644527065375
-89.0,1.0049306185713425,-2.118665675488593,-3.1235962940599076,0.5150650679411921,2.1012301484888396,-2.6477356657492517,-1.283856644465553,-1.9943793755446346,-0.7303101186667214,-1.6056216384400117,4.528238244534827,-0.667716040483993
-88.0,-1.7118789186600525,1.1548160434123333,2.8666949620724207,0.31520979996830434,-2.3329920663895076,1.984680136252687,-3.352034921498749,-2.5547577194204227,-2.8418275953163494,-1.121311664886529,0.3629812829363426,-0.7526695959182839
-87.0,-3.0368396670037106,0.8238420604649591,3.8606817274686933,1.0640963752808552,-3.4157861803066476,2.3131248605239523,1.3193360030991663,1.6776944848006974,0.8479629402686089,-0.8353449363774168,-2.675650107560198,-0.2572958172885925
-86.0,0.7209781566917774,-0.053442520751957656,-0.774420677443711,-0.29726655415515274,0.7798186611721287,-0.36999324114911813,1.1302835517324636,0.6950513882627286,-0.7447366690754967,3.351825345873509,-0.9261644641725937,0.8036705646227476
-85.0,4.073791110777943,0.15339965952139387,-3.920391451256534,-2.1542788654631675,3.951824409060379,-1.8464722881116735,2.063434426786091,1.7790083005055526,1.5673433501327698,0.07428356628738486,-3.5397631826437355,2.263027450003422
-84.0,3.5917299215014657,2.344319334980182,-1.2474105865212843,-2.9263765656233285,2.4568430909247296,0.5785240347590308,-0.21840094760767026,-1.0363283479450829,-0.7435397149406532,-0.45410504458947765,-1.331785262530969,-2.9058968071010494
-83.0,-3.917271291803795,-4.577286169943193,-0.6600148781394182,4.294190511334206,-1.664568595810193,-2.6734536236508517,1.0576646924292095,-0.30727964041093486,1.9727739245728286,-0.7220469978886808,1.1168309949705075,-1.7570616915318036
-82.0,-1.438783949268219,-1.283452355352495,0.15533159391569856,1.3348001269318175,-0.7482889475942138,-0.6233273737253957,-0.5863329361278468,1.4074262810832003,1.4901570507172954,0.9930956942810597,3.659130516073543,-0.24837645718643242
-81.0,1.1752702939580937,0.8707035147301251,-0.3045667792280018,-1.0455655783033,0.7148081271771674,0.30084547741686174,-4.646993614700476,-4.308917679107431,-1.6251498037885055,-3.3477891091809617,1.4759968524812574,0.04279141541994308
-80.0,-0.3033229928631206,-1.0020562650554394,-0.6987332721923489,0.6303240913617777,0.17521188905028928,-0.8303472290246086,-1.2230559057549142,0.09976701114387376,-2.347427874920076,-1.6211089168635104,-1.6622071642098126,2.157614628813889
-79.0,0.13160097028500978,1.2330156940595145,1.1014147237744822,-0.7086223662797969,-0.5074514252096329,1.1941614260360192,2.841479196931663,-0.7801367758067667,-1.6717747437060317,0.44074225044980525,-1.1908721515844871,-0.04903851616223398
-78.0,-0.1495170307236371,3.91485502195809,4.064372052681727,-1.8375963773678352,-2.053040034126337,4.027411143996584,2.9604024472049972,3.0119275106238828,2.8675503328085794,4.179798750328841,0.3549232481927064,2.5739266342190694
-77.0,-0.425535430575236,1.2554046739843348,1.6809401045595982,-0.37886718661339547,-1.0816555881787009,1.4397891847259459,0.19175523794111626,2.1288244014104607,-2.3603790946806673,2.7696990852499734,0.45333258216883576,-1.6331645585791301
-76.0,0.5460167299795115,-0.6534143792876728,-1.1994311092671333,0.002489966514602121,0.9193055491241913,-0.9437411794662693,-2.4410533331223756,0.7509283165420093,1.5075490649646626,-2.010624371866305,1.3730162357685731,-1.1796106234345878
-75.0,0.7471272190804044,-2.81358255709701,-3.5607097761774025,1.0545869160688732,2.118679534071248,-3.197978409781986,2.0916015056543187,-0.9130775579395938,1.631128926256158,-0.09049801762911658,-0.7825333331729526,-0.26516691664900427
-74.0,-0.6957427441633175,-1.3655482158878376,-0.6698054717245268,1.0494466175425665,-0.050104722998191686,-1.0283959872938393,0.13720814553565858,-2.4769857468779146,1.585792231652889,-1.5396214012181013,0.06847848140129964,0.5106305564881689
-73.0,-0.8393854660504156,0.8982073000440325,1.7375927660944268,-0.08770341948049065,-1.2474476083583999,1.301005660886569,-2.573327408248633,-0.28997770420186786,-1.503873092201899,-3.543958352326754,0.05565264472767523,-0.9853019407190835
-72.0,2.187713951462417,-0.8144433257682535,-3.0021572772306735,-0.6604157229363995,2.6366034609072053,-1.857094283911541,-1.8209357913737465,-1.2078580395157181,-1.1877216813010534,2.7519860768330098,-4.6803817814971,2.0144855476645933
-71.0,-2.637072415412261,-2.268915862688481,0.36815655272378944,2.4882631319601027,-1.5381674513444934,-0.9902622309992963,0.2379466747520037,1.3953799730423153,-0.5236056925172936,0.6275499298814154,-2.096131606373421,-2.370993522513457
-70.0,0.9148570619213273,-1.3070802311195935,-2.2219372930409005,0.16344589537821502,1.5349962134049027,-1.7369073938695452,2.7650318256430553,1.3261038011772486,2.1752274288002287,1.1735586846124595,6.221888325880837,1.1532869337346803
-69.0,-0.08703281496929126,4.387837323834547,4.4748701388038565,-2.1725925114320916,-2.3116891885890953,4.450668905818728,2.2522556076525144,-0.6131223425215819,-1.2442486008759217,-1.1480258273858746,1.7875381247470874,-1.8241682594178492
-68.0,-0.04090074637885112,7.87585445569988,7.916755202078764,-3.8531668683905322,-3.927678315233628,7.910986968030535,0.038842678231101546,0.5074336876644789,-1.9658282424018183,-0.3340542646339144,1.245844635895148,2.6606409464271796
-67.0,0.2736581520645134,-2.841591168632259,-3.1152493206967584,1.2723867371797992,1.7488976157172695,-3.0438768791911923,-2.2652472274653137,0.4933212191952027,-0.50880876894256,1.3039272828716877,1.0636071891012047,0.842939507530875
-66.0,1.2407896407519505,-2.7163140756442283,-3.9571037163961904,0.722859349603332,2.577206345745148,-3.322531157357035,-3.5455347329391764,-1.6944439532301105,2.9971731858711927,-1.0359244915980024,-4.608836619422453,-0.12172996721488105
-65.0,1.5837622945445133,-3.2271034470653737,-4.810865741609906,0.797486694677163,3.1761196562326894,-4.0026187006523966,0.30363463883761144,0.0010188549968496163,-0.8627036984047611,-1.8909611584587125,-3.0301404092434283,-2.0772565402915895
-64.0,-2.540581444124814,-5.465204147599847,-2.92462270347505,3.965534607956157,0.1682859886649095,-4.17567678041281,2.670473193013475,-0.010182456327164413,-1.5651882161941406,2.488192910736628,0.2216408552234257,-1.0408560385797916
-63.0,-3.308019318344629,-1.6622664418945177,1.6457528764501375,2.513021397379064,-2.5064017184953395,-0.06441273440660766,2.8881297672345116,0.7128553928558302,4.9989306555943775,1.3667537645951948,1.2818405343163395,1.4746621621583136
-62.0,4.024526032205262,8.97981647564469,4.955290443439489,-6.484182829866517,-0.4241608342943559,6.994106844516554,0.3788874297962552,0.9695286464193302,-1.5966742642351537,-2.925700460022935,0.15106144803889943,0.03524151174573831
-61.0,1.308160075464782,6.897754166197827,5.5895940907330965,-4.088305572714617,-2.107923600046767,6.2749894663479715,-3.6054633011980908,-1.263103548271329,-2.0178992921386847,0.9005525961448799,2.6413127872828315,0.22963119322079317
-60.0,-2.8790209473174375,-2.4574942247576645,0.42152672255980006,2.6868740612873543,-1.7031735314246994,-1.0598209775792564,-1.053669811971209,-0.489927190014939,0.21277258132144516,0.17239313244603727,1.698259765520976,0.8482809666714342
-59.0,-1.9133704705941361,-5.826698214776709,-3.9133277441825913,3.8981950556500204,1.0216510052745118,-4.826964230799118,1.4452543008334429,1.3420503404904895,-0.5786951169266391,-0.016122931415364694,-0.11316939285074257,-2.0377613076055514
-58.0,1.2775537341168592,-2.073242663553796,-3.3507963976707194,0.3589395494855101,2.3346959333768478,-2.7416617824241913,1.0130019249702842,-0.4227694539542195,0.11562523917552492,-0.7564370213341015,-1.4414824500754988,1.2996617601190983
-57.0,3.29497602984037,1.3987072493231913,-1.8962687805172633,-2.375589642858615,2.6172694090831228,-0.27321765688219646,-1.9834483208259073,-0.2211074681502257,-0.6450116508842578,-0.20638283624865378,-3.9541096757644105,1.3362040171860274
-56.0,-1.6809735400807335,1.3320639724237555,3.0130375125044226,0.15197352964636068,-2.402056340549142,2.2304820621405295,-1.2774641354940386,-0.8402416365674238,0.2672444244555191,0.25382800542244766,-0.28036284511108933,-1.5513728228493493
-55.0,-0.8276501059836063,-1.670005930788954,-0.8423558248053745,1.2285038763993215,0.03273288412911368,-1.275482585164015,3.127380241973708,1.5617438649499444,1.9185450663586456,2.7925879791864094,1.9369410691593754,-1.1602155987136533
-54.0,2.506900876663943,2.0373915792377706,-0.4695092974261512,-2.213993769965901,1.435498903267919,0.7638933904170365,0.9725495614832245,0.7784747972286916,-0.26631353829184035,0.5501697043846079,3.028451735194054,-0.24990028481591087
-53.0,1.119880730593091,1.6620497775180745,0.5421690469250342,-1.411830337014824,0.3147670602834334,1.0793108375165978,-0.41200521771001797,-2.1026116080479933,0.2663455644808759,-1.9878268760389985,-1.341227397404517,1.2761404768475548
-52.0,-4.651712777306717,-0.17067310236407252,4.481039674942699,2.470610938516046,-4.540578789212409,2.206990056515189,-1.3150903631639124,0.36825419313747476,-0.7018231033027298,-0.8813804253229133,-0.20740607928244262,2.430844331588394
-51.0,-0.26123430748121046,-1.0973726747964427,-0.8361383673152059,0.6635204413259951,0.3140137292430525,-0.9985005147863444,-2.0674599168633625,-1.6200313804422735,-2.713643369281932,-1.3262816533728967,-1.0246594918132026,-1.5322686539990549
-50.0,-1.8128032223094706,0.712688385967338,2.5254916082768344,0.5384193215842055,-2.21925258530454,1.6612271739374653,2.179090325990228,2.170225199702194,3.6356604370053582,0.17222735320786442,1.3633785943971581,0.7421807788986373
-49.0,3.6140395570938146,-3.485922916336923,-7.099962473430722,-0.07323461417225877,5.3889418023653555,-5.334181284299878,0.8332948193962741,0.4093264884577228,-0.14043510337929654,-1.7198651231609423,-2.362600632725088,-3.1105271230077682
-48.0,3.420526268131223,-4.199228416451326,-7.619754684582548,0.3789812505871291,5.477361938270299,-5.876261983740995,-1.4201533722849833,-1.5698175741126257,-1.817804054620988,1.101861307501529,-0.25392777452994375,-0.6522544131964497
-47.0,-0.5491382461972432,3.7117128903091707,4.260851136506405,-1.5971891848194477,-2.364837002597579,3.9369301271019026,1.0473009760692822,0.396900973454795,1.8597993180011025,3.9080683435801555,2.7674705583900754,-0.49725015790076127
-46.0,-3.665620465957889,4.84190371007854,8.507524176036407,-0.612948403450192,-6.121309913511959,6.701023982801639,-0.7794317575819378,2.0444513799509854,-2.684334543105114,0.8400083466272652,0.47223345793840266,2.747360533399291
-45.0,0.7373491463416346,3.7547899649732845,3.0174408186316293,-2.202184297730266,-1.0928277806845603,3.4105885304071824,0.9506479527035152,0.13624518149086756,0.13230201452194978,-0.643673477266258,-1.6232036150669813,1.6267755662291625
-44.0,-1.2651184255537609,-3.4224100112945126,-2.1572915857407784,2.3789830644179815,0.4169794747489355,-2.8441300886753687,-0.8499674971283147,-2.465902555462091,2.5950144727002193,-0.04302360359069779,0.6731041802022778,1.455890668378212
-43.0,-0.059676947576784545,-3.2807088869042094,-3.2210319393274416,1.6212583467068356,1.5532720107266296,-3.224143733068993,-0.008864139313686653,0.5643049147816395,0.6103001472132017,-3.0799432335849626,-0.6173201240855998,0.005752886680533309
-42.0,0.7991899465227408,-1.8671335706836234,-2.6663235172063553,0.5622354899276321,1.7853049462208062,-2.23545858826169,-0.8801032116905531,-0.630030654347619,-0.3166377418745461,-0.626491687230073,-0.2577777709433318,-3.452625311405188
-41.0,2.979691733103339,0.9530832348007323,-2.026608498302563,-1.9365315394015843,2.477966716568944,-0.5779132218902325,-0.5640848366664544,-0.09725452782759925,-4.2923982146794355,-0.2719445087178145,-0.880015304642477,-3.0131460102301286
-40.0,-2.734354490521473,2.5929536095619627,5.327308100083491,0.0250390330357233,-4.05490778739624,4.00487755679055,1.6140875065501623,0.7636450813384184,0.48673441989809696,0.6369848885957196,0.09681965477608484,0.07774167200013649
-39.0,-0.24512432814638307,-3.0316456756323333,-2.7865213474859014,1.5960336314113244,1.3266889350187423,-2.936274822536877,2.502205298941054,0.2661500479041427,2.6701144662015226,2.205748594440882,3.693089344026917,2.474707565570851
-38.0,1.455126277722524,2.8189864799006568,1.3638602021781514,-2.0982772706932846,0.024324956159292255,2.0697582359966518,-1.7376580033971842,0.6623015142863752,3.016670238443552,-0.43552194825943347,-1.181844053692026,3.2608433456468084
-37.0,0.5852721980565376,0.5100343962403435,-0.07523780181621664,-0.5076425819976593,0.31030971915406225,0.19950909097709602,0.14241697589813063,0.5686648740567015,-2.622679999332809,-0.34257559326560216,-1.4893707984591475,1.059471039631301
-36.0,-1.8111122386793135,-0.2743027732548786,1.5368094654244,1.0044645137400903,-1.6928962625536454,0.6941740648496253,-1.2314625600888107,-2.036924002655252,0.025073457780418473,0.4138988668636361,-0.8282410906950552,-2.6808438578976443
-35.0,-0.8955134965266883,-2.755230665488197,-1.8597171689615197,1.7875866631425048,0.5423452189195833,-2.3226635096159214,-2.2633321515875475,1.856550022836551,-1.8185740192795288,-0.1275483219901412,-0.043303592736041396,-1.4610485606594112
-34.0,0.6427860645687024,0.8778230380083127,0.23503697343963215,-0.718325022826792,0.18502839814022823,0.5407307565466564,2.132712494220003,-2.971204805598081,1.1977739955997537,-0.02982254916896329,0.4042392457874225,-2.7527719475037626
-33.0,0.4643575831994245,1.7447539588198426,1.2803963756204586,-1.0608426373281064,-0.4281322580243132,1.4953238412843426,0.24249889332348362,0.4126632561379632,-2.1166138724593435,-0.5280686721327548,-0.5479078068011796,1.9384686479217923
-32.0,1.6115505647857442,-0.5323822787770388,-2.143932843562762,-0.5725997617826215,1.8553236691722348,-1.2792622469062906,0.04430465242108805,0.7483778613101824,-0.5305610656503454,-2.395918380727569,0.4170572833492,1.1297002598327146
-31.0,1.4776472236515426,0.5886353106914717,-0.8890119129600593,-1.0647096523903237,1.2362623979145693,-0.17365154464620197,-0.29494800369904156,0.5971553516597154,1.8968796920324515,0.8238276900060493,1.3301140725551046,0.7810530158084518
-30.0,-2.517613829180908,-1.9057588616262735,0.6118549675546208,2.258894585410998,-1.595087778876784,-0.6747136299971452,2.510991541283765,1.9743789039742399,2.5896217452026318,3.43097573838852,2.6233583453768823,1.558514759085696
-29.0,-3.784050688352883,-0.07437867157622746,3.709672016776602,1.8959310294909844,-3.7041897796298393,1.7856152529275722,-0.1409297456274381,1.460637281029157,2.293012027788572,2.833979544929086,-0.7311654965802272,1.654529639667911
-28.0,0.5123155592784245,2.0457542375780235,1.5334386782995364,-1.3154304536013823,-0.5534959093424456,1.8330818312425965,-2.878094166228857,-4.09616064545273,-3.582050729633271,-4.373197945771301,-3.099044579457922,-2.699523351063795
-27.0,0.10433606493206843,0.40138464709865507,0.29704858216655283,-0.2139711126802123,-0.06810611443693015,0.39140037488152946,0.47218836764686034,-0.8281383453237063,-1.1101676451429048,-0.9472220128729711,-2.7560388599097125,-3.141935783698773
-26.0,2.567471479853642,-3.7356841938936363,-6.303155673747263,0.6203581787067658,4.37753554768969,-5.0550508427546434,0.5523403796767737,-0.47881164431032486,-1.385112826682176,-2.8132587378316187,0.8413465848033477,-2.426519086622982
-25.0,4.585703853290594,-1.2656851031210878,-5.851388956411622,-1.7035155283961494,5.23403115036876,-3.591531733841198,-0.2546622882477657,2.1367809827158246,1.4501350113733702,1.741547449411922,3.2772257632253097,2.128187927997005
-24.0,3.2974700813190623,5.663021405980972,2.36555132466196,-4.4442946622123,0.4792877857982163,4.063089448561744,-1.6970872405388588,-0.505814916123325,-0.32622397814706694,0.050617535443855166,-0.14085686473610481,3.788577589378627
-23.0,-2.1713455007555513,2.227091089784343,4.398436590539914,-0.0688551446083212,-3.2695427784515134,3.2845667655711903,-0.34241883108303256,-0.8150366843255376,-1.108397484030704,3.816407831193715,0.844921216093552,4.135621329431134
-22.0,-6.72895896254246,-2.66857917769195,4.060379784850514,4.73848504839013,-5.373580379286473,0.7452401008545231,2.6443706130138986,1.9764789549098782,2.386535061679141,1.6389446671885677,-0.7113895463026946,-3.350536618821905
-21.0,-9.051088496340753,-3.8921329265878373,5.158955569752919,6.433746893756808,-7.076287208231451,0.5987506191790357,3.3351923652588025,3.2100643749769313,3.0234139463982883,-0.9873549301468855,1.7675419957112002,-1.6065146817629627
-20.0,3.13142043117125,3.3040189589721773,0.17259852780091833,-3.176891702481341,1.4364294778678683,1.694399727181743,-2.4640317865032344,-3.2398525416088084,-3.7228391826152394,-2.720071604356804,-3.7085912513284813,-4.5709362024395395
-19.0,5.660282101856581,-2.172521078019644,-7.832803179876241,-1.7828657762137419,6.7078890315862845,-4.979648651069175,-1.2332076385437762,-1.7558158523757372,-1.3574465989418973,-2.3365325298913815,-2.6186484061408843,0.8286612181016046
-18.0,2.0982648435464304,-2.9910451209034536,-5.0893099644498925,0.40615758219602416,3.55607190235733,-4.028997477682708,-1.0523919191168358,-0.27035982851359663,-1.5083672963868024,-0.38973027597495635,2.4423669493493363,1.9087775130163476
-17.0,3.121764894476897,2.5188912388355504,-0.6028736556413441,-2.7822488804673937,1.9018716588825426,0.9603581441160904,-0.6700498255586164,-0.14289426453017884,1.5852904744516931,0.6492781200391453,1.0110793727814607,3.639721773895027
-16.0,4.926231372183751,1.3649208703662619,-3.5613105018174456,-3.106621442729539,4.2813808776945566,-1.0991771709558782,1.0776540041960474,-0.26320360526120307,2.55506275238697,1.064535949612216,1.1461024114345393,-0.40631115537703466
-15.0,-4.931589363315361,2.9545629639319992,7.88615232724743,1.0291493840436623,-6.371852315496874,5.422712437805007,1.0040665168980178,3.3676922697109775,4.600475478900195,5.227776767146286,1.6543832276234716,0.7349961516226683
-14.0,-7.34234362709243,-0.4962235368515553,6.846120090240952,3.882195890477512,-7.134447173740924,3.186740549965564,1.6131671890115142,0.7119410156197781,-2.8121423575014104,0.26823465196897134,1.69726146296076,-1.247597243729896
-13.0,0.742721447988222,0.8687524382081799,0.1260309902200074,-0.8441029026454112,0.27123624380599676,0.5225274728158951,-4.540550003616994,-4.335850186103512,-6.023942294192321,-5.672162997660635,-4.663070229260603,-2.6827930582663666
-12.0,1.666481732854849,0.7888002076757699,-0.8776815251790921,-1.2703688380863476,1.3170369248507343,-0.08400781875562885,-1.6634769495076185,-1.0823983221411067,-0.7353334818720563,-2.156211730676853,0.29373663788475346,-0.760876095883996
-11.0,0.9902243981707338,-3.5974311167138375,-4.5876555148846485,1.3329215483056085,2.7570879902103838,-4.120629146891835,2.937543814783523,2.8913068250556986,2.922108147191459,-0.5238213131379479,-2.301299331763345,2.5521701004517885
-10.0,1.5446500826186713,-5.970242402816791,-7.514892485435567,2.235133091456302,4.576074487051532,-6.685376850615149,5.462918336044086,1.0866917170040022,4.549129447067353,4.524669797883032,-0.17223121310227185,-2.524837536791539
-9.0,0.09714306720937604,-2.949755736499395,-3.046898803708873,1.443861139258387,1.5361157015003228,-3.019177803670966,4.5673321037584795,0.7028503117496536,3.2589524514876675,-0.4011810167884038,-1.3201301771072638,-1.7275166299924103
-8.0,1.3150121451771217,0.5694330236512567,-0.7455791215259229,-0.9254314244195552,0.9887642290343668,-0.11318348590850746,-3.226085905535824,1.6032754759206087,-3.1154566920922226,0.45430149016206794,0.6408502584465556,-0.9949306017351893
-7.0,-2.470056252386306,9.126612804063292,11.596669056449617,-3.3865083966826344,-7.002374343019884,10.329548632760577,-7.881275619061777,0.23420493435403122,-9.082424367526315,1.2899642388415744,3.3349130879808895,4.73163614054163
-6.0,-5.864100675799339,7.317576059845308,13.181676735644771,-0.6989713169987346,-9.496820520335287,10.289445147541175,-6.920945258503944,-2.947194404038906,-9.186493566758768,2.562658310752881,7.511296423978609,7.184703441860751
-5.0,-4.3032880578301,1.765852776454198,6.069140834284502,1.3052033578127207,-5.162185095919709,3.9530471522693276,1.5573521937666213,-4.87212769009656,1.0607745247571403,-2.7013796625149977,1.5161870789759622,1.541415604025123
-4.0,5.674614341549868,0.6684460776332415,-5.006168263916396,-3.206055702857611,5.287209258960299,-2.133914986801001,3.7690251763597074,1.5036443212764807,11.808030477567977,-0.8185374545820379,-1.921769272262769,0.7016351063269757
-3.0,8.645314524679657,-5.634239825071683,-14.279554349751194,-1.535397625850664,11.49279480094712,-9.998143424270872,5.997426227189295,4.505664017791556,15.871749456075705,-0.8880898595584155,-5.792305905642611,-8.09276888191241
-2.0,1.737439064908016,-13.449857209096141,-15.187296274004165,5.905631658774983,8.420873057144092,-14.355698062164683,4.324877025896986,-3.872642205665366,2.484643780112913,-5.247902808034103,-8.429636444871996,-7.877559460071652
-1.0,8.802284337866473,-6.799082582811832,-15.601366920678489,-1.0342031953336615,12.246426956489604,-11.23344444500684,-1.5804244857771828,-3.1504995249180943,-3.5276241190586703,-2.447690535243478,-5.365185355803671,-5.434188310147928
0.0,0.19563836302682455,5.123188534661287,4.927550171634081,-2.697517251926082,-2.3941291104073965,5.073291398679087,-3.935282595421508,7.18472669652295,-7.2472696407115995,4.015086305054311,3.9552863320125047,-0.1780315489743941
1.0,-16.203499843876767,9.333462051383242,25.536961895259594,3.470176622214093,-20.816689020221474,17.483430405085297,-3.5575034638104794,1.445037936985416,-16.712924250041635,5.739517807039423,5.853123878725137,7.251813584003244
2.0,-19.59833637784179,6.418191319118624,26.016527696960182,6.621766474691837,-22.833710813325936,16.184995902911243,-3.651307340489792,-6.293664901686027,-19.75524551915991,0.7028700214752202,10.294065389235136,12.039444502797064
3.0,-7.930710214767416,-1.269064059328688,6.661646155438753,4.63111530382111,-7.327511947671185,2.6603381431962703,11.539357241873361,0.5529602167844607,9.931804664474974,-3.0845093570302966,-2.6919582110825075,3.536980678574457
4.0,5.314427320293479,-8.641050859027061,-13.95547817932022,1.6179265488808112,9.595955187549112,-11.26005220563139,8.912224291441229,7.561326650829212,24.54915511949917,3.956500704825977,2.3872602152625033,0.23734010796840277
5.0,29.425550231303887,0.42922340903665024,-28.996326822266777,-14.969495661278668,29.242847831768902,-14.32853953742418,-7.450929454778582,0.47770281415169347,19.797538810616096,-2.8739590505819335,-7.471005627084968,-11.633930116911552
6.0,31.690686262637243,5.114214529600371,-26.576471733036193,-18.363219561133448,29.160090841789902,-10.70038264909896,-16.282876746356163,-1.126970498145842,1.525981470979488,-1.0763934775661075,-3.144866823382948,-6.67034594998486
7.0,8.937657772044414,13.409010563068923,4.47135279102527,-11.13367157980894,2.2584387021732457,8.97045243920588,-6.522437524916471,1.5240178620392322,-4.882990022598563,8.94771720236616,5.325555794909269,4.75369348189184
8.0,-15.41323639544688,1.481660033971459,16.894896429418726,6.924367491555826,-16.125728951318017,9.142429016409208,-3.251527896774764,-5.8329535462579605,-20.092797696111695,-2.0668226431960557,-1.526436311385221,0.34298894275685066
9.0,-42.86544585789419,-14.827718719968644,28.037727137925234,28.80056619240573,-35.496101763288884,6.643492479985618,14.266239176788385,-9.636694635959554,-20.050240741978016,-12.096113537735224,-4.033763204579168,-0.9429508851608404
10.0,-32.08307132076467,-13.377399917114369,18.70567140364939,22.757640236931547,-25.43229011548009,2.6316101251657447,13.914089566733606,-5.371025298464698,-9.888008121181116,-8.139294169800365,-0.605160833996083,3.003946646848194
11.0,-14.725005812297606,-10.63648023131725,4.088525580979261,12.704143257383066,-9.439242532768809,-3.2979130065656745,13.034615247469459,1.0138759684486311,0.6672333573040894,-2.0276915074908333,2.2423878383633817,5.33254833204129
12.0,19.22588257808958,4.047269620256067,-15.178612957834277,-11.614056617669304,17.251825535718257,-5.503007999814901,0.23160673340197446,10.65804951014752,21.9568267772292,8.802155028786096,1.0700961572429482,0.10262610130163008
13.0,45.3941172899802,20.07107415142865,-25.323043138551718,-32.78578786238931,35.40913439917297,-2.6366690036474005,-16.130496392439973,14.197328352022947,22.721800222507525,13.317877356307047,4.517913145522308,-2.991967116206634
14.0,34.66074022497,23.19423578317821,-11.466504441791383,-28.895543554405116,23.03423160750249,5.854594296432937,-17.194962597725628,12.379364376456703,14.205997794229537,14.778626023442628,6.326014399458689,3.291088242494964
15.0,-3.3762174949690564,3.740530168044785,7.116747663014542,-0.14227126160238868,-5.2790690638578965,5.41583105792207,-7.4750673122969395,-7.11070829271552,-9.75644841088608,0.8683555429613756,2.8988908937032094,2.694987062238871
16.0,-6.5521554134495705,-16.50927378263236,-9.95711836918196,11.498922953458845,1.7436284617959243,-13.254451189670668,0.9954980466188337,-11.707340095121369,-14.123705829479803,-12.652167055216042,-9.512551488716973,-11.333402176327144
17.0,-18.890022508536767,-21.81575832739358,-2.925735818856001,20.325128732619035,-8.02619378018671,-12.32538557968524,15.98030000549918,-10.992206809798741,-8.763384479771226,-16.938393977832654,-12.781946153143595,-9.906370899551618
18.0,-20.74375897413325,-23.150758225225772,-2.4069992510920866,21.919377171162203,-9.140787965276944,-12.825873959671304,14.199254466095706,-10.291702580683541,-1.472746440792747,-14.448485171832381,-12.050231520959516,-6.772332019366124
19.0,-3.6787606921038467,-2.764324354985879,0.9144363371177153,3.268485986533264,-2.275611268405653,-0.9056114607976915,3.05684650990578,-1.5878467543253545,1.9345426232828675,-5.537369607225054,-0.9375319686591033,0.5778646288675826
20.0,-5.886714251358641,42.03947144248893,47.92618569384683,-18.11439104467325,-26.96892337937629,44.993311852591546,-15.685302287544356,9.236808163975565,-16.408687487591095,21.474175531728157,28.912641065712204,31.444345117618766
21.0,-8.964083070910151,29.84728819353716,38.81137126444652,-10.407414691071095,-23.872979576619976,34.336001806552055,-7.597472182375779,12.50376083318061,-8.789501900068524,20.674792012326478,19.84494592344451,21.384343241453188
22.0,4.242055943681109,-17.591848422273987,-21.833904365955334,6.703700167512935,13.05509218334446,-19.704795883139212,4.86575717539315,3.1269466274855198,19.598763746879236,-1.152774556377386,-11.261638856108384,-17.131835394147416
23.0,26.35319880785726,-34.451793504165146,-60.80499231202214,4.074500529090466,43.60211733162923,-47.614700824527546,8.441649716902795,1.7943093070619232,31.17497056909893,-15.258213462489582,-29.883956848871033,-31.062672816296285
24.0,13.009316655281147,-4.258936634772159,-17.268253290053096,-4.430693966950392,15.169639267018958,-10.820555885739982,-2.3440379411454497,1.11356332501726,5.314461456748541,-4.830656686592612,-3.6998147426751284,-4.53065983034103
25.0,-2.6039548477541743,21.69830180406282,24.30225665181664,-9.60331987564948,-13.493820157526171,23.0308978453805,-5.07223483401571,-2.5989962281509382,-19.538588832915345,8.098539524119655,19.58732804132603,18.579254759094646
26.0,-3.672621805793689,5.174205840145653,8.84682764593902,-0.7275294445881251,-6.296587260095791,6.970663312453183,3.9968748968908985,-3.839521251931333,-10.789556226587294,5.302477709574901,7.191708449596582,1.7373959843158024
27.0,-0.04188892574208225,-2.800124962392209,-2.758236036650258,1.4465275872907983,1.3988072232759583,-2.7332502674127865,-3.17692133511451,-13.210940494782461,-10.584043132868672,-1.8463645179882806,1.5725622585147745,-1.4008842650999906
28.0,-1.222708368059286,-0.3712521157094075,0.8514562523500335,0.8264641432318092,-1.0817511465957628,0.2127403017452125,-8.438833505819733,-5.342944057327733,-4.948305318501993,-6.149952529620906,-7.1222386152363235,-0.11905799683185614
29.0,-5.8460496716471075,0.00923984556940205,5.855289517216715,2.9529525443380287,-5.826979808762232,2.9872220480290297,-0.6428542449882264,5.051320484042264,4.133000242855966,-1.2660785221310427,-3.633718975223222,6.706942773886066
30.0,-10.116425132944274,3.5108214434742884,13.627246576418758,3.263436846495453,-11.859773173128827,8.54645104687422,6.62947665781391,15.56723962343338,13.017136245601414,3.4985788488129828,4.294071394457402,3.2091194998842316
31.0,-7.36012872326198,3.0449384583336974,10.405067181595802,2.121395197496435,-8.880480717667982,6.700765695662869,9.001145208127088,12.05424232421004,8.941466028301509,7.5350779843690425,3.1634884052162064,1.776067340799184
32.0,-0.4257528466294268,-8.453399986320079,-8.027647139690608,4.404112739212232,3.797205493722499,-8.269504878550519,6.636945391031913,0.9524326917870489,10.56550297740056,-4.09752993103708,-5.536203967217405,-9.077481483505144
33.0,2.180042169238857,-12.725668034177295,-14.905710203416122,5.314764400668306,8.538670217486843,-13.773459795148703,4.287790604774888,-10.066130984281765,-4.695287854327701,-9.370736386437866,-9.705320813857853,-14.196987782814409
34.0,11.938452791002643,-5.6868948846068035,-17.625347675609365,-3.086010319715051,14.782585747889215,-11.623402199672157,-10.066001556132589,-16.626407114011904,-13.891487089115975,-7.050850658695452,-5.1850001969997885,-1.5290204303853092
35.0,14.018303429573646,12.356818143455664,-1.6614852861179026,-13.228194012107371,7.849511821559703,5.291343872140746,-16.11795887794257,-7.467384134726948,-15.152999916430533,2.400228655604373,7.697637476824435,8.06177471896678
36.0,0.23971720175879607,-0.9092927041797356,-1.149009905938545,0.372625230666932,0.7147101272503396,-1.016422324642667,-6.675417282657524,-6.774450919949366,-8.124895944338345,-1.259960884065796,2.3895542409107007,0.35547532955902383
37.0,-12.983311269242618,-2.1803054321349187,10.803005837107513,7.541968516336972,-11.941633889982239,4.316383550046588,5.059444838602696,8.8282140218653,8.544545846902716,5.692877921693069,4.710646900926059,5.843193700526497
38.0,-15.876344140205543,3.6215247325333597,19.497868872738604,6.167969503229898,-17.649975492807975,11.560300133421261,12.664234889617548,20.304666714431185,15.265935808470763,12.781694292253407,6.785747610722204,8.010487747844786
39.0,8.340705302042855,10.539438647868383,2.1987333458252127,-9.477150538980595,3.0318093754912656,6.369405196263312,9.10604850797096,12.933368438533655,16.08862070238525,6.2412157837496505,0.7897835881686546,-1.5478891036193927
40.0,13.161922212910582,11.010282443625876,-2.1516397692849303,-12.044770641323082,7.694299020436691,4.4337799582856645,2.979592149397978,5.135278539169359,8.709010337654396,2.107053273334622,0.6104128835632523,-2.6829186267077905
41.0,11.588644362663434,1.3530261319316057,-10.235618230731875,-6.510277568072263,10.865482805349986,-4.428720138650755,-4.447133804970513,-12.838994180444395,-9.617189512116703,-6.519796735759716,-6.097850617180367,-6.146902219265662
42.0,7.467761061678187,-7.489099941241106,-14.956861002919144,-0.03181955497210742,11.237608036221733,-11.278222078109513,-16.954969998595846,-18.7735158581969,-22.04547342987408,-12.411735338451837,-6.7743200661189364,-2.9684586949625666
43.0,-14.023756403917675,-14.631571618955437,-0.607815215037478,14.361192186900618,-6.688660378492765,-7.5842101528133545,-8.302553477183078,-7.9790435108681965,-15.174102063170448,-9.395827487667361,-4.183497179464546,3.960362965427545
44.0,-22.27617437833352,-10.167298574120823,12.108875804212946,16.254212723807523,-17.17656630556338,1.0171008979419085,2.7467197125690523,0.6028371646408903,-1.1320081010178997,-1.1754375060242284,1.9150364924747443,0.17916692064260897
45.0,-14.934880684034336,-7.026149695850756,7.908730988183603,11.014249052381917,-11.484318227912976,0.4162775649662682,13.706488600167663,9.650235989019242,12.840707611539264,5.638790516651963,2.6035014387701936,-0.14867056176219173
46.0,-0.8977054310181658,4.37476678379621,5.272472214814298,-1.7805253679884943,-3.0649381708314385,4.8008527565570045,10.842863191284899,6.387782156614982,13.186464933514827,4.311109318716739,1.932069433580374,-2.003834432244789
47.0,14.62350973076402,13.984068746122691,-0.6394409846413996,-14.342555963587772,7.658234252216603,6.645968144980256,0.9697299483627813,4.544643643936279,6.099811183626073,9.766925375484117,5.108351973617749,1.755650978156552
48.0,20.179399494118023,13.94287834129396,-6.236521152824139,-17.019651986336747,13.242368820825622,3.8970690412757674,-5.283821306791799,-1.0249163153490732,-2.23323982472001,0.10009208640917944,0.9262736967071432,2.2913398165580086
49.0,5.176861910108725,-1.5567624756399354,-6.733624385748776,-1.770305693584664,5.917679776152202,-4.191176118700919,-3.2618581322467826,-2.1461679110980487,-2.325664588624247,-0.7133087729551937,-0.5181087965310199,0.9025481260198296
50.0,-3.5575416930252457,-4.703489561472429,-1.145947868447318,4.086082205526239,-1.2389771581904752,-2.90256464644964,-7.031748779699923,-1.4017084262008628,-4.763211233789688,-1.0684434637140274,-2.6932656108929045,0.7199714882166286
51.0,-1.4620186298144833,-2.0597020525865997,-0.5976834227722092,1.7083794465066422,-0.4639338469936978,-1.3136799330016213,-5.936989640181995,-0.10403032509633237,-3.6201544927741205,-2.0803009005959168,-0.036013844809378526,-1.5271792096263432
52.0,-4.037410460978313,-0.9437524640749544,3.0936579969032554,2.508705059749121,-3.5196317264106334,1.0881962965697236,0.20692931945294912,-1.4589696827227714,-1.2206786779358856,-6.012980863158265,-0.9871898569060702,0.7151631435846759
53.0,-5.160620851059215,-4.0306083049330965,1.130012546126089,4.608770379010713,-3.1019329468071373,-1.433127130898358,8.803305935828808,0.7527663475250965,2.791893303038063,-0.6480370252042729,-2.7231335396218626,-4.055633529008114
54.0,0.9837970663055176,-6.221670622379805,-7.205467688685269,2.633070574760038,4.056247694643349,-6.766709316826157,6.5322657593755835,-2.6454528422430235,5.259474827886733,-0.02801876493184574,-2.384272265507109,-3.894808121865811
55.0,2.8110905975784886,-0.8421100826808692,-3.6532006802592143,-0.9624881493354276,3.269353522088542,-2.2112224940942786,0.10512715559578822,-2.5641510443786735,-0.8060351212061061,-0.652972057310209,-1.5163988474105223,-2.036030062854816
56.0,-2.147555484508109,6.21187441074295,8.35942989525119,-1.9969944157858517,-5.298501182890306,7.254232436366374,-6.131288386561894,0.9469170754032015,-4.404770353449747,4.2107435828404025,3.854129959948845,3.7363361615497976
57.0,-5.068463044564435,5.298995017687771,10.367458062252258,-0.14421790751955088,-7.688257526826846,7.810907908224868,-3.0085684744519323,3.804643315125859,-6.461601232238277,3.54365776375047,6.945629041592637,9.048616187895258
58.0,-5.034893680016733,2.036920110305047,7.071813790321727,1.4813885716033601,-6.10686928304367,4.6169635353276535,0.02208006134253182,5.326462357445735,0.8795773836849066,3.2240880169483237,3.9193437619553566,4.493090593890144
59.0,-1.732734709147435,-2.6906839784193712,-0.9579492692720326,2.198300697996712,-0.36626905100991203,-1.8376592903839728,3.7559317105138517,-0.6789137318324245,7.130305713011796,-2.9951778817407395,-2.3660204141935344,-1.8684447102627488
60.0,9.27446717534891,-0.63281413988482,-9.90728131523385,-4.3387072104219815,9.609516466542047,-5.2837795921096635,1.9407301000605317,-3.5532437632383727,3.0460176601925326,-3.796831140415195,-7.108309591069013,-7.64251356636753
61.0,9.530080895570869,-3.6626005144419813,-13.192681410012971,-2.9632555106356344,11.380452168042527,-8.444391966434338,0.0533500900839714,-5.021063954730205,0.40381303140426805,-1.808777910891743,-4.297450649591347,-4.162746682456062
62.0,1.8062254477673223,-1.1585607602378165,-2.9647862080052567,-0.28946154060614426,2.3299198370328424,-2.083277105968528,-1.6486581116655032,-1.1666128749918538,0.3969806529162732,-1.3474908835572956,-0.40647080602280594,-2.0652100095958206
63.0,-1.4242627923608897,-0.5945196534041045,0.8297431389567229,1.0305374515701562,-1.0962222190858868,0.1688067550797685,-3.1593599010292572,1.981154987431447,-4.122436376150683,1.392252438085639,3.285421100317168,0.30885243171161025
64.0,-5.276642803709947,2.9812523591555116,8.257895162865477,1.1612559741583477,-6.726472218146714,5.664092358080637,-1.0274783718173737,4.759119356920799,-3.783545849608927,3.010079462844162,2.716084633104995,4.374150043508908
65.0,-6.142108282691501,2.1244565759166916,8.26656485860833,2.022215327963155,-7.231762674099576,5.15382949511928,0.8020988353877354,1.798507618228883,-0.4286779189610086,0.03946533348969883,1.424736844124447,3.513922909098669
66.0,-2.982579162795748,0.35930040687190745,3.3418795696678743,1.3314413378076306,-3.1807618615368547,1.800536051762979,3.870887922597938,0.7040069709066636,5.107759654530452,1.7603637062589503,5.217640856593784,2.6826463981723117
67.0,2.5955120485129477,-0.01134266563823344,-2.606854714151004,-1.3408065833472036,2.5881442589658183,-1.2894410808902155,0.33782266973091546,-2.499173144371028,1.6868195032196591,0.06135022726853878,-3.8589374204611935,-0.17376374652544624
68.0,1.9880591049772958,-2.0029475637257255,-3.9910066687029615,-0.030625284638455152,2.9776727502899663,-2.9860669227796275,0.017555216347402203,-5.642889320098887,-2.2196435293568717,-4.257230271644135,-4.93115406165983,-4.686309099171932
69.0,1.7094912446011146,-1.9370942359885657,-3.646585480589788,0.1628929737530706,2.741837832092883,-2.787886409838153,-1.6027420830228816,0.30210710305607824,-3.1117809901133455,-0.8203105240525848,-3.242387778476641,-1.5185941189477217
70.0,4.665557196088127,0.6878129817776717,-3.977744214310646,-2.701323620277204,4.300132437845493,-1.6446337193988794,-0.8148984733880962,1.3350475097831664,1.1535454259329856,1.2137379941829285,1.5716687994463618,-1.069990906429364
71.0,-0.49449945550612684,1.3402848288349123,1.8347842843408637,-0.4454838105029567,-1.1949686206032153,1.5886204477350045,0.48354528270330865,4.014158528824259,3.3176890698874524,3.555148968672327,4.444876668790911,2.5184399738413408
72.0,-2.2041218895442265,2.9095213407601728,5.113643230304282,-0.2960411483644459,-3.620054980313138,4.017971670319962,-2.5247447091686483,1.6734234830961618,-1.3335031943940767,0.6567566274203744,2.3639277965033205,0.3578275993327765
73.0,-1.1666242394282467,-1.9321048203484905,-0.765480580920264,1.5278022129652598,-0.2493765332249187,-1.333318318571628,0.02965335371665867,-1.703096606102891,-2.3966663249298494,-3.9170051690435947,-0.8305976841059692,0.9142450440014469
74.0,-5.034719134849201,-2.689443333205834,2.345275801643457,3.8420139846708397,-3.6668816693203854,-0.22401221530518012,2.2355672901861947,-2.5304974689405597,0.2701796060884244,-2.6886568199692418,-1.882880648838594,-1.3790759486656277
75.0,1.4390857804218862,-1.6002851193701106,-3.0393708997918574,0.14159637468566966,2.258482546237047,-2.2813217663294556,3.2697658972541195,-2.344173841271537,3.7784446040153155,3.2852014157459175,-2.831964559596601,-1.4356015688396677
76.0,3.953335883470254,2.2479130724734793,-1.7054228109966356,-3.1164134735951174,2.848019884593647,0.24105321339356567,-0.3695083585714427,-1.347294746207128,-1.1038643175359328,1.242034848848499,-0.5829504611515544,1.333924132701588
77.0,-2.2044515199353887,0.5805420888440951,2.784993608779558,0.7961486949898204,-2.5525700381016794,1.7380269452398696,-1.622119455897891,2.8130514567711904,-1.2779398322225766,-0.08479096750800552,3.03088329924955,1.4286607623761691
78.0,3.163039517308728,3.597915179238288,0.43487566192955796,-3.399529457608812,1.389307158211546,1.9950562615509129,-1.22528186181734,5.862551886898748,-2.240126099325175,1.012876948896776,1.7155247862935643,0.8054440885276042
79.0,-1.244007549516104,-1.0000934374932955,0.24391411202277477,1.0964053492122476,-0.7132908617896103,-0.40223059114361304,-0.21870111660560676,3.508289511475356,2.6583165643852182,-0.9167893134998925,0.7756476581019404,1.6679513628200473
80.0,-0.9451520644042358,0.055588540468303305,1.0007406048725298,0.4892069228893008,-1.015254525700673,0.496855901646234,-2.5502881738578567,-3.593816613421365,0.10042550286085883,-0.4746847074323364,-1.9223149017116126,-5.595910102204289
81.0,-0.4957725921234849,-4.242983814847656,-3.7472112227241907,2.3265203212400762,1.5889680634074157,-3.9576705635079277,1.4825875219883813,-5.413807961520723,1.3862630464656611,-1.5042075498829224,-1.882225760192381,0.18462042080506058
82.0,1.5886154410349826,-0.8938193437792552,-2.4824347848142936,-0.31756523556975824,2.0824815658853364,-1.6614973298061468,1.9697124289753345,-3.937530919110846,-1.6579008387726795,0.4399218296923557,0.42296896294175146,-0.3362383123593021
83.0,3.758653316207724,1.8137996611124874,-1.9448536550953315,-2.7585068203193943,2.9026031856509857,-0.04840323292754678,1.302410910700586,-2.6732081234290312,-1.7046295256304254,-1.2707386251638124,-1.5219828352178852,2.1221558242285212
84.0,-1.7961222400708454,2.969670832065639,4.765793072136392,-0.5571773885465876,-3.306729012808864,3.799576824466123,-1.6255445050077146,3.2135242431122286,0.292350345984671,0.19955217317902404,0.34300450290454443,1.327855350994559
85.0,-5.441581683694253,-0.4423334467517881,4.999248236942434,2.897379502015289,-5.2465822554577315,2.2866298534140146,1.0110522656924688,6.703237127871063,-0.3569336213368238,2.2547699787963413,2.9312738501075857,0.6900885720384156
86.0,-3.6816023761887715,-1.7786952298126062,1.9029071463762341,2.6909258936087137,-2.821693425526173,0.07244473612191249,0.16481515114670098,4.914944690009019,2.0510033626644084,2.2628645475239164,1.7209158328406184,0.3222985980634341
87.0,0.48638219275910344,-1.9460075423255807,-2.4323897350845676,0.7738620693082577,1.503038226645419,-2.1724328178414174,-1.212201963653893,-0.723448539048289,1.985656941876464,1.9483134886124285,0.8123860032799393,-2.474602089572869
88.0,5.469784610457051,0.9529953332090012,-4.516789277247944,-3.243074166600277,4.951509829828552,-1.7557321707423759,-2.137915713399879,-4.149211619742199,-2.069171236431398,-4.0712411402561575,-3.1112509035096396,-2.793063548786142
89.0,5.235674013591561,0.7050892335473268,-4.530584780044198,-3.0002443965146366,4.914238355928221,-1.9551030849952145,1.1473298064260287,-5.232246825259596,0.8957989007515719,-6.0115565340354795,-3.8764414384322645,1.176067729488696
90.0,1.948781135466061,2.157625890687666,0.2088447552215582,-2.0028947226675617,0.8976814546059271,1.2282103764861123,0.5164689129019142,-1.0924315727452116,-2.405165152037794,1.7551787482675296,-0.7395951222567516,0.5481012747185452
91.0,-1.4144115816417142,1.6724693438711018,3.0868809255126597,-0.07713514726841009,-2.3017225161216897,2.350817304360043,-0.1564883023892819,1.0956062103895066,-0.6886212899239746,3.996500254178395,4.439093186428206,2.4522127370257736
92.0,-6.576093339801656,-2.129540117807096,4.446553221994408,4.327565416965072,-5.480487451493477,1.1301344900992067,0.13087029569818537,2.5259806402434895,1.4407577218832945,1.566427613782997,1.3083376416215091,1.4602073793560089
93.0,-3.19280164046044,-1.1961691832080197,1.9966324572523342,2.170102610630769,-2.5586026296247635,0.368759157482642,2.286511558901084,3.5335109876092887,0.020659919006294714,0.4603121098109757,1.6660093904876252,0.5127802106148078
94.0,-0.17360450001734407,0.8010380475512959,0.9746425475686764,-0.33875270694027027,-0.6109280095969982,0.9305818552092711,-0.9366409972609447,-0.7750264524480723,1.157883521970955,-1.6122517543155048,-3.1055276761188946,-3.8482668562307847
95.0,3.198622357523385,-1.838341268836359,-5.03696362635963,-0.7075500409753404,4.085950621084777,-3.3983568003012885,-0.04600771452413882,-1.8604158621138214,1.6373335075921496,0.22285355027759035,-0.9226364999497452,0.3323067500839423
96.0,0.33869024033358786,-2.4797553669391976,-2.818445607272626,1.1183478588595819,1.5500376848684865,-2.689144660454926,-1.84390160255458,-1.248800216219248,-3.043686740858666,-1.949900957250908,-0.38359457080562387,-1.7105002524273045
97.0,4.141805492104887,0.638389349643302,-3.5034161424615027,-2.3459628364362017,3.87444009759065,-1.3913219416014615,-0.5531990106959098,-2.654712300001481,-0.2265661204968038,-3.278139821570955,-0.01827868593199866,0.7081388547535736
98.0,-0.096343857335222,4.7762874084225375,4.8726312657578115,-2.377546415693077,-2.4324128581163413,4.79104441468785,1.9079153313243,2.5157402902353785,-0.3858071976746006,2.9981547556565618,1.9656956120714646,0.7116195824462987
99.0,-3.2635089633719585,-0.4231182808636571,2.8403906825082927,1.803893462877331,-3.07943864123785,1.25733972237082,0.8332803707651323,4.930555724739186,1.3137444122322672,2.8362929769389136,1.3880087844812408,3.107923160850677
100.0,-1.745815210024838,1.62037963480377,3.3661948448285965,0.10117310337392121,-2.585221325119753,2.4634776637636673,-0.7068853961823051,0.037887997305583676,0.28481235675304306,1.0404544732380436,-1.817150903975406,-2.5958960802671296
101.0,0.22908135153601927,-2.466194835211514,-2.6952761867475865,1.156593158561315,1.4305187149380416,-2.6145530983878675,-0.9940579529599639,-1.7819224150591688,-0.6421002973751377,1.0896557626097425,0.3539797637445362,1.0879716663703305
102.0,3.0617659464531597,-2.5877870434777908,-5.649552989931044,-0.2782911050245612,4.40007507963246,-4.159866327081073,0.6550364402697455,-2.9796364055643974,2.159939874561746,-5.537678649477969,-2.151908990313104,0.24947327875881112
103.0,1.0969927132495982,1.1738463128317496,0.0768535995820554,-1.1779068760110918,0.47354714916751695,0.6549065789532866,-3.212301174255151,-4.077289327489644,-1.0543627561211886,-1.1869138230050729,-1.3795984436441497,-3.3090654586823516
104.0,-0.8026775220559369,1.2957647170710942,2.098442239126989,-0.212068858137918,-1.4094363649407144,1.7216262247530463,2.177734977369078,2.2116349566380107,-2.5181098283050205,1.476927717054112,0.24721112563258074,0.22813334184437561
105.0,-0.11719217990371156,0.8108158970828263,0.9280080769865655,-0.3143116079567146,-0.4813759228037968,0.8947169568043192,1.6420832670844179,1.807312303118774,-0.8836126758565378,1.0501284397341415,3.089528542775407,1.9229765900811024
106.0,-4.1705324795538905,-1.4651193217095566,2.705413157844415,2.7700164092497013,-3.474596087290517,0.6528714988776385,0.5532276469500363,3.4156648743970477,2.7040400258198716,1.3657394873131632,2.985643151384712,3.3795629501798077
107.0,-1.4373877871959069,2.4874466437099856,3.924834430905973,-0.49472911267217,-2.716612889544244,3.172560995216346,1.674844433304084,0.14076943647719897,0.6386675432199882,1.524410721652861,1.1597987866875665,-1.0406428526338252
108.0,1.2563650965536701,-2.9922609849963084,-4.248626081549913,0.8987916240828404,2.7180434431974643,-3.639937972006756,-1.1020366185593404,-0.9747790547611057,1.5005939721505,-1.133514191475423,-2.4887848684063894,-1.6582811453116229
109.0,3.217801669740068,-0.9964948020594576,-4.214296471799502,-1.1567660328574318,3.761512682293495,-2.612998685333345,-3.1570461421729745,-1.0058091491175012,-0.6673236336787902,-1.8770921694964908,-4.225796664938433,-3.3489792804816574
110.0,4.11945468552661,-1.119469734760179,-5.2389244202867635,-1.5430599557407336,4.726325021771459,-3.1800225896525083,-2.4574261537968205,-3.12532636013733,-3.6640888099007225,-0.6771826506290453,-1.7165523705038752,-0.3123366923500386
111.0,0.32994404239831243,2.865307513559589,2.5353634711612747,-1.5576813805035263,-1.1320507846032144,2.700020057200706,1.256363776654543,-0.7605680562495698,-0.09735587162070325,-0.7643225002949703,0.35802235013734973,0.5952505100889558
112.0,-3.072871637629776,2.0663551815823546,5.139226819212107,0.5484264186295207,-4.133006368245163,3.597464086489085,2.3397429623401003,2.874462736362016,1.8369576993643086,1.917470190080802,2.8574583433899394,3.25004232734685
113.0,-2.57831816228059,-0.1823547406700341,2.3959634216105434,1.352196702756825,-2.4338017536599024,1.0930829105507136,2.552289307636049,1.831528827888754,0.5463107538593946,1.1932411184746232,2.454898916359496,1.6886446255546144
114.0,-2.2553945657987646,-0.47448490620291506,1.7809096595957916,1.3411654946441014,-2.0438097161106628,0.7091132614299758,-2.091540582863348,2.669941128574547,-0.2474063370025018,-0.01306051826461685,-0.4659689599351069,0.6750837301246901
115.0,-2.188749237407115,-1.7736135979996352,0.41513563940741005,2.037912772103069,-1.3300927556263096,-0.7096863843314359,2.1112068735353464,-3.264032750119971,1.7032047610926662,-1.2040052676419077,-0.17309900200011935,-3.3574002500323354
116.0,1.641430426712608,-3.2999375560433744,-4.941367982756077,0.8052113304713353,3.2588473511331912,-4.0771156324180735,-1.7806644663491698,-1.6780469191380105,1.2008969990614597,-0.5334149566965554,0.3675342107324047,0.2744178540916278
117.0,5.424342332092055,2.324315648595909,-3.1000266834962007,-3.9043358423589423,4.3030673147889615,-0.42471990913398416,-2.3938080249032954,-1.1032183270260438,-2.5374042579673475,0.7951117590050074,-3.395060660370502,-1.6889616827127782
118.0,4.468003881162077,2.7631399874763884,-1.704863893685712,-3.654269423181436,3.1222178504816265,0.49335176542501924,-0.6223849749453045,-0.09336741294994533,-3.3031915531563385,-0.8255755067893078,-0.3806835689818282,-0.7162197611109433
119.0,-2.147364159008972,-0.3523397161736357,1.7950244428353874,1.280886857487158,-1.9395947571384962,0.767536933327533,1.735509526262209,0.4837250875989594,-0.46124456408685566,-0.05028715369243486,1.2005939811229063,1.0841779801728175
120.0,-1.7667449975655796,1.1657242805271542,2.9324692780928108,0.32496943256010963,-2.399945776573016,2.0214312527316114,1.02062280722536,2.441278268204027,3.0843656193324156,2.7901600072146073,2.2287262947837228,2.910670708991763
121.0,-5.052907259700027,-0.7459510071857937,4.306956252514327,2.921789159834699,-4.732681971712003,1.7589298198041874,0.5029400022481484,0.4591441369019602,0.9886404656616283,0.4588910463263093,2.783820002697709,0.3533753892074545
122.0,-1.6070801452247916,-2.148199726375315,-0.5411195811504663,1.9028688492783201,-0.5086554418893914,-1.2808696997716587,1.385739365992332,2.0717348652767376,1.193275513729596,-1.9286216711546378,-0.7887342953693799,-0.2849729000799941
123.0,-0.5617449793058805,-1.2119879016367328,-0.6502429223308596,0.8400473816553202,0.06796719341713853,-0.9400897726409099,-2.224029695300579,-0.9558011498803395,0.059250651719559566,-2.7671847475369042,-4.925567371947179,-1.0258224920881196
124.0,2.5830782818215994,0.07741154703267117,-2.5056667347889623,-1.3686612271852843,2.5690157674048115,-1.2193090866928433,-0.4436198535997803,-3.2467109455678216,0.33922105752208515,-1.422852702251936,-1.284663617033602,-3.359504939836499
125.0,4.3972757258678525,-0.16761292708030107,-4.564888652948202,-2.066614437408722,4.429600613285472,-2.371377562973742,-0.6531607133331572,-1.630719671463958,-4.038653300965233,2.207127144845633,-2.0777434709793554,-1.1426290709329694
126.0,4.255915914530173,1.861756609607312,-2.3941593049229155,-3.083622352623446,3.3562288165497485,-0.275857196248253,-1.0231409714909334,-1.56012099121221,0.7639113270250146,1.625590502045616,3.9671810019816185,2.833047033844025
127.0,-0.5828002892645301,2.3568567448121653,2.939657034076636,-0.908992620734898,-1.7257531211022525,2.6299053367512784,1.5866943864076712,2.223916347110416,-0.44919675287429267,1.431693662173217,1.3867748168928578,2.122394700429498
128.0,-5.4439357601389755,0.7035615611686545,6.147497321307559,2.426730859036989,-5.835486483555608,3.3960878158785155,0.07732286492140328,2.113831405306484,-1.8398349231471314,0.39840171786118606,4.379439512998867,0.56651559503002
129.0,-4.214752271033688,-1.6204452803882545,2.5943069906453857,2.892263603134686,-3.4424451940045167,0.5253554665166924,1.3085114111831837,2.229664005567853,3.5548991949254916,0.4454670258170449,-1.8734364231452498,2.0190462072782807
130.0,-0.5329584647603594,-3.1994779247727054,-2.666519460012264,1.9138896272031316,1.107600351927617,-2.9027893883527596,1.8108733253044487,-0.4208124562400992,2.1645036675104476,-1.9609581321311507,-2.7721920411879855,-2.8542863479785336
131.0,2.6668543350291456,0.06755591185578558,-2.5992984231732272,-1.4062062943341538,2.593734934189931,-1.2398249816186697,-1.967518477935781,-1.7899764853083673,0.9381748270706189,-2.480172281087963,-1.1563216516625574,-2.947294206069048
132.0,-0.20983760484750658,1.4713810109765952,1.6812186158242794,-0.6789981163716454,-0.908115637950992,1.523376938225801,-0.06778060791487528,0.7558157343876437,-2.26335930985501,0.009253963818630417,0.27812145112728137,-0.014760269292771744
133.0,4.822733723481663,-1.0636255387705758,-5.886359262252161,-1.8580511849794823,5.3900069467597875,-3.4467373241491277,-2.6621427463268925,-1.3929583995063757,-2.3898937273482534,1.08928801918957,-1.7380540822815271,0.04127590808300802
134.0,2.2290627054984347,3.818919760672648,1.5898570551741553,-3.0093624133074623,0.27449841199827896,2.657269271182428,-1.108019717646533,-1.5352844754844541,-0.8307846513131283,1.025932718998492,2.3589144792653247,1.971936382188082
135.0,-2.5451023406986897,-1.3292161294330074,1.2158862112655466,1.9488476016924012,-1.8489277346739996,-0.0220062804824962,2.4416090651553253,0.9820908195117273,-0.6427997453031369,0.1496606754728288,0.9218376125253597,2.0805621870375326
136.0,-5.1034049265774595,-0.7168811922196873,4.386523734357652,2.9237932009757395,-4.794993440971719,1.792958912957367,0.9813468699853465,0.6233083455877505,3.2134681810107515,0.3706959821624167,1.0604229998637642,-0.010885043663099836
137.0,-3.934759555289679,-2.7945351302382084,1.1402244250514504,3.384976296550546,-2.512500675878103,-0.7885099736002006,1.8139047583320727,0.28777155382370256,1.1567216435682526,0.25248000010233884,0.4271003635802927,-2.642406656368455
138.0,4.345015259599821,1.8078288558767206,-2.537186403723065,-3.1246108781530455,3.4620428624606054,-0.4028700093704976,1.162130566505415,0.08447390549763312,1.3932036956244818,-2.1744761060468445,-2.698544712972085,0.726135198258069
139.0,7.658935929467631,3.108655935526465,-4.550279993941082,-5.419811303266298,6.043632216640989,-0.6778882452661057,-3.0611950472661444,0.5964662341992769,-2.0625335254414097,1.1354851772322971,-2.77794331742719,-2.2532712183947003
140.0,-0.2881628902279867,-3.669895861109432,-3.3817329708813455,2.034334977645828,1.5637188336877044,-3.4805469180530135,-3.6517080026154662,-1.4026841607748397,-3.5327683566252883,-0.8923217810752109,1.018865608081165,0.965654948015039
141.0,-3.607403987801348,-0.00746274788110346,3.599941239920322,1.7956965692787759,-3.5842002902276064,1.7638876835725787,-0.3017991772407025,-0.5233499215544681,0.17832718730170716,1.0832085450591604,1.6352069466243528,0.07345129153253982
142.0,-2.7361655445865956,1.7206450271121065,4.456810571698708,0.5057980294224342,-3.571089061219019,3.0549801223076614,3.544645077229485,1.6422331042280214,1.7563286917114427,0.7615410320978097,3.455109333750182,2.815875806737784
143.0,-3.485212606433934,1.5482426252587724,5.0334552316926375,0.9733054164815133,-4.225946430238059,3.252570147294226,2.540749034751058,1.8807202071281133,2.7195118980697695,2.6871491260670863,0.8582778400825326,1.4228851479054505
144.0,0.15224056917649587,-1.3116425802354819,-1.4638831494120907,0.587209760386165,0.7704486364355125,-1.3543248991482768,0.10486418397895325,-1.4721326308316338,-1.1135170571039437,-3.374916519808811,-1.434808775608743,-2.176426879017377
145.0,0.253318501409668,-3.419582913937683,-3.6729014153474546,1.588252696708664,1.9306935161556311,-3.5205726808974886,-0.8737363252047473,-1.72520066859705,-0.7499536881155222,-1.5883264286542778,-1.9870486937448497,-1.1821254982579479
146.0,6.005861167950936,-0.25438465748859085,-6.2602458254395765,-2.878587552114734,6.10204511225024,-3.237897481552384,-1.1365724408477504,-0.4931116554829639,-0.007777014821455874,-1.508024930200582,-5.235211076260958,-1.1813741716450494
147.0,5.302283683673531,3.857678158587131,-1.444605525086411,-4.595986021885645,3.419243607794815,1.1444100026277064,-2.150455194946772,-0.43855625084837496,-0.6894399471161361,1.2867306861068235,0.44031758133123144,-0.7348047304455843
148.0,0.3009134772192388,1.3995327025991426,1.098619225379953,-0.8830056190630928,-0.43522161226426825,1.2673776697123371,-1.4929503757337077,1.321600954581737,-0.8281777731646307,0.4011178131913935,3.137567739370846,-0.2079777108968167
149.0,-3.806721846251313,0.4100570750351803,4.216778921286541,1.7265217765997827,-3.97187412127339,2.3376259185522983,-0.8954631931655926,0.25454333851512956,0.5953977571083093,2.4699174061661493,3.3898212104788192,1.4738688331001826
150.0,-5.205899080400988,-0.04320695527612624,5.16269212512489,2.6370763560778516,-5.144226409403073,2.592555778926313,5.027450369502889,1.0595968644935447,0.9719526724719588,1.2464192312339128,2.240697103061348,2.8054085488081344
151.0,-8.105398510685337,-4.12137355918894,3.9840249514963393,6.115120936690539,-6.080083212637683,-0.10577362649884336,3.486236734681369,1.269921292123682,3.037141003960136,0.5700340835956597,0.5683469401809454,2.634191521722308
152.0,-0.16579771237242857,-3.560284476766845,-3.394486764394577,1.860508840224772,1.5843427691289191,-3.5080944754713665,-1.1061803686155813,1.3598056718541396,-2.7571113829761127,-3.549255823622392,-5.9065738929657225,-3.9361434259843775
153.0,8.140867422235988,0.9104664225716399,-7.230400999664593,-4.525846133601531,7.73978519123986,-3.1099868768030827,-3.8218815271476774,-3.534802268524502,-1.8300070855471244,0.1493302170016979,-0.8384673322288991,-2.1775259588165383
154.0,7.3554491903105745,4.054853603120771,-3.3005955871899664,-5.69776465566453,5.306686961967493,0.3452132231342746,-3.2483878006398514,-4.1645216975166415,-0.010464470478281473,-1.2673047771877632,-0.8604309373850005,-0.019613299877214274
155.0,0.5848523298888866,1.1961481473778512,0.6112958174889598,-0.8727958921395009,-0.03492186965551136,0.8645339732600315,2.6809108695638115,1.9331675740522747,0.7317360893059378,-2.035988473591867,0.5247847343030355,0.8395370412277745
156.0,0.09069769064945954,2.275406464033716,2.184708773384402,-1.233818679026883,-1.0729435017042201,2.260431724028377,0.9783527263850755,1.9129051901032539,-0.09559578035982419,4.187347898217352,0.616841164913945,0.07284781814107422
157.0,-3.6334728754148666,0.6285417509680368,4.262014626383115,1.5383573700281137,-3.9019559717447763,2.4672031684379006,1.8761299409375278,0.9370517890359158,1.1266190056199126,3.025158336569384,4.597472894206688,1.5408590116132643
158.0,-3.9650043468374196,-2.6963335696909856,1.268670777146626,3.292078054015816,-2.6576424747719845,-0.6974742739433564,0.2240937633126152,1.2912463098803715,0.26912678206753693,-1.2896280718724642,0.40741883439384585,-0.131240942187408
159.0,-2.758111879555743,-2.744826986548494,0.013284893007378118,2.7922792950932243,-1.354375581111019,-1.351141517970418,-3.0975347568651364,-1.938909121433427,-0.08562454353169507,-4.046087058204376,-1.7500337210931485,-0.36974715670249647
160.0,-1.972659831662625,-2.8060705863026394,-0.8334107546400327,2.349598018077705,-0.5423976567413622,-1.8820693280241392,-0.231969152199488,0.527233479754366,0.06084602126253369,-0.8440008934242351,-3.0827824667747,-0.8938277395018883
161.0,2.804041249582492,-0.3205002582116563,-3.1245415077943104,-1.2053459357471152,2.990108466981544,-1.7019646430075257,-0.2943576975313108,-1.0501154373863875,-0.43917759921345234,0.5837641931508891,-1.50094352183452,-0.4351592997163395
162.0,4.9102940843009195,4.288409499228082,-0.6218845850730512,-4.64328663559812,2.713626272668611,1.8588893803952853,0.8337201938114003,0.8355933403438985,-1.8012860576754361,0.49347766708809904,1.9733502285562403,0.04914722220849799
163.0,2.3336471468528184,5.4961944147993975,3.1625472679463913,-3.879812410598521,-0.465700504353342,4.281119974573854,0.44426008152000473,0.11822635015432786,1.9146591906568895,5.030583970962142,2.743499515443278,1.1339200081311525
164.0,-0.864249149791787,-2.1924375285474036,-1.3281883787557152,1.5654400096083223,0.2606071124156769,-1.7257690661629983,1.5446541969412704,0.8360115802713978,-0.9662998853117756,0.5288867466142018,-0.9216644012470381,1.752961142509323
165.0,-1.5363130878032794,-1.5781200178166561,-0.04180693001334547,1.517880619096256,-0.7178054502508612,-0.8511215119825009,0.38420563233152616,-0.14471725101843802,1.3707631446571948,-2.0452245832859965,-0.5033219152431172,-2.544380130765245
166.0,-2.305504668891204,-3.602138632546426,-1.2966339636550923,2.9939037717270676,-0.47439340344409564,-2.40969580574696,-1.8767447984331616,-3.011682351484138,-0.5085154278047328,-3.7056861810032364,1.031553609176817,-0.3700368800727992
167.0,-3.1582389937189337,-2.1049570925013716,1.0532819012176855,2.590304612512532,-2.1539308443697074,-0.48500775825560827,2.1518332105911493,0.36182866702380323,0.6611545212808481,-2.071981335569826,-1.937629514255252,2.2935860660993845
168.0,1.1064899730163258,0.01179964957286228,-1.0946903234434036,-0.6067269153931223,1.1317410518238786,-0.5793406476812291,-1.229983223424009,0.5636957282483103,-2.9772230897973957,2.3852491467457,-2.5580589835336127,-1.8127203810934618
169.0,3.368537183794929,3.7647009311447768,0.396163747349847,-3.5440595401625026,1.4393262667583517,2.041337548434735,-1.9972089000628688,0.1939715288979107,1.0242994635708966,0.18426627778850557,1.7865980044497969,0.2216339088203355
170.0,0.5003723508154374,1.8260667478342332,1.3256943970188266,-1.1488971331903515,-0.37956087472798383,1.6133623031714945,-0.8361603058662349,2.2927999137335338,0.5138104715268734,2.211731114260025,2.3502269909354445,-0.08201601218434333
171.0,-0.23549740709869038,3.616494362788514,3.851991769887252,-1.6810604369188509,-2.0873022239556556,3.690571089939471,0.31290137596673595,0.04347068268156418,2.8215292160456484,1.6830295236626462,0.8741714034817456,-0.29084199615899364
172.0,1.4777493192023936,-1.8828659863845172,-3.3606153055868093,0.21247834588850656,2.4575715483410585,-2.588287648689975,1.834275522762003,0.22003581775723474,-1.782262151622638,-0.5472396578998793,0.5936720386523533,0.9753047780913069
173.0,-0.9344594410334196,-3.358222920032337,-2.423763478998894,2.1622855725539254,0.7870319356859428,-2.857601479316715,1.4795352257577155,-2.14599692640075,1.67881635091965,-2.752682397010964,-1.2927806861502091,1.36890972245873
174.0,-0.3588568768992706,-0.7084339611309494,-0.3495770842317494,0.5594045662347022,-0.03719749099280262,-0.5727568557126623,0.12350307465002386,-1.1923971898173384,-1.550694355723936,-1.3491955766950492,-2.533520435188403,-1.5586847330606612
175.0,-2.020520277854784,0.6285444543843988,2.649064732239032,0.6536487870748571,-2.3650724875259317,1.6763482386314659,-0.7968881548140125,1.7104222682960428,-1.4000978766697885,0.9573443154420278,-0.010040083262212951,-0.11557563557190698
176.0,-0.7114160115016679,-2.664082511212513,-1.9526664997110021,1.6539536305734932,0.6686999015145848,-2.3474301271681277,-1.809014138825824,-0.596801470046568,-2.9423066586331657,1.6454200872038962,-0.7318933638542726,-3.8809062971447004
177.0,-0.7626783950198629,-0.5892049007002106,0.17347349431952494,0.6467500119120855,-0.5021088880501063,-0.16784194441268205,-0.8262433447893227,0.3576321875255597,0.2033488000254844,0.0989474016962898,1.6072326793878422,2.6313754830113067
178.0,1.5522543109382985,4.104910025662231,2.5526557147238944,-2.7786070474383187,-0.539660461784497,3.2876232151490785,-0.07266110265231929,-0.16237013534388367,3.4269630824070796,-2.574033967334519,-0.3689671954125173,1.3252276828790386
179.0,-0.0380351716579006,0.6902852710575682,0.7283204427155264,-0.2788799597185443,-0.3494667139930485,0.741696805793324,2.5706662557124766,1.3009532111148157,2.991276088631107,3.054690171319556,3.3894013514330794,2.200221115307739
180.0,1.3866682492359637,1.0606578552021815,-0.32601039403369925,-1.2594366780455752,0.8866099286933584,0.31411433594014837,1.5867821136768747,-0.935803983865661,0.8338564165242339,0.39336794200570224,-0.7999411554185207,0.7935628360950756
181.0,1.9027366501880734,-1.282294906094862,-3.185031556282879,-0.3502949869741747,2.495854534778899,-2.2146554483774037,1.3222374523756035,1.1429476104039202,-1.7426201607089455,-1.1840162529934801,-1.2159542379674688,-3.688050020845581
182.0,0.7240589006126361,-2.0962034445363384,-2.8202623451489317,0.7214374890774979,1.8076343112947033,-2.443209769334321,-1.9102823243890148,-1.4483022230160496,-3.533800167007901,-1.7526992858025885,-0.543480474848507,-0.5865819436685233
183.0,-1.8114584961565052,-0.6951937546732438,1.1162647414832558,1.2867712354262033,-1.420592044404089,0.22579230069605427,-4.786402197861444,-2.238756213872376,-1.4461014578329772,-0.7342991661071822,-2.586821880168247,0.4685470229474553
184.0,-3.0543654636664437,1.1983863735940885,4.252751837260579,0.8819819559226673,-3.680818884783533,2.7457401168714877,-1.4723713898548352,2.90218192556151,2.177270883619732,3.585877444921034,2.5808876423827867,0.011168803117493603
185.0,0.16003833577097915,5.0056564556684275,4.845618119897539,-2.5501076813572308,-2.364459496169557,4.87571404265597,3.306143316517444,-0.6297146925786788,0.2101348358792937,-0.43584778810816127,1.6256189016853813,1.508225286328919
186.0,0.38775387746802037,-5.307122790328331,-5.694876667796227,2.4138653579942684,3.0203083704591016,-5.461787876046346,2.0718977812069963,1.212149750926117,3.2437887633699494,-1.11321086354539,-2.041400626097988,-0.785628246199219
187.0,0.5261037411110454,-0.5092836226710893,-1.0353873637820445,0.02471555849470075,0.754853008560314,-0.8021880435587163,1.1886083917868961,0.5540528847317105,-2.1883733052050043,-0.1312026764967789,1.023258347183829,-3.595403252417019
188.0,0.8558392119304395,0.6806217328326465,-0.1752174790978278,-0.8134617652696107,0.5592263055955505,0.2296800232598022,-0.16888087057346324,-1.5238697384720339,-1.0349720424281477,-0.41854871939837773,-0.00593034237357748,4.855590152599258
189.0,0.5582029619208262,-1.3087103362862376,-1.866913298207235,0.40972736407166177,1.2454536402053515,-1.5294929220860645,-0.5898012222555167,-1.2703441438590775,-1.7192895230659497,-0.16881746997545585,-0.6257791976316613,0.07094665573204817
190.0,1.7677548029408592,3.1459129629593443,1.378158160018247,-2.420683415144907,0.13952498511736122,2.239576092129083,-1.7513090983367348,-1.3832549554107265,1.1697578906038768,-0.4187284032114933,-1.3271698537744872,-1.1006115763470248
191.0,-0.9898296551528378,-0.10457234084644873,0.8852573143061728,0.5066810437196743,-0.9196270022653583,0.36187598245130637,-1.9032486361071272,3.4790941478002493,1.4941113652719533,2.0133629661823167,0.5733048426734028,-0.15880614875733334
192.0,-3.2966467312630168,-0.9901719899296856,2.3064747413332514,2.183362861285422,-2.784078325116057,0.6999722879983786,1.976139158101421,0.22297995938185822,1.8624537225849886,0.647287249982841,-0.918956300439543,-0.38691897810045334
193.0,-0.26838603726236054,-0.8452440568731276,-0.5768580196106461,0.5185540200476596,0.1762082891595078,-0.7567794151336451,1.1299247925175513,0.7785397352065193,0.5636704664719179,-0.18353934485833984,3.2576867140950756,0.908978990053621
194.0,-1.6713088348551364,-0.44881531149865744,1.2224935233566927,1.02071354622952,-1.4957745718780777,0.41299917081594845,0.38015756508536025,-0.7288443123675303,-1.4565187514331246,-1.5282134436336179,0.33019396886967756,0.15900607848515805
195.0,5.221224812712338,1.8665221966060024,-3.3547026161061924,-3.5069613869150364,4.326878365872527,-0.7209556066338496,-0.6186403106398327,-1.9577899379903,-3.042105560928866,-0.16891611674135854,0.5765011175308082,-1.4120664578669095
196.0,5.19487724831048,2.1928850749653646,-3.0019921733450796,-3.66010563115059,4.0664393033969635,-0.45832914069892133,-0.13058164149171847,-1.2941760213170141,-1.6623087029777097,-1.027503625350566,-3.112756776542522,-1.865704582702513
197.0,-6.793669110711361,-2.9427518905210763,3.8509172201902255,4.820337874503641,-5.3494005618338205,0.48560549378964035,-1.8898203576883672,0.2674362067112733,0.6139319702623146,0.32806295545619873,-0.6781184867224714,1.4382110329791833
198.0,-0.8420135205511572,-0.4740142779050791,0.36799924264597395,0.6868427515020852,-0.5522784432242149,-0.011606420342604042,1.4375746934237326,1.77207377052374,2.4186456097846416,0.6558364642854098,-0.4301305917842695,2.669472684836331
199.0,1.1909235581692195,-1.3897253436939456,-2.580648901863274,0.1271865299522803,1.857080491540302,-2.0116164465188406,-0.4282077032933135,2.0924510183434317,2.3616870468983593,2.70830159701804,1.2139844370619508,-1.0211833030438402
