Time(ms),I,II,III,aVR,aVL,aVF,V1,V2,V3,V4,V5,V6
-200.0,-1.8327354832865002,0.6064355341028409,2.4391710173893206,0.5952754721838716,-2.105580769044605,1.4910855882242282,-4.8699492784160645,-3.582454297811772,-9.539612827658717,-15.621619313072213,-12.641377663603045,-12.403464080637521
-199.0,7.504220973780374,20.252669021878045,12.748448048097668,-13.89456588436838,-2.5934857343176385,16.462503011803825,-11.811800306338764,-4.249585043165488,-1.4876408520838122,-0.41780741752439,-0.39475438109597416,-4.474576188143596
-198.0,5.189423327964142,18.07857766704181,12.889154339077711,-11.568403442899262,-3.819487652968616,15.51788746453045,-4.512632522289524,-0.08996497839054274,4.730905569943154,12.436002631341829,13.316040924277264,6.149931483911647
-197.0,-1.2199913829946665,-6.63846182694222,-5.418470443947463,3.9185976117818653,2.05649493318726,-6.000228024320932,4.63850398452055,0.24576123258419197,-0.8270740937592453,-1.7098972963812642,0.04454671193649862,0.44621693115590677
-196.0,-15.512320583620484,-20.22434977334988,-4.712029189729269,17.857694637156218,-5.355822933540894,-12.522550448633297,6.5940017554664685,-2.810025790932303,-9.414374601612206,-10.860800889959293,-12.141150333341095,-9.167783145192498
-195.0,0.621804395995956,-16.48750892429152,-17.109313320287388,7.918069113174635,8.839889810202763,-16.77548082583085,3.5200913814759893,6.014568048502233,10.118112914137084,5.150563991630355,4.45807293483569,2.5329526294510396
-194.0,4.461862831212736,-9.781157887537018,-14.243020718749744,2.6364026510218,9.33359354179666,-11.988593850290997,6.035684863734285,5.427788272495961,8.075693275310321,7.5542686172494165,4.500747644792052,3.268544125041317
-193.0,-0.15676208779459078,-4.648547134294525,-4.491785046499993,2.3682473360405583,2.1519523810794565,-4.545211179838091,2.789244658820219,2.0452839831861893,-1.8093605607187824,1.1883760626006414,-3.8712482853650574,-1.956893187364082
-192.0,6.512962773854926,20.55615414417443,14.043191370319441,-13.501092124095017,-3.7812384119043285,17.246750687915817,-10.655741888340831,-1.825580683114347,0.2953406931247614,1.2414666312987317,1.3009295914233954,5.468696171023689
-191.0,4.647638991321692,16.657018385222983,12.009379393901279,-10.62627679838344,-3.621833831560061,14.358156105544005,-8.140355380513466,-3.38223971309546,-7.077209576814015,-3.29323402018711,-1.8285482579505192,2.038986668018902
-190.0,-0.9064230326508391,10.966135869073796,11.872558901724675,-5.005776507932107,-6.414410943149763,11.362739128441667,-0.2892487339412533,-7.526427407063197,-4.8665568476174315,-2.6854217008043997,1.7748568583090707,4.219051421917376
-189.0,-2.7822911217340054,1.2168254752740317,3.999116597008089,0.8101864123557867,-3.342343972865987,2.6263201567600687,2.035953818934404,-3.157700279549324,2.605864657854417,-1.6693735484880259,-2.6704948383940614,-9.768482565702907
-188.0,-1.7056322249861715,-10.846776146560865,-9.141143921574647,6.231540777942879,3.6826011153682283,-9.978639295300617,2.469629665169738,5.077344949453076,1.2375593647620267,1.5675076970585358,7.4764843682169,3.275624404923539
-187.0,-3.4785519644349088,-8.864349889650951,-5.385797925216032,6.1335997884318925,0.915051048118039,-7.110339877222575,5.98527861037377,3.1152452083523148,-2.8622265027244937,-3.2149768598694726,1.9480688201995378,-4.594872160757041
-186.0,-2.149027930787306,-6.864331687231903,-4.71530375644462,4.551864947330817,1.3217835577463335,-5.7724542999700414,-2.018196961968768,2.5088431626159307,6.847452982904625,3.9488281827796126,-2.875624464651362,-1.6585338644033976
-185.0,-1.7517129835895937,-0.4867156039443721,1.2649973796451972,1.0861609368411864,-1.547593201062524,0.41184146366729024,2.1975586424218365,-0.7708489403756356,3.941329583095725,2.176205978140901,-5.456966932025614,5.181121166983064
-184.0,3.3590244722940428,-1.4139797826241456,-4.773004254918191,-1.0082689701291685,4.109080131835637,-3.1430090024256856,-2.834880927848476,-0.18542627280018087,-1.8229533026643576,-0.2277966627328487,0.36505332925239387,2.260496137157074
-183.0,5.044649304691014,1.298135504153359,-3.7465138005376164,-3.132339407377103,4.365833300349706,-1.2677494068398367,0.05389487793214087,2.450239238015257,-0.365319150467175,0.002991222084235523,2.8496665503652494,1.7443876929015847
-182.0,1.18196227801109,3.438868078622071,2.2569058006110443,-2.2742664551544984,-0.4813147943558933,2.8871841009402304,-1.2447436449296174,0.05667598188913964,-7.760657519594256,-7.138083246923267,-16.63531199589869,-12.440787427250857
-181.0,-6.075090439109523,3.720949993172497,9.796040432282092,1.13411680499705,-7.951706251536974,6.799648797960245,0.6893994790223575,-4.268423135695543,0.3726525223906276,1.940578831612088,9.425477411507345,5.4124720794681505
-180.0,1.9152674929902904,-0.9941946926568415,-2.9094621856470617,-0.4225966075019063,2.399845428326228,-1.9894221239563556,-0.3183679841847228,-4.329549559643656,-1.624435091475473,-1.518565859424557,7.087767997432449,2.1871535168310707
-179.0,6.747864377564106,3.933633367139355,-2.8142310104246984,-5.299811911886347,4.767829238441506,0.5211174376437262,-1.3046325638669427,1.7052864799673526,2.789664213012415,2.660489974623407,3.6243658064857156,-5.370715907460125
-178.0,-6.314367954198715,14.423274034490602,20.73764198868936,-4.090865988798769,-13.544351653472763,17.619539777333227,-1.2047516594608976,0.26944961845902404,8.27242475235016,12.426424071236722,11.877262946129713,16.123168579663233
-177.0,-0.03179809475265927,-5.238026765240876,-5.206228670488197,2.596327020363345,2.5608038860796247,-5.183715547384133,-1.5555145511503967,1.979168704640494,-2.3110793594757153,-2.358047158075026,-8.59177448492968,-2.930328908142223
-176.0,-1.0009973586098768,-19.810015129299472,-18.809017770689614,10.360879327402062,8.947945393430551,-19.350272167466276,2.5275971195812583,2.7416149251388298,-7.723331377935203,-13.022441240440939,-16.237270661961055,-16.32379087187088
-175.0,-1.4791393839444134,-6.183027985283886,-4.703888601339529,3.8571257020965515,1.6502400650562041,-5.406412593581113,7.122521039557372,3.807381920630573,6.773614305965458,7.021786177862234,0.5380161989516257,2.9183263311114276
-174.0,-3.2046302820754615,-0.9071810863446563,2.2974491957307315,2.075131944261254,-2.79399286689544,0.6509896606583743,3.5507085121237765,-1.15667505955704,1.4652026703309033,-6.634464003208164,-2.0434387352469425,4.682110613077807
-173.0,1.2210221025954437,6.929377787624962,5.708355685029454,-4.058220533076121,-2.205899514054798,6.349035781273139,-6.917039372123941,-4.716547310911,-2.885043125276868,1.47394128249972,8.074619993727428,9.565944095867593
-172.0,4.538695308727158,9.777488951994926,5.238793643267762,-7.137049244797503,-0.3865473827417205,7.453578854774799,-6.933529469402178,-4.433862244292138,-5.098834903382344,3.6681799784801368,7.395114024338578,0.57522293133986
-171.0,8.00850534706145,7.172686410127336,-0.8358189369340288,-7.559871626761309,4.468995018429242,3.186590655039467,-3.5700204442825516,0.3876777514998677,-1.9482760113724389,-3.7375195646191384,-4.475639819889555,-15.052843889067683
-170.0,0.4571928064121824,8.035881056981776,7.578688250569753,-4.282166203252327,-3.5903052686905226,7.821482363300297,3.0668371043357245,-1.527687618413381,2.3744047563186585,-2.040029856623799,-1.8500022737477844,-4.646085895284131
-169.0,-2.96148799177879,0.11224605029231127,3.0737340420712993,1.400177000831148,-3.0482939479813904,1.607276647826184,3.3637947429094277,6.804317419087846,6.72065714391933,7.454248603910739,3.539823739886854,7.575112395101238
-168.0,-4.712400852110138,-18.843056733165657,-14.130655881055372,11.759875988725767,4.67415791476926,-16.467365994766755,7.969368284700146,6.251640339069153,3.4377946510376023,5.19417318449691,2.490601531422183,9.896527847639053
-167.0,-7.546555826089455,-24.755984010782104,-17.20942818469263,16.13379576294982,4.869498825884792,-21.03190761861642,8.162556364796792,3.252940963144781,0.5461754526035509,-0.31743544806551727,-3.7766895463064922,-2.5279976189076496
-166.0,-5.979963038100607,6.170311743566186,12.150274781666676,-0.039189864195416924,-9.031933247304126,9.203236860754382,-7.87183371226492,-11.227676713607734,-8.431885811238988,-7.516295247201321,-7.053623970196833,-4.630515502693397
-165.0,5.908552254454609,23.66701438031583,17.758462125861026,-14.819250993160455,-5.894097125169598,20.691344280867558,-13.899701777846506,-7.536563077858384,-3.5594900525630715,-0.45695900268554723,-0.5318907630851704,1.3585872760831883
-164.0,6.43603150995866,4.239852022337049,-2.1961794876217713,-5.299727440592634,4.2688513359713625,1.013374022277997,-4.018509701679895,-0.6925919292569174,-7.241694447574746,-8.314321486580848,-1.4952130568781798,-6.530011042338047
-163.0,6.209657559228795,1.0515455569658982,-5.158112002262968,-3.6777234463282946,5.718122947174099,-2.052384430047222,4.415856904327956,7.086714412903799,7.069091213692863,0.8354722318400221,9.802589914727985,0.6916683165424766
-162.0,4.151817192422781,-6.506569846916831,-10.658387039339598,1.2068040903211412,7.363939339506056,-8.577066573791216,6.232785928041874,5.765883257694883,12.646110373675354,7.466714280576751,1.886197865168639,2.253239878583715
-161.0,-5.854602682999593,-1.9771639511574604,3.8774387318422097,3.94806762933477,-4.904539989321178,0.9549155194360948,5.787342758750819,3.7716314897675187,5.077974641321672,9.72049717006054,2.1449212445028296,9.270199579976113
-160.0,-3.9832500117735523,-4.117921349035607,-0.1346713372619728,4.010968165092228,-1.8827120831300577,-2.126660042863168,1.7175823152328786,-5.1813983646916135,-7.377806421169013,3.0972962377035165,-3.8519764010936584,-0.9871263597497539
-159.0,-5.002618547979136,-2.5625570598160285,2.4400614881631966,3.7523474336105918,-3.6795385948621333,-0.06986392778505124,-0.8914025676975634,-2.8432166782413217,-6.498272836149441,-10.420549465509835,-5.343212034097591,-1.7222586643212825
-158.0,4.665078792342199,16.547845892555976,11.88276710021383,-10.548369502710361,-3.6460648621630933,14.197206085276086,-5.862637347460561,-0.8092240825899992,-5.148167334200936,-7.9227664643758935,-2.645492392592173,-4.807411181105623
-157.0,-3.3131279165459997,-7.1109959672713,-3.7978680507252864,5.199072116421236,0.20506759905230476,-5.402502261525235,-3.0310361821826066,-4.5050867565465085,-5.882328018114489,-4.510718076531717,-0.4831650808947212,-6.0895284002364685
-156.0,-2.6326223422640247,-12.36407284765502,-9.73145050539106,7.48958214151142,3.591425484946307,-11.080835026236267,0.33610289782308467,-0.7227617918912814,4.192800657606927,3.401936373752746,1.8864981317448042,2.458293524142533
-155.0,4.3788892802576065,-2.3870965087086855,-6.765985788966404,-1.0044235103116632,5.615723783889365,-4.612374643388702,2.8533359267066154,8.284843170045255,12.390951006056211,7.843730870398898,10.083559070960074,0.927649824384582
-154.0,5.357664156609736,7.180123661925764,1.8224595053159383,-6.280542644540338,1.7338156876070139,4.5450120057013,2.611439572841103,5.788367140525817,4.111051736472353,5.904809428084668,-1.0844942678950762,3.740732825737025
-153.0,2.2242764224819056,16.746159616555836,14.52188319407389,-9.501717414610937,-6.18096618979504,15.681133450745538,-7.586298096938805,-9.255576166901317,1.4451634578662889,3.0601516534890765,-0.19336998340026565,10.066018985905783
-152.0,3.029406840967106,-4.124000658113528,-7.153407499080637,0.6050524728741689,5.0605172089078625,-5.66615710823435,4.413218579226586,4.749483794201685,-3.3377675727679263,-1.248176070455048,-5.044968047847701,-7.738009575732996
-151.0,-8.73774975418613,-4.373840932519852,4.363908821666352,6.532435534872201,-6.502074601555516,-0.02942455517858291,1.7932176446667618,-1.876514174096667,-9.204132312813146,-6.231249078628829,-1.3193478493282167,-2.4798883532840845
-150.0,-6.642960361616522,-2.2894390440606953,4.353521317555961,4.443399788774613,-5.4489103205191505,1.0080492701603414,-2.59408592089655,-5.661488487292306,-6.141732713269632,-2.585209100465792,1.253813058454135,-0.2107206308152203
-149.0,2.9874186414795214,-3.8015813519527364,-6.788999993432169,0.4660317476061415,4.858934651511889,-5.32144513018875,0.6088788785640429,1.9519049867424916,-0.26891061283994855,-10.917609946064495,-3.914987786894864,-2.1440723647678785
-148.0,1.6021406717437605,-3.8961758933982082,-5.498316565141944,1.1310743255802647,3.520357592925494,-4.648343268852047,0.6987016586736556,3.810862979547675,9.655360513898188,1.497904389297629,-2.693015279336127,-4.8072932186895985
-147.0,-0.11138221914251467,-7.32020411694204,-7.20882189779957,3.702501644477931,3.5172378921500185,-7.219169682280255,7.593159665875138,4.312482041179446,5.433508273781542,5.226380491053378,0.8245874720295385,1.86867301631601
-146.0,0.8321316319513385,-2.628206085185223,-3.4603377171365794,0.8845194514066493,2.1908745048521894,-3.079699166635545,-1.1165201189965903,-7.952637957270365,-7.999914559520089,6.844676734173255,8.751403172274602,0.9016236295009696
-145.0,-0.5681552521195676,16.642532249074367,17.210687501193966,-8.05435151483474,-8.848143745125824,16.891306154486415,-7.680356681694661,-2.4505696617443258,1.117212222846878,2.6440319278884674,2.5187664959566125,9.075807474046657
-144.0,3.876913003250057,13.474921690388184,9.598008687138186,-8.699300255946474,-2.901692641448728,11.581880610117125,-5.657541526527254,-0.66091977333,-1.5537916838220645,1.778437967867675,0.6923787073394876,3.9709689484665156
-143.0,1.2253018663806428,2.530964582925323,1.3056627165446946,-1.8297273018101943,-0.08487239189761131,1.8878070046662616,3.1726896004292167,7.265378045442095,4.743373019826335,1.0069186350122268,-3.0291764831150227,-0.29539843670395105
-142.0,-0.7094308442350432,-8.923235547753796,-8.213804703518807,4.859014137891942,3.7831908728815806,-8.517892178662708,-2.440543331241683,1.2422271404324667,0.09499098099084746,-5.179536325454027,-3.1999596234320578,-10.825485056652228
-141.0,-1.1059367244632163,-9.112859387215233,-8.006922662752139,5.070123352663337,3.479118743672105,-8.587225541380036,3.0178682838159214,-1.9281884625424046,1.3231683099711622,-5.604581961715921,-2.9404113703047243,-4.880562181726271
-140.0,-0.39016579364078474,-0.3476809894246671,0.042484804216030625,0.3291183127498547,-0.18952447959105,-0.18127002796680447,10.734310353469146,2.7560501866858473,-0.07856330591038407,1.0485308609306725,5.886462342833388,9.836653912020553
-139.0,1.7695425307141972,-1.6166250496098016,-3.386167580323976,-0.036277880628222015,2.5242721567221986,-2.533141798130922,-2.517411710214895,-2.6077458750429634,-7.202275964325341,0.6879915812896753,-3.599235026374494,3.7849540967431627
-138.0,-4.005437246131721,0.9810964745398865,4.986533720671728,1.5537856961200707,-4.472522976728059,3.0271893319502112,-4.22708247399165,-4.826924807527508,0.7068928013896292,0.3002725838975384,-4.1004801374635775,-8.30605740036176
-137.0,0.35698056709152404,-2.570120717529657,-2.9271012846210533,1.0694419507314081,1.5852239619838135,-2.708015056775788,-1.3645141124906335,0.19432106405160976,-0.034812958444686404,1.1091439549398592,2.762559143761762,-7.302995701842604
-136.0,-7.812223861477007,-8.559518569642599,-0.7472947081655805,8.146324975032512,-3.511003695026931,-4.69254069876842,0.9104718628233017,2.0116874983274062,-2.1639959673841576,-3.8215667200742596,2.618986867902579,3.083045013884398
-135.0,-0.8907912123070629,7.564374469664489,8.455165681971469,-3.3022376589427007,-4.64975054170208,8.050285380352268,-0.6990121022590265,3.04355774193397,4.963533612723076,0.859087680923466,-3.5988948540727863,6.712831244618073
-134.0,7.385640598256788,-0.7582547779480597,-8.143895376204942,-3.3632728737857422,7.7928353240759005,-4.487227221111157,-0.8357210725812796,-2.1068027519957804,0.3665020173757161,2.7331476689659477,2.543665050621043,-4.407410493445803
-133.0,13.554587845307768,15.33740925604242,1.7828214107346128,-14.420653720421013,5.843024097931199,8.52619490481752,1.3972461124120699,2.5993220775578885,6.728696824610538,4.20562812114591,3.9366232797393574,6.387767537172679
-132.0,-2.912640496907386,3.7237552804502334,6.636395777357666,-0.3803761364160838,-4.728985037204472,5.226379756513965,1.8584624303756065,-0.6621325417593241,-1.6205717923890322,2.039042895749908,-3.7650541559518826,9.513863530952216
-131.0,-9.096247449083824,-6.889145651047526,2.2071017980363887,8.022260621266295,-5.675328489064927,-2.3732948881223344,-1.3928689774824867,-2.1416934209213374,-6.00930953877559,-7.769520565618721,-6.084901327037091,-6.40062231438493
-130.0,-0.6804752005322712,1.7395259041445428,2.420001104676917,-0.5706813812807416,-1.5663717997628,2.124895856647896,-6.583700841543758,-3.089840689520491,-5.314494417027605,3.219511793736934,9.367530352389714,-2.7481933751571983
-129.0,-1.5277946450791435,-3.6706428299152156,-2.1428481848360015,2.6460130939067894,0.29551672662858486,-2.94325483301998,0.7863618536762786,0.13738317577881487,1.5130297626264708,-0.2799968092191074,5.81942189185987,-10.880128505804205
-128.0,-0.11731835671225066,-2.3809031493989883,-2.263584792686722,1.2244038126029357,1.0614906583019228,-2.2843609236234994,7.290899337188255,4.055073695695164,4.490576374408031,-2.0571396199936163,-1.5491072840228695,3.395755828973204
-127.0,6.821803559325472,-5.563964776991865,-12.385768336317293,-0.6508127741852832,9.668097574527026,-9.021307189675587,-2.474240051906661,0.02328952916521887,1.1689529243215904,2.3505572439577342,-4.2171611917412575,4.107508409775821
-126.0,-0.12704300452885775,-2.8221225315273597,-2.6950795269984127,1.4503182829082917,1.2648103589889215,-2.732529504113412,0.10810591389010407,1.761764302178778,1.7794036481250148,1.1128157912648966,0.19089151186569397,1.850862905090985
-125.0,-15.05098786490954,-7.221590823440196,7.829397041469457,11.10584245414311,-11.464775161587097,0.3240189338701742,6.0559524782439205,1.5871132003002333,1.1812199377661279,-2.117361587261764,-6.142848548018565,-1.6115794426491092
-124.0,6.445111270008798,3.857545066672535,-2.587566203336176,-5.110095426025563,4.487000534285765,0.5719726561088532,1.8145065713156667,0.28548018731295466,-3.9308416860664757,-3.284719247630297,-10.140691244889355,-2.195597511348576
-123.0,12.295179834503907,17.494436643639265,5.199256809135346,-14.858384768566635,3.59407294789559,11.3611486560411,-4.835131577123916,-6.431742461199891,-3.7754448009825143,-3.033870432176662,-0.07196121596789373,0.4775605847695776
-122.0,-4.253701457852073,-0.23576227366862135,4.017939184183355,2.280552312755776,-4.091295842191691,1.9079035218267153,-8.263500273774731,-3.5260339119284803,-3.0089592241664747,1.6209235280536707,10.221488294785557,4.782289015565179
-121.0,0.3175014907273238,-6.7278846738044695,-7.04538616453189,3.165801755607695,3.6470117061221776,-6.8633080926537176,2.3398285375628047,4.5300265453507755,7.741893336910939,5.3774529973180805,7.767912525518388,-0.9457159884210631
-120.0,-6.03840168039621,-5.3581015852683205,0.6803000951278682,5.664650259425568,-3.3932603053617774,-2.3062726853666144,-3.563372734415162,-1.7368045310392646,0.7305766213970788,4.287307032983186,2.826533635985534,-5.916820304848573
-119.0,-4.561448051307673,5.103641921882401,9.665089973190167,-0.22067230832403162,-7.146475367302964,7.348062117594368,1.5720510462591895,-0.26036116599190584,-6.53075531105949,-6.654479633584769,-7.432949330221675,-2.924770682597725
-118.0,6.95291946393311,18.98935077948194,12.036431315549034,-12.99710583100171,-2.4955434733711663,15.484347316183452,6.56411333073102,6.059765041331659,6.7114640909730365,6.274887083197787,7.451293329202779,12.29674060599698
-117.0,6.5950360360201286,3.0102421188171973,-3.5847939172026964,-4.830268965829314,5.136752521349421,-0.31204905928357984,0.8829649857331052,3.691474178155194,5.811147404618301,4.104326155964655,2.1539669379720365,8.092758587072401
-116.0,-10.262534025203205,-20.041781978222048,-9.77924795301868,15.119447063018535,-0.2730775573460158,-14.857404811498917,2.13296426795499,-5.5995488203339505,-8.52344044556342,-12.811741749415184,-9.668552457032417,-6.680454700455259
-115.0,2.7275644193232784,-25.423417871284144,-28.150982290607377,11.387367623878298,15.40783971923861,-26.817651601021023,-1.5183480737177488,-5.954667597282869,-6.583616878939724,-7.252239229095356,-8.463277980895933,-11.021206970432019
-114.0,2.891228100764883,3.2333898757023274,0.3421617749374146,-3.0287319482078194,1.3209726307316672,1.8289217279026477,-2.273944640372144,7.192990439067506,7.311893982131098,9.18761467943564,0.5436495831714145,-3.773288687129262
-113.0,3.0101816129033567,8.73450762012256,5.724326007219094,-5.842377140108392,-1.3913330904184056,7.18422798490892,1.1912414102016138,2.539197553534722,6.7396956820967935,9.373788541505485,5.115757359358723,-1.5923612084446188
-112.0,-2.637089072440232,10.401977067499887,13.039066139940015,-3.9323945078269116,-7.875204759517087,11.747750662547467,-2.3325264318433487,-4.12076959638725,-4.147108326497571,-3.56736351142548,1.9691474158604567,3.4729401277591454
-111.0,-7.186822557233925,12.001600168901543,19.188422726135396,-2.3782883837976563,-13.149383070803088,15.618284537411492,-1.7448853144285257,-5.566701219031907,-6.6353162298988915,-4.164365698426907,3.7794709129888755,8.535528902994011
-110.0,-1.8851833798614663,-2.2918220723933285,-0.40663869253190654,2.039255016147373,-0.7046002886278906,-1.4058568584794315,-1.653093892745174,0.47775439465505065,-2.40942638704733,-5.251770082173654,-1.3783853547652325,0.10650708544209486
-109.0,3.3624276133618425,1.5843373125150064,-1.7780903008468307,-2.4442702320101786,2.6012042267122806,-0.07332610308341242,2.804356265533846,2.1215259721717215,1.3381775068552966,1.705215011070187,-0.7191286648299389,3.5775771553366242
-108.0,0.14625204295157723,-0.7278286560886333,-0.8740806990401664,0.24006125771746611,0.4583018763146711,-0.7741668409721987,0.7836253439037768,1.1643004063277387,3.71025961891361,5.44004367799804,4.493033250948365,2.8325120683794003
-107.0,9.561783278669122,-3.3786684136708454,-12.940451692339963,-3.0643197888165434,11.194945267456001,-8.207614385731706,-2.0152858247997307,1.8652103802740667,5.483484249593162,0.13589862220544724,-3.169979328377178,-6.49944893495082
-106.0,5.567764440403595,-10.065493862040347,-15.633258302443998,2.2769575107513913,10.619288892532026,-12.815409968029481,0.8561526972644473,3.7026540120291545,0.2866178266670225,-1.4453456937206004,-5.972883375553269,-1.90628776909747
-105.0,-7.299048953763199,-10.439170034984162,-3.1401210812210367,8.900632289591007,-2.0626481859042682,-6.754232346911372,2.735604270936258,-0.39097573502631233,-0.5392018229192332,1.9088409357078187,1.3785175118298114,-2.7896371708001495
-104.0,-8.034753311583296,2.6838899122717788,10.71864322385503,2.634265587889455,-9.35877290990829,6.656858909874422,4.098566762632089,1.5929613912878302,-0.730110653220748,-0.11240672009412875,-1.4587255910546821,-10.243025167967632
-103.0,-5.36246661055079,7.048495021160549,12.410961631711402,-0.8763088571099644,-8.864305506082339,9.681869431644213,-2.0427609755024996,-8.34718389025726,-10.21161352536542,-5.954885652574489,-1.0042589570279872,3.650886320118371
-102.0,3.3901007856800143,13.687236040257964,10.297135254578095,-8.484862827669485,-3.4242834566046803,12.018300111367347,-3.6779107627414334,-1.7606858744597265,6.947836321709879,5.299214196962445,8.31284259837773,13.070041806087378
-101.0,7.085791906527611,-0.22332778320492785,-7.309119689732402,-3.448737502938757,7.155094167766942,-3.7445964771429505,-1.0703184505711696,-1.07501810033214,4.010702374446318,0.775981298536417,2.574753172340933,3.807647038046392
-100.0,-1.8925531230776929,-8.294664418581155,-6.402111295503427,5.081526066842896,2.217859052067038,-7.329486331507503,2.287357447583136,6.43634516969005,-6.167552320411054,-2.5039078671066797,-5.251802440123465,-3.685796588667814
-99.0,1.1404272742678974,-9.472506068548133,-10.61293334281607,4.156717455944741,5.842400801785015,-10.024107530780322,-0.3284199515377668,2.273172369159618,-6.330473317126117,-4.0759600429582115,-3.7360931138177005,-4.1761837749615145
-98.0,2.1577268094795485,2.945301865968733,0.7875750564890875,-2.5609332996637417,0.7296660833329645,1.80810654007679,-4.016323750418598,-1.6701593648304398,2.34419034523842,0.572872978833112,0.40892136533220214,-6.1674944349004175
-97.0,3.6711167568015637,10.009287866241113,6.33817110943953,-6.773730544592541,-1.2900561599766474,8.19699037683617,-2.078723279095367,-0.060516465921737816,7.594262451138568,3.5570922776290836,3.389189059206462,5.255685509677695
-96.0,-5.752398135809681,10.86771525034418,16.62011338615388,-2.5753334745273824,-11.222432704854683,13.769872768287629,0.4238908475296153,-7.104250502006796,8.717602593452316,4.9899418896309875,3.6556768443195082,4.004506375284432
-95.0,-4.275169897346,-0.44932234370374324,3.825847553642215,2.3370032755203143,-4.007690666583908,1.637299107471899,7.8619015467059175,4.202351236929468,0.2729178615811305,1.9229041843990544,1.2332207209367347,5.336005015618357
-94.0,-4.734170176962525,-14.790200363944399,-10.056030186981971,9.727902267372912,2.6265258534840514,-12.394290663314761,3.7337483587536413,4.688568636247911,-11.600639749498663,-4.835045311052738,-6.880710474471312,-7.252788721364091
-93.0,3.945150345060837,-15.014371020928365,-18.959521365989346,5.569747790445405,11.420310005232759,-17.035762517513163,-3.9399307161059505,-1.2628554314312934,-5.336750548107663,-4.3027787176848715,-5.669263710358122,-9.45725793728503
-92.0,4.186328134464279,1.582668711514839,-2.603659422949609,-2.857431396722266,3.444328922296573,-0.47816972506452604,-1.0227777309492458,-1.8780925205234107,2.8839254113239297,-1.8341298569044517,1.0600450198725784,1.8248700081464757
-91.0,7.7168305949916824,8.071274352537896,0.3544437575461432,-7.951030325353814,3.6540987542599197,4.249714950777726,-2.8733405187802825,-0.9593169145728369,-1.2486885463902158,-0.35486021681793856,4.413178948325868,2.417898755503084
-90.0,-1.2408915585306497,5.606991302062137,6.847882860592853,-2.1628145672604884,-4.069832232762427,6.192048808880516,2.699044372116907,0.760207884203462,1.5542278500085283,-1.2605292051463435,2.1448549798699803,2.697943621908692
-89.0,-8.313551737463158,9.200077399260257,17.513629136723683,-0.42077132819500296,-12.859678087150394,13.407271315482713,-5.524607701390112,-0.30374296968983044,5.077153057628579,6.872033516768853,-0.18644280065190655,7.628982324047768
-88.0,-2.568386606065312,2.2591082316694857,4.827494837735101,0.18210168652558212,-3.7237504778911923,3.5202589602463945,-0.6783599393513311,0.1770229176826563,3.701948869491745,5.543959448504107,0.9829786728965224,-2.968028531379047
-87.0,2.20137698208823,-9.678703048646964,-11.88008003073504,3.6930927626990977,7.090392089918011,-10.801242094580633,5.854554518303592,4.245963625653895,-3.759764611970202,-1.33401801190278,1.496799658207585,-2.1650414327757304
-86.0,2.6760123150256008,-3.683274284536756,-6.359286599562344,0.5410521286951462,4.482330641045748,-5.047357571032196,5.149752101414628,-2.3248250175300447,3.136637457695366,1.8978788302510377,3.9055655173363126,4.1871739961621595
-85.0,-3.442283166511945,-1.3363269453348137,2.1059562211771183,2.349108049864414,-2.818720249771551,0.4282390051471152,-7.303989661885625,-8.282108010978067,-3.4650593987744247,-8.656026222638245,-4.054993637123776,-5.616855118457184
-84.0,2.6842068319591847,1.8320978330081754,-0.8521089989510489,-2.3007150365065523,1.7908612616456,0.44258945311233866,-1.5857061089508069,2.769277197850981,-4.396105041075251,-6.106054306560531,-8.093050302776643,-4.479767851800133
-83.0,5.3916560497252,7.127277816109072,1.7356217663838145,-6.228169357702357,1.8390129870780314,4.451276381359278,-0.3156863463779582,2.9937770301378617,-5.452424221259546,1.0939571270689017,-2.42262906597377,-0.4446356188893401
-82.0,-0.1183163047982485,-1.1892486318611324,-1.0709323270629625,0.6794825555019872,0.4778159280003854,-1.1176767501800446,1.8023596751415685,2.4298031457645886,3.7403234723917507,4.619729552999946,3.551577403489903,-0.43954766970238535
-81.0,-6.6121448297589716,-4.497563767521749,2.1145810622371193,5.576038714016738,-4.366798942188768,-1.1798285871578749,6.147408436683459,5.433013343921462,8.36565574919984,9.57142890637245,8.793557862936902,9.947126315166926
-80.0,-2.7660937095405793,-9.858936844617096,-7.092843135076619,6.3313235754536334,2.1609738471589277,-8.457593004301188,-0.5141600483891104,-4.129818748991514,1.1797031309808395,-3.2977076013232294,-2.206545961069658,1.9019242271157646
-79.0,-0.19901942456232913,-3.5559925574291746,-3.35697313286694,1.8174960477138336,1.5836346060517124,-3.504287812650901,-3.1120864764534337,-1.9855131057724558,0.5082626237867693,-3.3149607816651723,-3.6881279572836423,-7.268795459082298
-78.0,3.8312836484538635,12.693811447904562,8.862527799450604,-8.241929134088311,-2.4993620309313886,10.82469426297981,-2.874717925259671,-4.255936579983341,-5.369323289588955,-3.911902943306125,2.4372801803061774,0.7789313398742967
-77.0,5.380844485598404,11.284064741624825,5.903220256026337,-8.387165479279492,-0.23147155415562815,8.576006478246734,-2.558512025805606,-0.08327293519053036,-4.6128217188236995,-1.4848101043243982,-2.60788020870712,-0.3849393361351551
-76.0,-3.7829750490821055,0.013022068924963826,3.7959971180070777,1.9137248021937996,-3.8263541501151033,1.8968044768076373,1.4798383109949873,-1.5359473770627137,-0.9818114310487753,1.5979712273168172,-2.2151242518092342,-2.7173751705514078
-75.0,-2.72393188908236,-10.105026480838923,-7.381094591756446,6.448903235096979,2.299985322007738,-8.747879371117664,2.855133927668919,4.493132061830529,0.8010638493321166,-0.08906441914844099,-2.858868567870598,-0.568827571508137
-74.0,2.3958870007680098,0.08663426494446647,-2.309252735823308,-1.2009424845861858,2.327122251013014,-1.1207072696665072,-2.059601330876761,0.5277293459913488,6.308984044814649,5.1855187107827945,11.236882688285165,6.590944300591397
-73.0,-5.153334591428415,1.076955435080818,6.23029002650954,2.004633107973934,-5.640094915586305,3.6338412620551495,1.7791739303680887,3.5653001059294254,7.387017143758372,5.937342911765154,5.358057320558737,-0.6833313697118162
-72.0,3.879775829069831,-3.037446074787387,-6.917221903857001,-0.4521480647371332,5.366697468951699,-4.931327890315983,4.339524282647635,2.3331444085784545,-1.148170900055721,-0.024006302483960296,-4.300935202650962,2.4393517810114114
-71.0,6.944563183269927,-2.468707006011365,-9.413270189281281,-2.2692637988073328,8.219736296942239,-5.985495492462417,-0.5506843083511122,-1.697339592639279,-7.194857662975682,-8.39482246289349,-7.733494836772335,-4.333100297059833
-70.0,-1.7313387337647455,4.213255593760607,5.944594327525129,-1.1963302899647834,-3.803341577467185,5.105747169937599,-4.298261863392494,-4.5448915792341005,-3.1905698809882312,-2.614511236650894,-2.745452345179147,0.1638411067163168
-69.0,-1.5635109728591121,1.234994950393964,2.7985059232527116,0.1263723849451488,-2.230931569744749,2.042017037880282,-3.610735510160107,-6.628957478537209,-5.133206456733534,-3.296908618071219,-2.5039450807052024,-4.026318358703156
-68.0,-3.565262368960715,-1.3744305594766972,2.1908318094836488,2.507691050213783,-2.8546969986107333,0.43724927213827813,1.9653935137953047,0.398520426284779,1.95895245769633,-2.5555328562387,2.078264335489408,1.1323720205798304
-67.0,-8.015815197356174,-6.133588179844276,1.8822270175116596,7.11141480956187,-5.009566210089986,-2.1685249490651786,4.123623791634589,5.888794414214228,2.6350460933580377,0.4943872502176173,1.4801164491316499,-2.2425014370095457
-66.0,-4.622935386371754,-7.452186008868785,-2.829250622497073,5.996328536236775,-0.8828713506178909,-5.176663551988123,2.204116740860811,2.0814086839899706,3.4984464568259868,7.711813111338024,3.1425609766493254,2.803850042240393
-65.0,11.720811866874856,13.572846789501334,1.8520349226266721,-12.607538588561166,4.946172147518939,7.759582522354382,-4.349977769519375,-2.0770343425486693,3.944109451196314,11.953183957680668,5.953582925587858,8.391213010507908
-64.0,12.490661047048194,13.78695878530663,1.296297738258736,-13.176887281847893,5.609991355187153,7.510531792205453,-1.6358997077121462,4.6019654893586015,4.815037022889549,1.1303636868149471,4.651585749759149,1.7291372696685299
-63.0,2.268078026205103,3.0617689987017673,0.79369097249699,-2.7029459331342514,0.7547407838957563,1.893690759715268,0.9274491656699155,3.8861171777646177,-5.905305912393517,-9.101110559135194,-6.343065890216004,-8.387452731098389
-62.0,-7.259200113556458,-4.4477965925038685,2.8114035210527755,5.892986771960848,-5.009903296881286,-0.7782552407454323,-2.168117996520748,-5.132061773379271,-4.860557782231012,-6.663057320840092,-4.653778347755992,-1.8349891789912913
-61.0,-11.449029261207322,-18.647335325335852,-7.1983060641285945,15.007354602922689,-2.1693221854562648,-12.887431525863363,1.5942508185269604,-7.564005048089188,-1.4070073533082716,-1.3653123095800268,-3.264471347066728,1.0275195226799023
-60.0,-5.223803512240838,-9.372829450966933,-4.149025938726357,7.335644690629978,-0.5723757505061249,-6.807093149732231,5.18485485949899,0.846154271782404,2.6146033433684046,2.5236740428663316,-1.6093336241440817,-2.113967613778005
-59.0,0.49949980666036664,-2.3752684044266736,-2.874768211087293,0.9763833088191749,1.7378232153968463,-2.5930864625489782,2.58687720987231,0.09949390599477104,-2.9354500471552085,-0.5233671451007859,2.371222206835661,-2.4856537412163897
-58.0,9.090672979737064,12.658709597221486,3.5680366174843074,-10.912320045486839,2.7372798573359716,8.146030334230415,-7.609816267158085,3.046108665392635,1.0911202627348957,-0.21625233015707002,2.3529856251558803,3.4107108310993244
-57.0,1.2277406498621746,8.063337423953747,6.835596774091664,-4.60176986117557,-2.8268992685867422,7.404014507774798,-5.6613227292260255,-1.8138400298788202,-0.19684327842489968,-0.6241899161586804,1.5087190594840072,5.253659129131489
-56.0,8.171429416545312,11.655553749144175,3.484124332599139,-9.947703041640068,2.3980056454026863,7.523570200168596,2.2448668911976175,2.3734149540426936,0.27318776074716866,-0.028179827061538987,-5.22717531512213,-0.948912861381856
-55.0,6.135399648247404,0.8547668555413637,-5.280632792705724,-3.531807000050724,5.680286261424047,-2.183320072879135,7.585199347933877,6.947594096546313,5.183662606720619,4.511231035961609,8.345343380902568,4.245643256202951
-54.0,-11.748681705097024,-13.209548862326063,-1.4608671572288505,12.515289472383602,-5.097680209658694,-7.310081260033447,2.7597217584444325,-1.2000152533019657,0.5753407619315167,5.439245880765022,7.179186282944393,0.1636944998914625
-53.0,-8.791606486908545,-9.49555395086138,-0.70394746395281,9.093376619297626,-4.082286863660945,-5.079481392319566,-2.8469255578897803,-3.9303831109937746,1.3756218921386782,-0.37836360787129375,-8.225008910537763,-6.701152515200307
-52.0,0.6477674598915,-6.902830934128958,-7.550598394020616,3.149398603803812,4.054058166214568,-7.2888222585660625,-1.5224179975944012,-3.6288229544630295,-3.0991510567178753,-4.418279996584092,-8.691159875726727,-11.303465297747612
-51.0,-2.939368333159587,9.078760662323958,12.018128995483387,-3.05071459455513,-7.451842180602549,10.564182494107733,-1.8729819120833693,-0.46463653495435286,-0.8509955057658125,-0.36903351645662497,0.8911837412670129,2.197634482583285
-50.0,5.868737898980048,14.476718398549481,8.60798049956942,-10.151046813063674,-1.3486054570032144,11.560878952984048,0.006078495439011178,2.552766775259641,-0.8705694298856244,-1.8821308235616612,6.339494459000169,11.893062732743203
-49.0,4.941315205958306,3.6845802772137652,-1.2567349287444696,-4.283028042896914,3.1157542925169723,1.2390688550654074,-5.988912533748838,-8.128580080999338,-3.6447021931311987,-2.108765877591201,2.5429817942276194,5.384931325966376
-48.0,3.101422412140517,-7.6602729127688995,-10.761695324909308,2.2424767210553114,6.946024340598922,-9.255000725472255,3.2741427745669904,5.663260865456516,-5.354521649189229,-2.211822173729502,-3.2250005801860007,-4.286368354658756
-47.0,-0.04877741484959319,-6.151650799344493,-6.102873384494898,3.0757927004416334,2.962613007626424,-6.081619604530811,8.622464521484964,8.44437461870675,5.163849276405754,3.093661666476875,-1.430138596913276,1.1724923915110768
-46.0,-6.128828091362728,-9.270054293405098,-3.141226202042548,7.6851762326789155,-1.4775010691913548,-6.228457041508879,-1.0001996543303262,-0.2424208509404675,7.594788781811922,-1.903081806858708,-4.610008338425385,-9.248657979420402
-45.0,-1.8375935744835736,-1.415988858280671,0.42160471620287215,1.6181484604827627,-1.1090160592503433,-0.5119323233960309,-4.704033084030215,-3.6860141636776342,0.9038738863028941,1.2311409462935639,2.4263650800845458,0.6650158034229507
-44.0,0.04617139648304991,3.3350568283871653,3.2888854319042835,-1.6203920574436468,-1.6727199052371329,3.3023431698247743,-3.1031153694595144,-2.769394396263002,-1.5815781234738833,4.90494020016603,4.774174844331462,0.8687566588126001
-43.0,-0.05817892466715058,8.045664867162149,8.103843791829593,-4.007556079620368,-4.044392273086079,8.067490418808347,0.7145798298219765,-4.373157791113729,-4.205371864687032,0.9257704833546572,-0.710750422971552,0.8623145468320083
-42.0,3.421878845284882,8.661040325854927,5.239161480570223,-6.065020293218671,-0.8612100902933069,6.943278962410748,3.6722571857675277,2.1634928395631943,0.6842503866484,-1.5007730097098118,-2.413796081926535,-0.9934847325906035
-41.0,4.928604521267144,9.310430767392393,4.381826246125194,-7.155724777934643,0.25268444975077664,6.91734417677714,-0.967021175735197,1.567256702107271,-1.9638977237372564,1.4388116558688635,5.034174320053977,8.522524035947097
-40.0,-4.5759485865759455,-6.7960634702474065,-2.2201148836715925,5.714961070951841,-1.190585386390504,-4.517368275111214,2.9850438794252265,4.693480396684173,2.6451988797867774,0.15820320869442472,1.126151944058884,1.8071479967851998
-39.0,-9.629434926044702,-17.963676711543528,-8.334241785498897,13.81293574396698,-0.6570000439943509,-13.161642316077904,1.1135327042611092,-0.060983510904258686,0.3180374795235644,-5.238452516289291,-2.5618069486608523,-6.545503089119237
-38.0,5.102317677260779,-2.9212925610667533,-8.023610238327453,-1.0842418057291052,6.550939066464824,-5.491076547950372,-3.790622826326187,-2.5298463667087603,2.255826351668201,-1.2493518579115754,-0.9015030678675662,-2.6268144653537258
-37.0,2.2921658718562195,3.301402262363191,1.0092363905071355,-2.797544073488019,0.6214377002521987,2.1278904518038324,-2.3142205161311455,-1.9293657998825857,-4.680289416422077,0.7533874582705959,-4.30320941366624,0.7823264289000318
-36.0,6.200467142615292,5.370683988045048,-0.8297831545700586,-5.790487786948945,3.5625178475525443,2.310959851719236,-0.985165225048972,-0.17611279370537658,-2.6603773779671265,-2.2096741394807378,-5.058482822690909,-5.9408177662410475
-35.0,1.0427620658276557,2.579411635166383,1.5366495693387188,-1.817905548930454,-0.29001995078897597,2.009066735748872,3.776318814453326,0.8488054006937039,8.138610971097483,6.059766329769241,5.454833382245523,5.357720101810297
-34.0,-6.73376967362513,-5.638396983603046,1.095372690021898,6.179050922155737,-3.8881497641936966,-2.249575212019238,1.3940395245433794,-0.6765582443189919,-2.613113231492224,0.4659466452200216,0.2095447594208717,2.198179420563532
-33.0,1.3265969753465625,5.196887935546419,3.8702909601996622,-3.267393099051333,-1.250351464580342,4.55306876003979,-5.362075858286683,3.3992528613366755,-3.137971994980022,-3.6331702283732916,2.5861521527864446,1.5519620156899334
-32.0,-2.212682607807549,7.103069753786654,9.315752361594106,-2.4474558966641933,-5.742971878910883,8.233085249778444,2.6902625217391822,0.7822201998129401,2.444269926631466,5.050675563324644,6.303117752166883,3.8858463115454773
-31.0,2.737909059354851,0.902862962783624,-1.835046096571173,-1.8166323882062805,2.2323082916143853,-0.5109398950681516,-1.6257975481767712,-6.321852034183923,-1.358123076022707,-4.430046722957164,-1.8315922117173762,-7.966094264212382
-30.0,-9.050508421589015,-5.658191899132753,3.39231652245634,7.3670684232859385,-6.191844361591221,-1.0852828700071406,2.4246565319889557,-2.172556741363164,-0.5139369689648948,3.0937647020846115,1.791765822326807,3.4000200108641643
-29.0,5.395024549178287,-9.452077128631924,-14.847101677810095,2.052710697253037,10.07656784286966,-12.167176202458535,1.5586777209670664,3.413077076600845,0.4309876689042719,-6.847626263499845,-9.135810603773537,-4.904841689676412
-28.0,-0.3870189302961422,-5.259442469316863,-4.872423539020603,2.781245768835351,2.2800324883548786,-5.074234500936017,8.528057116686584,8.413605193086202,0.3495234422583957,-0.2341837810470544,-4.431100758263568,-0.1872175568576182
-27.0,7.155418301932181,5.837605588466419,-1.3178127134657274,-6.448124632957452,4.1962600299133275,2.2536415102706706,-5.785928922844954,1.1186443893416436,-0.5354051231868755,4.310365563523448,2.5911820136208026,6.0450518108640265
-26.0,2.68714571014992,7.896237153079388,5.209091442929436,-5.313531177002393,-1.2231426483762147,6.540084721748716,-8.073424464579556,-4.672484532743629,8.052562992077693,6.699864973797657,3.510583716587275,1.919057732195007
-25.0,-7.495186266945597,4.790872167626505,12.286058434572105,1.3342918276944573,-9.854160050049828,8.512292744211614,-4.025305923011532,-3.366870756159189,0.42151856959475076,-0.39217210039737704,1.4938326080018265,-2.376368748687965
-24.0,-1.9368203111792268,0.9410476136212531,2.8778679248004426,0.4792774458558422,-2.450852005996503,1.9441571817503602,-0.20344892540961368,-5.944917042608089,-7.864583424805014,-4.443452766629127,1.8893051612092961,-4.267211052619836
-23.0,0.9678488709485604,1.8982803477469785,0.9304314767983821,-1.4559147958110907,-0.02496911223429832,1.4308284173453116,0.6566440128718718,-1.8209004141190483,-0.8581733137606036,1.1789201949592547,5.085238721367236,3.119057516711786
-22.0,6.074914935008699,-3.3429285442125622,-9.417843479221325,-1.31571191396807,7.783067997397291,-6.378727462596588,6.240672760246596,4.940700257785148,-2.6936932306803443,-3.3048916891344575,-1.9446648315979416,0.307016777598794
-21.0,-4.778604179042647,-17.495450623522355,-12.716846444479781,11.18244652661637,4.009581331461032,-15.113209846557016,9.27204392659447,4.469830165387961,1.173410645342722,-2.0081109353725095,-7.393466158628042,-5.928748565596726
-20.0,-8.401635795512165,-9.996324792787192,-1.5946889972750986,9.162876655450457,-3.436095728411267,-5.804039282436329,5.290665705871217,3.60796288371161,-1.2683921813672852,-1.4806618626860182,-4.415540067011131,1.434328451430489
-19.0,2.2911656976289265,7.474759158978507,5.183593461349519,-4.91955121349208,-1.472285334318496,6.32604594655416,-5.3596595240189675,0.8040106518002172,-0.43436437730619026,-2.863886008568663,-2.28789788490889,2.0878885699647656
-18.0,3.267694222560693,16.34390558098753,13.076211358426775,-9.762572641341437,-4.845771567592123,14.717575162143714,-9.778425046029078,-5.259113035748908,-0.5556164583933969,5.1389943566472995,7.298474213649459,4.646141360696314
-17.0,6.558391444170394,8.248035791250743,1.6896443470803035,-7.437305955650115,2.417326569924196,4.989789948237653,-8.991322891222897,-7.012809174063698,-1.2047704969130124,-3.6712583353292754,1.2658491160096506,0.9346854345632676
-16.0,4.509204176072856,3.2519476888103522,-1.2572564872625214,-3.8352620993992477,2.865271134278639,0.952978941981486,0.8197977204295057,7.22764730080342,12.35193106798057,6.714457622364274,3.389309171926406,-2.948538593337234
-15.0,-2.30701772350907,-16.752184047659956,-14.445166324150831,9.495341025665617,6.045397036388677,-15.55342514251653,9.829604388806617,12.963302076622035,15.930778783104543,1.8965252446195444,-7.802587548426821,-9.985460908739487
-14.0,-1.8476226180635331,7.213050729969489,9.060673348033148,-2.7193367970128666,-5.4090722409656635,8.109820898894487,3.090243972450846,-3.9662438282878947,-3.091378032500274,6.795484235193564,7.326921328878329,7.147668310374486
-13.0,-4.849890966226637,0.7190093676215299,5.568900333848373,2.104226350755951,-5.255641334797554,3.1182043581587555,-0.8256688728831802,-9.508390630103218,-10.691094568744933,6.233708285013737,9.583614136593622,4.841161808460215
-12.0,-2.8373215682916237,-8.916294060174891,-6.078972491883139,5.912174044581514,1.6406428476323596,-7.448084636655764,1.4243165544828496,-8.336137612920009,-19.954118144882305,-10.69513622346158,-6.339584346483097,3.7532281579130022
-11.0,-3.1136124661681963,-0.7573708113899649,2.3562416547781617,1.889463004181179,-2.7253793288457495,0.763483956023606,-5.036347496854605,-6.586191097565654,-14.769638571178934,-13.96314634652689,-19.183640256520032,-9.960467554167874
-10.0,0.6056554506143816,6.235046082515637,5.62939063190089,-3.3889802756058645,-2.5082771797101424,5.967039285685677,-3.771517333952967,-0.1445548117933893,8.627107132540402,6.665704365214751,16.62639115845071,12.603923044066985
-9.0,3.9583536501827776,3.2313138633156226,-0.7270397868676517,-3.6421575376412894,2.3453993204532533,1.2012137906142994,-1.9005284306715662,5.079209702097213,16.522978400099262,2.5270916001182187,6.574808912074636,-2.1547338890856
-8.0,3.3271582725697884,5.707571637135185,2.3804133645650425,-4.484701180473468,0.4797656589016117,4.067654556474962,6.850319651908522,16.36825399839789,16.3104935270418,2.474113516790295,-0.2754189144509205,-0.6228879872997474
-7.0,8.964321453242212,-26.03934430902013,-35.003665762262315,8.572150372437708,21.997229911979,-30.49813740509348,7.299609221722488,14.430392704705632,-3.8562106822076565,-18.55574414640237,-20.644661956307907,-22.249582636869878
-6.0,-10.755606657894923,-27.119048795454688,-16.363442137559403,18.895413452383142,2.7466370375455256,-21.714316327979958,7.4396561001345045,3.7098230818904367,-10.514438976760447,-13.513238709691427,-19.865954175000653,-15.688300360092256
-5.0,2.6560774056795187,13.884419116527617,11.228341710848543,-8.310161002137765,-4.25652855595681,12.510987532915745,-10.654104922105592,-7.444905185345345,6.974433019460839,18.867608872776163,5.221680074601984,3.184791271612694
-4.0,2.1539158848776783,26.44898853307567,24.29507264819831,-14.261021678248783,-11.112568459361997,25.33436736699901,-9.078015391431201,-15.963681949858378,-3.85046988413487,13.130440987013664,12.061426774777898,23.356141725804093
-3.0,-5.142996151913769,11.027596457108308,16.170592609022197,-2.9007490684964106,-10.614195938177229,13.647563111016401,1.129855044089573,-14.798666655636119,-9.891183240880384,7.3341589169934815,18.966557207474686,15.83301344401547
-2.0,-6.8499919335595285,28.715171374302813,35.56516330786224,-10.969212422481105,-21.160591039832514,32.11550697959612,2.42624887004369,-11.218124143894439,-6.005246003783714,12.994226481892568,20.380189711208022,17.06661248460254
-1.0,-1.7490563413824016,20.468345247779727,22.217401589162055,-9.39640390281922,-12.01224245579115,21.399759050154557,-2.2466799369092927,1.206132095137649,3.4202057029394943,9.607968558570747,19.06320930676817,8.511345931294288
0.0,6.464082661046248,17.003045845064513,10.538963184018531,-11.692643497436892,-2.0655289035616193,13.748475821562689,-18.08438655663828,1.2885259978750137,18.27989553068039,11.9191070883685,17.463613443738915,16.757854733279334
1.0,4.9456415476529685,-11.276826292957802,-16.222467840610243,3.2043598827709654,10.55518342767686,-13.776311231230252,-9.95452517132575,6.147025763931496,-3.383184293526594,-4.64581729991866,-4.414028684192465,-1.7301801924882017
2.0,7.197817073737424,-77.29849494006139,-84.49631201379823,35.00718989028633,45.895095766755176,-80.9308409503792,29.45849005913986,28.491204584900924,-7.018855912525273,-58.03471896363626,-64.46511742113331,-56.24775885946464
3.0,6.367405542719078,-107.74650714328253,-114.11391268600124,50.64267113831932,60.208070114382714,-110.892648053808,28.779703790950077,24.340920540007158,-21.202163510634605,-77.81577952487235,-82.31917296266155,-79.28983773672128
4.0,-3.33798625446413,-47.416946539752246,-44.078960285288275,25.40591900047631,20.415768753837643,-45.717043537944214,16.599441848362176,16.570983977527554,10.195260618045127,-15.700279264320024,-45.4215261969461,-43.27426201301528
5.0,-14.217210554083676,22.36745387744488,36.584664431528175,-4.048679222440237,-25.433762777869262,29.42447993963803,8.650085603801674,-4.527716571858942,33.14811655593056,44.37379072020237,17.030808936938865,21.386413482087157
6.0,-32.71128299128931,147.04996211790802,179.7612451091964,-57.14260267210875,-106.1883283150168,163.43286656777903,-26.912632228503174,-59.747506962180395,19.365406848223607,108.93623821842209,116.48825267001614,110.58888294523594
7.0,-1.5009593603038507,166.2136498645374,167.7146092248406,-82.40540099188783,-84.63589855991083,166.99500432999605,-65.43824446571232,-56.84378124617267,-24.316856446464485,84.84078933170082,127.02954492709281,117.12977848370076
8.0,41.76834018182924,10.496000692729552,-31.27233948910019,-26.097070867273388,36.4948385153769,-10.430378182094273,-21.975694669744406,26.213195862147753,-17.318314890586556,-18.947901831949622,1.860128409796502,-0.842523723148112
9.0,32.88540449135267,-73.73504746460688,-106.62045195595994,20.388467915262098,69.72951089066493,-90.13562919523298,19.00934736346477,43.47790834600002,13.002527015802553,-47.712965230018554,-43.96350832840613,-54.575231366807
10.0,1.1171265572610114,-109.37161870821754,-110.48874526547844,54.099436476702444,55.85986682372632,-109.96339554203618,43.89503010195926,30.689419442231067,9.812116301063062,-58.2953163240789,-68.32916989112223,-75.14279334142773
11.0,-20.52977681905944,-61.4267966734883,-40.897019854428706,41.03834435872173,10.163220030495708,-51.19513726473437,24.9888783637336,-6.844335354036449,-30.743983902191342,-57.95726173391284,-57.02849807149976,-40.26709658533418
12.0,-19.300715542128266,-29.77948100737794,-10.478765465249637,24.530244970907162,-4.4299991848685245,-20.087075160143826,0.4324842626733414,-23.895219773607913,-54.29734737752885,-56.75918455160388,-50.47762407248374,-23.002047634718977
13.0,-35.1951839801993,29.84722774073529,65.04241172093454,2.6714977132322844,-50.05809670679122,47.402327585790964,-15.742941942905285,-34.6283660109253,-36.2108585641583,-3.019535620409881,13.141027178408663,28.244226271814632
14.0,-33.18422485167861,31.388439638465712,64.57266449014409,0.899856070671377,-48.89681153919439,48.010455675925456,-15.457836392580147,-35.92925907758949,-35.358974188083195,23.42174348159721,37.77311058814321,36.047272813387785
15.0,22.862968664755087,24.7844796843453,1.9215110195900706,-23.82162436407632,10.449667601201718,13.377582181738504,2.8354148555586143,31.303545671166784,86.80238083716343,96.1426417661252,44.63663409935201,18.414691134933648
16.0,60.61608754859664,57.12641695465588,-3.489670593941071,-58.874080260889926,32.02603139069259,26.839528601487896,2.6221107646547352,78.0378062902539,186.6093129668525,136.0539976119718,54.33523364840563,23.49063998680996
17.0,36.51273054958047,37.12473601729641,0.612005467715738,-36.83119422586019,17.99351882350964,18.809173739336746,-3.832187301462323,31.34668281582428,73.36254740223208,42.22382553423468,19.833668395447734,6.42659569746473
18.0,25.811684381987362,-45.19149663824537,-71.00318102023274,9.664798947496013,48.36123730514728,-58.07819341269017,3.918487952682045,14.56989837200616,-24.08797727600487,-82.5392066759783,-51.89566452436966,-39.62337828004782
19.0,-25.5847392793276,-60.5946832376674,-35.00994395833952,43.1304882185379,4.734461379376171,-47.78303712864497,5.852412815167979,-51.34038855252156,-152.714120046863,-122.5218558190663,-46.84035894674511,-28.86116941274704
20.0,-69.53508113884885,-20.557786704406737,48.9772944344427,44.9985672586934,-59.2433046694911,14.15071978679197,18.069829486207897,-53.796409085323276,-120.60941856980808,-61.18374759760799,-14.652710230079634,3.6755927777530495
21.0,-33.11180980945723,24.668881187255085,57.7806909967126,4.248011069109726,-45.439385403872905,41.24556274355727,-11.40276782863078,-36.06088621645445,-54.58659968233262,0.34716802201594277,19.97418970895277,22.43445569691596
22.0,2.164509065521912,25.694830471224524,23.530321405702235,-13.90089484594559,-10.678801658007746,24.635644842163146,-27.170633276935483,-8.643156198288953,3.719847794950729,18.676803449247924,18.334607837343484,17.858074171121054
23.0,30.368365214348213,-3.3559224307515336,-33.7242876451003,-13.46974768505104,32.05036839586049,-18.51305219515474,-14.06054413441222,21.2741758243685,58.04071678565255,31.26298176826723,-2.3224671274090163,-4.645693047188873
24.0,15.380462829214423,-11.389340907293446,-26.769803736508734,-2.027617386568938,21.08087996027055,-19.125648826702268,3.4025542715533112,26.062503662903946,63.02106231072028,32.07023911127843,-7.658950204556772,-19.121226755563896
25.0,11.628116605852583,4.574028747504411,-7.054087858348602,-8.124155289513542,9.270910918142985,-1.2007297660473597,13.329498622466929,28.095126028602508,57.87806889860951,33.305656549525416,5.986707033975001,3.2410043483491586
26.0,10.001664873575244,7.350685788565308,-2.6509790850098316,-8.694688233666104,6.338824999534955,2.31706850986403,20.05809552108323,15.753829691206835,24.91283450345979,2.895011632192805,-5.92748145516631,2.1826241547957603
27.0,-4.027379100839427,-2.8176645911947817,1.2097145096449626,3.4027956123398155,-2.600364564878099,-0.8310098136989506,17.600794978543565,9.394239782409704,-6.7069369780403925,-1.7350326354291212,5.359478291506572,-0.3713201620106845
28.0,-2.390586969891801,-7.176766134703204,-4.786179164810896,4.836514414056567,1.2239717875506808,-5.925625044905162,-1.2099194395728476,-10.617777317860602,-16.589892276499477,-15.395176250398084,7.3651473171618225,3.929210649470632
29.0,-4.520345898074352,7.0168260416001305,11.537171939675115,-1.2827491430727642,-7.992414390146431,9.256206156917607,-12.259978606903847,-13.095505763001166,-24.47714655819083,-11.56107418526559,5.226095509202769,6.70747300319001
30.0,-8.374565399311402,14.464096670192358,22.83866206950436,-3.008219473618035,-15.63781683811504,18.630488879433052,-18.867908214886622,-21.336828185116058,-32.33048913243556,-15.26448045831335,-3.9775539698050473,-6.22335469928263
31.0,-7.369334460707018,-12.929500820465016,-5.560166359757504,10.103342851293554,-0.9253485622355644,-9.189301754654483,-5.374243038884323,-11.78395891873392,-18.9627141932894,-3.608377975066194,-7.725024410567538,-10.180027281105268
32.0,-5.491372444824063,-0.12212301730412545,5.369249427519971,2.840959843243307,-5.443101745521359,2.595972389444663,-3.0968930308092846,0.3648123297050656,2.9900089977920565,6.47606326153042,4.086662801067414,7.950905264850983
33.0,7.672340419106331,-7.610952600255944,-15.283293019362757,0.010190671402220186,11.469595085926809,-11.480601058271247,6.543751238497462,9.107483291727624,5.980601838587651,3.863831273672716,-4.02861974091103,-0.7812601482706755
34.0,3.0855694320611144,-17.462417756851465,-20.54798718891326,7.160301824307058,11.809737511851068,-18.96634238215174,9.642726614319978,12.420816841433766,17.243873342350042,-0.36329099845807633,-7.760057300783117,0.010601369168871444
35.0,5.765956391035404,10.71855085065594,4.9525944596199665,-8.260752441386765,0.47685227594280555,7.790135699003516,3.6175711518463425,3.490284978785432,17.721466282895335,2.487546847053229,1.8204747250936546,3.299710423065287
36.0,2.1195989049212223,13.594451207137848,11.474852302216384,-7.869285699173451,-4.689625603437766,12.564754133392862,-2.9392979292724535,-3.7498797108309443,0.6762477217062326,1.6950006776373256,0.7841019634335302,-2.224047545859067
37.0,4.01077787455026,6.3197151173892,2.3089372428390638,-5.1769771790450765,0.8343417269968172,4.344631568200454,8.04410277119208,9.582190851878195,-0.8679015808586277,0.19323827420594286,3.502682700810748,-4.664255386978352
38.0,-2.513364751651785,-0.32964409494579217,2.1837206567062823,1.4825973717602432,-2.3701744297325957,0.8824701399041581,-1.90279235164512,-3.7586512131147662,-6.180538742721085,4.588891131232106,13.089259924407013,2.835838100530475
39.0,-3.381092046180457,1.455394914892113,4.836486961072933,0.9337801953305309,-4.135065583415444,3.1869488775325925,-15.177436143182549,-8.719856427227587,-9.927779122872725,-1.0628944190877678,-2.4168679918139393,3.1589917506815355
40.0,-6.511384180018991,-5.17387756709299,1.3375066129263353,5.799105814610907,-3.875078893772114,-1.9477030793170846,-0.5671034026184181,-6.0673469956162895,-6.215795172607054,-10.796785891964982,-8.96393421748664,3.7245708184448083
41.0,-4.332841632441779,-3.016512203409932,1.3163294290321539,3.695742678467145,-2.8544506914744954,-0.8719705166706091,5.149176256885615,3.466408150602981,7.612177669154267,5.743594946981935,-2.133833716349206,-0.4625946655675699
42.0,-1.401607060034276,-10.623262847998769,-9.221655787964348,6.0230353273374435,3.9616416184702157,-9.860461828304349,4.6071693055964795,-0.5936615662377556,3.9874991051476636,4.363415784911764,-2.1129670812070143,-4.163468704439003
43.0,2.457834294371914,-9.600033900311281,-12.057868194683211,3.5773732875596873,7.2364264934143385,-10.844462250003664,1.930878992507158,0.1448221163027421,-1.5664175125234627,-4.597522971233815,-6.855665106554325,-8.610329557131807
44.0,10.08857208567535,15.951792230626829,5.863220144951387,-13.01144349021279,2.098886632372456,10.888977891649489,-5.457300933271505,5.5014879499682525,1.8411841913670748,0.16470157572935729,9.100469616009205,1.8935099795203851
45.0,9.952675875933934,19.239106704729362,9.286430828795325,-14.579331358569819,0.32736861474308854,14.237883657641843,-2.7025508802204254,1.1693675257066247,-3.46480693211672,1.3314026389738314,13.841626386023469,5.613562827040106
46.0,-6.28079192795955,-5.116369155310613,1.1644227726487673,5.725250787712337,-3.721500438587077,-2.0084384614459605,3.826629148411391,2.6336499838198786,1.5389593961078283,-2.238531979312292,-1.2308142063694323,3.427672472824547
47.0,-6.552439730578638,-20.577410409854693,-14.024970679276233,13.52168371570205,3.741758185807149,-17.26105710597644,3.370571850227132,-5.01461634910974,-1.173122781839951,-0.6013698836786452,-4.816301956197124,0.8873636551459176
48.0,-7.062508261993219,-3.0992315815942515,3.963276680398844,5.042545181645653,-5.506373651705698,0.46953003772450774,2.550946028208724,4.092675635636548,7.846599289937252,2.923256569861902,-9.464723337152993,2.4719893575498038
49.0,1.6397022057007948,2.2222466578082947,0.5825444521074408,-1.9690128875373358,0.532326632528334,1.4413443101637802,-1.9200458060677852,-0.8041903551809267,-2.1165358175597384,-0.3333845262212696,-4.727908215041034,-10.44280829430092
50.0,1.6696022007396416,8.03434939457069,6.364747193830944,-4.814280646394075,-2.3503630864014813,7.1639428503904155,-7.3074212146834805,-5.707882668202453,0.03805992959289506,0.6909877709359044,0.7220160898928061,-2.338777821617431
51.0,2.0941739226411316,1.1400131092320542,-0.9541608134091661,-1.5832739531364126,1.511602993697723,0.061735474423825654,1.9578368811698574,-1.8975953522920164,-9.31084449900957,-4.733697092485151,1.4854675564267725,1.2070684553276663
52.0,6.359428899829597,10.870665260181124,4.511236360351536,-8.583798707409985,0.8995389852477054,7.6618536221623375,2.125991374655937,0.2888223818251241,-3.9761394770775125,0.5687295194123114,7.573157508202934,9.748800664590533
53.0,-0.8839710417377682,8.149050467794735,9.033021509532663,-3.601701123857688,-4.917165872822682,8.639050919411899,-3.2177624078921543,-1.6964967225466514,2.3869504625722984,7.938473978721796,9.11181571527319,1.1567101535700233
54.0,-1.4940547966654538,-3.687904828559835,-2.1938500318941103,2.544298127432823,0.37891135708457024,-2.976732690921917,-1.6560244172964929,3.1564276451529762,5.862370789960536,-0.878269990913326,-1.475111128994497,-1.5168757244143574
55.0,-2.7989988105979076,-18.871953825483953,-16.072955014885768,10.790577249009456,6.576696865798097,-17.43644573809679,5.548671995420609,6.546482240574139,6.653048601469768,-2.9189255126873856,-4.211169676872519,-6.496716733199947
56.0,-2.9552863875822095,-7.141829706606318,-4.186543319023953,5.005378245250539,0.626227396502355,-5.713111733583661,3.4439198526785457,5.854100666714133,6.196106065412171,3.951894210735585,-3.748331666747766,1.34421995839394
57.0,-3.428364271570671,-0.5894400860760278,2.8389241854946183,2.0464561053263575,-3.127710860136066,1.1513548778742546,-0.6784315353632526,-7.105674246926611,-10.048747654428023,-5.849177105406417,-5.247387885217792,2.1551753792437043
58.0,1.9135617022993354,4.427687895301155,2.5141261930016183,-3.129956346241545,-0.29572978023212726,3.4984619458847765,-7.587814004769016,-7.877784235768758,-9.633524697759032,-9.564218608598408,-6.893608318544845,-3.92272646473175
59.0,13.694558217931501,6.473854939699179,-7.22070327823257,-10.038794063215896,10.463621972533979,-0.3411952570450021,-0.44827771388084514,1.5886040928532648,3.4393198882222373,5.6527727312570155,5.803961622029836,-5.546397123326614
60.0,-3.24876745480354,0.770109451366257,4.018876906169612,1.2118393760771564,-3.624577335087615,2.3544687097396606,4.168426039967581,2.2359223027339934,2.721765806277719,4.495900975628086,7.7019807587057345,-1.9933151213262807
61.0,-1.2487143620203045,-2.276478887624643,-1.0277645256043453,1.7406123668822022,-0.09748685578463268,-1.6864593472890537,3.23505765167341,3.0308424966633196,3.1511878553736907,0.6228205640630731,-1.0520885227338246,13.855519961079962
62.0,-5.800650359834717,6.158625015311863,11.959275375146694,-0.19740965052011406,-8.942733460907213,9.105966839920912,1.31759346161272,1.9290889457903349,2.437838542062577,4.317327788540784,5.697109845701579,5.95399667806752
63.0,-10.746534026095292,0.4271362414691038,11.173670267564491,5.141996725886642,-10.942637324806359,5.767186000737327,-2.4172111019752336,-1.2060219254976992,-0.055440862992004236,2.7168951767806107,4.297148465387771,0.057192663980099034
64.0,1.9999560961816791,5.159723896143191,3.159767799961614,-3.599494763499609,-0.5625474280126186,4.121577115300611,-3.996211312991358,-9.326949807874454,-8.337253627898045,-4.355889050561948,-9.276193130754553,-2.884946595202443
65.0,7.598587190147085,-4.28269747801733,-11.881284668164307,-1.6025683860381021,9.756067425612885,-8.047887908730093,-0.49919739046858314,3.2780694729408943,0.4825843878525564,-3.7148304773618914,-6.880957469342432,-6.638686385393068
66.0,11.850294820402452,1.8700245431441607,-9.980270277258253,-6.809361682212474,10.929840474231721,-4.0265905259987,0.24047372532357797,3.3445906353516994,1.5344577439883533,-3.3830209031600598,-2.3206690316365495,-4.252940240778985
67.0,-0.23269373686512296,-9.112275227845096,-8.879581490979952,4.6394195972680015,4.258204597345712,-8.970105803221426,1.9681329675316346,3.2536502094220388,2.6098625940786104,-2.202184481701301,-1.817954855748644,-6.850869888053545
68.0,-3.2037525570280865,-4.878575539303623,-1.674822982275467,4.002195474388452,-0.7506284054294579,-3.3286619333986627,-1.376264929092164,-0.34999261552886507,5.321618893359439,7.170641987318669,9.400165653353142,4.491231917929884
69.0,-3.7673487336251608,-1.1817925247618883,2.585556208863294,2.5073573456642464,-3.1602697260717796,0.7328948853652731,-2.360749469959315,-3.6241468397634162,-5.210026272090086,-4.1034208771595875,3.9996296257362465,6.411271171802417
70.0,-11.660723218848366,-6.254012834828702,5.4067103840196475,8.903610034850733,-8.51298256475576,-0.46514570708429126,4.96563325838345,-1.3497281425865235,-5.730039217058834,-2.222082903873595,-2.184791913080401,-1.12590099590847
71.0,-0.1923448447067635,9.153754106962648,9.346098951669365,-4.4631624103656415,-4.742199415340293,9.293946535431147,4.167037441848163,3.5146414095291725,4.374878292205368,5.538068125637569,2.9703700410212743,-0.1109220036213614
72.0,5.314035828843067,13.5375146027503,8.223478773907207,-9.413638853538236,-1.4994325670679922,10.851803602384468,-2.3338111318152555,0.21722204403934808,5.632662793133498,9.886866305115419,1.9851365524742157,10.432854591566041
73.0,9.156911185341837,2.0271751358661083,-7.129736049475703,-5.581724727430248,8.105233969728921,-2.575388550147539,-1.033694442446325,-1.9937195395470195,-3.1959983470680946,-1.4140506515671478,-6.28858501361508,-4.0270396591681
74.0,6.968695775756039,2.954877020993158,-4.013818754762847,-4.949048775912296,5.537377756118226,-0.47185479015606036,-1.966092461156724,2.579569047694353,-2.690712060069054,-5.866289003330503,-0.5078792713174702,2.102993487127885
75.0,-10.298719814375888,-3.719416176706433,6.579303637669445,7.0278392753979775,-8.467541954158396,1.4104306531407218,3.5717519678407315,0.8746076799576745,4.784861264764208,1.4933176929731475,3.2798959850117066,2.129592393985338
76.0,-8.326661166148739,-18.240557511572106,-9.913896345423396,13.23156689107548,0.8468215478677261,-14.096033782577974,-7.363424482164795,-8.966141669545385,-6.738314546773948,-13.473368932591653,-13.902752653739068,-17.47579643041047
77.0,1.8162958069336517,-2.453527407371668,-4.269823214305315,0.3530080959388906,3.019804780617441,-3.3803074486861435,-3.611065650789561,0.8170969752049317,-2.3990844715633095,-6.353855579909041,-4.296384612495881,-8.457822591054251
78.0,3.095626901923108,9.786976528080775,6.691349626157698,-6.48002128655968,-1.8191219894682893,8.299038041726703,3.7964612101995816,2.9370704648527584,0.8181435565881211,7.890083197543972,9.859553536701496,8.953678087093884
79.0,0.20415078678047194,-3.1002061697452,-3.304356956525685,1.4908331812642253,1.7349704142965103,-3.222123812544463,7.601442148802525,5.48368953771813,6.2438303185015425,9.379871191953717,7.9761077635278035,2.2507118387382725
80.0,7.219510707360855,1.954402535768426,-5.265108171592486,-4.622602239181369,6.303840840621417,-1.6775936597126044,-0.9445671220512581,1.7128112738183372,4.144197391212058,8.32791931653017,7.995009883967052,2.50226575807726
81.0,4.285486082913403,9.485425442787632,5.199939359874207,-6.9219273303367155,-0.47243508448180593,7.394529975777929,-4.855389872951131,-2.2753506666374665,-3.635056696804853,-2.0295528511608025,0.18994958498514602,16.60350612258364
82.0,-6.851888411681487,0.9495619853660306,7.801450397047551,2.993150577192955,-7.34031278125256,4.34119310788964,2.763855096121224,-2.8983607707736625,0.6144251060144303,-0.862847169366769,-1.659774304409893,5.627811807552681
83.0,-9.44463885191128,-11.115187361069408,-1.6705485091580732,10.32324050124677,-3.9000688473225815,-6.437022341550802,3.4797704353766044,1.692098161522357,-0.43183528348792843,-2.941252805602041,-8.497590182177344,-12.011678506011979
84.0,-1.9904291929426967,-4.403098910721148,-2.412669717778368,3.164146530993699,0.1973639517333554,-3.384251723862037,-1.4521503946618988,-3.9772146986811707,-4.305943189738186,-7.967724360240174,-9.616059962528194,-16.310925720817274
85.0,2.574948882561591,3.7215522692203367,1.146603386658823,-3.0993788684763186,0.7769036655291773,2.4476595580585747,-0.511778709810008,-1.094889660121416,-3.5823458577658562,-4.303626025960895,-3.593108989607055,-0.6877147746984988
86.0,7.445734472122959,8.395005951195516,0.9492714790726011,-7.949812347314974,3.2285176005412497,4.678681865838774,-3.383833064215318,2.8068000961736166,0.9125576119081522,-0.7839930075010999,5.436775008247599,6.706947801307154
87.0,3.9877481972917828,5.989243283427275,2.001495086135462,-5.021585188174698,0.968698095835288,3.999308472480698,-5.8655201665816525,0.2304707531151664,3.6217271982267034,5.7683953155841,7.415139380806988,2.647603188109902
88.0,1.612292292298061,-1.9372576670188573,-3.5495499593169906,0.12142723210578721,2.551520652875073,-2.737360819948554,2.4218419639423736,-0.041873330400972186,2.269803416285482,2.492189285002297,2.342974954168252,0.8073495954737888
89.0,-7.27942454947526,-13.71071699397336,-6.431292444498235,10.522196184761334,-0.37893773300124156,-10.05903727294064,3.7202728700688636,2.9719178884131647,4.62470180645267,1.9838068269537552,0.5202660710885918,-2.4111314362308787
90.0,-8.053775012948957,-2.336335209485118,5.717439803463703,5.212114709264871,-6.921797214724423,1.6318713417404194,2.302336379070971,-0.009699592828539716,-1.9783814865438445,4.036082626208889,0.4215275292202908,-3.6491971871359814
91.0,6.140015483683407,7.7105618218961665,1.5705463382126874,-6.914579978115173,2.3266931635858925,4.669094640244385,-4.435398098397773,-4.322235231552429,-3.8178992945582273,3.731710371548985,0.4893936371901706,4.895522505455451
92.0,2.908161874824135,-0.8859772513170636,-3.7941391261411317,-1.0010895956520036,3.393900265511615,-2.3041174668681323,4.581010515569929,-1.1168278589221043,-4.286640031305829,-7.158004835573386,-4.9602343326385645,6.742022482011717
93.0,2.120035370695281,0.31596130340818096,-1.8040740672869515,-1.2032503526164324,1.926955629545147,-0.7812901285523743,6.990916370669588,2.826090634459046,1.2900845827188099,-2.6880148658950533,-0.6066777801710606,-0.6810035961791394
94.0,-3.620648030181963,-5.312788696541564,-1.6921406663594352,4.489408071920117,-0.9996584810559437,-3.5359234187333777,0.9313565307050522,3.572702740893786,5.42894349935029,2.5036482694201743,1.6039704578207732,6.032787375626548
95.0,-0.7151774855347592,0.6980523592815279,1.4132298448164293,-0.03974539249182374,-1.1016527964061986,1.1035586884417523,-6.970207749530132,4.049068867752385,2.2238069415977275,-5.089571301164736,-4.781814573079611,-12.781454551602131
96.0,9.183213890871055,9.413088757344909,0.22987486647394584,-9.342024742260916,4.514871819111356,4.793023204921137,-11.988377819049596,-8.681135381098759,-6.8286727872578314,-5.282813730323916,0.7374406342995734,-11.501887054242072
97.0,-3.874313866116314,0.8260588270465989,4.70037269316296,1.558482401753753,-4.251655722662937,2.8162761967019776,-1.1633900384694265,-1.3845600633579203,-0.5613490745158427,4.512930973625335,5.862542341748679,6.337210285898872
98.0,-4.537763457474288,5.085811595327849,9.623575052802122,-0.24473011060217414,-7.1238690168073635,7.332209262682357,3.0607886038863485,-1.5059068416070966,0.7115522949043259,1.4454965404033158,1.5903434999293449,8.24051101361252
99.0,-3.3685184721032546,-3.983515710417376,-0.6149972383141984,3.6191840238544306,-1.3379021030670069,-2.3186988954538066,7.47969187297186,0.3188703927354563,0.31563007049820013,2.8344024136541104,-5.013264060977447,4.124201146429806
100.0,-12.576601527241934,-16.93839356876498,-4.361792041523128,14.772875089935914,-4.140762487819135,-10.667629099489755,6.027508170500422,0.2149512426346134,-0.25886356183285064,0.7775135736771182,-4.795925055100756,-6.637616277794606
101.0,12.699983487986417,3.2144126228186956,-9.485570865167823,-7.944623728467555,11.14636231884391,-3.07453858267297,2.7890717649617485,6.397985734378832,4.832210390891417,6.688645403451277,3.4584058634459462,-0.39038257334319804
102.0,10.257693785400404,7.446408361271661,-2.811285424128788,-8.837049144585384,6.516728824480424,2.297055661543315,-5.421002921058461,1.5256881122893642,1.4810918435343217,1.5581557869215514,6.649031666203252,3.020005235314132
103.0,3.566019968553329,0.3723844852760969,-3.193635483277224,-1.9471631438438495,3.3662273380574,-1.4364096391457228,-3.2580858026939428,2.1746007612243896,-0.8552119470403328,-6.152909380575493,-2.045059255138935,-5.876202433130494
104.0,-3.974255116660805,-0.700646065335703,3.2736090513251184,2.3684891385743105,-3.638070897923214,1.2538950840319565,-2.101731509749139,-2.3456381942142546,-0.1972425884670197,-6.274942090069843,1.6148898106663474,5.852794981091444
105.0,-11.394189357296304,-0.12441989936606912,11.269769457930236,5.718879966378324,-11.351093751577768,5.612133320341271,1.3185186366411652,-5.23495723158141,-5.161769825834703,-4.5110633239951365,-0.30435280463136116,4.952581949954493
106.0,-1.889100372197186,1.3408000596146825,3.22990043181186,0.23617484475766481,-2.586012234959173,2.3199997465308124,-2.47350192880592,-6.423998425316974,-5.200299676451133,2.042605254833809,-2.9307327193383506,-4.572290219480478
107.0,6.816520527972277,7.307920317385342,0.49139978941305884,-7.1037096595984295,3.2079820604741975,3.853994681563925,-1.3427128359530471,-0.5138600964622104,-2.220563483371512,3.6455086055994546,-2.901747369574922,-2.7270815918436133
108.0,7.5070327749512,0.6593310232302707,-6.847701751720902,-4.053953650162626,7.219259910174402,-3.058984518591113,1.3393191952730867,5.202657702064548,9.311149423955207,5.785524427165503,3.393949253614175,-0.804060457708313
109.0,-0.19090948359022697,-16.443013263509844,-16.252103779919604,8.337019752983254,7.994700436575722,-16.38589352122819,5.729806761734326,8.667591563868436,5.640058868528971,0.1308337501178789,-5.6496812624199215,-5.118643733526321
110.0,-8.90705065170692,-1.4633586463720318,7.443692005334846,5.198750644883513,-8.127908418629161,3.037510730390502,-0.7272882449753197,1.3662054701229343,1.6033412739403783,-3.2083469230879516,-2.7847358470652197,0.3672166309788847
111.0,-10.350336697432454,0.3338522308649208,10.68418892829731,5.020490388314586,-10.542791792935251,5.484500971626615,4.951132974590809,-4.041467293805908,-0.2682715701330318,-1.1329070315760446,4.520262046298834,3.554398418758922
112.0,12.448937861039004,7.901507890190201,-4.547429970848824,-10.158756086160716,8.476504955727414,1.6577220562624828,-2.9606487407019606,-2.4866836454867958,-5.3731271132053475,-0.7336374782780783,6.35122945230219,3.260333832076548
113.0,2.6941822731638085,6.070707087187378,3.376524814023599,-4.3581636505990025,-0.36322384356079773,4.706697003088824,-6.96825937357731,-3.5916755260388893,-10.154809340723334,-1.8197808463876437,-0.5129824754394279,1.6938526815169295
114.0,-4.01604196475547,8.23734418957705,12.253386154332565,-2.1568302343355183,-8.1620471889565,10.306369778438683,-4.509958281066245,-2.8747578770603863,-2.1454060874129075,3.5258549579251977,2.3285673745889945,5.118006639422112
115.0,2.3360712915012654,-6.288824996525068,-8.624896288026296,1.9361582547517733,5.5227668221530415,-7.478425144642085,2.3329312469101597,1.5876782336896078,5.479761430313328,0.8192515170209078,-1.031116837325369,-0.3079041084336338
116.0,-0.5349826807781839,-8.569114588631635,-8.034131907853434,4.514212548410865,3.7810329593530256,-8.329270416918446,5.99339149254452,5.619260694116724,6.114745366444082,-1.504125234223582,-7.280419275738528,-2.8614723833269116
117.0,1.8959408179714954,-0.031145535262870006,-1.9270863532344107,-0.8920575557380612,1.9328178035759611,-0.9352659467148499,4.797570707473347,0.8602318636332997,7.314913024131922,0.340197251066925,-2.029830555457071,-3.4206309281642686
118.0,-0.7361355978349744,-6.72027092693379,-5.984135329098923,3.7667662456264246,2.558960152679168,-6.394174980677053,-1.8471285021083408,2.389194837978664,-4.182861392853285,-0.7800976481196378,4.312285400143499,-7.037379943024179
119.0,-4.230011278699166,-5.595106322957661,-1.3650950442586003,4.949756372342742,-1.4225803781393913,-3.448756989722976,-1.3032268011257033,-2.780792487188923,3.1034187957945583,2.200954784729168,3.4442659806715437,-5.2423212492727815
120.0,-0.5963372776916913,8.408122949358654,9.004460227050258,-3.9479028385033823,-4.790008167377115,8.656392335205556,0.14435518136867564,-1.5774444706744384,-2.076648816988577,1.512209306378864,0.7466648791693304,2.7922461311852
121.0,4.053811802575591,11.19448717641491,7.14067537383929,-7.587719780004465,-1.5281383843009904,9.197666981657424,-5.200805606171314,-0.38558802739142006,-12.551471542186246,-3.5986772202604613,-3.2383784938486038,6.63443088609462
122.0,4.188813357357333,-4.972563632474293,-9.161376989831634,0.34805155972843416,6.620395268212061,-7.0320378440003495,-0.9412577562511955,-0.8041198179221933,1.356378413408069,0.9725158029595993,-2.186387582509549,11.409676860731382
123.0,-8.91364731162454,6.050558921296138,14.964206232920674,1.3840936581809318,-11.9034881006018,10.470798630828934,1.0069308080447468,-1.3035214723719803,2.504835801778878,-2.030489088838901,2.201555963669201,2.472309976726394
124.0,2.6034113848930636,6.353407554232391,3.7499961693393447,-4.452702438407115,-0.5257705657149017,5.10134547112557,-1.4033909020075923,-1.658694564450952,3.876847550387148,-1.0376257615768514,0.8300524292116407,-11.594933266596207
125.0,1.8871898920964874,-5.508490332377988,-7.3956802244744795,1.8300378080108999,4.620553200091425,-6.475873008858562,3.713382355000815,1.976171608306944,-1.4295663854662184,-0.6027583987684989,-4.4332278313635,-7.419523501564309
126.0,-1.0742789603464287,-10.50921714837429,-9.434938188027875,5.805785340784558,4.1657204442839175,-9.994431399095333,2.1117385621230707,0.20196322543929024,-0.6467037969905405,1.4527904279425057,-1.0556767672435996,3.101592985488975
127.0,1.186065149040844,-6.8842830585302615,-8.070348207571119,2.860122610146844,4.614393510188213,-7.5023611260486955,1.7622756767371557,7.2207506586550565,4.548169435013536,2.209047885523214,0.41923255422241673,4.001388164225331
128.0,-5.836022655083333,-0.9771908511067466,4.858831803976628,3.4174445126022244,-5.365692069932891,1.9104197797680986,2.5622190338977835,-1.9458591602008473,0.08714159388487008,3.098839170348116,5.382298815755879,3.226072104219013
129.0,4.934288899950116,3.9469812771731525,-0.9873076227769118,-4.506199962261652,2.9348129010210435,1.522721711804209,-5.635696768185902,-2.297694575647075,-1.60856547568021,-0.25215558932224813,6.1820372383212945,-0.05417469464047642
130.0,4.118373412244157,8.189769574564975,4.071396162320867,-6.13686081255686,0.06834826535768257,6.170308629580221,-5.378507825315962,-0.16738126611705617,1.7744858817945155,-0.36205160239439305,0.21034561294946386,-0.07896333604241812
131.0,-1.8537426016604053,1.942833331385451,3.7965759330458875,-0.022640111915808614,-2.7853762026070017,2.9096389148858783,1.9327328992656305,-2.0304714465218447,-0.04733114588524456,-3.1422985235056005,-5.238462727117038,-6.586065502822961
132.0,-3.3239253801961466,2.2173058910579053,5.54123127125405,0.5796200260208058,-4.472021768224034,3.843247331077986,3.8650501149081764,-0.9822823874365292,-3.9081745294935715,-5.083661715091236,-10.200622588322457,1.762112452178612
133.0,-1.0358072885000023,-1.7061605627727583,-0.6703532742727956,1.321875372327172,-0.13938757796058798,-1.2210179949133178,1.3914604826004044,-2.1994554341114627,-3.726661380976908,-0.8820060851901577,-1.312241015450235,-0.0633836378117183
134.0,0.25891125651218316,-2.5981422309040703,-2.8570534874163247,1.201044510415815,1.5293208559300489,-2.7589385169468823,-3.5760924632436892,-0.4649544805303857,-1.9276491132352032,2.242145186035561,8.661463452152015,-0.49994896897662233
135.0,2.755216313433712,-0.3211068194150184,-3.076323132848838,-1.2641538955851372,2.8938577525078086,-1.65311355381482,-0.03280443271127864,5.0594440971135075,4.052811239291617,10.33359188463744,10.168791615608514,5.327268473590543
136.0,2.129674907426144,-8.07697194582493,-10.20664685325111,3.0043804187207486,6.150360703447849,-9.17995934166507,3.7391635730118766,4.548717061744539,4.771769186052667,4.417502282209757,-2.022903246165219,0.006005489809645326
137.0,2.9095628539044482,4.774611045568878,1.8650481916644637,-3.812732711018669,0.5829435924494426,3.353504949043489,-1.5833520831997316,-0.9915249990563173,5.087469504879431,-3.336113777309196,-5.798524987377146,-6.4031376051896025
138.0,-4.095791484829687,4.749711813712506,8.845503298542312,-0.37753813728723196,-6.493740550146912,6.824317286735078,-1.817475530967393,-0.64523596500913,-0.32289900502324276,-6.57727146535481,-5.660898529658428,-1.4108128482418376
139.0,-7.04457833391755,-1.4903201076904646,5.554258226227134,4.295039132842376,-6.331267258671939,1.974715455271392,0.061656692355049114,-2.284257550944437,-5.494814808057071,-10.392229285997859,-9.755547436464445,-0.6554162897336417
140.0,-8.003766731786149,-2.281371859241058,5.7223948725451255,5.170270043812747,-6.826406216438263,1.739713276819104,-1.1632150452921906,-6.73989037088354,-8.967896357290275,-4.632673017248623,1.7369577397167495,2.816487269131276
141.0,11.434373355185736,9.27499852787258,-2.1593748273131164,-10.405053152036851,6.746067452467079,3.5778888598524587,-0.2647380315214236,0.6438323022774894,0.3058427249164959,7.668791993861408,12.555830645009232,10.892304373811422
142.0,7.709136156140767,-7.509895025105707,-15.219031181246446,-0.07013433438247807,11.48767923620698,-11.341027256096439,0.39066084974220827,0.5395565275671902,1.1635352377857973,1.7835517026809402,-0.06589775289964539,0.9124995769714226
143.0,0.4131472123228148,-7.342590265312823,-7.755737477635704,3.4169547753034086,4.109968335437777,-7.599990470713754,6.057557144904589,5.821633431134034,3.0287539641043386,5.676638186814614,6.335028966829516,2.31695396389643
144.0,-2.823676282830747,-1.8521405899842378,0.9715356928463965,2.370865433554049,-1.8636941623808245,-0.40826699949109546,1.894130565284839,4.39416325395597,8.176993979970451,10.102243778354145,8.625530443514942,-4.97037358592468
145.0,-2.7006446853533945,3.5733744270802674,6.274019112433576,-0.40094003584927007,-4.519051690321836,4.8796421096842195,-3.6258048963873053,-1.6886999047227294,5.4428768612129295,2.6723258081843566,-7.468896040648065,-18.074506135636327
146.0,-3.5571258480495764,7.513230951157782,11.070356799207335,-2.0186475197546256,-7.33073055094623,9.3274144154498,-0.10469065183659199,-1.2432676455851117,1.7844157725328431,-2.0680934842613263,-6.784060553138118,-8.328763880621624
147.0,-3.7916389281557725,5.386677429094912,9.178316357250704,-0.7568457572940219,-6.489161135134154,7.2390552377703665,-5.568473882514635,-1.5561462937645745,-11.759848391447646,-10.189127988079775,-8.458090049567195,8.771163822577169
148.0,1.9910116346620605,0.7555617438393689,-1.2354498908226406,-1.4095310378947634,1.6170018108806974,-0.20528122191708764,-2.226323608373476,-7.92364621185014,-10.838978641602846,-9.651083749313297,-0.9673468370412266,12.712053467217462
149.0,11.13696584754251,2.5273395106543717,-8.609626336888054,-6.867416898824054,9.878558935915814,-3.00668228291262,-1.8379525301786028,-1.685646124540289,-1.0877255004581787,-3.7108293235189285,-1.754333487288474,6.053528202095799
150.0,-6.022890251100532,-10.255523906989158,-4.232633655888534,8.183081530716947,-0.8948887691251732,-7.287886556958696,3.582654908478712,4.287163654926738,6.073112196022086,4.44953792241342,5.153306481558093,1.817181938612257
151.0,3.105033549679611,-10.192617993664847,-13.297651543344386,3.5091812433612892,8.191382843814,-11.70939635589474,7.499823253532522,9.394756721519075,10.770948987782276,4.631245587801398,3.9931602126053924,-1.1018250149653184
152.0,-0.450853684568135,-3.804283985381454,-3.353430300813301,2.1720765723045385,1.4282104334138581,-3.621439898784745,4.5469260510521865,4.8546214142814,3.138475112421059,5.7747417304557755,9.607074371458925,0.03917866845313256
153.0,-7.729681775801566,0.38203964845748306,8.11172142425902,3.718447773573087,-7.8785518766373865,4.282582119457269,4.472444869019251,-0.9624255619844861,-3.7073579245914203,1.3741527342283089,-1.791863304025859,-10.287082224381919
154.0,2.358460816356864,8.159734833342469,5.801274016985542,-5.2941983783415925,-1.6910791204998246,6.9361182258461795,-11.532570935023234,-12.80486138821443,-11.609601864971593,-7.077691252015634,-9.34584211534058,-11.121118918168921
155.0,3.8558082677972196,14.72205924665053,10.866250978853216,-9.326870977677684,-3.5625153989585776,12.827002527565126,-15.171746124097755,-9.920467468497623,-6.885437904062095,-4.59646689006426,-7.0916882785777,-5.7407944888423055
156.0,-1.3189823146001745,8.207077195363844,9.526059509963881,-3.486649103152442,-5.406655707477187,8.820102463939977,5.027457780758798,10.744755912503635,11.876346346751962,11.461571815818271,11.425812068832162,16.866003438369255
157.0,-8.380106728540525,-9.420780041012101,-1.0406733124716974,8.931220224486266,-3.6564908740998567,-5.197015346834094,6.2277283165423585,5.354863998534937,10.55217961405674,6.840831674088066,4.790693747048177,13.841710739791178
158.0,5.428951748043888,-4.744257466374312,-10.173209214418167,-0.3158675081822224,7.814031087245739,-7.421287133781591,3.560987998728286,-5.816147508529947,-1.5193588861237628,-5.003227282407853,-2.872338796851836,4.250023087033108
159.0,1.9002516977457053,-8.45828077856773,-10.358532476313263,3.303795243566081,6.065194948285091,-9.444474868795176,7.694551391289795,2.643853404447387,-1.5382282126067968,-5.2284934218423125,-2.646124290720918,-10.87019581286277
160.0,8.354077271786272,-10.340621619250042,-18.694698891036023,1.01941709359133,13.542206796834815,-14.470074139296424,1.1022609818580902,7.12078041503514,-6.059011030681503,-5.228843780541395,-6.4262831826126074,-13.079621674980494
161.0,0.12812347263773471,3.105354730977112,2.9772312583395992,-1.6656911360032458,-1.4018527126736124,3.0125053607062373,-6.238798514983853,1.599091455957174,-0.7065700851520997,4.787757166959533,1.752942320355022,-1.729818443919524
162.0,-7.293117175723566,10.637438856657617,17.930556032381162,-1.7167006736649548,-12.582840429042413,14.253466176498522,-4.936222159428715,-6.124252183439271,-2.403393516660831,-2.2649380375765618,2.2775230457669258,6.497945655807143
163.0,-4.772598303690694,-3.572251990270426,1.200346313420022,4.210279821291551,-3.0291748430719245,-1.2225220803648185,-3.692116724804769,-6.320379255565174,-6.32666995570903,-7.851285455598664,-5.044745902524969,-2.4677908991590134
164.0,0.7179490420380779,7.806824641375027,7.0888755993366,-4.222600616699358,-3.142725881990895,7.481145109258518,-4.10217960888013,-1.7374674886567179,3.280231730712999,-0.9902198730425413,0.8261383469705397,6.772214976057634
165.0,10.446270937596397,14.894723075482423,4.448452137885723,-12.709389378488313,2.967975300763294,9.695668087037847,3.6949440294131746,4.336372111261887,9.35285056127469,13.460043963082486,10.075593931278963,5.894571587069353
166.0,-6.583848633212735,-8.472548991530685,-1.888700358318063,7.488090839007935,-2.3759310569006447,-5.1634962326452705,3.9071920390266444,0.7942868521012736,-0.5497551240429743,3.3421569679766145,1.8323572478376828,-3.285487854666776
167.0,-0.5379676443484509,-11.679024795327202,-11.141057150978614,6.145640827401197,5.351878559563569,-11.395837114738129,7.833593107879613,1.944520942777812,2.1649134012778024,1.5074896809729061,-1.7083069475901547,-5.981395132295261
168.0,-8.443079410800733,-5.441200236845815,3.001879173955242,6.978486905867253,-5.752869137415632,-1.282547235052867,2.894490484673666,-1.1988354422247656,-0.7260981623331562,-1.3350387851576235,-1.0010752262579206,4.923039501663267
169.0,-7.173738161335332,5.273579467870699,12.447317629206356,0.9080566174230409,-9.84346531572942,8.882063020099984,-2.22887769860022,0.17720776988748926,-1.750462738390967,-0.6541668613153253,-3.320395316638164,1.0592248260001536
170.0,12.149427199261886,-3.856226017450478,-16.0056532167122,-4.108603397517231,14.121695673987016,-9.900593947884904,-8.009282870925787,0.7616778073839279,-4.569601955525873,-11.592965117206719,-10.081606704546303,-7.824009569992329
171.0,15.879119207078503,3.343149668414986,-12.535969538663533,-9.65067385494162,14.251963691469733,-4.634424918310821,-5.08414479629,-0.9602820535766989,-2.503387995672965,-1.0424168176719286,-0.5083192007114867,-3.0291522888388047
172.0,4.917350964577599,5.533412245549263,0.6160612809714348,-5.186197517075868,2.1187401980490197,3.047482003164328,-1.2934945246462943,1.4214031187669627,2.889739484851842,2.4770044318677313,5.761038111907502,2.6163252584467296
173.0,-6.653927182223951,-1.7606418060235844,4.893285376200068,4.165578424951265,-5.801429714439597,1.627752003410858,4.84988951338125,2.175153174049146,5.516564317223541,4.2681890729855425,10.815624648060131,7.323728213826026
174.0,-7.736997021030738,-3.1060036054626714,4.630993415567833,5.454189807267844,-6.206969123417866,0.753112190619468,6.291903060950065,-1.156894324113838,2.332562872931085,1.2569356622462524,0.7400547403415381,-0.7911410186812597
175.0,-14.11009262106467,2.157810804565747,16.267903425630266,5.924387573030266,-15.128465005830197,9.208227172392112,2.433230541873964,-3.6666534779071394,-8.067186574171945,0.8526366380844883,-4.7438084285516755,-3.085333259901515
176.0,-1.569313927902841,2.6543865865481107,4.223700514451025,-0.5208879928851617,-2.9106753541174184,3.434922765424427,-3.145533019384772,-2.086664200406705,-0.5552847745384721,3.6335470399269845,-2.943465801578415,-0.24793444524500297
177.0,2.3005371082543,-3.9400595297201444,-6.240596637974097,0.838364527527977,4.259413609281794,-5.0988080850506945,-3.751334246839812,-0.0894886356703497,0.11964994845675203,-6.78601867470932,-5.185142657023242,2.197663891859934
178.0,4.584903225823277,-2.016114701432931,-6.601017927255789,-1.265011385508161,5.583726347385616,-4.326160939540426,0.9244532279211621,2.854396466742487,-1.2143539809407697,-2.1450378388008926,3.392777898127643,4.222578892742691
179.0,6.964705819047346,6.659527319634362,-0.30517849941267805,-6.866406559397998,3.6266480448115797,3.2254315701018457,-2.0127681108204127,3.9571099787324497,2.4521295815274007,2.799119304516219,5.875652954238758,-2.726133331048097
180.0,13.563530468460376,4.864967310142927,-8.69856315831739,-9.181264737892825,11.122806929373269,-1.962259636608937,0.9171423797055871,-0.8236201096438194,5.342630861847781,3.5606319959318777,2.1764323751177144,-4.030397960575868
181.0,3.4809027733018496,-0.9354842922512947,-4.416387065553428,-1.2297789162098676,4.018118876147689,-2.6575286445204234,-3.555760942366339,-6.035464398396075,2.490993349925823,-2.228080232455217,-7.759163069934247,-1.7213094737215806
182.0,-15.17434035733916,-11.051065299610373,4.123275057728275,13.085612270782324,-9.66084199934224,-3.4580555886663813,0.33393682552282183,-0.1173489275270394,-7.893617244042257,1.908624666250585,-2.0343191285203717,4.060205374019678
183.0,-8.74652360702768,-5.611675330096,3.1348482769311046,7.15713428957363,-5.958018586066389,-1.2409129729341237,7.769921170021847,4.156407529628812,3.8796870088916604,-1.1313796986841944,-0.31457858738583944,-0.6930649898407122
184.0,-3.001693661705164,-1.2808785234664068,1.7208151382383452,2.1195984051355374,-2.3868386189503763,0.21464541505258494,3.776526988074226,3.9955655805901027,0.40577742664290983,-5.642711474951658,-2.0774411000898665,-6.66063434165337
185.0,3.0998797202004127,2.497650927345214,-0.6022287928551844,-2.824639725746592,1.8148448923544351,0.9455309590907932,-2.16415355913721,-0.13953490723116557,-5.318388217524996,-3.4941524010801617,3.5335494201406576,-1.122233171104606
186.0,5.0625538410855135,6.019765558079158,0.9572117169941932,-5.495149548738253,2.0839173449348514,3.4949470781530287,-7.683729205933269,-3.1617252263570723,-7.144125242696996,2.80414011399986,5.144991412057702,5.906289549608893
187.0,-0.043953280397349026,11.654648787537548,11.698602067935646,-5.766543942440891,-5.8496702830546115,11.695873313491745,-1.1474760366596,0.2535072392742914,5.0573963210484205,4.925222375030179,5.337216162530044,8.306937171333836
188.0,2.063784738033223,-0.7324930300136874,-2.7962777680462563,-0.7112580182175399,2.4457157124669267,-1.8089703264938688,1.6303311335312527,-3.052739531348429,8.551646609818672,6.8024822571891885,-1.4329213795060827,-0.8962831902693109
189.0,5.630775678201706,-2.2727257508879193,-7.9035014290893475,-1.6492322311882937,6.781650641216911,-5.039258862907545,1.540129018755747,-4.298345622015409,-0.7792233189061077,0.7909688843076044,-4.0878743155537745,-3.854149184938367
190.0,0.6283028141885842,1.770648556742021,1.1423457425532444,-1.1710463932135156,-0.3179324812878219,1.4388276214982758,-0.5564536584186619,0.2844727887698817,1.3756854646723313,0.8987335816072248,-3.7508267533701662,3.432460518587699
191.0,-12.169367916598892,-6.501614348684749,5.667753567913713,9.284844863687727,-8.89416586911188,-0.426485049227594,3.960985427533465,6.147450872560034,-0.09870692208443062,-4.42836851519753,0.4482925270684732,-0.9552307469220696
192.0,-7.48986491633584,-13.602887812458444,-6.113022896123201,10.49559777308189,-0.6559850984720392,-9.8641928752723,-4.048862719144447,1.1472306610180247,-0.8399219144524237,-9.989448989260744,-5.7283614099120514,-9.012282105186644
193.0,6.26077011872337,-1.558044587763879,-7.818814706487705,-2.323623007377539,7.001336981630036,-4.695747450206444,1.704330166582548,1.7241829143356835,-11.295597542151794,-7.211171442789711,0.5431118435282973,-3.770619159791995
194.0,10.31817083115766,11.646063617103556,1.3278927859457943,-10.954528309728605,4.46315749302459,6.4754555741888495,3.801522737280292,0.3539677645305551,0.9124427780923128,4.899994479788712,3.555762934148357,5.528715648758043
195.0,3.894000902761667,5.48728902918768,1.5932881264261667,-4.662961013722955,1.2016154090511622,3.6018283916754745,-6.8673413613428895,-1.9748602666303032,5.635943499740934,8.524275377350241,5.977210552332547,2.694853332953849
196.0,-0.4692719677413071,-4.315075194850777,-3.845803227109096,2.419927380124995,1.6631609662052032,-4.103377169676641,0.14518240518197212,-2.3964424687049393,2.2154543589286795,2.709506040098711,0.3851882099101025,-2.932161418087749
197.0,-12.399180043551592,-2.1368464911788982,10.262333552372999,7.216422003297084,-11.276732740568812,4.034916585423256,7.649792960250695,-0.7178687042767566,1.965956654814013,4.2492573458940175,-0.5077069681402293,2.3888851600849264
198.0,6.627697654154643,2.529633855903688,-4.098063798250723,-4.631988033216337,5.3366727679119315,-0.7370603611300659,-4.408972851295772,0.09450791367059175,-2.3817945580019444,-1.5201804076746326,-3.88517681869783,0.5947403805237417
199.0,-4.187355143439122,7.560162823636242,11.74751796707552,-1.6635929299637944,-7.996745955392598,9.619496557072083,-6.808750535326555,-1.7626024078649332,1.9907644419295678,-5.286432783153487,1.0704408212557008,6.374253898887396
