Time(ms),I,II,III,aVR,aVL,aVF,V1,V2,V3,V4,V5,V6
-200.0,12.229923275367742,16.35343448248728,4.123511207116492,-14.224212669790628,4.074228828773088,10.280559294633758,-1.9510115769481557,10.47067224215584,12.568515461387086,8.854801671643148,7.163758195148832,2.7905783099948884
-199.0,-0.7509276039932047,-9.568958685303926,-8.818031081312622,5.150131043548182,4.05505421035719,-9.22698579753191,-2.0354951358655553,0.43642974141253177,-6.299409904789752,-11.787579193869854,-8.371801869876215,-3.962969887011173
-198.0,8.574437551589165,-13.82058737920158,-22.395024930790242,2.6134828557975225,15.42764647789118,-18.057390129393113,1.904238805766009,3.87604632271563,-12.66590635731666,-19.526460778577654,-14.113132260345633,-10.678328058201684
-197.0,5.217676695244048,-2.8732722045790577,-8.090948899821232,-1.18221495229227,6.677396260259392,-5.504309560323486,12.253070936032142,16.35724479794586,6.310745936556087,-0.8304161683603759,-4.370147831535785,-0.04182511481436535
-196.0,-5.135417076981192,-0.8425623882211131,4.292854688761922,2.9782967561855562,-4.687094029600901,1.7081906403461344,-1.0956825899453455,-7.379735844439873,1.7510586311151917,4.5716026537717,3.8294245223565833,2.6267695672081297
-195.0,-4.970510208090712,-13.315798012997433,-8.345287804905354,9.131590530950506,1.7212105357638627,-10.845114065383658,-11.673195662075116,-17.552787272903053,-20.727020288324848,-13.198239843164725,-9.60191135689336,-9.050425642218766
-194.0,-1.752761121796266,0.9943631079363587,2.7471242297334966,0.4449953318618127,-2.28631825528379,1.8543798924737196,-1.2740859130187046,0.6286555782849828,-2.7692113788426553,1.383245911035719,5.389768584500075,-0.23604723837082342
-193.0,-4.719708979779618,7.6098907252978645,12.329599705078005,-1.4606814360115064,-8.552822359333863,10.025901271297787,1.0585159102426887,-0.39628682174261165,1.633041138367652,5.310328675223926,10.943232723523497,2.9320680743714265
-192.0,-6.744972970724614,9.178072485833665,15.923045456558455,-1.2369034750024324,-11.278014170983038,12.518098228756662,0.9310929878313944,-4.586502000559415,7.25428732205738,6.968205117078899,6.254358727197703,7.795385629758516
-191.0,4.205944724912204,-2.417915741131779,-6.62386046604481,-0.9217982314196034,5.392879250041586,-4.48647892452423,-0.09798383384553595,1.1673045103713442,5.345471133266781,0.18147502307921926,-8.517247902657267,3.1028605968118077
-190.0,2.4571994806081285,5.4289298133316315,2.971730332722199,-3.901903094711425,-0.2838364052228879,4.144232669994096,1.289431808868853,3.381170431975369,8.197477556976303,5.3801828550359785,-4.990361776536789,1.4155220818502645
-189.0,3.5678216672000187,1.8031016542392833,-1.7647200129621003,-2.7339166738269114,2.630868996742677,0.03251094510870056,4.488084073071039,2.910480015535128,3.564279714247731,4.830479847263166,4.209482471397126,-2.3359538702714358
-188.0,7.02537989790261,-4.606837557334217,-11.632217455238075,-1.188833098672182,9.361325700949617,-8.1111054989173,5.972594700039827,16.074823458935768,2.755625802051968,3.384465274849627,2.709687416727026,-3.9739783528057018
-187.0,-0.11698785266681089,-6.113880368349092,-5.996892515682754,3.129233157541666,2.962384745347121,-6.046247416513707,-5.899150983624825,-2.9312393688433023,-12.431213918784897,-11.61564355500005,-5.125938302483158,-6.452408590690455
-186.0,-3.768681973687295,9.160386113307853,12.929068086995626,-2.6838569917876374,-8.333763208866811,11.060119940928319,-10.653336600825535,-16.195351065442864,-10.841779836779907,-5.732216969543829,8.53042713949019,10.347956627990971
-185.0,-0.2735396041100584,5.634027563308813,5.907567167419887,-2.664721500730675,-3.0793703728816424,5.796588636533422,0.40670306614068696,1.0722435053000954,3.6073951262712267,0.7608136280737989,4.602822688270145,4.905990736512242
-184.0,-0.9826587093356158,-5.309377363430441,-4.326718654093625,3.090896937598373,1.6818387596743487,-4.858722672705268,2.236369292539062,-1.324279955774173,5.450928426649188,1.669808580833509,-2.0798654524842597,-2.3981447624012793
-183.0,-5.472187671843063,-6.0533852975932545,-0.5811976257491825,5.797359859528797,-2.5148497810806845,-3.346132244871021,5.592022671420073,-1.2582876017796905,1.5827105625317293,1.9313151190659705,-10.449406409614733,-3.692111857817996
-182.0,-6.988194961867296,-14.26997063694739,-7.281775675079586,10.596417984550222,0.15538601753544645,-10.795008772845131,0.941408425121117,1.059719432005572,-4.972737092784477,-2.43258696707296,-8.653252735215382,-8.12720122099562
-181.0,7.4677312518418555,1.0928714208252113,-6.37485983101685,-4.224460753772757,6.928352950165099,-2.5745242039726097,3.1724121081463172,7.495040156537657,1.0445842246838097,-1.7120846531141702,-2.5195132194973784,-2.916797733844053
-180.0,8.252731801661996,8.765847060568476,0.5131152589058917,-8.526130050582992,3.875360364560552,4.631245662738887,-3.319742279786972,1.625617752702924,5.39054571824736,2.705968303622737,9.340496935710782,3.0031433761636515
-179.0,5.827697262888109,11.221053493681858,5.393356230793057,-8.539935015561884,0.22268738225360052,8.300576594016434,-3.697343668019654,-0.21297426325375923,-0.5588447893755277,0.5597967860067032,7.207262098809554,3.5627573262996193
-178.0,-5.971227437329191,-3.027660545031111,2.9435668922975333,4.480454691464523,-4.449076738093809,-0.04911708208670085,-3.8504032345373167,-1.717448917744823,1.4918976572104783,-0.3653058535007725,-1.6591173396833865,0.4445012064864917
-177.0,-8.108461555206132,-4.49800391203051,3.610457643175291,6.2774149226969005,-5.844851273216458,-0.45304160413441386,3.607943557838695,-4.342479972275358,-5.531352830050258,1.5295956890047684,1.3508377513809688,4.0126829644810575
-176.0,-2.9861254923923486,4.3588196402308705,7.344945132622857,-0.6415014903113749,-5.2203377329701866,5.8388603054643315,1.6165235767807324,-5.326601967279505,-5.775036321999027,-1.0742208844361822,-0.5742619011457166,3.187712676228861
-175.0,3.7468163738097795,2.164770668187965,-1.5820457056218458,-2.918100170665608,2.6992520014188996,0.35189859637667836,-0.7473144406677388,2.170347733377718,5.203013056530007,4.942350309605814,-0.8353586271048128,3.5851465182876012
-174.0,2.6615837733688497,-0.5650333224055358,-3.2266170957740106,-1.0940917046329879,2.9890324768155354,-1.920602658307773,1.0611863223323137,6.6258665777691865,3.61504058637662,1.820504491427657,1.8750789848685279,-4.662579645303997
-173.0,-0.7387075347113901,-10.525439780460323,-9.786732245748311,5.662950124834217,4.497052701360865,-10.18864581247614,4.017235096136627,2.7476084228598423,2.832137719250264,-6.487351898768282,-4.055759099971189,-6.92848154081981
-172.0,-5.319238272297062,-4.336862381137816,0.9823758911598359,4.780072413953751,-3.176039852172398,-1.639590086455077,4.990746580327042,0.18010657748335746,-2.443344305774585,-2.9323574522829055,1.868397123601873,-3.284200105906625
-171.0,8.78268405685927,7.461811362198334,-1.320872694660642,-8.09099683314004,5.022670019381026,3.0210092271153104,-7.909489988708973,-8.184677007190997,-0.2351654278672235,0.29817716492640134,0.2471238387050465,0.890700487011939
-170.0,5.385144374461655,6.722773465332229,1.3376290908704553,-6.02306114246967,2.065253785226087,4.052609499921495,-5.82499899412198,3.295273805899035,0.2504838326601537,0.9507429298383543,-2.9488945280433345,2.5644199692734535
-169.0,-0.9269551515072014,3.5648230266154024,4.491778178122331,-1.3688679174817242,-2.7561983933996923,4.046650219086352,-2.4563204490103505,0.007219492992485421,-0.9557113432915878,2.456724911673389,-3.0377331356233523,6.360161228277964
-168.0,-7.465705399223928,-5.0321230662603895,2.433582332963218,6.27399277671379,-4.925356874555699,-1.281237520123617,3.922861692200409,0.8570476999466361,-2.4551473754974005,-0.1601530896152057,-0.2595745513048904,0.6664851220270047
-167.0,-0.17258282423656723,-4.876900619979735,-4.704317795743343,2.466892790199373,2.287112239487438,-4.8477542861734975,1.499358980452051,-2.5085047875950774,-2.175668209594695,-0.3843024204713896,2.928828694499932,-3.5394513562327465
-166.0,-5.3410399329763845,-2.0516614093647623,3.289378523611528,3.714692701832187,-4.291585565389986,0.6471924607397244,0.25869257273487234,0.4308661367290144,-1.3187778607259741,-0.7734091758326125,4.960672825725914,-2.948292900638307
-165.0,0.279827467533764,2.8766072383409975,2.5967797708071885,-1.5587222101566884,-1.128403750069491,2.773435448835068,2.5855399942668447,0.7586058825633957,3.8778008199738094,2.890079649032602,2.4448006448798236,-0.4809939839125581
-164.0,0.44117250602085956,-1.8275274103622619,-2.2686999163831194,0.7186305722257151,1.3138143502500355,-2.081937996504475,1.68294073542644,1.4182591398898756,2.917891430602096,-4.886395730483187,-3.650160354700768,0.5444388077694878
-163.0,7.710489082905551,3.0493338152714973,-4.661155267633972,-5.34434773869415,6.150097777585253,-0.8336460533340472,3.7813391990362897,0.4873019891360411,3.0346359351451584,1.8101430786677817,-4.860436724399545,2.8339962012015034
-162.0,1.1811178716871278,1.0561402350628575,-0.12497763662418881,-1.1499340354848546,0.6184105689972563,0.5192506152028196,2.017534577372641,-2.0452960080909754,-1.7259098087575184,4.654145473353493,-1.0838112510983176,-1.0139021108969604
-161.0,3.3272624869481833,-0.05855145364168579,-3.3858139405898102,-1.6552600811276275,3.3972028662872726,-1.7484701478515214,-7.970359206764265,3.647373095806204,0.444346270314532,-1.0458337751227964,2.7860337752955946,-0.22006161334925606
-160.0,-2.707711737618266,2.736037236953421,5.443748974571736,-0.028961528559348304,-4.041478576123898,4.059164488385381,-7.848265415687224,1.2538575409631554,-2.7631162998473138,-0.2561109961554608,6.030618819981384,3.2797035677828594
-159.0,-8.596216284665045,-5.037604127149963,3.5586121575151695,6.802646752334249,-6.12880383209838,-0.6976214561697891,-1.8579373664212406,-6.837035075754284,-3.7955641040940042,-3.768274029422469,-1.092846726474043,0.05427860500688497
-158.0,-4.31834257464348,-1.6461357199646147,2.6722068546789837,2.9635680218520073,-3.4730103446124314,0.470295695524532,5.900232622978809,1.4979874099363788,-2.3596988693846894,-2.8973919585849988,-4.693457474134409,-3.4518817701879594
-157.0,7.103246728236054,0.1603158172410153,-6.942930910994981,-3.579006053357709,7.0432049535281145,-3.35907275906881,3.2537315387190957,-2.8895360115753927,0.41045108155597343,-1.9039966060706939,-2.760048276699884,-4.69391242686044
-156.0,-0.5116867974969614,2.9301643964894546,3.4418511939863703,-1.1641933392879549,-1.9562088285913446,3.2175495280850854,1.3083290617173184,-0.6296102958512699,6.246779111713754,7.288602968136309,2.4710572534209914,1.9422884727835878
-155.0,7.506591723770624,4.516943118445266,-2.98964860532544,-6.051675640720369,5.270151557930749,0.7186437622405873,1.7040508330817281,4.202031178151771,4.292596694533642,3.057604259765942,3.1250645760751774,4.018930231297919
-154.0,0.923666887276029,0.9525570506421435,0.028890163366040555,-0.9817196860814479,0.39132103421376163,0.5282850412822194,-0.7387940270605688,5.808705853328642,-2.113293298988588,-0.8542531008242351,1.7301610269407062,4.538719680453638
-153.0,-3.8615874388624443,-4.959745156869669,-1.0981577180072537,4.444675579719082,-1.4389260773351724,-3.0666117098895294,-3.4170036978706326,-0.4492826366908993,-4.944551345600866,-4.5579661603845345,-4.428044128096419,-2.6735142505839518
-152.0,-8.743844018674867,-8.099639714315973,0.6442043043589187,8.456647925254986,-4.674803048907368,-3.6851707464931795,2.555815257138767,-5.303186810700292,-0.5902655844450564,-2.025225634229531,-6.524211852998964,-7.149636928791491
-151.0,2.4585546676234884,2.1947485864864613,-0.2638060811369729,-2.3683597695684826,1.3789150503602716,0.9276681221885146,-0.26550742239748226,-1.3816218667060216,1.3995107677759082,1.2974115284339627,3.426242471791378,1.2313280438367147
-150.0,3.7705446885888545,6.04094391296717,2.2703992243783353,-4.944841086924075,0.7694329527819548,4.113416826644976,-1.9413206067205024,1.9834080438942299,3.111930188701292,4.265087717033325,8.032753472318742,3.430110254807497
-149.0,4.23839063201366,4.881675632344083,0.6432850003303805,-4.51787243888354,1.8228171678554679,2.7929770981833704,0.9837404193971586,0.9542831764720328,1.3145013799067806,1.870442403764141,3.1637585973024573,1.1537521801496708
-148.0,-4.258745269567898,-4.948017157636306,-0.6892718880684853,4.64754569817052,-1.7501147704816165,-2.7938862586149207,-1.1829514797505096,-0.5048741402348073,-4.469981292368471,-2.897377612439956,-6.659126793775319,1.3880218736975156
-147.0,-2.194235315931002,-2.5473091181506478,-0.3530738022196981,2.3373999588737453,-0.9545745390677971,-1.4294266973634828,-0.8361234876333918,-2.7075774323000674,-3.588060942470465,-3.2302810673782894,-2.6839850333449773,-2.3562590748966294
-146.0,-4.5246234037800175,-4.234422936999185,0.2902004667808685,4.346440428100012,-2.4339132641717605,-1.9530126564454,-0.4964291895448553,0.9308183344052002,-0.5681523567753461,-1.1816642155652823,0.48385838673694703,-0.4118028820104286
-145.0,6.949752895076535,4.474034281035117,-2.475718614041326,-5.666674912616497,4.6884341588939575,0.9398457836899325,2.3892842988904497,0.5209674902010171,5.447372347482508,1.8209626709945876,1.1687593308218325,-4.405932437932193
-144.0,4.590976528571725,9.00930453933666,4.41832801076507,-6.83424479266041,0.0581784466691484,6.734885710496737,1.4746734538390793,0.6167128517416179,4.697429529940661,2.590089306221209,1.2738202276011805,3.312706544267773
-143.0,-3.378505548517741,-2.394090447036009,0.9844151014818405,2.852402409204692,-2.139381977820942,-0.7600925039938802,-3.16842382937547,-2.917734505932767,-2.95315442530643,-1.055221742747347,0.03631594207858946,0.9891857937076949
-142.0,0.864860191538168,-6.133263460278061,-6.9981236518161625,2.680835387263594,3.9631343297334025,-6.5390081599536884,0.6825116822501934,1.6832812011787683,-0.9250298194179968,0.3426808011192101,-0.27287893596324286,0.6731076832926426
-141.0,-0.9482017788928407,0.2536776620991974,1.201879440992053,0.3974140943561648,-1.0526947712041073,0.7586027979993157,1.2734080633017397,3.0808280889576634,-2.9398814596498193,-1.6327369834845844,-2.3671118788306353,4.276876439539552
-140.0,1.115590382247022,-0.9265192287733297,-2.042109611020395,-0.11859767764907625,1.5166674533640951,-1.4485219823541848,0.02362179079577577,2.0738919900825272,0.16569658389989406,-0.8621222073131056,2.117616299039486,0.9574659428260681
-139.0,-4.396959287745674,0.49072008874249906,4.887679376488114,1.933235330814654,-4.626753270541692,2.6512752854316135,3.832716662456666,3.464829675462507,1.6252222801334062,2.0356171056304597,-0.16759156271429854,-8.82981046611117
-138.0,1.9102922275079586,4.12748368677228,2.2171914592642454,-3.03630872839559,-0.13400233851080579,3.138212723626867,-1.3104531900244738,-6.946164496788638,0.9884988995175766,5.3882324724272275,-2.291765443090646,-3.9181711208540544
-137.0,-7.704584470345247,-6.204939097719096,1.499645372626069,6.93744053750804,-4.653565641171886,-2.3068108158721596,-8.965953778255152,-6.41682043870574,-2.816815566249817,-3.7158806667137694,-0.2793713622365358,3.6074180345796205
-136.0,-0.40948557838314403,-0.28726997894903483,0.12221559943407978,0.3290805007641563,-0.22849305172566348,-0.1176989376386684,2.487651641958803,2.6705800630301813,2.018385210600783,-4.452405717127198,3.6480147449924503,5.066504149524923
-135.0,6.9649775558483356,-1.7151969687001025,-8.680174524548413,-2.568639694066824,7.869818221477831,-5.159901560768297,3.4224842524426937,-1.1773766755851152,-2.0881968522330103,0.8212239686349267,0.5213091915828412,1.6811247280835273
-134.0,5.067406767227898,5.259227159205134,0.19182039197730427,-5.110778825309554,2.4134516518957194,2.676039749530373,2.5552167937851484,2.4436754631807074,0.814073588836776,1.5923503235445944,-0.0551961026055659,-2.0060658225444827
-133.0,1.8401215062090142,4.485149196404591,2.6450276901956653,-3.192961052213345,-0.42433267165473065,3.5846174206100936,-0.3490843302743776,9.042320437171362,1.0708761373144573,0.14378128748628438,0.03584021371783447,-1.9888221657733713
-132.0,0.8668689267941718,4.351423570625584,3.4845546438315496,-2.6443648478815085,-1.3335964559322737,3.9283642919074735,-0.9560965911419843,-3.3571431046006825,4.160485039086768,0.3185911680805521,-0.689505802118915,0.13808614477364833
-131.0,-2.412615356485016,-3.1062473266526656,-0.6936319701675044,2.718266613140585,-0.8913055378910368,-1.896538654801508,-4.052475086158158,-4.814678467570422,-4.758275136709884,-2.1714998646115236,-3.3827817066942725,-0.777327017847442
-130.0,-9.200999884076296,-10.185984575965815,-0.9849846918894183,9.724453284733256,-4.069701546709275,-5.585917524157956,1.2087241896830792,-1.3188794624896172,-0.33424974638772964,1.2666453346317044,0.4955604917603371,-0.38687401865745863
-129.0,-1.0719842112384281,-1.4498893426187305,-0.3779051313803261,1.2856853125411334,-0.3158749756458512,-0.9148901383383823,2.8895220508079014,1.6891618234318226,0.8235384754392443,1.3116735055479363,-1.0545481462245472,-0.3139376015626878
-128.0,8.030078396776863,2.3722338022138776,-5.657844594563097,-5.1808227138379195,6.8717257844558315,-1.6416727152291224,-2.562936495130106,2.7195730098648756,0.6922078472582648,-0.5075273353385071,2.5300630639980235,3.771832901479111
-127.0,1.5610102251745293,4.768084164020718,3.2070739388460443,-3.2244714657292226,-0.873068125844982,3.992552441395553,2.570312166114773,0.37662746537512204,-1.219641052734627,2.189200792781942,3.024139087525102,0.08008192053347785
-126.0,-0.8335636803648794,2.8336818773188277,3.667245557683586,-0.9794143159814661,-2.2174910427150376,3.2600795141388748,-1.0161099240619367,0.36072101967616704,-0.4413631732999359,1.1442352249546683,-0.36061093971548175,-1.0041001910885805
-125.0,-6.198006656986058,-4.479483107549234,1.7185235494367719,5.364107881427769,-3.998829346437398,-1.4446619547354413,0.9059016896046665,-3.9974026131524396,1.441345835754057,-3.296144120219604,-3.055703189350754,-0.5428154219234375
-124.0,-4.1234606809091545,-3.378467979583955,0.744992701325264,3.7827819836634253,-2.392001108738306,-1.2968767958505878,-2.4762309436928347,-2.7246534962459252,0.5545933734022941,-1.2862971577258322,-2.521156979763193,-0.051201676639847205
-123.0,-0.348981767900122,5.734542578082023,6.083524345982347,-2.7330231513345047,-3.251521884534525,5.93482144124081,1.0455839933826223,-1.0572267702596299,-3.146815377399431,-1.9074883982853543,4.794375274063394,4.312129395960153
-122.0,8.768017152433519,1.7678341878231874,-7.000182964610109,-5.302490152989629,7.847019027223586,-2.5837706780630816,2.3048168256314723,4.6937557749088334,2.4334973494695094,1.8103291611053873,3.665453092946195,-3.180849834028092
-121.0,5.381488709401684,-4.4794865041290866,-9.86097521353062,-0.4814077129398182,7.658993510898455,-7.209853256890962,-1.5123531528462486,3.027832491301443,-0.8741676242144397,-0.8852626712738099,-4.728019946621898,-8.475151197311467
-120.0,0.6619353908999326,-5.455075363419668,-6.117010754319603,2.4477957159614214,3.422936479707604,-5.741271068175348,-2.467272393031781,1.2721513307953491,1.2966815120398962,-0.32547488221721566,-6.996983808685654,-4.635856004966737
-119.0,-2.856251911630154,4.077450954100179,6.933702865730218,-0.557254267846091,-4.943310131130107,5.474862722392611,-1.7492303473934312,-3.637433819047976,-2.7718952833368484,0.6790678916652603,2.0127732041017095,8.295310140432989
-118.0,-2.260939413092266,6.38989737050916,8.650836783601285,-2.088347261363504,-5.426382222482102,7.4898104081491566,-0.13479556200832798,1.3245702985009102,1.7129445787267286,5.802700850817578,6.132885843900041,9.661083929571136
-117.0,-5.13601308813559,2.2189109056018252,7.354923993737357,1.4352501742359378,-6.214936533660282,4.753721502150631,7.280999569299652,-1.8796236501611192,5.203766486626347,6.630113198801453,5.469276176227546,5.0677337614628435
-116.0,2.232837702959933,-2.2369520021154403,-4.469789705075327,-0.02231899050491415,3.3049367276669255,-3.3120074353312234,1.252168947887729,-1.7483281959195396,-1.3988604560267766,-6.804614623773443,-4.569240548114227,-6.264640587139691
-115.0,-1.1947220890269699,-4.944131365872447,-3.7494092768454084,3.1206443844676155,1.3108784379682044,-4.3096161015201275,-0.9742751041150253,3.1739603434261823,-3.0252808802355484,-7.338086491828984,-3.781756946906094,-3.7782302949950464
-114.0,-3.163278376774041,-5.364361676503408,-2.201083299729271,4.231239810250996,-0.5269662760084586,-3.7487589006107775,-3.3631615799400314,-1.7821070051637917,-5.066663143416815,-2.080334068666475,-0.48871641616178163,-5.928461397196786
-113.0,0.6329458992331929,-1.3914702172881501,-2.0244161165212793,0.3406124865750533,1.3589030553623564,-1.7547391849414407,-3.5327188351698293,-0.13845473446447132,-1.982865771696121,-0.1362873268224125,-2.1777196575885314,-1.8872808142250883
-112.0,6.1672578414917965,3.0221921670336886,-3.1450656744580257,-4.560471983546061,4.6038897808002766,-0.10953176763418082,-0.020314076963305894,0.7538876323056795,5.644813220131952,2.6382907559254924,2.1227142920812883,-0.11206159466699783
-111.0,2.5897248172375864,9.341029047154269,6.7513042299167445,-5.935674037012164,-2.057483847938319,8.0757187749666,2.1053921996446174,-0.38788945315717793,4.374148328569853,4.544662197214587,4.26597955123713,7.471761417206127
-110.0,4.229960717262578,6.769393323848744,2.5394326065862027,-5.472818497398202,0.8675678761220023,4.682961020204509,0.18562254354977759,1.1877454032031836,0.8356982663815273,3.455843846833783,0.4800751649639694,4.460143355232553
-109.0,-4.186557097121048,-9.10664177040221,-4.920084673281204,6.593188115242084,0.3909228652513309,-7.064077926748644,1.1185857321720452,0.8033798062275779,-1.9766566928819844,-2.293902467411376,-5.291647784667985,-4.269933845398674
-108.0,-8.627281129400545,-8.726919924152071,-0.09963879475161719,8.70144027821586,-4.235614963070107,-4.384633517684178,2.3531699920084055,-2.1175336416583117,-4.075079313370516,-5.044280389170729,-2.7415190313287905,-4.525970488099151
-107.0,0.9141257283875772,-0.592867502601722,-1.5069932309894276,-0.21612342875347146,1.1645118018103147,-1.0190406608726224,-0.9374302046137952,-0.7466488570642635,-3.540715120633839,-1.6885898712748193,2.378965513279404,1.4784366817628252
-106.0,2.0696265277064616,7.231279388866569,5.161652861160038,-4.628318166664067,-1.5890525556767967,6.152594838511359,-2.0158559652042314,0.5637034992361809,6.207061855585661,7.143846376020443,10.2862291794678,7.76016898886318
-105.0,-0.32254874424529234,0.33647288064357195,0.6590216248889016,0.014739618496059537,-0.45469708831879213,0.5380039442988409,-2.7218468868575663,1.8684327914491488,-0.5797690053718376,-0.5044932575818528,-0.19810918532098443,-1.4725836385384492
-104.0,5.882354015523078,0.6004592209162796,-5.281894794606657,-3.218416574102619,5.53738013760283,-2.3731277924207426,3.095396439508068,-1.667753157108339,0.7154284895425245,-3.7523864691887243,-7.246900623117415,-4.093338267187795
-103.0,-5.322558286843362,4.744366732198279,10.066925019041815,0.23720040562657463,-7.6640031949530725,7.379245320211773,2.9812609650538775,6.538228380095287,4.933018189523032,4.509044743954298,0.6458316895169451,2.1782729350615795
-102.0,1.9856429645004414,-3.6382351766730254,-5.623878141173369,0.8599022573551979,3.83266371247978,-4.573476309662407,-3.5559306322328545,-11.876701677664997,-5.469511169169815,-4.01583420558681,-5.348594993501043,-6.512051307485922
-101.0,-0.3961243691453726,-6.549931757283687,-6.153807388138343,3.437115003373458,2.905452047906845,-6.369174577891109,-0.46172030487303684,6.363240131274516,-1.8917556823714212,-3.1653022406723736,-2.9144264129714577,-5.272002312959275
-100.0,0.23001362339869552,0.9766576233230824,0.7466439999243071,-0.5499328003743154,-0.31006923843488776,0.8463454273872766,1.4146696149346307,0.8074110200971638,-2.91944897152743,4.402033971532157,6.727343450008816,5.752391434040316
-99.0,-0.18807305804280555,2.762649831120645,2.9507228891633304,-1.302471051383889,-1.541075489970742,2.8410957443566804,2.608381181624455,-0.2617352105039361,0.47779205567562855,-2.104490860689717,0.8601610541689975,4.328676862730276
-98.0,1.176728373704484,0.3719392468824829,-0.8047891268220759,-0.7817248709932272,0.9414998076756877,-0.1561372201236042,-4.4906702525078295,-0.8192349579435076,1.5243900360075093,-0.5702855031107842,-0.21717829815481426,6.070156251400627
-97.0,-2.9735467912863074,-1.3033547817118096,1.6701920095744436,2.134815312943554,-2.2922627502474957,0.1594075588813184,-6.208554904141986,-5.330490879056905,0.7729986626158394,0.6946989774787953,3.469968218597071,-2.181272995914542
-96.0,-2.029771376088028,4.117810066274615,6.147581442362609,-1.0487340711272803,-4.0603423649983075,5.1007391116747645,8.73470397717363,4.334545100912077,9.245100406941706,7.929038817601122,5.35834566553296,1.7496459721477549
-95.0,3.3693458955533875,-2.0492082416458812,-5.418554137199262,-0.6703093835156626,4.341184188914008,-3.696597854538895,3.949823418271377,2.512001308484291,-1.2591191204327528,-2.1956806282842605,-7.1314267908721165,-7.646565756049455
-94.0,5.723257838198042,-2.826961748648084,-8.550219586846039,-1.4668714955665119,7.16013731711541,-5.739696603770734,-3.0908644975694917,-2.0508007801996158,-7.7029414696057765,-6.289443883476416,-8.366390421232198,-5.254378916509971
-93.0,-3.3527007425615345,-1.8475687575553421,1.5051319850063378,2.6508100380576236,-2.40722134628441,-0.15153394474084259,-4.998838954792831,1.1782903046914466,-2.2790000092035276,-1.080290540384548,1.832726191906409,-2.788358708647657
-92.0,-3.8047121538529063,6.068656762641941,9.87336891649496,-1.1683137147413076,-6.895885578886421,7.986091118078145,6.146465139671918,5.040217936264845,2.8882248850666308,0.9273040038506382,3.42209770880983,8.036272861590849
-91.0,-4.2621609882019715,1.8228890678840748,6.085050056086072,1.2560244168989212,-5.149050945015102,3.9687393745972472,-3.471286664432717,-4.471089581110367,-1.4534009984162806,1.5634036032382368,1.2616655547545765,6.844754189850429
-90.0,3.2042850452854306,-1.7155158660483718,-4.919800911333877,-0.7116726925093423,4.091342548052161,-3.2990646561055748,-0.1600414141381734,-0.14247535434080527,4.342354809853233,3.568252985963986,2.4620206293415645,-0.28338946776236984
-89.0,11.277803358187953,-2.7991966605096654,-14.07700001869777,-4.287404037412188,12.712204012341582,-8.491517121577496,0.9618669120123704,-2.661341353727739,-0.6651917443055262,-2.864364374350641,0.8481184075978927,-3.2598785473130016
-88.0,-6.852588776589795,-6.617882846804753,0.23470592978482951,6.685738915992412,-3.5833494136540667,-3.158406790422137,0.10539310067229984,-6.952367995260278,-5.9293201104706705,-3.298008388930774,-1.6333256934536284,-3.217455852311497
-87.0,-3.112251444829505,9.58201759563914,12.694269040468466,-3.2069233223405,-7.9419054167762075,11.099795717044387,-3.418099270594894,4.42348522330752,2.7898649331623826,3.255087639252341,1.3910087257664079,0.5380936337740674
-86.0,1.7359691764819294,-0.6498665147224707,-2.385835691204413,-0.5162263221623016,2.0979155255987227,-1.4720239930392731,1.3519044564180869,8.530984412231541,3.4970676994591727,1.465736841948601,-3.859381684839316,-0.9880429335442494
-85.0,1.0078695473843262,-1.2959087285269488,-2.3037782759111565,0.17036259878022286,1.607399615653813,-1.8294925291722735,1.0266334257339307,-0.1740302962789988,1.3596598724624702,-0.7948114657598433,-1.239255814362288,0.6963960797639367
-84.0,-4.027308774665688,0.7573821441842027,4.784690918850083,1.5833254169283235,-4.384003088518822,2.7428989113453053,1.233652215549424,-6.867251193698319,-3.625681569058183,1.570684646891812,0.9301315682878055,0.087822339898875
-83.0,-5.786976050763089,-3.3225853682964317,2.4643906824667896,4.584391785392157,-4.111025873955029,-0.37792191093517136,2.5894868257253427,1.8099489627250864,-1.832560346161336,-3.0885693328035018,0.4390681920380487,0.9614494891578498
-82.0,6.014521535557952,2.622395620217251,-3.392125915340614,-4.363098514998024,4.713935724466564,-0.41203760777231013,-1.3884107267315378,0.39387926129335216,1.7650082155890483,0.9862264998741042,1.6079542519738257,2.2955485813320244
-81.0,9.529020794487737,0.9736290086081348,-8.555391785879532,-5.210746696944958,9.053208108544961,-3.7386905747187806,-5.210254649259042,1.470878645365812,3.0596830938638897,-3.0002622280041935,-0.8810255737243696,-2.0985931096176147
-80.0,0.547868106083881,-3.1782701154038264,-3.7261382214876897,1.2849646840441111,2.152500221505826,-3.4780928544713925,2.806986760845202,-0.19755255943993555,-3.3652819443680224,1.6016737616529073,0.41839602881811605,-0.9371876136042464
-79.0,-8.963663862088193,-4.020132834805328,4.94353102728274,6.548692412578868,-7.0097403273614365,0.4360887983099778,1.3743005952108143,-0.04958195128517984,-0.11012174702523148,-0.3530003811116307,-3.220935124887977,-1.2491755905299997
-78.0,-2.605702355490056,-0.9704103787534262,1.6352919767364544,1.773051962797343,-2.090098698546607,0.30636523895885837,-0.10036206621041016,0.6118319472985502,-0.16420935717937873,2.2562360154409435,1.7892617241802737,0.5635966488944631
-77.0,3.424657907425222,9.219958254627487,5.795300347202087,-6.333496355171193,-1.2268382028358618,7.559095500101651,-0.07037038297571478,-2.1405849201130467,1.7878248067408231,2.828400873015262,1.8270474442656572,-0.8573088057150179
-76.0,0.15332233887937755,7.346925022445735,7.193602683566297,-3.76188973955953,-3.4779442176406374,7.2413265152414334,0.21718824797395284,-3.134052952647069,0.7241823114582941,-2.324878637908269,1.2422839954746296,1.6984906636867714
-75.0,0.8811600561064882,-1.883500486683762,-2.7646605427901183,0.4843511278429262,1.7892671944721195,-2.276040540187953,-3.255489687097007,2.3204082126530587,-0.2606912193416213,0.412936584045266,2.8846329659162313,6.573653014290979
-74.0,2.6607530680743334,-4.110900105255193,-6.771653173329344,0.7000299162166648,4.762441084248339,-5.473764152071892,0.3683151178646591,2.0187254180643635,-0.32027490371424266,-3.140674191503046,-1.510308492206825,-2.6862401104194267
-73.0,1.6390382498961673,-4.891283452812406,-6.5303217027084575,1.6707277473229158,4.051902101979024,-5.745227191432657,1.0453615519619086,1.9229669488693912,-3.825020235658897,0.2530418822215983,0.24578259220630416,-0.6485500036356459
-72.0,-3.4093945842980737,-5.111846557287546,-1.7024519729894827,4.2976914622507065,-0.8088659714812949,-3.365243680022285,3.700886602062614,-1.3069854010936641,0.420465277491453,2.0072246652186436,-2.754886625161191,-0.5947474377205739
-71.0,-10.257571378286467,-5.567341811576982,4.690229566709423,7.866529920415085,-7.510281674363994,-0.3998769336456467,0.47214644018217333,-1.9259848926892662,2.109881270110656,-3.2638057227372643,-7.975063461907732,-7.567091483419259
-70.0,-0.9912984053589584,5.047717615303941,6.039016020662837,-1.9958476007995576,-3.554322962550088,5.499142485276392,-4.257073114356997,-4.339208861709544,-0.1064864261936096,-0.3416987606711197,-3.060265238728573,-3.968936594116361
-69.0,8.679846546523853,6.312656870479605,-2.367189676044199,-7.540013496330112,5.560277415083391,1.9237270660382184,-2.026051361266557,2.2347623761770254,0.16877371390525164,3.002237043930996,5.759052759645701,5.766782116190347
-68.0,4.136027012324986,2.4850060096262627,-1.6510210026986325,-3.2713125354096064,2.9280100056040883,0.44211857332945037,1.6149015117325507,5.781029085909414,1.726489963622283,-0.8181917897486144,2.2751972907198974,2.968965024569028
-67.0,8.171534973628772,4.495803682702738,-3.675731290925958,-6.369166065656606,5.878083061353923,0.43175228862173554,2.545133837410355,4.403748100058392,2.1944896621187016,4.000534927651246,7.941836546793201,6.728058215204704
-66.0,-5.528402756316295,3.516532822881962,9.044935579198192,1.0515709738398455,-7.253680978580814,6.3010267173875985,1.3705773785696977,-2.1158216883303163,0.4592222302381652,0.8591467571611844,5.697069045327739,-0.024476063589649488
-65.0,-2.305487142336127,-3.062611394027519,-0.7571242516915984,2.6508071554475263,-0.8193666334633058,-1.8889330191858211,-2.8798205451456305,-9.033023866309717,-5.738723039796512,-3.444004678378906,-4.444872411190623,-3.619588552133286
-64.0,-9.731865661558347,-9.229651005780056,0.5022146557781361,9.444904808514789,-5.08265374034344,-4.41946333041641,3.3315194278605604,0.4448203393348016,-1.8807428761840854,-3.491145995698711,-5.764982391335003,-1.8870545244639132
-63.0,-2.216631247522715,-5.458605301994679,-3.2419740544719717,3.8762733409099273,0.5475131187353393,-4.324717851396112,-4.359147133040317,-0.5145257101534335,0.5682002846148642,1.7220393717275764,-3.9594487122332573,-0.30711025126260694
-62.0,9.496624587522687,1.4074856278845034,-8.089138959638106,-5.417913099018377,8.748624264984066,-3.3916030881426344,-2.194321268134637,-3.356412767560508,0.8491090798059876,-0.9031046264604926,-2.964029870979481,-4.236638094653361
-61.0,-2.038248262668212,1.2663154430472088,3.304563705715582,0.3379782836107843,-2.7168399671620493,2.315575433501883,2.787047477305693,6.545181484609138,1.7360423925535522,1.2907117970196276,1.88635541403315,0.4237056219781916
-60.0,1.8624630762353345,2.607916774102381,0.7454536978672042,-2.205614052089869,0.5902977640475586,1.7091648975615577,-3.0520388680955146,6.5094488891420745,2.6530395155580235,-1.3583496111015043,-2.131169280744983,-1.4487232705408921
-59.0,-0.17260384791188965,1.9459332317418156,2.118537079653792,-0.9343318751924472,-1.1148662532573537,1.9890229469665224,8.48233521684,2.8530944440365955,4.642865811164506,4.164818206262847,6.9742176731328875,5.535827441437528
-58.0,2.287230288634667,3.506568876928117,1.2193385882933712,-2.861767424559603,0.5646774623035282,2.4025054077805708,0.4122487022715111,-7.55964676029035,-6.634674993596509,2.34477607019055,1.2155949735577067,3.812930246653675
-57.0,-0.21450007042528163,4.092058594568346,4.306558664993396,-1.8978434515719302,-2.307114849210644,4.164822304649503,-3.5687915946644884,-3.9639916863059748,-2.705189982850785,-0.1146165802877801,4.45078682685179,3.556156234379564
-56.0,-1.2107827554648123,-1.0614772795674379,0.1493054758972545,1.1046220016414598,-0.723902160922892,-0.4071084275348349,-4.868934172955609,-1.67817413219336,-1.483015876509476,-6.966072131836011,-4.130477766861034,-8.351620902131337
-55.0,-2.76922914280493,-6.248915513872965,-3.4796863710679657,4.4830413247685215,0.39379177531453474,-4.890200205492512,1.7448915557098945,4.26487967075753,1.7705202128713078,-4.610002232587088,-8.731685521526897,-6.6399787882154335
-54.0,-0.4132461257714781,-0.32142936393492505,0.09181676183678356,0.3450048862834425,-0.20984312871486155,-0.13825380869255266,-0.9412167899680178,-0.6848443758614315,4.0383779258835855,4.39031124191192,4.2319858608718,6.63812063357519
-53.0,1.6750886720319176,-1.0248126568622398,-2.6999013288939384,-0.26709457899741285,2.1553882371440074,-1.884774803699021,2.365374619784021,1.499514773691461,2.053665254839003,6.451433842632616,6.2278546673761905,5.341215490020775
-52.0,2.634531048908727,-1.5838232361727445,-4.218354285081395,-0.5462055245844221,3.397417296548858,-2.844549074884435,0.6581978754811524,0.08012541588873567,-3.4979901793307318,-0.14803057525547159,0.8723872992116535,-4.034861635981509
-51.0,-6.468132114414697,-5.67869709784418,0.7894350165704784,6.051239808809601,-3.5774465290715973,-2.4665874524916727,4.140349573281347,2.2651967241234785,-2.1712785369475345,-3.328013665226366,-5.13160666597573,-3.6339904622825236
-50.0,0.41718044012842426,5.270598443910126,4.853418003781602,-2.7892440110968133,-2.2456438224709316,5.040980358615822,-1.9377286080628413,-5.262959347957378,0.8776946161855321,-1.9979229408941621,-5.08105141494195,-0.19175908914667117
-49.0,1.1928241191938347,1.3705959151904223,0.17777179599652593,-1.3079662407402377,0.47839154724463295,0.8334850087762264,-5.425233558265096,-2.978796706329245,-4.259757701734685,-3.091744812417298,0.02888494000156916,1.0319631396874305
-48.0,3.6059650164856545,3.599490704085161,-0.006474312400634341,-3.6311342510736497,1.8534117180880592,1.778506506234932,0.341625403836721,5.554949094232404,6.1355856172856935,4.39810398920317,2.701253240390299,3.2262857585170566
-47.0,6.585906686795451,9.53604774460314,2.9501410578074436,-8.01256780826825,1.7840257000986093,6.225139513455187,0.9825344099139781,4.5414501086674,0.9915513321602403,2.6222859646147727,4.7069134573881515,0.8970455218622824
-46.0,-3.8188792300112198,-5.738515123634619,-1.9196358936236186,4.746993628810135,-0.9060231095910678,-3.849582804016077,0.43598293423207535,-0.32621631886580604,0.7258433830447921,3.947719525639301,1.8160389949366706,-2.7364048726690307
-45.0,-2.624079536241993,-5.515385628071925,-2.8913060918302027,4.037754159104639,0.09869303734809143,-4.1507832160604305,1.5407782681018278,-3.6789467213599703,-0.8367852467094292,-3.4552767169210776,-3.5249042663666814,0.30214897408659813
-44.0,-1.275554991052482,0.3462568170320921,1.6218118080845207,0.5127414120740967,-1.481899382847289,0.9495683390830338,4.421655067650601,-2.076634099423467,1.2884344737381728,-0.4870123504827142,2.4034745992245563,1.8479962204111935
-43.0,-3.3341157369838004,-0.4645031966574438,2.869612540326691,1.87174516396885,-3.0538874901931954,1.1588112769717553,-3.2710501270513475,-0.9756744320904336,-2.592743438032201,-2.9261087951412703,-0.8003405310943119,4.001350997054031
-42.0,-4.847407895413175,-5.014876299256016,-0.16746840384231132,4.986742481696587,-2.2901901442516692,-2.564188961512358,1.7330653404484013,-0.6658931406589336,-2.7085761794042345,-4.2886967212710845,-2.4482560673507345,-3.260160747689735
-41.0,4.485213303828005,-3.925756642700242,-8.410969946527752,-0.2982518601808516,6.418586808636459,-6.146026166983072,-7.90768727418627,-1.6893024062048991,-7.4268811890733435,-4.819083561183652,-5.987190826920166,-11.394042582341504
-40.0,6.301899731847972,5.227866631223896,-1.074033100623887,-5.77996799310328,3.654252616971459,2.0991027670796494,-3.636444685594851,4.136750345642138,5.636257847187142,7.708645414773651,4.915889333078699,5.212072181920997
-39.0,0.2529885545047872,8.955846924741124,8.70285837023621,-4.618300207366079,-4.266709650524618,8.855475779442266,4.615335029524097,1.236213040044661,3.573802699641731,4.308631893800397,3.005959374099174,8.90296297109541
-38.0,-4.087485430735288,-3.7139451745507923,0.37354025618433084,3.885649527171999,-2.2040479294950375,-1.716570919780871,7.363542026660628,3.3516245181835327,3.0012510074228445,-0.9312736290267258,-6.466977532629217,-5.424505090601944
-37.0,2.2873969839046584,-1.268512243639815,-3.5559092275445554,-0.5272260744192393,2.937815784369746,-2.452340694912606,4.572043977861903,0.25425748137325366,3.43518364168467,1.2613057526842886,-1.5077376288236384,-7.3024500848877185
-36.0,3.1267680075122533,6.809254904579866,3.682486897067551,-4.909908437499609,-0.2688515516094635,5.288756121287539,-3.8502877279062653,-2.336605497214845,2.9036641444121627,9.557488362406037,14.121468936602499,9.50742802390873
-35.0,-2.1398612269363526,-0.4776307291388253,1.6622304977975126,1.286229895058896,-1.8939534491047127,0.5577977609332614,-6.483361079968869,-2.9033632719538374,-2.6340393571412117,-2.206529633592413,4.559597892220095,6.334030495815772
-34.0,0.5513765716985639,-2.552455980368922,-3.1038325520674555,1.0561399108754403,1.838520251162923,-2.7852542155958266,-3.5625361582016275,-2.362689571602046,-11.881189508551437,-11.23908773693658,-5.605159688332009,-0.8214908647148795
-33.0,-4.130531642123022,-10.291194293378117,-6.160662651255249,7.187560776187853,1.0343875995280887,-8.264919983396748,2.27738596626583,0.6424303722184224,-4.845039717574124,-12.5018244278555,-16.172438557154994,-11.0764074987245
-32.0,-5.2951423506502,-0.3678076089776541,4.927334741672304,2.807295003446605,-5.15990777398027,2.3158278638079155,4.613016596418676,4.589535404269504,2.934976772117065,0.8645854721129815,-2.2833102841206303,-1.1457572619569234
-31.0,6.0431155479946,9.258347037447392,3.21523148945233,-7.677311597522767,1.3759685617359012,6.269679251365095,-2.577800671283826,-3.477082918515335,6.406446819659513,10.990544298961296,8.652987775299431,5.513958861326426
-30.0,0.676219685576334,-7.527022743843834,-8.203242429420603,3.39513919835553,4.489282924930384,-7.912834897623603,3.3361948838793833,-0.9613945210481277,3.6141180992063884,7.857085664194683,4.271659302278421,-3.4500279466666455
-29.0,0.6579113882491652,2.462480091766416,1.8045687035170552,-1.5154275730485314,-0.5966938098291044,2.085917795164039,0.32943730627272805,0.8567312291217447,0.4113219199417819,2.2735435804307604,5.4675252635132505,2.7589151621475394
-28.0,-0.9057316356576082,4.094146403870383,4.999878039528284,-1.5516411804216934,-2.8948666507445258,4.580632039437372,-1.5958761342142433,2.5382640128984124,0.4821792733780108,-6.543671259746425,-2.4636068134690454,2.1550797444139054
-27.0,2.1701400198892684,0.35298625696048536,-1.8171537629281822,-1.2974660462348637,1.9721831239318632,-0.6935137836336853,-3.061237726536019,4.127582942702847,1.0597687541396132,-1.9181780175897964,-5.162504699634962,-6.212512679451388
-26.0,-7.848480829937272,-4.633559281912975,3.2149215480251736,6.286467085223284,-5.556657086381573,-0.7426810854596856,1.4344779369320626,-0.8327130484012912,-2.5272550228631374,-0.02871712056552811,0.5198410859583631,-0.5767042679217325
-25.0,5.2516542307098995,0.7009441434120043,-4.55071008729706,-3.0058575420198714,4.870592057575273,-1.8723020731526172,-0.8561597063784027,-7.426919591603406,-4.971832279579853,-2.8162198026839995,-5.197525968939218,2.2603158474964813
-24.0,5.273133632297564,6.988191517618267,1.7150578853210847,-6.156865764740375,1.8204603354409363,4.330911260640791,6.025345900982072,1.8560993874272373,1.6755964514116233,5.161479295811249,5.2874498861798855,8.872019421344842
-23.0,-0.4394610893165354,0.27049685844568483,0.7099579477618634,0.0601175835698714,-0.5399175256376196,0.4712205842976185,-6.014465557171996,-2.6249912447100017,-4.61210083844899,-0.4808328968848439,1.6110534623064883,3.232527912177635
-22.0,-1.9753659436055544,0.8596537369556263,2.8350196805600802,0.6122903561461768,-2.4545598182248827,1.825242996436538,0.8227178246617639,3.806512388344699,5.61143869959877,0.5575610438879244,0.6488529964369485,-4.271769803739097
-21.0,-0.3368891229360935,0.8862258017156113,1.2231149246507595,-0.30022068129152846,-0.753976778572623,1.0251667856522904,2.1913757264752993,3.8932601374028506,4.043205039810635,-1.472075221554923,3.2155663264202787,-3.592112761506776
-20.0,1.955797805731041,-7.551505472020397,-9.507303277752087,2.7705760888169304,5.677993071783552,-8.49001628747805,-1.6099162060286076,-1.5915104445596842,-4.293262736141095,-2.216315049684263,-4.304105017496622,-5.735225428279508
-19.0,-8.05738770741193,-12.051112937999514,-3.993725230587665,10.10400117314339,-2.004896464032658,-7.99280201643356,-0.768492486264948,-4.270107824198934,-0.836927684269374,-4.640398876903596,-5.150887597338973,-4.840919541132556
-18.0,-8.962652730890792,-0.748407410150076,8.214245320741206,4.903374802966822,-8.55769843197586,3.7550868048731156,-1.658779379024971,-1.0907860085988885,0.4607540343237845,2.7896015197532957,-4.284195084865125,-1.4421700200386667
-17.0,9.102385852041419,12.139601984896343,3.037216132855642,-10.654760395606822,3.068124746802518,7.527960760426068,3.6674318875608023,4.390935926999155,6.193785743344446,8.013003035777313,8.43104437010847,8.03988704831186
-16.0,8.92100007077673,6.6958209379525915,-2.225179132823344,-7.8467295028234885,5.534207562482492,2.253492624352999,0.5747257847624094,-0.866482998061678,-2.6336357334129246,-0.041635429795212175,3.4557407460897607,6.356404014049364
-15.0,1.9726161327225311,2.994717249191906,1.0221011164699625,-2.528138219270722,0.43907834712615346,2.0295110808046757,-1.2590197936569094,-1.8062119592798291,-7.732360989264214,-2.559799992709471,0.755075676499644,3.098285242163464
-14.0,-4.231591248948165,-7.573191232113354,-3.341599983164768,5.93022874987739,-0.48037407241035557,-5.510149220810014,0.8058538300537783,1.5220420056666455,0.03552627987383383,-4.5390869853234355,-2.2309452522850868,-2.8482675114241056
-13.0,-5.57261471125697,-8.066214376364002,-2.493599665107199,6.842677212205359,-1.4964707886407527,-5.248230190858787,-1.5473426532708097,0.7114327715846268,4.107890576950238,-0.8489333594997341,-4.23042397930312,-5.030496344489934
-12.0,4.5971264799470895,11.489500406347917,6.892373926400236,-8.02073647188297,-1.1047306444662823,9.228034361000116,-1.1007242819980112,1.3769112366980587,3.435638935390072,7.641893574931844,7.868499881334179,1.1405635841726913
-11.0,-0.1308470969225195,2.79092960787819,2.9217767047999237,-1.3033515571227614,-1.5610525711347492,2.8190879902518002,0.035611740469367104,-1.2022785331732064,1.8802527741978363,-0.8165291718505667,-3.2010165700145228,0.21236617912086309
-10.0,-2.341304802669527,-4.253126095213572,-1.9118212925447413,3.2534281959027447,-0.16815725571685713,-3.116769293687278,0.8232896989393861,-1.360279596248943,-1.3850119609527034,-4.215744181999103,-6.692304181859866,-1.1907341253180714
-9.0,2.3426942542194533,-1.4163214467093252,-3.759015700929072,-0.4964557969933643,3.0220001159661596,-2.5416198270534984,0.34623189841686264,1.151920219944285,-2.9669459820004973,0.4159057757721276,-1.9509813495986301,0.41098125395944485
-8.0,-0.14045798601297355,-4.746631839500125,-4.60617385348704,2.499310659589375,2.2068652094013554,-4.708537827043725,3.0181031305461397,-2.051456185446037,-2.994425232537127,-5.0268514620642755,-1.2024430892906688,-5.1784516558995906
-7.0,-2.5448308822071057,-1.9949172999310725,0.549913582276488,2.2546798983756062,-1.5719646799784173,-0.6759675505300122,4.771679673287117,0.8823825459779756,2.3961564302690146,3.2126705103799504,6.596438360149006,0.7537699005572533
-6.0,-3.2664449347086792,-4.656312619286693,-1.389867684577378,3.950031734410287,-0.8846226200414111,-3.0558641627001255,-7.948602259133459,-0.47944293107237723,-2.8416626869614747,1.3208883779797118,6.494346725929928,1.371163591330883
-5.0,1.1151677716882635,3.4278691702474875,2.312701398559963,-2.283259293249573,-0.626057732666401,2.9151488269418158,-4.683851330390507,-0.4723095224454441,0.2524567468148828,1.5488228361018666,0.8104605242528296,1.0597826192931947
-4.0,2.744582151345501,12.931814506410229,10.18723235506511,-7.8537088481618325,-3.673244157100686,11.523872997825928,-0.042914293145698945,2.7402419168041816,4.8975351832047895,4.6935713186393615,-1.130663768128285,10.738342573519823
-3.0,1.0218180361884264,2.7210160761651654,1.699198039976583,-1.813633855055322,-0.3732376968516785,2.1722642851794207,5.79160155562784,0.2995591326808962,4.913627982777997,2.138748003050338,-3.776291688372404,1.9626451159503118
-2.0,3.685218953591237,0.016537364430144752,-3.6686815891617743,-1.8770643139391032,3.638715654388772,-1.7870505317472853,-2.695571978684115,-5.8604164560409195,-5.351316978790184,-4.976088186089773,-2.5273689783141133,-7.58735769310978
-1.0,3.4211851611571227,-3.620012623706364,-7.041197784864402,0.0697809315481272,5.268893073283472,-5.370842883896872,2.1932541359932856,3.2117306394516953,-3.311416586912163,-7.777563534446808,-1.7101213689401886,-6.131522289569432
0.0,-8.55140575151594,-13.11233183620088,-4.560926084685702,10.88000297404599,-1.9588871846006226,-8.796377332795126,1.7309380276211581,4.524517796739751,-2.694355480089349,-2.573495790914753,-2.572700678459128,-5.776736097727177
1.0,-4.2410635600181195,-4.0623005705253785,0.17876298949278624,4.122197440618722,-2.2518231530520874,-1.8974571393385826,-1.1305340995237718,-1.6763373707522493,0.012106053260390937,2.1010224554371018,0.6819309273898397,0.0057941503545952955
2.0,2.188676133060469,7.16348156034022,4.974805427280587,-4.624840145114319,-1.4326018963037006,6.040076526171898,3.2966888840888675,-2.5978423722300175,5.672269936781094,7.28119006789627,5.975679886536763,7.516943842855194
3.0,6.007363568126145,9.40004034266059,3.392676774535504,-7.730134620120666,1.3504844260513114,6.372152129764389,1.7979194541019012,0.5483296784089442,3.938542195676999,5.773533821727181,0.3325207705353721,7.053807048279328
4.0,-0.8175712575546705,2.2283573028468364,3.04592856040203,-0.7331381263441616,-1.8838576992437575,2.6153548757687792,-3.582158549568098,0.9829830937630604,1.1198573424496943,-0.9392440857371884,1.1341257280815646,1.2982498776090452
5.0,-7.419618623599165,-3.172781471614809,4.246837151984154,5.264165391830906,-5.859555856834912,0.5926909114482677,-9.344158951501296,-0.1678490802223298,-1.7807229640742879,0.16477707691309282,5.17123317546273,0.5096410324779042
6.0,6.835575921392424,-6.371911552138865,-13.20748747353211,-0.19177505368860048,9.998489743610213,-9.817935780822083,1.0983002460015068,-3.418612510772695,-9.05692581766974,-12.82873979689482,-9.437904467482921,-10.95698800116411
7.0,4.972145752692601,0.8538124043155668,-4.1183333483778295,-2.88040553647554,4.5237278248238315,-1.6684093638546638,1.3384297409587265,1.391244747501284,-2.7293043306634606,-1.639328619734548,-4.095707384382953,-4.737575052369852
8.0,-6.573592101843793,-1.5859846579532886,4.987607443890216,4.027147472224144,-5.802035453421808,1.7347409461290413,5.768938324208058,3.7550620646339428,5.394385645250164,3.2715427112255866,1.1136643784963356,3.9098212071431675
9.0,-2.2733290796250585,0.33823239573078695,2.6115614753559466,0.9896940438367919,-2.3855776023298576,1.5017180552951126,2.896231535118747,-0.27155198659315527,1.855014821580212,2.7754736017860733,3.0100004500179085,2.700134756336429
10.0,3.0513110967591226,8.310513250979815,5.2592021542212555,-5.65953702416291,-1.1258582085045563,6.72928854748658,-1.364037020272276,-4.152367549030706,2.743830747868639,6.049455966924952,3.568885513545262,4.243876620657833
11.0,1.0590402774705814,3.289986897450534,2.2309466199805663,-2.1508939192430288,-0.5284445338871939,2.7843193012684595,0.8298673985182679,1.0839041346925298,2.694134024857699,4.265296817962735,0.9918279772821923,2.5957459802585383
12.0,-7.450864761520741,-13.720559755448352,-6.2696949939269855,10.535056315040757,-0.6110587830822465,-9.966854999782052,-2.085729498836023,-1.206141722265802,-5.177385556453826,-4.248118328581683,-1.5259939145271026,-2.8640427787266436
13.0,3.7487589215246633,-1.0646759810934658,-4.813434902617747,-1.3869392165404082,4.260370023935379,-2.9044791372892007,-2.1602888990904088,3.5533698962800813,-0.895563077133775,-3.6546843239941174,1.4110912998502125,0.026889158524869616
14.0,5.205036490987094,6.158570029468401,0.9535335384813153,-5.6416846063871535,2.1029021698501222,3.517543511499642,2.7395801666038464,6.009563786752795,2.594311346962574,-1.5241638772173154,0.3504666752291412,-0.6710937946748794
15.0,-5.3927737697114715,-7.521558646288836,-2.128784876577907,6.50345074578589,-1.6587386135510698,-4.860795790357952,-5.753003467928149,-8.854788468485545,-5.076024629621807,-6.149441887202813,-6.661174916330873,-10.796243941154554
16.0,-2.431810581105625,0.8748661763635681,3.3066767574684155,0.751388713073788,-2.8217387230789575,2.054469765568174,-2.860775603541885,-4.539078125583762,-1.921769461419194,-1.631283122638843,-6.73961958581251,-0.5991837182229185
17.0,7.196235212139934,13.63792385848798,6.441688646347113,-10.440479293206241,0.34261763600037964,10.078962906078253,3.0037642839045584,1.2867170683248976,6.02141854182548,8.0563230705755,6.884973584290741,8.546825336498522
18.0,4.082376251995087,5.657952362959886,1.5755761109642483,-4.813819486085904,1.2964992847407895,3.652194569395274,5.486859373497258,6.504045515409723,3.040519743268374,7.832584944717713,8.780718464326625,10.612114424956287
19.0,0.9731579188164354,-0.9597873928516674,-1.9329453116680466,-0.03142333435433042,1.4977824884391457,-1.4915335012299933,4.0341106969728076,3.51837834664537,-0.41297170234760094,1.4137984727590291,2.6116898081275863,1.8809965264413169
20.0,-3.79277567299435,-9.308340004596463,-5.515564331601446,6.5203618892865105,0.8305930003504153,-7.377018423116828,2.831327776174118,-0.47568881119457607,-1.4375847782488271,-4.79476590512624,-5.544176132228728,-10.202523009532307
21.0,-10.740436938735042,-11.14751662244304,-0.4070796837069848,10.906498097855437,-5.194388496809088,-5.738139138061981,-13.59074812899628,-9.146009261049045,-7.624151422089937,-8.522382402029669,-4.956179438847266,-5.611516949498506
22.0,0.0020775247777757855,-2.759859765171308,-2.761937289948415,1.4132138085755699,1.355848053196687,-2.795274576933598,0.8754942610968905,4.326249265892663,3.8058958895747255,-1.2219135387683897,-3.7853844632113542,-4.311016166315632
23.0,2.108809205857954,1.5913048169049784,-0.5175043889527131,-1.8201015007996748,1.286648414029948,0.5060616358694796,3.3256853641461763,0.6348680288840698,3.356789947711495,4.3392575879501525,-0.3851092375989391,0.7550836765083608
24.0,0.9942843952285085,8.800897185302723,7.806612790073998,-4.8680501135665875,-3.3553891360391774,8.351238416302904,1.1619823082354515,-1.1736947714798465,1.247700823910792,3.08819430399795,5.9258788960216275,7.348841927998044
25.0,1.2039175455130695,3.9569989730493687,2.7530814275359443,-2.626255354454491,-0.7250405230077497,3.3185411407991268,2.5090853186469344,-3.2420319878103614,-1.5692750123218735,1.383487921714808,4.497442169507469,9.104122098465588
26.0,7.189102289300481,4.555956909675279,-2.633145379625363,-5.833879490771849,4.882060827012404,0.9160195956019632,-1.8966284880371365,0.6567695031354599,-1.2651964747194466,2.322789355339777,2.2272201900403896,1.5165471490830962
27.0,4.685944761011885,1.0283377128870712,-3.657607048124972,-2.89150156584397,4.144704048125223,-1.2909211817130612,-2.794876039011255,4.569664713457314,-1.81662366170794,-5.912243070876663,-0.524267966966375,-7.6723579649137035
28.0,-3.503187201179365,-8.13775329211215,-4.634566090932969,5.789918122920705,0.5422102422625736,-6.3692549603115935,-0.437322080232882,5.267822564689488,0.2834828112302923,-2.296881494723171,-5.537076907753183,-7.796587999347356
29.0,-0.8772343574302397,-4.695618372560449,-3.818384015130336,2.835569112388905,1.5302985995373268,-4.241209376967246,-1.9347547277059256,-4.0506189914046455,0.09180168383372697,-2.237821411685742,-7.227737901530377,-3.68848666049297
30.0,-4.413008430091386,3.335601640273365,7.748610070364743,0.507559975687649,-6.0955313353927165,5.563305317907608,5.304988322297176,-2.807749297756007,0.3759063871164144,5.084586724074304,3.5877244817906258,4.552468256748536
31.0,-10.491205697913792,0.8089763149726387,11.30018201288664,4.807352043228314,-10.907330981216473,6.086024732584448,4.532553136106993,-2.450470574930913,3.8292712224545515,4.664645605120356,4.158655861072119,8.263994858314796
32.0,-2.106152088294132,2.4434723325038945,4.549624420798278,-0.12569516840606143,-3.338558335351265,3.460746462103956,-0.599445544454503,1.0663233225765232,3.7433247715303297,0.7953489242945673,2.1097591894119025,3.624619685228966
33.0,10.127871171011705,-4.935051029365967,-15.06292220037744,-2.553783744148187,12.583071914375294,-10.026043759801745,-8.055408605701194,-1.0411710512993744,-7.466379346146217,-7.059648566187024,-5.162008570013208,-6.250139382788856
34.0,8.821132317572909,-0.05020521216796259,-8.871337529740709,-4.420358055295836,8.908400240844898,-4.484617434414533,-3.8102313501804543,0.5754792211621412,-2.9126123274213973,-1.2470423917140434,1.9853569995144746,-2.971120837427684
35.0,-3.422343285377342,2.030556141518078,5.452899426895385,0.7412439532396013,-4.460514323348354,3.7151102942945116,3.6899083067550924,1.7644962549755827,1.816031110700993,2.456039118528339,1.3923046394989427,-0.37047548657977103
36.0,-1.7115600435242793,-0.7573102635849691,0.9542497799390938,1.201021816468233,-1.363085841937115,0.1437432496413662,3.966475103158524,2.2113188310785303,2.0755422008666295,-0.7291528353522337,-0.5652591338042281,-0.471276083369901
37.0,1.2226254185852847,5.252828073528869,4.030202654943269,-3.273832253921242,-1.440765830773592,4.679095095663308,2.227111621464431,-0.9643935983194656,1.152192726843237,2.328109325947374,1.2300060455380104,5.313263646316551
38.0,-0.0022098801392613776,-0.3751683206210332,-0.3729584404821842,0.14748944820833065,0.22238646327085831,-0.4205873499112207,2.7752485929390684,0.942210270868165,-0.014709000951359963,2.1670894785177435,1.1997970806769696,2.19509831116885
39.0,-10.04904928544893,-3.3474830858325944,6.701566199616225,6.730109243028894,-8.339975939320924,1.7081365995882438,-4.192849864199255,1.035927975223166,2.031335946940158,-1.6011870964009751,-6.4932878009257,-4.325519026158872
40.0,1.4389169835140274,-0.24919582155712017,-1.6881128050707548,-0.5668795218947476,1.6002641324475895,-0.9344261711416881,-4.371510157614944,0.09964325685134545,-1.9944248427088285,-1.8217476890603046,1.2378545877077083,-2.747979886033649
41.0,12.166802057091079,-0.820174535062884,-12.986976592153264,-5.6455431274158805,12.53833694938756,-6.942277036435851,-1.5976326162618526,-9.327221296081273,-5.569269164476837,-0.733932769034568,3.508566494683772,0.04286358797888634
42.0,-0.36887225660914424,0.2963053427240304,0.6651775993336182,0.06761287205127431,-0.5516869502847177,0.4481775061494835,2.8396674025521422,4.879597248498508,3.586503170808384,0.9587850576385686,-1.3792384739583057,-0.9377409119471292
43.0,-6.929366266224047,1.1896217807288525,8.118988046953026,2.8280674141505395,-7.555772425024015,4.704841506832009,1.3456479285750569,3.7312004323991066,1.1316441287981118,0.49169371832071085,3.112219757483854,0.8834067165587116
44.0,-7.353757100122905,-5.016798061104049,2.336959039018718,6.1484298862361175,-4.796349717405729,-1.3665398078990478,-0.8685247211387589,-4.658311632898878,0.8647909470928269,-2.4149825953457933,-0.6778270220236831,2.5339197413386
45.0,3.5716624429142168,1.8556935048621497,-1.7159689380525438,-2.669872269604453,2.6151149613937577,0.04260207999389565,0.391654588702503,-5.0517262298034185,-3.6189380862148814,-1.522162457865514,-5.034304431102546,0.16906885857278064
46.0,3.8794027130971003,4.495492837087299,0.6160901239896672,-4.224475642119326,1.6825272946138325,2.5273986347580393,4.124012021353742,7.585427927817655,2.28132584300949,4.504580779929634,2.8643552219160258,6.79545434393884
47.0,3.501759598942983,3.2793917209180248,-0.22236787802525793,-3.4327030619620773,1.8349147995814965,1.579331744856756,0.48837177425206546,7.000529979450464,5.480991310708225,3.3547136479455535,0.18233898866123854,-0.4517014465253977
48.0,5.90491654561875,-3.9200490378943873,-9.824965583513215,-0.9614913943901096,7.916560650872788,-6.818340792774033,-3.784068458621974,-3.452443539507052,-4.532066753005152,-3.8739480494216982,-3.5420119428946855,-11.492004291821994
49.0,-5.896924678609107,-0.2531110178199272,5.643813660789336,3.1024493273556195,-5.799273104788373,2.6766246798791085,-1.9897077996992565,-0.2011489899179224,-1.7773907850674366,1.1327614167986697,4.109225821197844,2.5582130433210426
50.0,-1.4454048798124202,0.3130378713772246,1.7584427511898293,0.5939900766842428,-1.635224394930632,1.0232887893905849,-3.743950320175591,-4.962290046281091,0.6934922848927765,1.069715556967258,2.152614370718182,-1.0338044210258954
51.0,-3.23580096931565,-5.432473092864555,-2.196672123548712,4.366022564147031,-0.5597610467322147,-3.8232917111762443,2.063964176038083,-0.5901649730348497,0.4659665773774928,-5.225402660459379,-4.306696426149928,-0.1935361889425406
52.0,-4.291731795796923,0.5642708939714884,4.856002689768594,1.822667144729893,-4.543419630044108,2.700114958482665,7.075537901004471,-3.6980535292408607,-4.310309079089487,-0.33824069418165803,-0.15648110974983442,-0.735868838576625
53.0,2.4692334256077855,7.429941320404389,4.960707894796732,-4.98589841196159,-1.2226439715440565,6.178121804792813,1.5167589105089063,0.8854938552240461,1.2532201877141145,1.0114441879389884,3.985451718932452,10.268885048447883
54.0,4.958532282388778,2.4525948463166944,-2.5059374360719504,-3.7403964670560166,3.7504264132122724,-0.055629243621254876,-3.305734655852329,6.789806254652159,4.286014594319479,1.6691821710111403,3.784967733888332,2.0073973543150827
55.0,3.090956161610238,-5.31748168396416,-8.408437845574321,1.154628890248297,5.766102970331435,-6.826436051314794,-3.637357688950847,1.7076229773583291,3.457533398677155,0.6647646881884837,-5.996562572662418,-7.180818594125217
56.0,-2.4389979109735185,-6.999679961043139,-4.560682050069742,4.754953454109774,1.0780809893731313,-5.754720226085366,-3.0564101679718902,2.248344677926541,-0.8071955853333797,-0.1333645978873138,-6.096491119036656,-5.654441043326165
57.0,-8.125659955279424,-4.523668747087082,3.6019912081920964,6.274418831634282,-5.922941130031051,-0.4411777635089824,3.7827941101743576,-3.888045147981257,-0.7525877041396483,2.176506566202819,-0.320968948987304,-0.9821391998587576
58.0,-1.649204762495203,6.83574964358165,8.484954406076508,-2.571205868276338,-5.122940268643575,7.602137294701768,3.0891234687757065,-7.771945036564628,-7.476264666918548,-2.177358537387765,-0.36346036832856277,4.032569680261651
59.0,7.4533941971668,4.986920760263719,-2.466473436903377,-6.202343189817812,4.98715174289955,1.2877328044386256,-1.2819735490979345,0.9760274045843809,-2.4712847597054424,1.435661091118388,8.203728863160283,0.9107602632463829
60.0,9.769704382884024,8.233740989110595,-1.5359633937734953,-8.985370329281297,5.686370767126126,3.3872132817960887,-2.8684269497023434,3.164590240541142,4.278957402399767,0.34146268811396974,9.39213270263345,4.397572829791824
61.0,1.573980024870278,2.0179988262911093,0.44401880142092154,-1.8573867136290443,0.6075868079057754,1.2020628614234528,0.25748464044435115,1.4667231246043824,4.148014703650399,-2.3161559183267846,-1.48461415802389,2.341157842638773
62.0,-6.282325271536551,-4.938397943138938,1.3439273283977764,5.630188508776842,-3.837738676432501,-1.817128464847701,5.1539764288277645,5.205311733404872,1.392807192904752,-1.4908715684667455,-5.666036262433494,-1.2474540624315797
63.0,-8.31081801059285,-11.23442309421766,-2.9236050836246203,9.795147311437347,-2.7058932879867825,-7.0943388084075725,0.7185734204621788,-0.09326363857017106,-0.9628403435118806,-3.262206082987015,-8.82453432643877,-5.729931019444914
64.0,-0.5272985023583745,-0.9100601515262481,-0.382761649167741,0.7430199127077204,-0.07408971926552632,-0.6621428659845026,-7.055758291668946,-5.726565131793889,-0.5129050004149645,2.694788865297708,-5.164948643783083,-4.063214389561948
65.0,-1.6254613614616784,-0.15550658214359658,1.4699547793181433,0.8363947676004959,-1.543701119515712,0.7158415077938025,2.9581025822797904,-1.9184444367581528,-0.4404721082706794,4.113407134536875,4.444771618384793,-1.7657731769349123
66.0,1.3587359390147715,3.211131782278713,1.85239584326398,-2.2612480493557907,-0.2435872064509092,2.5050911645975047,1.2737008274759825,0.8707021850679433,-0.9049308875030169,2.8857055364021837,5.1386540284995865,3.3489687289914376
67.0,-2.792883671592096,-2.529038757780313,0.26384491381178343,2.604693745259519,-1.5328818713282581,-1.0872114490614955,-2.0619045569842003,-2.1725801336562385,-4.779945722999161,0.045294713198215986,3.2338289280646677,3.8250215618905745
68.0,9.510967842829267,6.793838506981003,-2.7171293358482758,-8.129798827686248,6.096245836914855,1.9997483411311108,-1.241734640563759,4.726449353199136,1.1153938974116415,-5.625458205445616,2.1620233711616024,5.650315363867813
69.0,5.40449644016802,0.7464602718219782,-4.658036168346087,-3.0502027335593507,4.997781909318303,-1.9971677426295518,1.3289107029419032,2.266786584292015,0.9203881003670125,-2.8699613425750092,-2.764260982959737,-1.197005667970632
70.0,-4.210461091324065,-0.026036147094993245,4.184424944228983,2.148746826956807,-4.166276199970277,2.116669704687508,2.047351660125767,-0.6737713616722762,6.645782623644784,1.3974653730217446,0.005493945222444285,-3.558254719355644
71.0,2.044540179741758,-1.1396980208832668,-3.1842382006251224,-0.4157798257371712,2.6366414767995527,-2.1217261766089255,-4.767996709936749,-2.808948305384008,-1.1395592057932649,-0.5797707912210222,-6.260743858328054,-4.689806013141834
72.0,-6.849654366316468,-0.14118285859365676,6.7084715077227255,3.457593735677139,-6.758532306839792,3.249709916637557,2.167655859309117,-1.4418850690126752,1.0046971415413521,6.7902389701432195,2.6548530941646282,3.917649096344827
73.0,-3.212349732098026,0.6980117041859479,3.9103614362838988,1.2191338009332888,-3.535592852287202,2.275274773348368,3.9456088527503006,1.2717552891507329,-3.5550494893925593,-1.7445078481053073,2.6869980757792886,0.7627395282767669
74.0,2.199508907345346,1.5035660744992307,-0.6959428328461716,-1.8952961950361087,1.4046699237353155,0.4575849624622812,2.7197391577443737,1.4916456661558128,-4.013190792738627,-3.0413446941470377,0.26749896821120167,-1.989623280224583
75.0,3.924570162900526,-6.018477421064,-9.943047583964525,1.0721251692444214,6.902099152778493,-8.004189605822178,-1.8576051845685315,-1.751067493465786,-1.891338534110014,0.2410290417845875,-5.311237334518768,-9.570659527456874
76.0,-1.5038876051323085,1.595910840436987,3.0997984455693386,-0.03123515556151879,-2.3239021277785814,2.322910985587526,-5.1093895783962155,0.029752474771441828,5.97739330970184,3.137051650210239,6.77344913721015,10.576521574770563
77.0,-2.8556572076067033,-1.1355703784334124,1.7200868291733622,2.0036958297732155,-2.225323779237801,0.3416734746625162,-4.916134846514391,-0.30491973464128863,0.28516620228570444,-2.684052606453201,-1.591510847470044,4.715999515901553
78.0,3.357807792054029,-1.3953844588975897,-4.753192250951546,-0.9728234377209029,4.040504314898729,-3.1097707414085707,3.085647526617468,3.113926270874093,-0.06280162235767173,-0.8398244033220434,-1.579685980310345,1.0920732655360177
79.0,2.267337745224702,0.8042930369833103,-1.4630447082413414,-1.5191647049366042,1.8469144047726735,-0.37093825160972804,4.06211078498609,1.5866731342377012,1.6461507985356525,0.8145361101037348,0.2462180601575229,-2.994229277808409
80.0,-4.897841336346578,2.0838794916149475,6.981720827961553,1.4379861567413537,-5.886221377301662,4.565978939077185,3.2613295371942317,-5.621098689602206,-2.9257724535918825,-0.6643340799120392,-0.5327204831053284,-6.26320535817081
81.0,1.5535893324370398,5.337920534485365,3.7843312020483415,-3.4771452929628106,-1.1497980742877476,4.593815091505914,-1.0229789553680737,-2.900785994403564,-2.093574201518766,-0.9531331270100526,0.45596485096929595,0.17496969628426395
82.0,2.012935787718014,3.4799268609947394,1.4669910732767344,-2.764344610455571,0.22860481879281025,2.5094298110616675,-6.955479313727099,6.134201383637349,5.203679151665469,4.435446496049271,2.207447182499888,4.1303497898043275
83.0,3.3243149588701386,-5.812891211491623,-9.137206170361756,1.2330545653973077,6.2562374388328745,-7.511873827154588,1.235050142401802,2.9197074922277295,0.8214251943615912,1.0930946529927432,-2.4702850511981804,-4.941669875862115
84.0,-4.109300489826721,-3.671832350927061,0.4374681388996584,3.8776102160982435,-2.2542843545749824,-1.6473418487904885,8.713986078349755,-1.309022669817364,-4.309005956598135,-1.5745598319130534,-4.1711757473745905,2.4481252746479853
85.0,-2.1125499916386605,-0.9950972900778905,1.117452701560764,1.5319118644772793,-1.5989594022968154,0.03642968089598497,-2.51079758775839,-2.4912043798014154,0.761704963957494,-3.686958784791604,0.5011196489666898,1.547097566932191
86.0,-2.1403125701754986,-2.7048416985199935,-0.5645291283445031,2.4666060481797696,-0.7717853873462521,-1.5777710634745343,-4.23848518413239,-4.48207029168,-0.8294592054757016,-1.302571578265944,3.7819108003523603,4.462181737859789
87.0,3.243789320325882,4.221405384798963,0.9776160644730723,-3.7009399844962014,1.0725703624350242,2.5778163179287823,-3.4530298327842113,0.17380996875660615,-3.373517712752703,-1.55290160093706,3.653191764227484,-1.94422694819741
88.0,-2.555302146207403,-3.7384490265973453,-1.1831468803899499,3.091569412842146,-0.6650857128960016,-2.484613226537529,0.8416984575957587,1.0468147939286059,0.05611611155972335,1.3640983184231952,2.7077731742002142,-4.226053607833333
89.0,7.440108433132142e-05,4.453658045650984,4.453583644566646,-2.205474713328492,-2.203601050873164,4.505053231935664,1.8094366243060664,4.1949189476193665,5.799442265467697,6.196602387883778,0.35894746060352933,-2.307340288251332
90.0,2.4499005282644255,2.4737214276478383,0.0238208993834097,-2.436532586353519,1.158366798932897,1.2174289214528646,-0.3801733968491976,3.058259719515155,2.9198925509337252,1.0459660897920862,-6.174297908441318,2.8515768211857013
91.0,3.1502762853769872,-0.9362405782213616,-4.086516863598348,-1.0741416034630376,3.642162672597898,-2.4678989521942443,5.257597442018958,-1.756247366622445,-4.841154933656208,-2.8131706435715382,-8.084816484667183,3.4429720207695698
92.0,2.962854941730657,2.542504227915922,-0.42035071381472755,-2.790576581534236,1.7142557768307638,1.0223686381268506,4.238582190119432,0.7201408820200059,3.779404336387186,2.2119468941275042,4.166016334532613,1.4961156314350967
93.0,0.4442352745041739,3.5744586990927836,3.1302234245886247,-2.0419835834294706,-1.3217307371879161,3.3110116797921494,-1.908652654409746,-1.593922304490147,0.7410381331895823,-0.26745199489544813,3.0666487704580985,-3.8936777468790185
94.0,-5.127766731114061,-5.722933812653669,-0.5951670815395905,5.393659749337435,-2.3250818426850026,-3.123081628900766,-8.073456750343334,-6.180627920872074,-4.817918354309461,-4.737483481255651,-1.583029151125336,-3.8171360059520065
95.0,-4.220381898592855,-8.856459940760782,-4.636078042167924,6.582591063724026,0.2267738350297821,-6.710324149359826,-4.725428247844554,-2.5791308145950373,-4.211962334456674,-5.35243297972215,2.2969538010280477,-0.21290312573127101
96.0,0.7738573761850511,0.8844692660587663,0.11061188987370096,-0.8683171259922906,0.3497861235624355,0.4560463500955838,6.0084638117344085,6.369313663590772,0.4967151642368959,1.9143836648410444,3.0133740534119524,1.458481068797888
97.0,-6.476063112391082,4.391984428102665,10.868047540493723,1.078012739349643,-8.654370450901464,7.669321933899069,2.171695496743518,6.649754457648321,7.675949289280817,8.010778150098666,1.484093891856052,4.225423701184386
98.0,1.2560263964392957,1.3409505127837322,0.08492411634440078,-1.2634445623656911,0.5243684348912496,0.6753094483657218,-2.053197102592751,-3.728614247476175,-4.606794315540027,-1.331267969489578,-7.408400826488431,2.0161310134981534
99.0,9.26199643392707,-0.10911431413645456,-9.371110748063558,-4.539673659950552,9.334567963584082,-4.6983877740591815,-2.1798562610306806,-3.9470537651783713,0.025202744890802653,-1.363918841982736,-1.7238176356612032,0.25781217629432673
100.0,3.4404982189380946,-0.2128191059944744,-3.6533173249325985,-1.6532090590484634,3.566208293034571,-1.9712512025321254,5.246779059002019,-1.122380848290105,2.256039265404273,-0.2750504079922632,2.390778300920329,-5.470147603766561
101.0,4.621023196043795,3.2827538819567312,-1.3382693140870727,-3.990262594662718,3.001234575206297,0.9313066867755366,3.8021411991429908,4.340297424252239,0.5436082315354679,-1.7625807093634391,4.485894691505933,0.4926543344413603
102.0,1.846406735966752,11.717274926909472,9.870868190942728,-6.822751184479763,-4.066250905312666,10.828345803779067,-3.631712222309688,-1.1028962881404025,0.6951460861754781,4.258187129222372,8.422780845032937,6.6759476826234305
103.0,-6.863745842894444,-4.843314285450971,2.0204315574435054,5.8849018245051345,-4.4138988235843595,-1.3804876238197,-5.690066584431919,-1.4653337299281213,-3.477418414196894,-0.8276040812383528,-4.853939452576694,-3.9268275390337086
104.0,-13.346201194920486,-15.657630934203322,-2.3114297392827883,14.524043608690466,-5.486250388564593,-8.95603514972165,-0.08142513213868563,1.6693302851577256,0.6265672855462359,-1.573893975557159,-7.14761499694286,-6.49901631911617
105.0,-8.315249272080695,-11.129459646467225,-2.8142103743864713,9.734460414064166,-2.796608933302058,-7.023707082148485,4.75486228354071,2.069011929661034,3.0649485154410376,0.9063942495000838,-6.73957389961987,-2.750213489529891
106.0,0.9919751362454545,4.1495862095764,3.157611073330994,-2.5675556101825485,-1.0507192419180411,3.679191937490881,2.7609696660113716,-1.9893328076666295,1.208113873273037,-0.8887809256890744,-3.1168875969088274,3.2105088748098445
107.0,19.016956175350064,10.517191600055444,-8.499764575294593,-14.770369510231994,13.708932377263364,0.9540934270849011,-3.2645178450014902,-3.2806539455232486,-6.807936353380101,-4.259952249927784,3.257218119799772,2.10553873428671
108.0,13.397694771604762,13.290838401083864,-0.10685637052089536,-13.351309037221512,6.77715867478843,6.614384161431296,-2.2798425238221767,-0.41901892054972456,-0.9481036007632855,0.5361117687199404,10.105517482046228,6.760086114410117
109.0,-5.183912283158461,0.35205421324425945,5.535966496402712,2.4078020865292116,-5.340026738401433,2.9647961150914512,-2.232741995561148,0.8726668663517377,-0.10752843989858507,1.2359041608092247,4.252783353414692,-0.24502660636509344
110.0,-5.213026123109674,1.4415269028810906,6.654553025990735,1.8789510844017319,-5.9179580160422365,4.067999987965197,5.055183537945958,5.685585183929917,4.252605320488634,6.621942363711009,2.4421971141713517,1.4256558394162937
111.0,-9.94944923319738,-8.289833833592866,1.6596153996044767,9.116432224237478,-5.869260993230921,-3.3734033100323866,-1.3501657566848695,-0.336305305663017,3.2464413787907196,-0.6454680978178375,-2.7239366811548424,0.7204623784404789
112.0,-3.7529112605435033,-11.111816328142034,-7.3589050675985845,7.434915190407901,1.8185181840056108,-9.212935226768998,2.1688705409355102,-1.5128988174635039,0.8740379259428943,-1.0227370693354891,-7.761792568777826,-6.228207900932409
113.0,3.3653298504871523,-4.2377044165581745,-7.603034267045379,0.4464038549537186,5.504900492700218,-5.894852935619163,-0.6632111954669133,-0.23436815648566633,-0.6138265577120228,-0.9830993607179104,-4.098532764729255,-8.223779607667023
114.0,6.72481664167144,4.788905799415058,-1.9359108422564195,-5.737758828905644,4.359413720428711,1.4554388036692556,-2.6885216123171944,-3.614125324901046,-0.7553646676590361,-0.2613135256527972,4.301852991138898,1.0449657333179196
115.0,-4.789153391502719,5.863999532162099,10.653152923664825,-0.5093098822597417,-7.761003609662515,8.211598238402358,2.469520689600662,1.0134103723403967,-4.171572806112238,-5.897662020614001,2.396087446568954,6.011504549288064
116.0,-4.399779545246332,2.3694570331495814,6.769236578395967,0.9725169488468679,-5.5366139875933875,4.523986427856295,-0.9654268318753363,-3.3470218633407742,-5.149238331670119,-3.692841359659886,-1.0919927041071769,2.296528643809119
117.0,10.06122639990071,-3.2411575723225106,-13.302383972223133,-3.446328106919134,11.656674180298808,-8.237943498109484,-1.1149786536441784,1.3070714066788065,-1.3119967759834419,2.326555954334105,-4.786118406499421,-3.241172644199885
118.0,0.15160565836743212,5.6862486310427,5.534642972675343,-2.9502512857564724,-2.7157488657186537,5.644182247762245,1.4078558365286922,5.154060457473967,7.223106121628492,11.609871546880246,3.2861860080602603,1.8902484725615603
119.0,-4.662592269358959,2.3881284812902264,7.050720750649226,1.1891807508748202,-5.884801849082547,4.674656606098595,0.5774026407595907,5.213596665766721,10.730358988447119,3.8876219334752404,0.2778615279901193,6.5206620658931564
120.0,6.819217908055475,-3.878543373400925,-10.697761281456389,-1.4134619482797857,8.802071530071368,-7.2530019270545125,-3.8962385158187267,-6.551787443462802,-6.040737885889622,-6.435730397432825,-0.03141997474336011,-4.685051932643518
121.0,0.7132116814001583,-3.5424308377755827,-4.255642519175748,1.3980298242285094,2.4419639514891704,-3.8617463493617503,1.4082779712954552,-2.132667477322105,-7.235239072272719,-6.308109771612126,2.0426044722374352,-3.892880770010219
122.0,-8.661007988824705,-2.6748046810628434,5.986203307761846,5.655833770975309,-7.292016001776178,1.6169827655909819,3.072881515202995,-1.054147642317101,0.42802798516942797,-0.5911179125617512,5.891348036472519,2.5706933102825085
123.0,-8.16967013515518,0.868415946511834,9.038086081667004,3.64053800966772,-8.572633816000563,4.917501326662076,-1.7482934572119984,0.07594330956335305,-0.1395905362632277,-1.697886390505416,-1.271688522126312,0.6988123595808428
124.0,11.934886858208223,4.5130686898811145,-7.4218181683271025,-8.235927318043277,9.71355989663098,-1.4869536887683825,0.13334513377538582,1.433378801058616,3.5064004806826343,6.049462754566193,-3.082174426584395,-1.4405296165851116
125.0,3.421557467357277,-1.514359785401116,-4.935917252758391,-0.9712945775487642,4.141776405185211,-3.1752685314967106,0.9206261975044399,4.055527106027971,4.865532381705968,4.344943330385146,-3.9701599416864806,-2.282601383299838
126.0,-2.7574216198934924,-0.35319065800543203,2.4042309618880466,1.5294653557532447,-2.6109778154913488,1.0798341806885612,0.5368188082003376,1.331913618884512,-2.8790868507987217,-0.8512264543311501,-2.1142381667474113,0.6558019284862491
127.0,-3.141630251481938,-1.8068123250831343,1.3348179263987823,2.5190915274968724,-2.263194216815693,-0.2556495860525103,-0.06227040317181898,-2.6818574587146715,-2.6828869290849022,-3.0719960784927984,-2.214061329716227,1.751657877998689
128.0,-3.2284948924976327,0.7297928880994283,3.9582877805970385,1.2887803700985492,-3.615313895630116,2.3283881478860997,2.9574856600756068,-0.5750335710958341,-0.31910718499961344,-3.6221090691448525,2.584367163767718,-0.6940923552894629
129.0,3.400758656522118,2.1378912162374717,-1.2628674402846622,-2.8100441206981275,2.3903340273566753,0.42370402636761795,-6.728407533470982,-8.575697295679403,-5.8895627026543895,-3.642727442226881,1.9850774154934796,-0.1622086951296472
130.0,-2.20598503445754,-1.1392291274109132,1.0667559070466233,1.713142432943262,-1.6550409412764577,-0.05126383320684247,-2.0522364998793803,4.837849652772687,3.6355113653994007,4.386141644647493,7.960354715237326,5.071513018371514
131.0,3.9949065317293,-0.6324512278367223,-4.627357759566002,-1.7145948557804735,4.3732391153144015,-2.6491828269048248,0.19105304092136588,2.3411997155857267,0.822910893209182,3.1659495481364193,-3.1404542519645906,-1.66402868640102
132.0,0.8751185022294732,3.460297750430517,2.5851792482010914,-2.1961738008676037,-0.8697774594987691,3.07584854313113,3.982500916701655,2.2363892296854804,5.729561193114112,1.7956467533384766,-5.693361026674324,-2.837199575517497
133.0,2.5681918294252717,-2.6350486914755455,-5.2032405209007715,0.08651209650928138,3.871173837552261,-3.951948446179226,1.949913239526265,2.7425353492067814,-0.07820008608335405,-1.341310255425121,-3.4460031499358177,-4.1809067603396715
134.0,-2.1072498822429586,-4.84363785482203,-2.736387972579055,3.4491539963634,0.2969649241163407,-3.7509469785366045,-1.6306528358738235,-4.664911886791941,-3.3322888196468172,-3.6422834351956843,2.617310385113574,-1.2929435268498977
135.0,-2.234696179674869,4.2877530427781725,6.522449222453022,-1.0569836381798838,-4.403004188434315,5.4381023574436975,4.678007318769339,-1.361846170118788,0.8291896162750736,3.8050233059718144,9.112439661751926,7.425216772107237
136.0,2.973394426911221,4.366230817790954,1.3928363908796753,-3.6281700007644253,0.7564180994368792,2.828650051365762,-2.2330051800937856,0.5438117075388753,-3.137686791752813,-3.700672939021506,-0.21548395642703744,3.5654111965047006
137.0,-1.131086731408512,2.8170343323432747,3.948121063751732,-0.8874003216165789,-2.5042324787214083,3.327652339710914,-0.19778394343281902,2.0824433895037053,1.4104223264279474,2.0815764600162696,1.1171915599276905,1.486096345021947
138.0,-8.279996040923923,-2.8065944612927174,5.473401579631168,5.571534457003973,-6.848177633251838,1.3548717144006006,-1.1408514723972498,1.4217108460123562,4.518306906507385,3.5025355002827756,-2.9328186570716106,-1.3566334194596452
139.0,-0.11225763088358143,-6.735358899962708,-6.623101269079124,3.4484613332551346,3.281428581830596,-6.657504972148237,-5.727370522077638,-2.0031309765874408,-2.890858943175643,-2.91001115466627,-11.920658963132697,-11.954071665317818
140.0,6.264148866999816,-7.183625958326678,-13.447774825326478,0.48348183556910584,9.883564608199558,-10.2904118535517,-3.7830470065293977,-6.071119732884762,-7.895896769881485,-6.735029174120623,-8.763603737300915,-3.4791831692351085
141.0,-1.6837385589329195,0.8474771815798756,2.5312157405128115,0.36404608967081054,-2.1548563993152383,1.7213394954311072,5.152399462221098,2.479240982673449,2.630763586784883,1.9918169269641104,11.367019867453218,9.46319233588859
142.0,1.475990072751392,5.514256704726645,4.038266631975251,-3.469016679955696,-1.325170099326494,4.738144175200129,6.443518995945318,1.790988585280454,2.9848116825244926,4.190112001751445,10.683338172016754,2.225971873464981
143.0,1.7134060683387258,10.433776763398287,8.720370695059547,-6.12531565250038,-3.4677550814881006,9.54768975853648,2.601225372328336,1.5169130469144463,2.7814792215424546,3.4263480895094336,6.550701085682237,0.40782919149542085
144.0,5.281204881602436,3.42302817226002,-1.858176709342425,-4.324950607573437,3.5249880141909293,0.7600918487992789,-1.1677570436282732,2.8353065840084057,0.003607996769869448,-1.7684934023514427,-4.353902916777299,0.6202519052858884
145.0,1.1537854498728806,-2.258648217806427,-3.4124336676793146,0.579528262718299,2.314073097861086,-2.774939413080681,-4.185150241612475,-0.35095318614485405,2.1775419814327948,-3.159722091915673,-10.163561756918304,-0.7609236526034628
146.0,-5.955576935591945,-7.999541362803823,-2.043964427211879,6.926630609917097,-1.9270903910901804,-5.039035487585635,-4.184877145446192,-0.8935358730704357,-1.465302007812153,-1.7111092792568052,-7.633218783663346,-3.938866265251767
147.0,-6.258065531168737,-1.7229651567850475,4.535100374383698,4.02069344943599,-5.445884068446136,1.3864389345186838,2.058581407434287,-2.987791238074089,-2.1950966282296935,1.1145617398283323,6.357855742498093,4.801286425689992
148.0,3.0196846351114424,1.8664574548824158,-1.1532271802290062,-2.408763446443028,2.1207013264961403,0.4106465672046894,1.5160548789578998,1.3190410070121015,0.5482543856490494,6.243951041433655,7.312222036185537,0.7668147041609876
149.0,5.267837617232973,-4.3070787256319045,-9.574916342864844,-0.519720754122539,7.463968112874074,-6.972801442917994,-0.7259352029814805,0.6376498564370365,-0.8022958066421033,-0.7316297874772455,2.48314324205545,-7.2205541006704355
150.0,-7.573003100739969,-5.9908910773972295,1.5821120233427743,6.825866785978878,-4.603842244148714,-2.244219517497303,3.236914996110666,-1.319048196005029,-1.0191773745791846,-1.7284537194884537,-4.099475260998201,-2.6040453369068546
151.0,-5.995803794153394,2.0775195925112158,8.073323386664622,1.9264908634250824,-7.052258282066845,5.106729587856169,-2.3741520618710963,-4.6072777361140025,-4.733894200598813,-6.208124504778998,-4.334940660101665,4.392716240328564
152.0,3.881062164893879,11.208315481106336,7.327253316212429,-7.5786671244249915,-1.7360190347166604,9.293367756780691,-0.2018431113765171,1.5373713501305304,1.1938312577965502,1.5304445100603528,0.34234577327738336,5.340664808541415
153.0,8.620808018823709,4.327510982515091,-4.293297036308688,-6.434260715754997,6.443772183640963,-0.038679797202809674,-1.0540001967888453,4.392406955418276,4.025307190281202,1.109197291886418,1.4161013320667648,1.52920986070751
154.0,0.8284205795207651,-3.8271620756722404,-4.655582655193106,1.4532929181548728,2.7235397827107164,-4.217396450267593,0.4729709970352661,2.237714905808152,7.930558305536382,0.7328032085660803,4.281685479469957,-3.0266897529195003
155.0,2.4220673509515747,0.33480901045396916,-2.087258340497696,-1.3533650538451307,2.306561719782768,-0.8480735644847606,-0.3574789478524913,-2.076070805278653,-3.3370089712387374,0.9821361838679383,-3.7254282333536746,-2.6775517350594624
156.0,6.401388073799102,0.1613257303986324,-6.24006234340052,-3.2622783647308733,6.363222519071369,-3.005353135852845,-1.9363563307928886,-1.0265107404739342,-6.790021992939121,-1.7179104258008988,-3.1141870665539733,-3.9425746468343488
157.0,-7.750487996214503,-4.743774583636537,3.0067134125779726,6.263013901971637,-5.423211306635002,-0.9077614465453432,7.596382795952149,0.5964486906440156,1.113119404855953,1.9475131253509728,0.6993724507381894,-0.5794848981650458
158.0,-10.178281431450309,-0.033140627876035555,10.14514080357433,5.1212206828124485,-10.212110049145501,5.0200713474533245,0.2847295810222481,-0.21007362649346462,2.8585232488926913,4.044736067767493,5.358126340163354,8.776897750717787
159.0,-4.380677463061505,1.465786153005662,5.846463616067253,1.3956951790384702,-5.087548265568399,3.6204142857720183,-0.047270490220442024,0.7965197935885859,0.6346396345375482,0.2065258007629739,0.6170511346241301,5.473506876748663
160.0,7.775627369023036,-1.6900799100360053,-9.465707279058966,-3.0237471597042056,8.64801398484802,-5.5373997436110045,-2.070158781023963,1.6561134333957126,0.8397872536298463,-3.81225204856356,-3.5299096554096483,-3.793791941353214
161.0,-1.2856883631590232,-11.441562200882238,-10.155873837723195,6.3842062356956415,4.466821652802185,-10.76243770404167,-15.310449973408478,-6.830185153839497,-4.902526214991628,-6.652013845045946,-5.3964407318648755,-17.005886427840842
162.0,2.7176309119055984,4.945053678822571,2.227422766916945,-3.8887317653712974,0.2041847574082265,3.617754783792457,4.386650125964198,-0.29669261686622295,0.7659010734325795,1.1893546514814206,3.491907063044542,5.768100063655896
163.0,-2.1385421987446347,5.007576041787123,7.1461182405317,-1.4127934053021098,-4.67717904607894,6.024930140311214,9.062256291377714,0.37313203645590853,-3.0407405526964677,1.2959295296804072,4.669416275899444,9.601827288454455
164.0,2.0307171527796903,8.468330128298966,6.437612975519232,-5.22724730509064,-2.155163616278331,7.475391901495959,7.2619795059031045,6.722075047467442,1.7682355717838862,6.947134758371017,3.279224416768904,3.2448003430907293
165.0,8.267664729366514,8.269546411510285,0.0018816821437672715,-8.245249861680014,4.103996223162509,4.075425717453251,-6.266800173240827,-0.4282864141156577,2.476944281245335,1.2744597886272486,-3.543375818994827,-4.435098588955643
166.0,2.5411233037381775,-6.135415099759703,-8.67653840349786,1.8219042145194537,5.657083435548174,-7.390486881680158,-2.7962810044634807,-2.091551007539964,0.4420190347313051,-3.8845924691428992,-5.147954146992138,-7.485116724388858
167.0,-5.34547589112307,-7.088981101198417,-1.7435052100753166,6.1644231021414075,-1.835780259179538,-4.40192457927129,4.508571669710088,3.2790872232165107,8.481938694581093,2.281744962037629,2.1282957588038274,3.2758229918199495
168.0,-7.3764458299715265,-9.722926331679096,-2.3464805017075383,8.497521738696328,-2.555507832856007,-6.019144308090773,-3.362442962621393,-2.961545313676688,-2.6343214731101705,-7.516537659923782,-1.4825932623690714,0.09145250180329918
169.0,-1.1685213852828804,-1.0016897470875712,0.16683163819533176,1.1121083697825487,-0.6348054359384192,-0.39835513395601074,-2.1190750223328854,-1.7153546177485761,-5.265447505096489,1.4269526102190686,-0.2586699437625257,1.079210577338582
170.0,-0.2206479610191845,7.717893736266687,7.938541697285888,-3.7205244508712,-4.04983622409173,7.852013380186516,0.5211243975507363,-2.4755509652778667,-7.589351387392763,-2.528096215177838,1.194092847988355,4.511017486868204
171.0,-1.2076228717469268,6.182993328645419,7.390616200392362,-2.4568906803279833,-4.347701985423072,6.736165432311514,-0.12751647257230359,2.276055067497138,1.0799811981587841,6.681089715698806,6.0281142131962655,1.569800028191863
172.0,4.5847182020013175,-0.5701552310532207,-5.154873433054537,-2.0506379135602697,4.904064074941092,-2.910649494870218,3.426248711721696,3.0738343744577263,2.3098344862189797,2.1550749082420975,-4.243837667786243,-5.624808878691928
173.0,0.9601539955719547,-3.2356459144687744,-4.195799910040732,1.1790417093406909,2.618947963279159,-3.684950156901654,-0.8433803671299802,-0.24747392120632172,4.532316204138402,-1.6980869498933056,-6.34311745275241,-3.7298854525952088
174.0,6.747317269574306,-0.4536537141246941,-7.200970983698995,-3.178376436003273,6.943668464583883,-3.798225915293421,-4.058496902876939,0.15761950776628908,7.295985145023513,1.0734161932686326,6.3177687768786,1.8752055042961184
175.0,-1.9993266387236073,-0.5771225205058954,1.4222041182177207,1.2611265051882798,-1.7354816080492261,0.4493077366555831,1.9247361423345355,-4.92041465014483,-5.94264518304185,-0.13635077077264912,5.8479144854009615,8.917865878138887
176.0,-6.200123096144052,-3.586561402085111,2.6135616940589372,4.946882706327315,-4.428762348036808,-0.5400157264217077,2.5660856876515097,1.0686609119374966,-4.539502743098168,-4.0153906080007165,-2.9816544091039745,-5.832243283115081
177.0,-5.763638804952581,1.3739865870411219,7.1376253919936765,2.168587738876845,-6.472903149148188,4.281547656979617,0.4429529411059123,0.8547693983410949,-4.033141936875861,-6.689250559953204,-6.910173015387544,-7.520317073255422
178.0,4.874039719455945,4.41264891794947,-0.4613908015065289,-4.673064453968287,2.7216092054054912,1.9260318391592886,1.5290685830349702,4.233994722996129,5.8571662873003385,3.6387713159232002,0.3173628250985465,2.3723378056257527
179.0,3.51909903384034,0.6423807370447372,-2.8767182967956675,-2.036530071038181,3.248348020663688,-1.081436968050318,-5.581212779181299,-2.2370904374886127,1.5171475313942442,6.110095590743399,1.0031783835657562,0.058516644487547564
180.0,4.918226140250923,5.122239462209182,0.20401332195820943,-5.059546679299698,2.325613006598326,2.7080487766685173,-1.2907778644361607,0.6402770312404517,1.1404292724293965,1.8620376317678158,4.522981797600246,8.869373442160635
181.0,-3.5201038345999702,-5.670013260916976,-2.1499094263170293,4.630953486450626,-0.718858704449935,-3.9334267615740206,-0.03423534032498754,-2.376745929775958,-3.195224878864045,-2.801127404438771,-0.13987077881205856,2.8529670995983607
182.0,-10.505511980695408,-9.766534143086925,0.7389778376084863,10.170233629895566,-5.657080802871816,-4.52773622518104,5.92993375684719,-0.45563208172586656,2.1990797434816267,1.1864870180323681,-4.935555851745926,-7.45794543945235
183.0,6.7610758789297485,1.976825704839002,-4.784250174090725,-4.413336302783671,5.816823856650954,-1.410994751785322,1.9150344731263773,1.7686580586868952,-1.822383029846182,-1.2210935550797875,-1.7080780063277476,-4.283757928034223
184.0,9.574161264169527,10.025088411896832,0.4509271477273413,-9.842462976843118,4.607344709893156,5.233330135394785,-1.473031199832173,0.4384682790418678,1.1880039963140157,0.08234382760161241,7.685258618661983,6.518060927876737
185.0,-2.2185356724845704,5.992797492456555,8.211333164941166,-1.8488257136178374,-5.245297864130466,7.095816444616225,-3.8788093305297315,-1.0602320791934932,1.2907987019399378,0.9580724687627256,4.9039759503518745,3.174307938446676
186.0,-17.282459826473513,-15.27232934479872,2.0101304816748318,16.31849338725584,-9.673357979581956,-6.642137285151677,0.6358934659615962,-0.4413727885621214,-4.549122059224549,-6.012901677481731,-8.306150413410506,-10.609414939190856
187.0,1.517295105418416,-1.3772514827994033,-2.894546588217796,-0.10477927599749393,2.1822786120840627,-2.074627486869585,-3.4382570371991603,0.6506654135970722,1.267694820687646,-1.7411089004324192,-6.106109621871819,-0.5359146354989606
188.0,8.18314035310683,10.332589776711659,2.149449423604835,-9.28978106399699,3.0750164701522817,6.2170404073762455,-0.9366713743458281,2.159537110157975,0.7322375263647061,4.0181186144600884,3.7038142782338035,7.091769300359255
189.0,7.915403453778628,0.45645412336350644,-7.458949330415116,-4.136289103221873,7.668815662647433,-3.5305990530800666,4.276867839984957,-0.517487274407974,0.8049828646899433,4.6536550728693875,3.0146573864761566,0.2711742150087706
190.0,2.297948405302424,-8.278876647158107,-10.576825052460515,2.964281403977049,6.419771239174704,-9.382058761730502,3.5126250277437796,-5.811604860441833,-0.6924579441909944,0.014044839497889594,2.115221284993385,-5.101788559195482
191.0,-6.02064390776513,0.237908202438879,6.258552110204037,2.868398721840179,-6.079952318032072,3.2135735398914878,0.161328738135172,2.835659287682794,-0.6812459557010744,0.10064449231589145,-1.632220648282638,4.909466658572015
192.0,-7.711684089713978,2.9915535323113422,10.703237622025345,2.4193207050000574,-9.230914195312796,6.812690815635982,0.06812015598264388,2.613602551902435,-0.039821152714183544,-3.585287124747878,-0.8317956552116537,3.96950450022388
193.0,-1.8663528112115282,4.100412194718164,5.966765005929701,-1.133141646518725,-3.9472515275738838,5.078603624761779,-1.7736432444461805,0.9224315052487717,2.0157766916130995,-0.46361493892853556,-1.2029800386042315,-3.0036581469875943
194.0,6.828711238978778,1.4270868227923859,-5.401624416186404,-4.141371740576176,6.075306830381819,-1.9412942637956587,-3.281795399427647,-2.7676468981537337,-0.5793151208061222,0.34915941162458775,-1.5516327592076826,-7.1761687891478365
195.0,3.4309160955452924,-1.3662443438813687,-4.797160439426692,-1.0446496610423541,4.143770230239246,-3.1148434805228105,-2.393650032033528,0.5683718339921726,3.2544972446140785,2.2860133311347517,4.528397385966684,-0.13294782439600805
196.0,-1.33992987852059,-2.6760095975041382,-1.3360797189835876,1.9947872929815451,0.021002279282721137,-2.042086910512472,0.32668617012915724,0.7180568137986143,0.4382574534590143,1.255649959257528,5.063513257221452,6.9448588056497975
197.0,0.5562158100428087,-1.166120839017598,-1.7223366490604355,0.3674516746033808,1.1595790329110616,-1.4074819992306657,5.452351360300705,-0.06661256366722829,-1.8374138437246341,-1.388546992950515,-5.213511698799018,-0.19879779752864968
198.0,-5.177917094461295,-3.462379163848731,1.7155379306125569,4.298897098132014,-3.424298480839923,-0.9238400103568669,3.439205169410394,0.8477583686652334,-4.285527993718774,-6.39481120657803,-7.335916635347251,-0.35089759169200363
199.0,-3.1767083247395234,1.7558401194301898,4.932548444169735,0.6829726002438115,-4.104929573419407,3.363383270990943,-3.396675242502042,-1.523039391863582,-3.122911722546317,-1.0695670932849295,-2.5130761593150366,-2.3838619282802727
