Time(ms),I,II,III,aVR,aVL,aVF,V1,V2,V3,V4,V5,V6
-200.0,19.960271369493697,-4.189969632736182,-24.150241002230047,-7.8615559050292525,22.012916957276722,-14.17668129549101,-5.301297684923071,1.7361448680345246,-2.124544870030859,4.325577364106599,-4.397412093814048,-1.3569787511218072
-199.0,-23.339553685468147,-4.338315711434651,19.001237974033398,13.860676761244207,-21.135814346604192,7.402930104904012,9.617798284270991,5.473225020036473,11.861382557587852,8.473287992995642,7.124036706615118,11.866383242692681
-198.0,-44.02053477368576,-0.20575897180704206,43.81477580187872,22.059209701392426,-43.88362208276812,21.79585539043832,9.568333976635753,-5.774412287758807,4.896325121171122,2.2643853286276707,1.2222188518971753,10.903411534473893
-197.0,-16.577335296851743,5.845545201563213,22.422880498415036,5.3978939071190055,-19.544688853931962,14.123909682860772,4.374533014513492,-2.105991391787313,-0.1455807169021872,-5.384230475056787,-1.833059746901627,7.769819346699996
-196.0,27.189189787054126,11.140641107955044,-16.048548679099,-19.202098656131795,21.65313026345485,-2.4665498626069464,-4.088289077437612,-1.4059880538077791,-2.292277800206323,-3.5502127414442364,-1.6296940253727752,-5.118287264746492
-195.0,9.970231945249187,14.01766215204807,4.047430206798927,-11.942626403655009,2.9164132136741525,9.016438691415642,-6.443642265911218,-0.3530082768024927,-6.151763743224263,-8.143328211379947,0.17118292325192597,-7.58094172621751
-194.0,-1.323857947539853,-2.323742608618871,-0.9998846610790117,1.8041217309897846,-0.1294203629713131,-1.6828618994549909,-5.335045210694178,0.738806103872043,-3.9856930912867696,-5.675427173148369,-2.186052428259776,-12.344800898976796
-193.0,2.9646635764261404,-14.273527314233903,-17.238190890660093,5.638758696203645,10.053722592374777,-15.704121808419403,2.571015450539665,6.578364761852216,3.9175903920980284,6.981061452092438,-0.7372571639009864,4.6146459845149455
-192.0,1.2923936260208588,-19.576305184321903,-20.8686988103429,9.12561174807095,11.110358317351587,-20.25563201541204,5.932867779405757,4.587814089685675,8.360905681826853,9.569752635797393,2.2429735685425527,3.9603747349119436
-191.0,0.02265511311975099,-0.783351865948168,-0.8060069790680959,0.4374865487653148,0.4436499295159999,-0.7543696276061826,1.317861483179629,-0.5488525304848444,2.343892616412848,5.38414272879314,3.798465916524988,2.989572795546348
-190.0,2.1570776106605525,7.905774307728525,5.74869669706784,-5.061841864096301,-1.7662491562603018,6.784990591232582,-4.245720426004672,-4.741286549024808,-0.4852422422300433,1.5542846699217927,2.121161363737843,2.1714709311179012
-189.0,-2.996367495888424,4.094598221480411,7.090965717368778,-0.5900683800530877,-5.092291022721667,5.627242544956722,0.4787279116388954,-1.5569630284834006,-6.933728717840286,-4.283091280820367,-4.449784256113275,-6.869617951642742
-188.0,-5.5206723940316245,11.7189024102906,17.23957480432226,-3.071455174446463,-11.428279933205477,14.434463347884867,0.9227777116788896,-3.174081613361007,-4.012745781534481,-10.646191717940724,-7.577804781557056,-9.068759452234113
-187.0,5.979003915184462,6.0076120731142115,0.028608157929848943,-5.973464885471383,3.0061504085854853,3.052594522698282,-0.6933968690058862,-0.9197722307527951,-0.2926338669877495,-3.85006810439001,-2.4612988876189212,-1.6359484745949462
-186.0,5.261436571299855,-2.6663238810706673,-7.927760452370425,-1.2820198487238357,6.626266729017129,-5.261807264507442,3.1863325687819066,4.911947364948926,5.237770305817041,3.464854439111042,7.332436921417484,15.798647672253752
-185.0,-4.09135194067572,-7.422268326312183,-3.330916385636395,5.771776795832621,-0.4256410729575144,-5.419805678749681,-5.252615821512405,-1.2783729374902166,1.418025930903855,4.009638870048779,0.8302059434474014,5.670747213599523
-184.0,-15.993335034392226,-6.8666266795946305,9.126708354797632,11.368839818858309,-12.523915711374455,1.0863566171118721,-3.565673630406193,-2.8197490089223605,-2.901226023394809,3.734309041770026,5.724328039567014,3.753765234860557
-183.0,-7.634889604067886,-8.610658448767285,-0.9757688446993859,8.145473534137135,-3.290125147860489,-4.759174972094682,1.536761607292447,-0.11461946714375071,1.3234011528440752,1.3119544765503548,3.418470360544115,-5.065721104638039
-182.0,16.524717120826942,11.174711881192094,-5.350005239634858,-13.898793303698604,10.900686291528308,2.9454403237311793,6.303822389133393,3.793644878508856,1.0005516244016421,1.0659172198643738,-0.06881031544519067,-4.728236224965169
-181.0,10.803435259076586,5.61412143743741,-5.189313821639214,-8.170580285042725,7.960251263176964,0.16652090192555,0.7804108874742552,1.622686115920168,-1.8687273628818357,-6.453754529373941,-11.571305698674731,-11.350325638193556
-180.0,1.423008784683784,1.9459728352766197,0.5229640505927606,-1.636639252777699,0.4902503646973546,1.2681262618319438,-1.7128283103270519,1.1266512854744972,-2.87545753867979,-3.194194136509405,-6.305594951223516,-3.893399172333731
-179.0,-3.349726693925544,-4.604207598883825,-1.2544809049583798,3.9559111228125747,-1.0913017942566396,-2.89413338331365,-1.141905111118187,-0.23850934251045097,1.1032626293822907,-0.6095689613304482,-2.7341884773228755,4.744601066199511
-178.0,-3.542947943636178,-7.784041296553115,-4.241093352917028,5.650933903930403,0.37755857070172993,-6.054361455113427,2.0877706605553925,-1.1552281568105267,6.34153843804594,5.020167875841789,8.228414707995118,12.611227866321784
-177.0,0.21183305137427588,-0.8280268773954185,-1.0398599287697305,0.3009014284191416,0.6484235946464567,-0.9742415349043567,-0.10264687853434762,-0.4782227522146567,2.4185283722809867,4.147460859146832,11.803696625793682,4.936483470108959
-176.0,-8.700025988098785,2.2721541158800074,10.972180103978829,3.2075329303628757,-9.89527438892553,6.661962376729926,1.620328345516923,-3.782541692898931,-5.503740218561456,-2.3342511293243087,2.6828531677711567,-5.636314026487458
-175.0,6.559600596680287,11.922864472287758,5.363263875607591,-9.25201654634869,0.6192921135964662,8.605986596940152,-6.133158688299629,-1.627682616716222,-0.3199594023385033,1.7984478596383582,-0.05289843779983805,-1.815207832559591
-174.0,-7.555056934758909,1.4956845479460794,9.050741482705131,3.0885667662134653,-8.275286988048416,5.318174215209201,-4.078795415774065,2.4512869236298354,-3.6953919136081037,-1.723536190390601,-10.553798376945805,-5.541283053236822
-173.0,-0.8541230368523416,-5.762869569757129,-4.908746532904642,3.276340188442398,2.065194814451866,-5.364470343685628,2.567952965275527,-0.259049961661697,-1.1510228149340798,-1.8630844976827854,-7.067952495156742,-4.179142525061383
-172.0,7.112700032813932,-8.414945149082971,-15.527645181896819,0.6057987168588939,11.290843353488395,-11.914787193924367,4.908709507106128,3.590888919088844,2.9645434974386133,-0.16141112120910117,-1.624573324102311,2.266877512687429
-171.0,12.151310010911555,2.8652189122144236,-9.2860910986971,-7.486142547184185,10.69910826353394,-3.2265461603669063,1.9569337458632674,0.5559668704861545,1.4313008908254794,-2.917601867400164,0.32152225682264146,5.186196090891309
-170.0,-4.5358076102558575,9.952236594422624,14.488044204678467,-2.6929763525807546,-9.526087623987628,12.207755760186984,-8.565855146392973,-9.289953881404212,-4.508320796828266,-5.599403892145865,1.1041543792746642,4.117592328476627
-169.0,-7.552884621394906,1.1812110946495618,8.734095716044418,3.200243253530073,-8.157582165843937,4.944832379161365,5.831325742163699,8.485087774820093,9.191242945213219,8.777961811858214,15.08189946145892,9.401460494682262
-168.0,-3.4269615623238026,-12.291883397970352,-8.864921835646623,7.879185891337448,2.7002062976651215,-10.596336897101288,5.720921347140223,2.773386763173863,1.1055282436107516,4.27507313451871,6.7845420602487065,-5.259702045843277
-167.0,-0.5944352696610218,-11.726989107614974,-11.132553837954037,6.111812182334798,5.32133095612172,-11.4563758340474,1.0930476000791691,0.6118273701855348,-3.636812441094353,1.974662777301198,-2.0322315334480905,-12.451161811298965
-166.0,7.880299758935644,7.668740144062848,-0.21155961487284314,-7.732466260723426,4.089368349027005,3.7709348731425343,-3.744805103889081,-0.5727876067463744,-1.0978851109401402,-1.9589837354072956,-11.54390455534714,-9.210775069195854
-165.0,-0.08393165135456204,8.897477864657143,8.981409516011729,-4.432124324752097,-4.576677624297147,8.973664998479306,-3.922803883612329,-5.045634485336313,-3.3046587819866455,-4.381084358588736,-9.468407729154016,4.66242650111378
-164.0,-4.90198064401182,5.262600338487543,10.16458098249946,-0.19768755071261346,-7.506660810252653,7.6647284629770045,-6.839674722450843,-5.02974752399724,-2.0360168735674473,-3.8368036366423786,-5.427544801529245,6.155923663637063
-163.0,-4.128717762711404,1.5118162487656641,5.640534011477232,1.2942072665346147,-4.9443077618180915,3.6061825140374757,0.5520009170413607,-0.6209867827967068,0.9743287133655119,0.6585663386988054,2.145738859971645,6.991000635258707
-162.0,2.1184136968121376,2.788157451460246,0.6697437546482841,-2.390713731522829,0.7365871657797465,1.7625953214903738,3.6304783207579163,1.0871740720538765,0.7225851246175061,-0.449539634718676,8.86835741343512,3.5018917307419537
-161.0,10.616231946163854,-3.559118698383489,-14.175350644547203,-3.550885041009399,12.402652363683288,-8.907264450442323,2.393121191338235,3.5958536383930317,2.149884968473537,0.20204237339906017,11.83907151982164,-0.10067219196788901
-160.0,1.3000942011153,-16.55493779811353,-17.855031999228757,7.5963364608560875,9.581564601993268,-17.240877639802598,5.185346935962185,8.157604977757316,2.793863421684882,4.204388732526969,4.0855245174494765,-6.522276926044534
-159.0,-6.2984622207440815,0.02121472789540846,6.319676948639513,3.176932206190276,-6.304334882194618,3.2147131425299627,1.8783847110722385,2.597969847658291,1.4988790950777375,4.245009309500633,-2.822434607559143,-6.785576499110858
-158.0,-6.6171326555269605,4.860146138655756,11.477278794182688,0.8301236300564385,-9.037657167383017,8.132273848524994,-1.5171326805165406,-4.481147334495857,0.31818987365691664,4.243857966702839,-6.382197899416325,-1.1342772234261203
-157.0,3.1285120055807027,0.6008828330701461,-2.5276291725106237,-1.8392037803412573,2.846114829012218,-0.9258157798527389,-2.5587034173407437,-3.658602152570506,-0.2332182519327609,-2.248530706771528,-8.906362622575488,4.074448339591395
-156.0,2.4135847441629017,6.915368971649696,4.501784227486712,-4.640056252854282,-1.093880880607482,5.661216627873525,-5.91365600820809,-5.833062380330098,-5.224583685523794,-7.698822844037991,-4.633891522778324,3.77057564906307
-155.0,-3.4695334057518457,5.532078101814988,9.001611507566766,-1.0044151835323296,-6.195029010787623,7.2922084801244615,-0.13711033226062952,-3.260672551718458,-5.747320240463782,-9.072052519383996,0.3266562769111112,3.5612377387842677
-154.0,-0.06644367628466802,-1.5369984901979041,-1.4705548139132376,0.7545267842846197,0.6742136478208549,-1.4832430536749084,0.8693602045596635,3.2468745479502914,2.7418440879726274,0.16657034774206192,6.1754877917326025,-0.13906493859617308
-153.0,2.1980221237597846,-9.35089801901111,-11.548920142770847,3.5344957878140004,6.853218036082575,-10.43287589634052,2.255217460340808,5.925419428675616,2.559202085533012,5.062335947260714,5.863062562386148,-3.3452560430350142
-152.0,2.324148498803161,-4.26817737452517,-6.592325873328281,1.0130310207535915,4.5204889732590985,-5.416115531862216,2.898768547054514,4.637220957816342,2.907188432312508,7.771940359064844,4.222879078105418,-0.3382348690987165
-151.0,1.9764896036424535,4.369521215831821,2.3930316121894277,-3.129928729230888,-0.22531222162795794,3.3133699163920065,-0.9696796994268961,-1.2065722014774853,0.7512726027504382,2.633571070388718,-4.533682134773251,-4.7673147933450135
-150.0,-4.816168841454433,4.0098826081856,8.82605144964008,0.3669053126966164,-6.842810586380401,6.424679610669907,-1.092275694299552,-3.763833704640521,0.8128505014111979,0.3253630510779706,-1.4906975436999947,0.5263565908540206
-149.0,2.393038745262011,3.812712527097836,1.4196737818358316,-3.1421275428655493,0.45706998299472357,2.6186295173744694,-1.5131474968775909,-4.3865222396467125,-1.9766537397917834,-3.844849868555389,0.17652299147165795,0.9570105057489195
-148.0,0.02087030622247321,-0.27192920822508615,-0.2927995144475961,0.16035274387796333,0.19627390064693628,-0.28256461181541415,2.660713006913184,-0.167669670783817,-0.8600064760787685,-1.7693816817208692,0.08926762550898015,3.6063413261176906
-147.0,-0.7974141117351823,-5.73041150444312,-4.93299739270801,3.2936452967768943,2.097541322189624,-5.330713842905748,-0.5567223157771921,4.455785485813928,0.9555527157896069,-3.4963433619844473,-4.125937442284019,-2.667902743534927
-146.0,2.3328406625449247,-3.8525265445744523,-6.185367207119426,0.7067262676868316,4.202160156440822,-5.011374782097572,-0.14025285078684047,2.4479668349693786,-3.282369598312767,-1.7364417369098502,-0.0148953873462645,5.1732251102488
-145.0,-0.5620355709361202,2.2127411574523217,2.774776728388449,-0.8015850503623735,-1.651457268460574,2.5133215114148,-0.5729153354967726,-1.3204424253847644,-0.6175218160962574,-0.2438917421337261,0.07438571457926801,-6.0457309745173
-144.0,-5.8898757568030184,-1.8064204648433582,4.083455291959711,3.873093954982054,-4.970744914006212,1.1735568984918534,2.1801020225762153,-0.5783865988132373,5.460147687357123,8.112610051919289,4.8286509159237045,1.9429869470711805
-143.0,-4.1910269128207265,-2.722574484263986,1.4684524285567702,3.407425988944563,-2.810939006762243,-0.6552932157332796,0.6019083318880141,0.9300683014928279,1.3634122884668025,8.119694980087818,4.585995840227624,0.8780014379408119
-142.0,4.335319575423722,7.76498581324816,3.4296662378244296,-6.013563707864714,0.3991454795571533,5.580626340485445,-5.2435344682506315,-4.955174342853689,-0.3188952540539174,-4.193953229778071,-4.5378661492848575,2.8173923419748426
-141.0,8.070208123391183,13.054920010348885,4.984711886957646,-10.595844518895879,1.5765270170554593,9.007709223530656,-1.5354256694106194,-0.5247290063147005,-6.916549903170164,-11.065865448293225,0.06751957461049796,0.8868191992260567
-140.0,-2.0605872161514247,-5.545506273775896,-3.484919057624574,3.857426898437285,0.677170432727197,-4.530581098820196,1.4707473189883244,-0.030873331833807,-1.3919656356073913,-9.296311689507187,-4.050032499325921,-2.1938837624985124
-139.0,-2.332890911889278,-7.713362452180684,-5.3804715402915075,5.005819643022184,1.5775135214837535,-6.5719072733338395,2.100322446884554,2.657608154731924,1.7054486760951562,5.145881592270337,-0.8778293895331817,-3.9991365447702205
-138.0,2.487735755627736,-8.502979210414045,-10.990714966041818,2.993860792017135,6.722887423375495,-9.705774709382123,3.498626685359385,4.782502805569134,2.097467993045092,8.387570500227385,-4.518235179099608,-2.5683074502176346
-137.0,2.5548829450853128,-2.3601499601191973,-4.915032905204487,-0.11203626915952736,3.7249056420306594,-3.608442136605506,-3.4934404448337184,-2.4161521080751527,1.304399424899887,0.5924273743424902,-1.4372969148763142,-2.1979608527674643
-136.0,-4.916714265648923,6.536696235462138,11.453410501111168,-0.8298757344159283,-8.19197896631843,9.016072574290352,4.823320123366285,1.8717324374589683,4.049071810946912,10.222306325204546,11.903850027710865,8.354947459861549
-135.0,-4.288009875748063,6.81803560105878,11.106045476806962,-1.2144609449618602,-7.70413590993549,8.901363235802531,-2.0402445095810986,-2.781894022656284,-2.6188301510506484,-2.4615118470518897,3.559379606241567,1.978040231738782
-134.0,1.7708336909266587,-1.5627610944833359,-3.333594785409857,-0.14180596446514948,2.541991596400269,-2.4282173938196547,-0.9124973874753632,-2.323502457023431,-1.0981511701473181,-6.813812931734322,1.717881069460032,-2.733076745356646
-133.0,-3.2977116350203337,1.1543585996464865,4.452070234666901,1.1036899164171556,-3.8116075339688003,2.828284703176366,-5.228342551128891,-1.497209132838171,0.19095154309575735,-8.584796933468837,-3.1659264827974902,-3.9840375264309222
-132.0,4.610990218760951,-1.7233567526985643,-6.334346971459508,-1.4187787478367473,5.4507477315807105,-4.076346084203705,1.3750184633623614,1.727669269050883,-0.41455293153185946,3.82233938022795,-3.714022204854142,-1.3989310619562645
-131.0,4.10026266573381,8.610564760584143,4.51030209485029,-6.413393902671185,-0.23372405261125007,6.596986907332864,0.4951580376332971,2.282705386991512,1.562675753276878,4.153408028134952,-1.028388380526906,8.73517440911389
-130.0,4.663372699231345,1.3462078239713247,-3.3171648752601133,-2.9854276569719014,3.9552398526605375,-1.0245087641705917,1.0999235479437182,0.6939759785214634,-2.8244772493751515,0.9890096065470475,-3.8433990213225977,7.28102426247565
-129.0,-8.671795214401378,-22.083269687861637,-13.411474473460324,15.39819043157462,2.4082914599941283,-17.706881761733804,3.6461853571892897,-1.2461122191684395,-3.301789967884689,-4.212841908233654,-5.655415651315216,-3.59278021845428
-128.0,-8.227009798695702,-6.883874265677968,1.343135533017704,7.501069842607553,-4.75065230733007,-2.809583676375283,-1.305065965050216,-1.0115231656731178,-0.5131089278261902,-3.57052225418492,2.933893536936906,-7.681743039382834
-127.0,12.455091924469361,14.237342776908552,1.7822508524392067,-13.316062793931156,5.367653867525995,8.047961645970508,-3.3998109897934707,-3.258145776657303,1.8556928667147554,-1.4240717218856986,3.3782099153332887,-12.122104358087627
-126.0,3.72639010474492,7.543734066845219,3.817343962100361,-5.597635528430196,-0.09611434582887035,5.63966251061145,-0.5456809349437717,4.560682387587606,0.9542197689904848,7.783778116326853,5.32294036743726,-0.8383593996808498
-125.0,-5.27079411606614,0.9793387421221063,6.250132858188401,2.1123017526250214,-5.814751281185586,3.6545820439937104,4.741435433542085,3.0415627340348883,5.90627949438331,8.745090434125453,3.8597038369792744,6.834295776264801
-124.0,-6.0659156492805355,1.7199928085108502,7.785908457791541,2.1468960240216615,-6.905479870711871,4.718727535772216,0.21532335657973212,-4.178918503761163,2.907886345140305,-2.0288070538304726,-3.365432008487661,4.853861669646944
-123.0,1.4829568830508362,-8.123335312405816,-9.606292195456621,3.3784321095972523,5.5616356146724115,-8.813433718882457,1.825046756313942,4.770744733683753,0.03155134820461114,-2.5442550987123136,0.07488868227858436,7.5223732106472285
-122.0,-1.8446696728875405,-2.3634340152142963,-0.5187643423268238,2.0862409756204663,-0.6474151244161024,-1.4608990179223769,0.3399469372513455,-1.2220017432580492,-2.7753096447834356,-3.161639089514366,3.2800837213386016,7.544939913727243
-121.0,5.906631097055704,2.1350292042856167,-3.7716018927702217,-4.039315200489236,4.856094782913747,-0.831791075457009,-4.281660318495134,-1.8447337695377835,-6.757792094295156,-7.845837311864401,-7.58704934123272,-6.391737810594439
-120.0,-1.591643001323395,1.2372973802118512,2.8289403815351237,0.15497300526019542,-2.1888227211721185,2.0226957106862975,-6.221553176156256,-7.00211221666824,-8.111001291835233,-4.199264445888129,-7.602629331226829,-11.259759085037192
-119.0,-0.3465124542289334,11.794192102806152,12.140704557035033,-5.6727921743527085,-6.293981007277473,11.955571974084624,-5.6183882024952645,-4.060409696633279,0.5116920715934921,1.0805510377903618,2.3402031619147072,-1.2472240251757984
-118.0,7.023620269146095,-6.5102726217025655,-13.533892890848655,-0.2897227701621963,10.236754050720187,-9.961562153799617,5.4131404940793555,6.880391433389695,8.405446764483722,10.628800365273909,6.069485478315872,1.6180076323991455
-117.0,-0.9597876331353437,-4.81202645323416,-3.8522388200987923,2.8497650618148804,1.4919384778720337,-4.360946423364345,8.412723612224708,5.953801953359067,5.214085185625891,6.310689953555361,3.487596766264107,1.7378545061522264
-116.0,-7.804342717181502,-1.434998491702975,6.369344225478547,4.662979421373819,-7.111042374938123,2.4251382271822277,3.5562144908441393,2.3995513711562766,2.4703739139778866,-1.268477412345498,1.889778126115225,1.1859304114007716
-115.0,-4.387105688421029,-7.004174280343247,-2.617068591922216,5.743763859664394,-0.8226159888514064,-4.787503524601368,3.268642421888689,0.39310878108981595,0.9473107424009641,0.24879162306733354,-1.6219697497595065,1.8501881074900812
-114.0,6.313377950499306,1.8773909702866678,-4.435986980212655,-4.118285752140798,5.363945989111832,-1.2676834811254316,-2.7450924985104246,-1.8643949785241913,-2.553088995381155,-3.058486469383711,-0.7592007310405438,1.5405795882201
-113.0,3.7800800801531533,3.192845723834364,-0.5872343563188203,-3.501150989243771,2.174774629638917,1.3070894866031537,-7.899850468986373,-5.808549073530032,-8.390607994855626,-9.533220105358426,-7.846606043943689,-5.492057334192488
-112.0,-1.8396173360205101,4.580021406449124,6.419638742469596,-1.3789478188921618,-4.141608008910422,5.502097851362226,-3.1975786460530466,-1.2281891957936897,-0.9175942494758642,-4.2229765763761,-0.8347843077187593,0.9570413674867333
-111.0,2.054565955984204,8.75486349677024,6.700297540786003,-5.411825715191275,-2.3430272960220697,7.733107466961714,-1.816830986400566,0.5567618982196341,0.8407474900301546,5.758423255624352,3.6103423186040526,3.951794875796896
-110.0,-3.8430180014993156,-4.892692347872964,-1.049674346373676,4.357504680875865,-1.4287474032114245,-2.9581864514802776,3.7156726729673,0.813855520426375,4.522924188282032,6.397050178868591,2.463694276584067,-3.125252757081626
-109.0,-7.006311524209856,-10.648471987133503,-3.642160462923667,8.80994851177787,-1.648439168841706,-7.201011924257333,5.4426401749941435,2.8277306973459906,3.6063086478176443,-0.1288546686721075,2.9222932602853184,-2.829905381483873
-108.0,1.3667554112034963,2.429950548878751,1.0631951376752324,-1.8459091798530745,0.17426648011735069,1.7806329016493727,1.6068707734780618,-0.4746401969926537,-1.3934054003355079,3.098948451820671,6.929536045728603,1.3356518822959207
-107.0,0.4786977896553607,0.6539105478368024,0.17521275818141735,-0.601007610817489,0.16730229205236435,0.38053932566177107,-1.244472307905517,1.0895550562245206,-2.79933034797314,1.0521996046728206,-3.2257217330762,0.09070689739779844
-106.0,6.314196043714321,7.507680456351978,1.1934844126376274,-6.873310039991954,2.5741053111238883,4.404778579067148,-4.370971048218767,-2.1411465779569507,-1.3635980790241606,-7.490702757478527,-10.211678411303236,5.240133308473409
-105.0,12.566628784969918,2.2769041653528785,-10.289724619617067,-7.388239427144538,11.365818841038735,-4.023272147419493,-4.401590731060076,-3.5087720163172893,-2.639844287662315,-3.6357562021857412,-5.533556324083298,1.1850057249505912
-104.0,1.5298796151729124,-5.676551158518883,-7.206430773691814,2.025646151413299,4.38990695127575,-6.452900582908424,3.9751905546794615,3.2257525159556026,1.1001306909144373,2.653528531635538,2.073670926032121,0.35727773887761605
-103.0,-14.214747030279488,-10.80875522086583,3.405991809413645,12.462152162998224,-8.782602008236404,-3.710003726644706,3.5488694509272496,4.1678358550183985,6.229812381144636,6.5220737794216115,7.841027442802227,0.9824087336598042
-102.0,-8.547270323444629,1.4700524350452104,10.01732275848984,3.5656309760207083,-9.328314233061212,5.7348059165481535,1.9253639314865585,1.0473384345282453,1.6384970068871278,-1.3520084507751386,1.935667599708749,-1.8415514524251386
-101.0,-2.2244904802618874,9.468150384050498,11.692640864312386,-3.597283231387396,-6.922834318681281,10.646661048149015,-1.2737542305127507,-3.8418803615054316,-3.094097526055412,-5.156261879819758,0.25077286787470987,-7.766067895485806
-100.0,3.266376654509063,12.513009532547889,9.246632878038849,-7.867548777904759,-3.0320989029501746,10.860308415677316,-4.943625844938587,-1.8632402414536857,-3.7911183328693143,-1.4572667935001364,-0.7925101087008054,-5.957367854768521
-99.0,5.415622130077813,-11.432138473678197,-16.847760603755976,2.9499439591650094,11.168333779585419,-14.169511920086123,2.229512969377643,1.9189053670445084,1.8802111869023195,3.423659572784967,1.2471687742009883,-2.4011084251892543
-98.0,4.460551584543029,-5.858773454781862,-10.319325039324859,0.7190317948923259,7.347575349038173,-8.130485899166075,1.202365453371953,-4.104571338286661,-0.6287706947789732,2.776049810839254,-3.6719345972879585,6.544685071378162
-97.0,1.4630965905270497,-5.091467470012465,-6.554564060539504,1.8349629576262827,4.045624654474459,-5.797375174155766,-0.8400601719654555,0.6422331943422176,0.12361236906187173,0.9004971451592645,-3.303386810916602,10.970410643967577
-96.0,2.340351792219096,5.760867121871375,3.420515329652286,-4.027813212467563,-0.5021976303874687,4.607250187479612,-0.4025159208106561,0.46501322036021586,1.2218753529551014,-3.1932105888411972,1.3859404994237714,6.3098785886822375
-95.0,-5.484222030381273,1.250301598605569,6.734523628986858,2.0636914946116596,-6.149311526150133,4.004385767993348,-1.171089040703392,2.466405427838785,-1.765485199288376,-3.0792879662056327,0.6507842693094412,-0.6213721405926895
-94.0,-6.670279580209356,0.44516854904455494,7.11544812925394,3.1408599570466436,-6.8545868273586334,3.7928208941298265,-2.257420659535903,2.691613204997817,-3.7052369866620087,-3.069045932063154,-2.023764398790875,-10.643163896977137
-93.0,3.60630800263661,1.5223025027297021,-2.08400549990687,-2.612095146547579,2.801731327549729,-0.2636046162742858,4.557605712732246,1.3200544598530515,4.95104159106074,5.205917140479206,6.862694738980261,-5.478074190030858
-92.0,1.3395683657674158,2.1267390335219916,0.7871706677546004,-1.6997252137365193,0.22756213430488037,1.402277191265008,2.6160844353362673,-0.7855602893090707,5.633556356143633,7.309867431528242,4.807067148208951,-0.3405256236516161
-91.0,-0.9070513704183925,4.757275405260401,5.6643267756787985,-1.8893061453188906,-3.261500802685296,5.2413737286069715,-1.3065572263590925,-4.021423820907001,-1.9115173972645056,1.451342579815221,-3.171758870435684,3.0662317742538168
-90.0,5.1879466546098945,0.09924907133371635,-5.088697583276176,-2.6842797311695468,5.158312026544314,-2.5385398032256354,-2.970118454725767,-4.544005226266675,-4.760150178281049,-4.865277739137084,-5.978689938378459,0.8558989151519285
-89.0,-2.316862744653656,-8.270298937167047,-5.953436192513395,5.333571698710861,1.838073788233471,-7.075355902746121,-0.43664631324568326,2.693306532383342,0.6439782484137955,-4.394794681746273,-8.821696910155076,3.582431586404108
-88.0,-6.664602551546237,-8.626647884439905,-1.9620453328936711,7.6081755326826315,-2.3266941892561577,-5.337257182798449,3.038621279873004,4.608503625104158,0.7714989760727238,-5.2113704654338555,1.6512886011248158,0.38064332221115693
-87.0,1.2769028321586893,2.062156860913683,0.7852540287549847,-1.7063640123321697,0.20064789061464638,1.4578614694466006,0.6782068851568757,-0.26502310425036635,-0.5362241515608823,2.008484393455925,9.697844695009339,-0.7769016320324386
-86.0,5.822556041703039,5.648066457985634,-0.1744895837174072,-5.693251119690938,3.0429014660561395,2.7694758685364356,-3.412658562964138,-1.1937573269601633,-2.0176970735898765,2.8283117955089585,4.1476277759942946,0.15847031146955365
-85.0,-0.4783651876406543,2.08797291990043,2.5663381075410907,-0.7626648254711053,-1.5471485646150802,2.2804412977147965,-1.4540769432165233,-0.47572570853811486,0.8110036070590314,1.7005372072860663,0.10562104377655324,-1.4626318711123008
-84.0,0.4979861645110457,1.2208014322773137,0.7228152677662742,-0.895629806986235,-0.13143718017627348,1.003760379487597,-0.2754484204096206,-2.115345886226528,-0.817030174029413,0.617659043241384,-4.913380208430025,-1.818549217997249
-83.0,1.6668249586898354,-5.747679125062721,-7.414504083752552,2.0050465001088367,4.522457063624612,-6.549504928893942,1.6056728814116936,0.44466040811471474,0.7096429655795983,2.6964142325515525,-1.9573813855960993,0.272825441946438
-82.0,-1.2233886225956965,3.157044162642619,4.380432785238317,-0.9221018243373835,-2.823681451737537,3.7200861052240746,1.737820254807175,0.6646285878701714,1.2003272882735672,-0.1865647754755987,-3.9137120997979853,-1.353842118890081
-81.0,-0.09992763892832968,8.16891727869991,8.268844917628249,-4.066758617764538,-4.133443139656118,8.167445939639503,0.8589977033991347,1.2287307019711395,3.771983100234727,-0.2482697181300053,3.4141320847556633,4.316929914148448
-80.0,-1.492819537141666,1.7523987395211267,3.2452182766628095,-0.0813560023888058,-2.324281041616283,2.5228723591691598,0.6129349561425459,4.092229548939024,1.5026178767281881,-1.5112428293281512,5.278824363291238,-0.9034258897063454
-79.0,-10.42269963373213,-7.512297354821952,2.9104022789101904,8.938985421996506,-6.70517053440233,-2.2790775585992704,-2.4446199705542386,-3.684019918866303,-4.689523653508707,-3.995699349656004,-3.421250564427516,-3.2262778558005536
-78.0,-4.863374056538527,-6.537658381239201,-1.674284324700689,5.673303614752751,-1.6354468937143902,-4.083822386943973,2.5856412163914317,-2.1557959002560354,0.4187843895343204,2.933129112231231,0.2881573636370393,1.4670724944916518
-77.0,9.118015786670442,4.978946312750587,-4.139069473919916,-6.9963802254128495,6.666141033102423,0.44530963854379335,-1.004304841386456,-0.15662132981979981,-0.8615565921493828,-1.0527143942239738,0.8628314038704493,5.071221199327886
-76.0,10.148148982201587,0.2793683076245772,-9.86878067457711,-5.240558983467973,10.04689311055104,-4.8427353902277845,-1.1930752254839097,2.096476987247457,-1.9707460521713824,-0.12821425911269524,-1.0602404871577742,0.33654746117580503
-75.0,10.150068437289972,-7.033872189521706,-17.183940626811765,-1.5854373683041683,13.627478254996136,-12.07246955081242,-5.028553330872315,-1.2985023144519419,-1.5015994912301154,-0.19062422482983066,-1.6941575051349818,-5.062669054453519
-74.0,-1.3842238316356026,-2.881488526178184,-1.497264694542615,2.183915641396141,0.01699984225549045,-2.227513392719743,3.921954861159885,3.2667374070643658,2.251347616642372,0.13326352469184632,1.6548617095315539,-0.26789982399935175
-73.0,-14.986825263907997,5.205922863739576,20.192748127647594,4.86326733481549,-17.551379840959246,12.662598503681354,2.3741388185863506,-1.0454693830503397,0.4258678570347003,-1.255006332168279,-1.7370087629572326,-3.4765425532272114
-72.0,-8.662392292533102,8.61922029303542,17.281612585568553,-0.0036826413331061403,-13.01334075193288,12.990922139891438,-1.881831087582193,-6.756760076996521,-0.3091993891181628,-0.5207919196756486,-3.973652092836407,-2.432955709320747
-71.0,7.038298444244467,5.830257635904586,-1.2080408083398577,-6.377250813427157,4.160308319650092,2.3480945351576548,2.055069937702563,0.6846730129187448,1.264077793264297,2.0045312396084536,2.901435867653512,5.6154739543154335
-70.0,0.31751138099401843,-2.4754577319623183,-2.792969112956346,1.0621985197093156,1.5933111509013247,-2.6800274141734217,-0.5224403830312578,3.2650489475064117,2.0471831558893925,5.816443176183449,7.711596010232912,7.1603904624658075
-69.0,0.2341228855021189,-8.87390724906552,-9.108030134567667,4.308826379326234,4.6321565560415205,-8.961046060144769,-1.9024995608751565,4.157316144228886,3.10896877570916,3.4868468940856565,0.5378226410746691,1.794607522127949
-68.0,10.274762819093043,0.7911634201150335,-9.483599398978068,-5.5384095896017485,9.920413799771321,-4.395754775645681,0.982754593188915,4.037566738515185,-3.76315185293195,-4.201581029413712,-5.526848682071775,-6.729874916638845
-67.0,-8.680167124999645,-2.9448596772346773,5.735307447764908,5.811804574423203,-7.245621375456414,1.426725468218983,1.5665022185359265,-0.5912195015232191,0.1971720378335866,-4.343095208461145,-0.5481140407779113,-0.7278721534764023
-66.0,-8.280032007116974,-0.5899355928607575,7.690096414256146,4.437575595357129,-8.025926775443843,3.586793630959149,2.2915040119265018,-3.2008677517040587,0.4890752507296374,-4.201765038935492,1.9713158487978606,-1.11852215878443
-65.0,4.131681915267371,-1.044412752556776,-5.176094667824195,-1.5394772386362872,4.686505792236092,-3.1450518107545573,-4.86256425346918,-7.001784978625309,-3.993833239755414,-1.7135189598947933,0.24518770090423617,-2.51311415181099
-64.0,12.478968152369365,8.65776308735306,-3.8212050650162857,-10.564506206079722,8.17669417604923,2.391211398951672,-2.5920935893853545,-6.810146277428046,-6.697579002776545,-2.3318899842184373,-5.756768807744982,-1.5070622570625691
-63.0,2.590132776421834,5.033794135713292,2.4436613592915073,-3.8103140584334585,0.016643684175753126,3.796864273712579,-2.6259308694246672,1.9850899581232389,1.8120071510483027,6.766001318743551,-1.8517596374952396,3.709301835891301
-62.0,-5.158571155680846,-4.304479913421023,0.8540912422598899,4.72906848726884,-2.9848310543983123,-1.742123911266407,5.844174087811055,10.168944702452308,8.297662258299027,5.498991433830759,2.296488856073831,1.6633004617345315
-61.0,-9.07137976442374,-8.511714460634096,0.5596653037896884,8.783228473860406,-4.789580206372937,-3.992785945854328,1.3722535758723535,4.022610803469637,2.4229510667091123,0.28787754993859505,4.167432014849215,-0.4973487294263981
-60.0,-6.083807764783621,-3.2675017477664596,2.816306017017182,4.6600642125889955,-4.41477383000242,-0.245398543482371,2.74458204536615,0.20867102455616182,1.5892774243050818,1.7037693760764832,1.3894568466612767,0.7550322502598352
-59.0,9.459337780439412,3.1481818969577713,-6.311155883481646,-6.248703479760152,7.8542611251877075,-1.6062102725695708,3.271799435701177,2.3944218063022893,-0.6274239385081932,-2.2604277075271644,3.8645147520491276,1.9184671250492538
-58.0,-1.4807452202851175,-1.7161011050197872,-0.2353558847346673,1.566581782059107,-0.6407917890506214,-0.9266505337213037,-4.863641961911141,-7.277994232695064,-5.871472107921637,-5.2017014733840385,-3.437818192661668,-1.5492419396017003
-57.0,1.9482839394623692,10.54407167222011,8.595787732757756,-6.285279658057869,-3.3312903482113496,9.615653006662896,-6.170194546346649,-6.835129975866967,-1.8406112014114884,-1.9084418114994137,-2.7432421641055043,-0.010030179394891814
-56.0,2.1883820326738217,1.1411987147700646,-1.0471833179037318,-1.6305508269789124,1.6166301653842732,0.01295973856292676,0.6988094709966632,-0.08076738744453138,-0.3783203885548456,-0.6200061072172731,-2.99981763163266,-2.23958980379534
-55.0,5.391029659526217,-3.6323446429505495,-9.02337430247674,-0.8478606006552345,7.207751257294747,-6.360884988980386,-0.5692954171427909,3.506671349274061,0.2640766923733891,2.3885633014271104,0.13014948227744227,-0.2706956069613158
-54.0,-2.96409341423737,-2.1757897173334246,0.7883036969039683,2.522965846869842,-1.877947805759446,-0.6458924482816761,3.607846467875758,3.845960697106116,4.554589412295281,2.108933071280487,2.4781348911073207,4.487219625102949
-53.0,-5.157091388006528,-0.39959978509773775,4.757491602908801,2.8133208175682465,-4.964011403436995,2.150297879877589,2.5839835730556446,3.5049202296127455,1.185303348799513,2.1488047758915796,3.846953338083066,0.6157848289419579
-52.0,-2.220789723705851,5.079480180798367,7.300269904504163,-1.4676617045164289,-4.694824913015651,6.163069344133371,1.3647002142996933,-1.2444011290882666,-1.0913106688921501,-0.9941748869207998,1.3995561353069705,-1.2225014226558693
-51.0,-3.4043174004485586,-2.5342543784318248,0.8700630220166987,3.016439117022432,-2.1570320982227082,-0.8574542911086994,-2.7926319636815444,-3.947820940182317,-2.9597258981735783,-2.7464520814027327,-4.348477215007386,-6.814607885654946
-50.0,5.342202683016793,-1.670185540838747,-7.012388223855551,-1.860742699932568,6.150641426983876,-4.286611268854327,-5.141372945038486,-4.194484659208045,-1.6464036000867028,-2.316813214322127,-4.7933792175166525,-4.109078496971946
-49.0,1.5574760175561493,-5.272947588714245,-6.830423606270384,1.8389815421421103,4.160852389952306,-5.995984979447407,1.6570253364872949,1.9935306763077372,0.8679818317495811,2.7975097413739443,-0.43530758504752765,3.988356734275408
-48.0,-1.6323842806518667,-0.559780081708952,1.072604198942936,1.0816328615136577,-1.3122490318450704,0.2333916049008189,3.4142729019979563,1.6536466234641454,3.7923389046131657,4.051173020789706,3.7482094925762075,1.9602136711374207
-47.0,1.1418885095532505,0.19361576160033955,-0.9482727479528915,-0.6013607548515427,1.0031715778954686,-0.4024013854360924,1.5547697260434434,2.935197846679367,-0.8699010914749856,0.46252576774543575,0.3396467909371248,2.0794756400704624
-46.0,1.86046046162889,6.866228630151721,5.005768168522825,-4.376153778856326,-1.5363332162493912,5.906160011885583,0.8193899343116856,0.4039991577481814,0.3214762809985287,-3.0439034297170844,2.2966265430050288,5.188297544342585
-45.0,2.408193428076358,2.1163295491114877,-0.29186387896487176,-2.2781283412726,1.3889574809623202,0.8754912668331354,-2.353283579401654,2.470188758168483,1.4755050507167793,-1.032100413374184,3.1472442341720317,4.037603362527603
-44.0,-1.3971541261321394,-0.8305452497048811,0.566608876427237,1.0927044952253295,-1.0167176131994071,-0.09711042340286724,-1.319471136890261,-0.6333093024423818,-2.4021393936892346,-0.03467956120814075,1.565567868621457,-0.9904881713344229
-43.0,-0.09526396353940925,5.714243398292563,5.809507361831956,-2.83713652561622,-2.9815446421856766,5.791835214655933,-2.138668441094311,-4.558869873873881,-0.52177306735459,-2.2633684710061788,-3.0655061621286515,-3.0999038166417487
-42.0,-7.856552374045533,-7.812106327651787,0.044446046393688654,7.879198618128835,-3.896693618987097,-3.85453671532776,0.4144167533157087,-8.499003960472217,-5.785295337200452,-4.845493927992322,-10.451695165728076,-13.182294100943441
-41.0,4.310554899706766,-6.783121750065196,-11.093676649772046,1.2767375594705253,7.677951934059731,-8.98374555120389,0.31388272361898173,1.5514714587509668,3.48817911540828,5.256844150973722,2.373942376876979,1.5467801498850013
-40.0,0.266510348797351,-1.0861484893020554,-1.3526588380994582,0.3700256471664096,0.7815967919945268,-1.178235041412428,2.4278739660021893,7.182988409951605,4.279221178727815,7.1368188104768455,2.8581724266054414,3.5726870127372754
-39.0,-1.1454422681996168,5.124442208774684,6.2698844769743385,-2.0275431271423248,-3.665279959737714,5.668692118303176,2.4460737292199566,4.3163082753568105,-0.3400992879859053,-2.2233624797976868,4.6413506269948925,4.277252104915942
-38.0,0.3409319754216076,5.733398894749072,5.392466919327521,-2.991961240025085,-2.573697708689907,5.54230439673187,-2.284195837223164,2.0804196670308626,3.4694351360517275,1.4595538572073241,1.4730941569896103,1.5119972755815763
-37.0,-5.783290700209127,-7.22649667338371,-1.4432059731745297,6.477332340605745,-2.1515613973066903,-4.350946168072963,3.970398444877508,-1.6614851282688676,-3.440078043828619,-1.6399656091136812,-1.2038934594270658,-5.252452862712357
-36.0,3.9939960819092235,4.437435887350068,0.4434398054408868,-4.158922224206239,1.7834824736001498,2.503394031552125,-4.273924667731418,-4.636813002419637,-2.0681590668616048,-1.7128033182330922,-5.483294844761952,1.6573891243002645
-35.0,7.935366983636403,3.8692800279361874,-4.066086955700199,-5.92119325856243,6.003207839988485,-0.11780552296124895,-3.8390471849891563,-3.4605520203891635,0.12825114088774625,-3.8416379014854103,1.0821231590008251,0.8912240768560128
-34.0,1.971940303935034,-1.8954353156285926,-3.8673756195636457,-0.05837233691368615,2.9224241708688994,-2.9069438357122217,0.1599166288291547,-0.7282045504580967,-1.2251778556466097,-0.9408031034353068,0.9298141115646538,2.8099543645049616
-33.0,2.023983339686787,-3.214748728113973,-5.238732067800805,0.5688995176261114,3.6404673007488175,-4.258905030765156,0.9097774093962593,2.286420001190082,-1.1170883416156003,-0.22274963072072368,0.6508054517287812,-1.4413512502353185
-32.0,-2.290427828836254,2.2879431539680315,4.578370982804245,0.0428142497956141,-3.4141756631498064,3.4747246559593363,1.7589351604480288,2.4281376679543625,-2.2526845508035596,-0.663951286365952,-1.036168313124778,0.5863822568841418
-31.0,-5.455342770018389,-2.5022140239429973,2.9531287460753717,3.9289207597388915,-4.249033348780536,0.26505255082760293,1.570820827858343,1.6291538185402274,5.258641349298911,6.131472089720402,1.1400163837955466,0.25365679334541213
-30.0,-8.457292892876922,0.14800106689719583,8.605293959774126,4.172193418659946,-8.562118467737475,4.338765322003174,0.8852867027170114,-0.45372261689188575,3.562640336650852,4.359178171196913,3.2023906422852275,0.7843786900830931
-29.0,-4.533690391702969,-2.487887089317362,2.045803302385588,3.521583708883892,-3.2296390186931325,-0.17678263943852657,-0.1958541806163121,-1.7841463773180055,-0.6169828306607226,-0.7578607387946019,-2.1079347224503686,-2.8471266700439424
-28.0,3.1026923766437218,-4.057035087896345,-7.159727464540137,0.48786348067832297,5.121530828951959,-5.639295418126594,1.6402103028909314,-1.8975348350664052,-0.8822574311173248,-4.844475523127858,-4.527683790577705,-2.648354962508781
-27.0,5.594336710927864,0.6751168818289714,-4.91921982909896,-3.1174505238124364,5.252044739552941,-2.1510498835252543,-3.3562539511121683,2.2180658918399576,-1.3051794560564467,0.5017098227295063,1.0802350200137858,-1.7937830381122934
-26.0,11.341839919296778,3.901572866067892,-7.440267053228906,-7.593274201244366,9.387042453767444,-1.7990306397242248,-0.36636845556424635,2.9341397607062136,-1.146199362640274,0.04190507138535793,3.416575388666293,-1.9201166816546373
-25.0,-2.0891155719206855,13.98098211315639,16.0700976850771,-5.98410605064516,-9.086757569022742,15.071617907130763,-1.5279539856875841,-2.687313147387143,-2.566372244412388,-4.601002200618184,0.9166926215951638,3.8003205644765554
-24.0,-4.025937793060621,0.6809835671851285,4.706921360245766,1.6436587956536912,-4.37971351830444,2.736010454011507,0.29235742454483893,-0.5449891530451105,1.607465296437132,0.7457837357748454,1.4768729078389158,8.409122515012742
-23.0,-7.291303142454763,-12.887813261549006,-5.59651011909423,10.064644032280569,-0.7898190176600193,-9.282270254135824,1.4246578380964032,-0.5428062094771867,-0.44157586864787357,0.906991401076324,-2.671631470481343,3.152328556977454
-22.0,4.724222403531254,-2.4262954335958993,-7.150517837127118,-1.0974224104773374,5.907972524530834,-4.8299346694633964,0.8873934539220465,0.14724029694207774,1.854886355233379,4.042226298494995,0.0978053896505886,-0.4576292463681284
-21.0,7.797669200388567,2.4491272918703935,-5.348541908518107,-5.157942646876865,6.5365851254404586,-1.411185077467525,0.14405137604945106,-1.0306168034392487,0.5708352398764351,3.744515772691062,-2.9038234679541004,-10.636286029415428
-20.0,3.7135333990973542,-2.981561974062883,-6.695095373160169,-0.3317384107197209,5.241834767029489,-4.795990603834197,-2.49897183189094,-1.5132219805316869,-0.7204863399354728,-1.3393092971003613,-4.108837682733338,-5.955334798684831
-19.0,-7.031787503243006,-5.776848159402963,1.2549393438400558,6.428768881956379,-4.185926722404924,-2.292203752846034,-0.6296339041112142,1.7323299811258923,-0.24002494108317118,-7.206253636850626,0.4172091068088405,-1.8128466724862622
-18.0,-10.6453492120544,3.992044527900809,14.637393739955126,3.26509389791616,-12.60284734582759,9.288140893455541,4.304243836437964,4.409258327176725,-0.2360622570714089,-4.488333128176439,4.630063492261973,7.1861584702651
-17.0,-5.913271617569428,2.6668695140595635,8.580141131628851,1.6371322322070188,-7.202796202349147,5.677972315553074,0.9183091983421134,2.7259848161958518,2.9434589767043144,3.879052962095893,2.6694400854965594,7.038568641383669
-16.0,2.886667257874596,4.4806081002537645,1.5939408423790016,-3.668665769278973,0.618486488602072,3.0117281381612044,0.1931030090791448,-0.5846679837071742,0.6130162420476591,8.076820313284548,6.024154051839328,5.066925358828081
-15.0,6.469080137591256,9.227120870007443,2.7580407324160774,-7.828676155449685,1.8343762174035376,5.962314820909275,-3.05382669480735,-7.66163640579414,-4.4207477915387345,-0.05522684116890986,1.1667138832538921,-3.1288481156071652
-14.0,9.259037802424597,7.525537767290773,-1.7335000351338667,-8.366828622196195,5.480253508030658,2.85910611471364,-5.832931223408468,-4.459686494874903,-2.860789174166475,-4.727983054584693,-4.58424282145429,-7.507225044053923
-13.0,0.554952193803099,-7.485298047401295,-8.04025024120435,3.417330543256467,4.284744773574239,-7.727041999206768,3.7037432499254472,-0.2500407256384727,0.2868381552536583,0.10728771012865046,-9.220481601129476,-7.100023285309234
-12.0,1.3287367299913428,-20.570177174140667,-21.89891390413195,9.576035941168897,11.602815186689048,-21.202012549401836,2.1668831738464815,5.993859680169076,2.0305303155347993,-0.6462001893157496,-5.36828683827097,-0.6386519389882688
-11.0,-7.302863465635657,-13.652116028725183,-6.3492525630894345,10.511812319593366,-0.40744934618722484,-9.967335157908323,4.2914965567218895,4.471370896806775,4.130086904865064,0.522464714656578,3.769061387974396,9.478153105978295
-10.0,0.05853072413013649,5.7639639845304345,5.705433260400442,-2.8789785141884714,-2.830786060182133,5.693357170170275,-2.134853480112915,2.9007981261030817,3.4159431022447837,3.460492257929759,7.632858501664124,4.148128155601965
-9.0,-3.3428485534333894,13.35718432333234,16.70003287676586,-5.056656333354293,-10.0265632829692,15.070957573011437,-2.38418412884504,-1.7152892153077124,-2.8436702114814736,-1.579537790459282,0.9977224640790388,-0.5648007499128647
-8.0,-3.7483565971911736,16.774605981071957,20.522962578263176,-6.486396723533134,-12.139601492915048,18.615358868970276,-2.7586358464431178,-4.391178595913249,-4.069654881931998,-2.3359875834615758,1.0691127616169869,0.6006627729396428
-7.0,5.006535785045521,2.537077719599976,-2.4694580654456093,-3.746246506594471,3.7327613642796464,-0.000536737212540217,2.71648846189683,-0.5977719423660068,0.8123470822852492,-1.4750001114255835,4.379094591256286,1.6582470744945714
-6.0,0.8153850858348382,-12.468297932712684,-13.283683018547642,5.85231217090516,7.039674083731235,-12.915165343552259,2.5719780189589843,-0.6741716627472465,-0.23669151463251104,0.9139592312765097,0.23059359626924436,-2.045877602265189
-5.0,0.9097588938356795,-7.354018454061031,-8.263777347896823,3.1704803582603467,4.5692977142253035,-7.776056152090717,0.663698879791476,-0.8451275987831659,0.8074412712673761,2.544313069955294,-9.914684254388332,-9.764170479727927
-4.0,1.1172617887590564,1.5888236635858917,0.4715618748267776,-1.4031379739583447,0.29639635090820704,1.057499309725996,-4.798196241788073,0.12128988921993633,-2.7714563742135194,-1.4956459177784813,-9.268119764086556,-6.537368898049235
-3.0,5.761158430991533,13.223429524059247,7.462271093067688,-9.462123132931438,-0.8062924008721883,10.368574355135944,-5.243668703802549,0.8271054621255309,-0.8655466197387681,-2.358343435678254,1.5755693243495026,2.059792141678403
-2.0,0.020139975394632748,-3.933995105870306,-3.954135081264979,1.9885547271557011,2.026397695599834,-3.9147837747246506,2.553292735651424,-0.10095540279375759,2.573018883901378,2.5501834716852327,6.856763897417328,7.8386507714276705
-1.0,-12.113903717061488,-16.033383011169494,-3.919479294108064,14.106667794702846,-4.137730237733164,-10.017970131742755,7.965860450553394,-1.8777606206262933,-0.6034957146884885,-2.7190686221313562,5.919771289376756,5.332045759835779
0.0,-2.638415354520994,-0.03524166834655418,2.603173686174371,1.2922026015483326,-2.580164846354286,1.252526172951173,0.21073082346740524,3.410292847426968,2.252741946875016,4.6979931548404466,6.796492765229464,4.269909566176127
1.0,-0.7490700543122659,10.645642631905236,11.394712686217472,-4.913737921485002,-6.105927724569421,10.998355960359454,-0.5571014690768843,0.5458850045742829,1.5997391573196738,0.5727325113334643,0.7512268225419465,2.1256078403889065
2.0,7.089558816719167,3.4344614956906847,-3.655097321028445,-5.306563708489736,5.341902386114558,-0.04647315576346145,-1.6433253688679412,0.39733835182066557,-1.8870326531246904,0.2350311171512206,-6.542874327776133,-7.431823102206288
3.0,7.03564747986502,-3.996240607785408,-11.031888087650321,-1.564838147848591,9.083488223503124,-7.5260903964486525,-2.5459041707701795,2.9543145232910684,3.4027918607503467,-1.7738412744705814,-9.479105754678718,-4.091443922752625
4.0,3.710041579933474,-7.619812198407197,-11.329853778340517,1.9888287421714406,7.489336484889264,-9.488370183607541,0.36112747028312997,2.0803615311498627,-0.7364911569645117,0.01899757363671517,-4.68969019747412,-0.2671486690379492
5.0,-3.43787670871725,-2.207036628595903,1.2308400801215118,2.858791522626006,-2.3691965964351125,-0.5069699254025788,1.7280613646438354,-2.066761574861505,-0.1599337398828471,3.694963363031149,7.424952124584925,7.551145159962062
6.0,-5.488673868415779,2.36018192042451,7.848855788840334,1.6054360639647596,-6.630599787597312,5.156589188684368,1.0618138268181008,-4.595955006472549,-1.9619365041543948,-0.7543230424147335,5.206057089049699,-0.25149989326261757
7.0,-8.717082745516551,15.57390074646769,24.290983491984164,-3.4594141425242575,-16.47176115298072,19.89737090820445,-4.304404896435527,-8.066538452127485,-7.972946714961124,-10.308546544160642,-1.9813819448005114,-10.665549817487733
8.0,0.8334405590770646,14.051361654043887,13.217921094966671,-7.466801987599167,-6.164869128065001,13.592642992634179,-4.586131947138369,-3.9812118211480882,-2.4242423099588044,-4.948341573470391,-2.6232163650302245,-7.878809903020034
9.0,3.2936406000337253,-13.051840973496848,-16.3454815735307,4.859612626972078,9.765042541969375,-14.665687180539898,5.1800322862238914,9.736011034261157,7.279550272714871,5.733392832234026,5.286165054645968,4.0693926969118905
10.0,3.8165487889682597,-14.833366468915127,-18.649915257883418,5.491093796904179,11.177944951004537,-16.70854599644633,3.5473007929201854,7.929547269610393,3.5018714655448377,8.524658082105152,4.723356543368201,9.292562436123326
11.0,2.830895485168885,-8.194919599161944,-11.025815084330743,2.7428310367792426,6.954076416127335,-9.573820827581399,0.7524934782692649,0.9950182898426556,3.245249423632056,4.975781116961187,-5.855107577941888,4.195734678329925
12.0,4.465896557753836,16.31877160172695,11.852875043973278,-10.412945595740752,-3.661950704144046,14.048654213972037,-0.3122426404740115,-3.4944478205006573,-1.9470862775830038,-1.9376697729438708,-7.09194861508448,4.237614700483527
13.0,-5.739895258281198,1.1361302931577946,6.876025551439135,2.2775102178082762,-6.267147820418631,3.9733292195087166,-2.710862550083524,-4.634043045063428,-1.035830757349865,-5.210570228999084,-2.4686423249242258,-3.371947628294907
14.0,2.565020387373584,-6.484042374443718,-9.04906276181727,2.0098245770608307,5.780673936201127,-7.797160468136886,1.7649644221453822,3.7242343155976405,-1.062437091131146,-2.3664834022679337,2.597758897134151,-3.9559160230618877
15.0,-2.1940912367870746,-5.0773385496524615,-2.883247312865455,3.6032505123917042,0.32993993474581584,-3.932766071048367,-2.1020123030047055,-1.9708458792400372,-2.417621558048321,-2.98940720899016,5.175680315331956,4.219799908445522
16.0,-7.773754017838885,-0.6133664762447983,7.160387541593967,4.235818952485499,-7.472309944302284,3.2396140928389645,-0.07943562394900017,0.02805060151131089,2.447235913076114,4.5169188323873,6.058941342559243,0.0643875528405422
17.0,-0.6553930273011734,3.391341962714387,4.0467349900154606,-1.4086027025516108,-2.3512530955725985,3.760449410613185,0.2537540485361982,-1.3628549833810797,-0.43012560130148425,1.0526303618648107,-1.6670509487343839,-9.122882254217215
18.0,3.404144360104464,8.318461675095916,4.914317314991441,-5.90601609867329,-0.7554826325671007,6.654743585229786,-1.3131121475332512,-0.8256977697491388,-1.996765348260659,0.8127615495360636,-0.5787838846964146,-7.608731604258838
19.0,4.9310806109985545,6.453374455922689,1.5222938449242234,-5.661656489040487,1.6989620496635254,3.9453566384827057,0.9631818760028881,0.8725838699204067,-0.0495303392387369,-2.071086871596088,-2.0634848562463928,2.447841986208482
20.0,0.5754720210763282,-8.201998493381595,-8.777470514457784,3.841719451750119,4.662742248423987,-8.53326726756702,4.427667238057798,5.221849571101935,3.1441117941204557,1.6416761358485576,-1.4100760851329524,9.54791361596999
21.0,7.27326827427367,4.418958366763533,-2.8543099075100162,-5.817989634706152,5.119444170077125,0.8173436209641043,-1.362996974290462,0.3560186569938706,3.3539564932273085,2.8188119367306497,-0.8017101393876127,11.64198262933083
22.0,-4.497924259054695,1.490138555156268,5.988062814210984,1.4545159374631453,-5.274318693551788,3.774692201630973,-5.352544222940909,-6.1996531110227,-6.11056522427565,-5.66604750524005,-4.866108273482603,-5.880675958546318
23.0,-11.029211929671773,-10.869151719495516,0.1600602101762264,10.980618280798138,-5.631381470145311,-5.396253847790094,1.7040929414935766,-2.187445091449546,-2.306246617588052,-1.030304696259574,-0.6588039335637421,-7.99195327538815
24.0,-2.6149499924444024,-3.7523407880152693,-1.1373907955709415,3.138273164012168,-0.698595775794508,-2.484002325499372,2.0245150559947187,1.3054891459579276,2.8620130460372604,-1.0290841132205784,2.1530301031715426,-6.482251846814879
25.0,8.668992140111808,3.1689184769677436,-5.500073663144143,-5.884411111790666,7.126263918847242,-1.122084564978523,-3.2558739934768264,0.1469500077535688,-3.450197127120399,-2.821172745255891,2.1519689793366794,-3.0052972983609765
26.0,-1.2977678935520887,-2.85589194969828,-1.5581240561462386,2.032885371066407,0.0969571534653566,-2.158458345137472,2.2313340090214497,5.687152053078171,3.7269882199868247,6.589955802563798,4.539545838778962,9.844878481251575
27.0,6.1804118749218215,1.4791092177126317,-4.701302657209189,-3.7952676964997467,5.4121116878021045,-1.6356686206905884,4.675656937364528,2.1193865015123414,4.821976213450477,6.048571184218584,2.562627067622993,11.184570479083327
28.0,-1.9913365419667408,10.528224544791433,12.519561086758237,-4.234304369525306,-7.280507972377709,11.504598986408977,-1.0229624971083222,-2.3662330508624048,-0.8782149714893107,-0.6552990527369054,-3.8952695533958375,0.716060368560191
29.0,0.46908410808585554,4.091884707044925,3.622800598959154,-2.3250013844056125,-1.5212308548858675,3.8421857672492328,-2.239527338209151,-2.4494740478280894,0.08517584803239409,-2.2405365169748332,-1.990274667235287,-3.5535228409879376
30.0,-5.318478011171022,-6.069797172830216,-0.7513191616591124,5.729281835167782,-2.30690546284343,-3.4229592048136226,-2.261224073108073,-1.5366310259937532,-1.5245898545360388,-2.600167145304912,0.06237120512216432,-9.923481797891425
31.0,-3.1710256352972235,-4.039838160730691,-0.8688125254334115,3.5638988622413685,-1.097980659578368,-2.465001034853298,-3.8581557090614336,-1.4019552446843726,-3.1065056343736153,-4.024591877112053,3.4502741626090243,-0.6773416679437707
32.0,3.8298571359956695,1.943551013747829,-1.88630612224783,-2.9246385304288305,2.828472708748851,0.097924359036905,-1.5851309762897592,-1.976442574575703,-5.487044692136027,-1.1728336524465837,-3.377190673439618,-6.182331354794038
33.0,0.03961114882326555,-3.146518749231555,-3.1861298980548542,1.5995891082416742,1.5784431275544564,-3.1748993013043307,4.731581654591251,2.872838006666206,2.4290732531059622,1.53304499319234,-1.840580568617165,2.69407075972189
34.0,0.9041276210357212,-4.961024345711826,-5.865151966747555,2.0812504910216525,3.3458979577804353,-5.421699324256187,8.289124450060962,5.25363263412118,3.606298646048747,3.258994455567117,0.6629328195869546,3.954383276886996
35.0,2.4236473875001883,4.258932120089621,1.8352847325894273,-3.360464546147126,0.3318935831230343,3.0364916345843413,4.531908703044943,1.912151959788703,6.460510526794406,4.913896937017429,2.7699759120003833,7.286002114648616
36.0,-2.077745696178602,-0.5038292671807212,1.5739164289979004,1.2765571923307637,-1.787414997026165,0.5194526504637533,-5.785367247316742,-2.47281319996343,-1.8832014352274906,-0.5755162623010737,-2.0788311491668336,3.674794247586592
37.0,3.094313608506167,0.8007943789178682,-2.293519229588262,-1.9605951495291005,2.735748163048679,-0.7702624771702031,-8.043719245603722,-3.5724263853345133,-1.7801574553122115,-6.765279017569078,-2.9203416941571865,-0.6901933782127014
38.0,5.540662387648858,9.560269715277867,4.019607327629003,-7.567114423612359,0.7279912675256902,6.833670801419303,-6.593534303937333,-4.239441119034327,-8.145043993864503,-4.453873757899062,1.942513271592897,-3.82553254856478
39.0,-11.451448379752971,-2.5103418403568636,8.941106539396007,6.956233496051812,-10.226030180359647,3.246499091766672,3.1033965588803203,1.4587424952687502,1.7161581089078024,1.0807374664060236,-0.45711362839575487,-4.193192333649273
40.0,-8.114022987277703,-3.565564957885008,4.548458029392588,5.883190037931336,-6.362014570015624,0.43148946464680393,6.238225589639143,0.8086458067398834,3.3633857060965604,3.0351667073396222,-1.5611994081741405,-6.196529685086215
41.0,7.150211787243406,-1.1412061310999695,-8.291417918343418,-2.9720820142796542,7.763180733741319,-4.707603489978688,3.904524723248012,3.3006926068622673,3.127642162697547,7.1248058413844095,6.845490339820893,1.6252600611497905
42.0,4.67805364203814,-0.6171592048852315,-5.295212846923222,-2.0858491988199352,4.941090944309627,-2.953536877721541,0.5972804212916145,4.923804146234021,1.1963780081012572,5.388932508186187,5.379684331409855,4.910536539793818
43.0,6.5359480245770385,1.193831697660429,-5.342116326916294,-3.847439464655658,5.961994672665287,-2.0722984854595348,0.14275415226495725,-0.8576305755487188,-0.9849453019211644,-1.483524205528231,0.6156863137395029,2.1134854183561593
44.0,3.455843759581753,4.274454336020641,0.8186105764391574,-3.8503795274482657,1.3331559624500802,2.5530601459604423,-7.227116274827205,-4.626385140781999,-1.1023123436538387,-7.322847996929558,-4.352635346945495,1.0177770882832808
45.0,-10.00912082002697,-1.90885286014178,8.100267959885342,5.973201474710974,-9.044505388130759,3.111359614165069,-1.8049365130713033,-4.042516843612711,-2.4475809617170894,-5.770715598997968,-9.662521674527001,0.1485276645364244
46.0,-13.967314399911293,-15.614375145882322,-1.6470607459710944,14.804900516403805,-6.149408618290999,-8.603750951778398,2.677428069011996,0.8500877373975237,-1.1781182130604364,-4.1573395339517685,-7.171641280847771,-6.284943892261742
47.0,1.1093491822635553,-6.504752376132206,-7.614101558395978,2.6316624990011954,4.3770606447260025,-7.100606787549722,5.88236445577897,2.33515832771742,0.22374884669389994,-0.5850223500540829,4.048499061434605,1.336401328202797
48.0,9.411123891026955,10.72384204385889,1.3127181528317116,-10.057933426410369,3.992606290303843,5.984309102201728,2.3182058454472694,2.9710577162609115,3.036136391634261,7.704953734535517,6.030239125479675,2.3467924471965596
49.0,10.85331799948014,17.926412546408514,7.073094546928171,-14.384545853571499,1.919186656603423,12.546727693831324,-4.434882322016465,2.311190190825928,-0.05226317754011567,5.872789128241498,5.936274877063552,2.7263627239346
50.0,3.9685340964410853,13.817679987350207,9.849145890909087,-8.891164524436906,-2.9844425482214145,11.798720264725679,-6.065941504132741,-5.035565538333606,-1.7373562539864607,3.174778887062507,0.9860025641988921,1.7268825006427302
51.0,-1.7984117414101268,-2.1936001991827627,-0.3951884577725502,1.9977542616413642,-0.6633293744893707,-1.2570165491249758,-2.7229706824992337,-3.1410333446899603,-0.5358338073458517,-2.226491670490913,-4.04782456707791,-2.8770708720690834
52.0,-10.584723361933563,-17.20586255209652,-6.6211391901627845,13.9017708772354,-2.020108711190726,-11.963034121710194,2.923417859251171,-1.5878500222479952,-1.0622903805230433,-7.078064750738312,-2.772520168141924,-4.78822394959653
53.0,-9.218111614361572,-13.489644739209627,-4.271533124847798,11.370344558759177,-2.4315803241791016,-8.85856959238493,7.104666192862527,4.599399157334667,2.8674805107074293,-4.35738915907082,4.7057039855579035,-1.1052811285080106
54.0,-1.1581172018050836,-11.428160691336108,-10.270043489530885,6.323470082716527,4.598418912103147,-10.831520091697389,-0.7518451145375615,2.542364421528227,-0.36127631847645647,2.6832329997252806,0.0013210391451811132,-3.2194688688255084
55.0,0.886175753677447,4.755124986225847,3.8689492325485286,-2.854081010784647,-1.5276773587944512,4.328481244315321,-1.312174523469655,-0.004636065714044291,1.2212069256796845,6.1224575371624175,2.9300578588296826,4.642543205043672
56.0,10.735714995759666,10.93075718564186,0.19504218988218236,-10.853786410023089,5.232743924194301,5.58064809674002,3.2893893047562264,3.28075910100625,3.360528079793192,7.288083935331467,-1.302779237485935,8.396712288365261
57.0,5.007961811267575,11.662538052847836,6.654576241580125,-8.34768523818202,-0.7851393051684503,9.099503327098738,-4.158554068761806,-1.9825235174708074,-3.1148157135895485,-7.270579646673914,-8.649052384016475,1.4816445043885018
58.0,3.8807392632840303,10.309473318366914,6.428734055082734,-7.105530893814115,-1.3189910682439348,8.389541670837488,-0.6488607099248136,-2.649533521615446,-0.28957265873957905,-7.720706558778805,-9.842681166460295,-1.706248625796047
59.0,-6.843046184782845,-11.959793849112078,-5.116747664329341,9.465803088796967,-0.8341992493717707,-8.519269872540272,0.689482082225588,-4.6130077372805385,-3.596337742114121,-2.6006849603552795,-0.6228321731357713,-7.011789862986118
60.0,-6.482049265976017,-4.0002173721795184,2.4818318937965183,5.218197650299027,-4.456685336741364,-0.82210517612828,-1.0571727020007164,0.2664881291288421,0.23568784150062316,4.016446670284189,14.75173024523258,5.013450209337942
61.0,0.6174160383740901,-8.624941148793258,-9.242357187167205,3.9696284204369823,4.875277125348651,-8.920901815504742,0.3053015752061169,1.2761149319065208,-0.3141306704927563,3.1063828550123396,10.602427193544171,-0.10593017853937209
62.0,3.7851416902400743,1.1884905451844467,-2.596651145055522,-2.4538208955747414,3.2173920480313494,-0.6919356178035274,-0.019877481840181455,2.9387794965407874,2.169903113708348,4.603184610426563,-0.3375185486075427,-7.886878383811506
63.0,-2.426233915292408,4.308918557744086,6.73515247303633,-0.9183252375790854,-4.548461697163648,5.537943543988824,1.1812644948005206,1.6981419909578443,-1.7005284875220434,0.872276206854683,-4.748106976011811,-9.087067864179254
64.0,3.1403235752776073,16.911623635719813,13.771300060441815,-10.088398814035047,-5.354090307345538,15.365754824470494,-2.145647164107718,-1.804875476285038,3.2756603620724274,3.233869583840863,-1.4763316939849576,2.3891256444734528
65.0,-0.5299633521301237,1.4074201821366703,1.9373835342664165,-0.4248264791909042,-1.185502028211008,1.7078742373218008,-3.4247836576667967,-1.5904508544001275,-3.1397574493824862,-8.31568757506422,-1.3146042550828314,9.952330673696116
66.0,-0.2345491903454342,-8.459403865182026,-8.224854674836827,4.362824200276533,3.970370960545304,-8.374835893662576,2.832946798170044,1.320968889856921,0.7335025396991388,-7.739799561560737,-10.544247997551993,8.42507651139288
67.0,-5.617648779802721,-16.86431048224788,-11.246661702445039,11.262190432858382,2.7915201799085883,-14.081858665048337,4.0176078655746075,0.17266812863144015,3.622728900748734,-1.722153095222426,-2.3691863802914077,2.681585255441041
68.0,-3.923930385594589,-13.913386148068367,-9.989455762473384,8.946714228992896,3.0070586886525326,-11.977953937706152,4.132538139313111,3.1585721462417,2.5994503208513535,9.104766872120642,9.781682918757323,2.193543589006915
69.0,4.856121181730165,-2.3442125881860756,-7.200333769915798,-1.3007705746046594,6.075049592996767,-4.805297195695649,-0.12100036711804862,-0.1802005966070439,0.37396974844764186,11.336029384116017,5.4583658533799655,-6.113123621799412
70.0,12.505204185973868,19.40956922287143,6.904365036897789,-15.999450084502186,2.760951880905077,13.192407522359966,-2.6429695123092416,-1.3329504659571043,-5.99762836319941,0.43478766192745066,-5.699188266473305,-13.56477612650375
71.0,3.380658819204016,18.62290438451612,15.242245565312075,-10.966544134379692,-5.8977757461142835,16.95771035295345,-7.051709920282006,-5.755362464116777,-5.682768533853224,-15.350575944717082,-11.501332200166432,-1.6397784437219078
72.0,-11.248605837081964,6.867246304184587,18.115852141266338,2.220652634946492,-14.652090948369077,12.50974144665123,1.7559412778151708,-0.022860110874953765,1.3393538948958694,-10.846431710599497,0.9215573681097364,8.796705826952449
73.0,-7.858396918662275,-3.3888150888660666,4.469581829795887,5.567441424484884,-6.211095552257312,0.5566708722467233,-1.0061520187003388,3.426385343213039,4.593178547437121,9.598005306243294,15.581861932972593,1.8735240746932598
74.0,2.1199758291780837,-0.5305618882709178,-2.650537717449299,-0.7792074856999527,2.4225004308172053,-1.5715363105898232,-2.8657243472959983,-1.857511643135687,1.242966566680288,10.760491518452055,12.110530360910106,-2.0360307280111947
75.0,1.8726849849262415,-6.5066743277470405,-8.379359312673458,2.3280817084545764,5.092859236792439,-7.497243667803809,3.994939313624814,1.1118583581848607,-0.6452630522902831,3.5651266364413106,2.799692832703307,-2.1181921257170937
76.0,2.5849875818087265,-16.44794745931612,-19.03293504112484,6.942366088522633,10.784926522855121,-17.78843815452038,3.901342439684476,0.8986859878018228,-1.8284332244851071,-2.427314522367806,-14.425473499057267,3.43499516458102
77.0,-0.2782089956319762,-15.413365986344523,-15.135156990712444,7.860867738739126,7.490998478132497,-15.237770656723747,3.2858083589864675,3.808325861187927,0.41915403864216605,-11.746525276984224,-15.065374656880262,1.7695271457844217
78.0,4.918121601294057,1.7442546677727346,-3.1738669335211283,-3.3087027287844917,4.034407394420386,-0.751862402221934,-2.5165606331847608,-0.012867112627672372,2.795099123735101,-2.405017499588994,-5.723264704286404,-3.7852341754193732
79.0,2.8302412831411337,9.336413990252668,6.50617270711172,-6.1309723394560995,-1.8493142398090199,7.96825990439188,-0.9053894822354445,-0.42405040331996047,2.2914230918721987,7.7667013469671105,4.233852707881216,-1.0895509968962886
80.0,2.286216639076254,16.054247647952884,13.768031008876797,-9.209973179506552,-5.756667987259104,14.963775587647937,-3.4676356619637314,-1.5913779638837269,-1.9634965957292596,2.762211460511923,9.670726128030307,2.0737699815553103
81.0,-13.290641500914838,11.764420901311222,25.05506240222616,0.8081862166164928,-19.196742905363653,18.389083340463564,-1.0743270129390914,-1.9040106973993898,0.2991207022631388,0.8527198656489232,9.157788246905003,3.982354227259631
82.0,-8.074926841392914,-0.5276263351450234,7.547300506247893,4.271756968895914,-7.766147591750298,3.492942612393067,3.195406134851256,-1.7964887957531346,-1.2673150996096356,-0.5269760588025334,4.730726248495222,2.586063112350919
83.0,0.1593377546618151,-11.4185179812573,-11.577855735919275,5.681712382098368,5.825541601114066,-11.514579671607018,0.29156803142720167,-0.3277828917732114,-3.421918452235467,-4.893161474111124,-3.2061450709437147,-1.8235655680482181
84.0,5.9549382109694164,-12.301187309014212,-18.256125519984,3.148909804287988,12.134544814305432,-15.298495645943731,2.6400639423504586,-0.23955476561128275,-4.53390746671589,-2.1832478347207758,-11.911914972195365,-9.403121421716724
85.0,11.837309564109308,6.696650876398174,-5.1406586877115235,-9.288851069007826,8.514699030175526,0.7515282237903946,-6.094146842954096,-2.113378176206385,0.07581829699594156,-2.635035238105901,-5.741503605267724,0.21769558358251428
86.0,3.5265942014788925,3.8439814726368207,0.31738727115778076,-3.626302096256347,1.6297166681571484,2.125182788910972,-0.9452305928688791,5.175225996628059,5.015050076776919,6.421036489607555,2.4136902866986025,-0.9630773338281191
87.0,7.423900407504716,8.134482823877121,0.7105824163726608,-7.797685443197672,3.303294092809391,4.460540939271748,-0.13239235236611646,4.387520022972433,7.465604697214214,2.907528503494604,3.3970911814630753,4.817626696724601
88.0,-14.299851509690054,-13.981660196609429,0.31819131308104787,14.122092322173582,-7.284537019690492,-6.875826782646387,4.923176658232994,0.33362588239092306,1.2936684250187982,-0.06880130219057579,2.8023196156347145,3.7750772395751606
89.0,-19.865523378845673,-12.123329206136454,7.742194172709617,15.974050151195243,-13.86140518339866,-2.155580301449652,5.704022737720259,-2.6680282778217976,-4.27990680072275,-0.594184635422851,4.2284459981074125,4.152209751272512
90.0,5.068503381973029,9.259493394447617,4.190990012474695,-7.1869497673747595,0.4546088432598996,6.684595163153631,-3.777128608083271,-3.3653995850316494,-2.3811057944763627,-1.4490475798603282,5.545648963195872,-2.092664982394667
91.0,16.270561271175186,12.607192783268662,-3.6633684879066104,-14.385239894569073,9.977170702299048,4.513979011167341,-5.068107426751424,-1.6791800652267317,-3.0893042838511033,-0.5278277536290448,-2.2992504652881127,-4.71886641775152
92.0,3.88086271992824,3.0661716003089934,-0.8146911196193636,-3.4991233775171136,2.3545348885143915,1.0915860787747205,-1.3548160297820373,0.33427451351826476,0.3063194652514194,1.1359867918431823,-8.59247046977329,-7.200587998786072
93.0,4.021276349793073,-4.946598694293512,-8.967875044086558,0.5175077626529898,6.502213858291579,-6.913358197959786,0.8708171029355998,2.1729036817707796,1.179825208598395,-1.429069093405292,-4.611992190897821,2.8201795278055815
94.0,-9.232599552198447,-4.969350214298904,4.2632493378996585,7.080407537088174,-6.734238083590796,-0.39250705506092487,0.6391044671702432,0.4737180330669293,-0.8948857116013238,-4.443939082189356,-1.3745780192368278,3.1197996694325916
95.0,-14.621229376237284,-2.216240899285419,12.404988476951827,8.401679566170907,-13.48904430520543,5.047423614949336,4.509576952847934,1.255227431529053,2.460657831491734,1.165975335872592,2.3575526790716386,2.924088560933259
96.0,-3.523399392132351,-5.158401021034675,-1.6350016289025437,4.325818803302788,-0.9864109900575402,-3.372940853601898,2.1150311013279866,-0.4395087003699767,0.6079975927636856,3.559685309249923,5.259769158182397,-0.4024691567219385
97.0,13.749204436359413,7.230964910664506,-6.518239525695256,-10.505976049194079,10.10323683683087,0.3744667328161393,-3.2832939100968512,1.964588082752582,3.185087153688858,5.308698445174704,5.06952005267283,2.6280287186340754
98.0,7.1441779607134706,6.477338141222201,-0.6668398194915448,-6.751810460433365,3.9622435033602175,2.9223390414908845,-1.9869649401296492,-4.291632847626833,-1.8222557588656967,-0.9581319509376356,2.6069555922906593,3.0434158226900268
99.0,-1.3773195350650758,-2.8249939058036135,-1.4476743707386635,2.0750388568704183,0.016918994687817435,-2.11509219110631,-5.193470971332346,-4.370513773074426,-6.331922102005346,-8.511976065333316,-8.415472758547057,-9.696391246991855
100.0,0.3294756022827845,-5.604694006883557,-5.934169609166268,2.6042731903275436,3.112542459704863,-5.740402785396292,2.2902970196095627,1.4384039109558908,-0.5712038069935468,-3.317154426764303,-4.998645466327473,-7.17817265047473
101.0,-0.3858128985856024,2.275575760323292,2.661388658909153,-0.905670835124468,-1.547440964126138,2.4272578679340855,4.534661851994053,6.138229190773253,3.4498978426309606,5.069989595534592,-2.359888897247928,-1.1305304299154613
102.0,-2.976425264567857,2.7470748277112023,5.723500092279331,0.07175557710346436,-4.301081493822673,4.200316709534623,3.2482844365045462,2.232727402349242,4.1855775438818394,6.439810385933611,7.695597761346955,9.045007853132798
103.0,-2.2183086870308597,2.5654187173804632,4.783727404411476,-0.13717403888474267,-3.536249109957599,3.64202761122618,-1.9537398619212896,2.4817054602097284,1.2225860254773235,2.641261245556151,7.972903993531756,11.369781587469378
104.0,-7.290430905842616,-6.433250617910202,0.857180287932509,6.902639725547234,-4.03356864316912,-2.742753682006869,-1.2469725049216591,-6.968143140049735,-3.7634067674590588,-6.406260748057587,-0.5778925690832102,2.007640745754747
105.0,9.140161274536553,-0.3045465972002348,-9.444707871736831,-4.448808459102292,9.331709012850606,-4.910165828347114,-0.6689673185496907,-1.8600212158782874,-1.2589565284523818,-0.06058653151222915,0.20708768390528856,-0.07641752186277118
106.0,0.5937984952065429,-2.956280259896487,-3.5500787551031388,1.1575054895212586,2.033008513460554,-3.2104269196182678,-4.714577948763726,-1.2527921961393624,0.6893517052172591,-0.3980579636884456,-10.728872160709033,-9.869815956489001
107.0,3.333521703093718,5.652864512856228,2.319342809762344,-4.511705980341187,0.46899449580971275,4.031957903744624,-0.5572203920178718,0.9296448669818028,-0.7391377199555197,-0.3808447181086928,-7.414283774966758,-7.429354068951282
108.0,-2.262006017138802,3.5896628924620746,5.851668909600765,-0.6021596571573027,-4.094670167084423,4.694672220295846,2.6840441698560387,3.2984876105027494,1.329225422298159,-2.987355448554241,2.4576612374022604,-4.090986545661041
109.0,-9.040702817103567,-5.913035622027131,3.127667195076396,7.456800937189186,-6.043714785335184,-1.4094938578263916,4.3932594709061785,1.9752814633647944,-2.3681172328079096,-1.5491726360735603,8.123738407875585,2.212239886685866
110.0,3.7952950108727266,-0.06574669453722537,-3.861041705409935,-1.891569020635806,3.8678463703786994,-1.9712837393856755,3.852532201442808,-0.5116118083085517,0.9887211358442772,5.47370023053436,6.638705944935169,1.9716742409648123
111.0,4.106754806216354,3.560078780885444,-0.546676025330801,-3.868840211498564,2.3656026335749765,1.5049687356429327,-1.5175683425122246,-2.061064263934726,1.7928376282146017,1.5453590543699618,-2.0312013452590776,5.082352643187573
112.0,-5.325571586640615,-5.919815917922389,-0.5942443312816394,5.657950790306809,-2.40626193615389,-3.2569075899197633,-2.2298574839411622,-3.2480749726197473,-2.3391929054461476,-1.0434340904228958,-5.661681699493672,3.0672064563639525
113.0,-1.1879232249777987,3.026006984603832,4.213930209581824,-0.8890741031671248,-2.742228392474907,3.6175086664343263,-8.270764014595478,-3.1268663479758696,-2.11979517507118,-3.361377161131149,-4.957249938441452,-0.23373104598626382
114.0,10.738095263021423,5.129372692961756,-5.608722570059525,-7.905157202953312,8.13175469802184,-0.24799104624310453,-2.2480226551278952,5.5614748340228655,5.353145161285146,4.524468669799057,2.448690984015491,9.041851127078814
115.0,6.846721023513471,0.44800174437256723,-6.398719279140894,-3.695415504403768,6.660558780277806,-2.9908940780945783,1.9748736592290934,4.465077644066175,2.5196495382806328,1.9965093274172987,4.011275183691188,-4.548905011001227
116.0,-11.843310537315176,-6.122251311469992,5.721059225845037,9.017511688017136,-8.741827059691033,-0.14410256372918262,6.362615691268231,-0.050679739154706915,-4.062097007870651,-4.849348784879247,4.268124925024992,-7.800097683039972
117.0,-4.190573492239194,5.443939389012682,9.634512881251599,-0.6667219328575413,-6.868000321322741,7.511820677277443,8.662774864768059,-0.18937977226486646,0.14675469371748773,-1.6565211560529036,6.382286613161652,-1.1186675627697538
118.0,-1.8968124062880465,-3.0187752788240347,-1.1219628725362547,2.4202384064716504,-0.4170108071142673,-2.0226641153395803,-0.8498865856430222,-2.1813397959036585,0.6391226911708305,2.8317446938546786,-5.062774347359508,-3.636062012196999
119.0,6.162315491080327,-0.5740689612499188,-6.73638445233048,-2.7523186314756947,6.422919311666832,-3.689377930394032,-3.8615653158023444,-2.457443826883952,0.6423213841963762,1.7710027628906015,-5.550509903820555,3.1081772020295766
120.0,4.899654447965667,-1.4417260743506048,-6.34138052231632,-1.6877455438440123,5.594199893955579,-3.929467975000849,-7.3349081250700925,-2.58081184031707,-2.5306655055566885,-2.153588655577722,-6.783684047028575,3.87627372101089
121.0,-4.145444867197724,-5.524862805514058,-1.3794179383161986,4.797153486876113,-1.4126157933811725,-3.4163310272066996,-2.5954696289629737,0.3069925291147364,-3.2330459050107105,-2.3725775082498246,-5.73853290231125,-0.7425262198030689
122.0,-8.867082423730542,-5.574597695244192,3.2924847284865733,7.183887684733606,-6.036235082378895,-1.1898402397114136,1.620305774111105,3.3941942666711573,2.425833541139978,0.20180001792886104,4.110492530140988,-2.9884165052203544
123.0,0.6673875473091821,6.441885090268319,5.774497542959381,-3.5093035080940176,-2.515961271855838,6.132877948514896,0.5986801839229072,-0.33428976596047155,-0.6827916646506835,-0.07231586126580214,8.542635116139607,3.889747297721149
124.0,4.60102615998128,15.75328307023182,11.152256910250724,-10.204463085378416,-3.3212060568840247,13.474429246861678,4.377382693176006,0.7465715729987732,2.5936218771549386,1.2644447011942361,6.641273030457008,3.797049939775178
125.0,5.797277213673727,5.4019761893182565,-0.3953010243554247,-5.540602144484785,3.1275242142474244,2.525405352515234,3.836734625587919,0.537478632592011,2.561427683438877,2.8746433982504245,0.7979040247696378,-2.087297755582971
126.0,-1.5516452123849782,-10.914727173592961,-9.363081961208058,6.220302375532722,3.9373560204891476,-10.191665218844413,-2.5391260409058205,-2.6698326036769084,-1.7242819297393188,-1.5495047289548798,-6.791377041543731,-7.426167055310943
127.0,5.1850649525163215,-8.005359912475186,-13.190424864991673,1.4006371045379238,9.14228047118864,-10.565626160687865,-3.2312396249273885,2.909092332856547,0.34828996346992724,0.2878266159790409,-1.9804257173248905,1.6697366867417194
128.0,3.8177174540687493,1.5888608965802904,-2.2288565574885766,-2.7150963218701873,2.979359698669762,-0.2811147757613046,-1.3992060517506466,0.8375259791663388,-1.127982686641663,0.8869533792657688,-2.309242318049137,0.3451503624813586
129.0,-11.729708073139811,-0.8458829562391599,10.883825116900613,6.2674018525190345,-11.271539004628744,4.983940139415816,2.657158689621399,-0.07580898797771582,-0.8779371716425837,-1.744430149879586,-0.6096558468170552,4.189887903417034
130.0,-9.183930513343284,0.6667469043263495,9.85067741766962,4.2248436665640465,-9.48320340703446,5.225396930288072,2.9052127405014576,0.7876584542013378,1.0426361892726401,3.304098308085789,4.082472511472952,3.8296026400481047
131.0,0.8895842696097631,-0.8064504395290424,-1.6960347091388206,-0.01131396690103359,1.2456414638388473,-1.2858657256222932,0.41129181156147043,-5.281737321887864,0.6078592254913247,-1.4097308051930073,5.486472051636947,-2.4853807765877556
132.0,3.386783831670762,3.698427282821238,0.311643451150438,-3.524372837439421,1.5656683021912507,2.046405172649373,-5.084453971161373,-1.8983043562756499,-2.082050505393736,-1.3679243061388535,-1.8438632042844123,-3.6429521422394
133.0,8.884839245305926,-3.8065540059236764,-12.691393251229645,-2.5267996557864922,10.812264921320425,-8.209432555282046,-0.9231293028844687,1.2453673741155986,-1.2095492408191368,-5.918559937669274,-6.552256010428022,-5.689279039063025
134.0,6.918608315520351,4.1797746506486435,-2.7388336648717706,-5.535123773088096,4.770187350459292,0.6824814750197326,-0.24709061966430146,4.058429154722435,0.5487185792647237,0.531534921323012,-2.9447816352372227,1.272063432678983
135.0,-5.07244032975474,4.14903917168995,9.221479501444694,0.4842642253986247,-7.130204765252255,6.7312572270842335,0.6351184238071125,1.9079787823535255,1.7018961140412951,3.8817186764645975,0.35289654273281146,3.8157481815503904
136.0,-6.978011750810046,-1.4121054849698556,5.565906265840271,4.151476617883987,-6.257792249614805,2.0528804476574365,3.236409938213996,-1.9024909220941606,0.5716209620880819,2.4710366124322896,5.360712801743637,6.523480119411435
137.0,-3.81905541816946,-2.2035930741844583,1.6154623439851097,2.981096149645432,-2.7045305029527316,-0.3076034336985074,-1.4333883625499055,-2.189071410752529,-1.9823943807530016,-2.470290191082944,2.721958682836522,-1.470036560586896
138.0,1.2740018228782208,-3.112547656716047,-4.386549479594164,0.9002597305288451,2.8428162919053195,-3.753178645881429,1.3645475194065413,2.116039900842016,0.5124641138822921,-1.0326817517496494,2.9412396668477,1.9127770665900607
139.0,4.400597020375118,-0.7604780685895514,-5.161075088964624,-1.7529679252697,4.715659050098553,-2.957266569294466,2.8157177160078612,-1.9287664703717808,3.268245262203773,5.132844534294013,-3.9450823284676586,-4.387052580719439
140.0,3.1931997672641863,-1.240407440409129,-4.433607207673325,-0.9850292734119067,3.829154190783152,-2.830658655969674,-1.5204810907162933,2.244313948106389,3.6681795612158563,7.919648524722932,0.0814857598944081,-4.8250490277449645
141.0,-0.7377729606946724,-3.1654833768858586,-2.4277104161912773,1.9421835047240663,0.8639054939030382,-2.7923044453474084,-2.776882673046833,0.6060029538549423,-5.238833731571528,-3.5586586450098103,-4.030446400514299,-3.799328573493852
142.0,-1.2012722710144057,7.211405007927922,8.41267727894221,-3.018055326240173,-4.78419194552005,7.809800529312605,-1.166060186451197,-1.6355771451786034,-2.93031058981791,-12.729962607018185,-5.025230015628786,2.8795089576771704
143.0,-1.5611799194721234,6.190999044420346,7.75217896389238,-2.3327521743017336,-4.6300386446405,6.95967892929629,-1.4679609875222095,-0.9202993947495464,-1.9106638032506678,-3.6029498606360457,3.881478157011906,6.600436924221352
144.0,-1.7432054661864451,-2.9390543381920664,-1.195848872005616,2.397331181674133,-0.3226743547954931,-2.090164374673808,1.0182046675366312,-1.5931268734189208,1.6494053652560965,3.3419639380028645,5.23654336772065,1.1729843996588252
145.0,1.0497869203913852,-1.2730646036674145,-2.3228515240587067,0.08572334508470192,1.6392573266993338,-1.7516460833561802,0.899539701408853,0.9553131574034217,0.9427740518968089,3.8826300616186566,1.783765847033854,-2.2596069389688913
146.0,4.6571688828178495,-3.506712230210492,-8.16388111302823,-0.602473714011155,6.443194942198066,-5.874554558405377,3.5513332863474627,2.7748987749110965,2.8253134520571583,4.495591550951046,-0.8245859481091167,-1.8095330730797565
147.0,-7.0192001467874485,-8.365197833697872,-1.3459976869103274,7.744535156093935,-2.8030976619527603,-4.819110977177802,2.6766860947001287,0.5968598303508554,1.3835807512804468,2.253697227960382,-1.6410622371975865,1.8895247046794883
148.0,1.1586485664594133,6.828416519257414,5.6697679527980425,-4.0173323320821,-2.299246271532234,6.286142665160218,-3.6546110810324812,-1.911855223404447,-1.6816449942731924,-4.498827668186496,-4.259023090705522,-1.0666246647214555
149.0,2.114608578477115,6.9372681038752955,4.822659525398176,-4.546064292213705,-1.3163367650126205,5.841219248834194,-5.421949733479119,-1.1036646137213082,-1.8104498425016822,-1.2594581789678307,-3.8830044331793925,-3.8145719153218094
150.0,0.2149672900895454,2.7794772905954304,2.564510000505868,-1.5135071539075116,-1.133906001581305,2.6370959679038894,0.1668502514554202,0.49655350920886876,0.24393058708652315,0.4444043388298151,2.8804160723179097,4.8912544023484354
151.0,0.518208462390887,-4.768610940072817,-5.286819402463699,2.190738743610693,2.8671725368355463,-5.0590343547814465,2.8486218670165204,-0.30763163450074815,-0.7639639863178858,-0.021956952756058246,6.772674666002186,2.3089905859625706
152.0,2.3277945185216415,-5.629839294365118,-7.957633812886753,1.6392408851950038,5.108044658648608,-6.743508330447424,3.1971564192908204,1.258382336212617,0.09924458657201596,2.0018803124208784,4.416730732683481,-2.6979416342049394
153.0,3.519734237750245,-1.0465273710384952,-4.56626160878875,-1.2492023888190813,4.006534963510684,-2.7541820582697887,0.27446953741067937,-0.19349286454367914,1.2593126083648356,-0.3202222709589833,1.1956284583940202,-1.3849267533345786
154.0,-6.731834663622129,0.4204508127636577,7.152285476385773,3.1400139323568856,-6.903665015760654,3.7610921108218998,-1.471885137118349,0.5673990667017139,3.145653122449385,-1.3368959273718677,-5.584249613323417,-1.252775685668995
155.0,-4.0351997715067895,5.071900408764184,9.107100180270978,-0.5385287926849439,-6.537684707219682,7.064817508697386,-1.7961505833973368,-0.2827022296791107,-2.1820672218745676,-3.0524397460176043,-7.544983434045928,-0.30273384975937817
156.0,-0.6882311078394567,4.365403459213434,5.053634567052903,-1.8631064389661476,-2.842277814443267,4.684898637684683,0.28555810312090824,-0.14901053471693382,-2.1685864733421716,-2.554511367217307,-4.728177675314269,3.699904707736841
157.0,1.5196751751386102,-4.86973866581703,-6.389413840955644,1.726788371627377,3.9005688070014726,-5.654334356996955,0.7289286759915491,1.5297520770078603,0.3757797377592622,5.38683054866144,-0.061754552947659525,0.7727471145286073
158.0,4.199030555551894,-1.9155271961564604,-6.114557751708367,-1.0896212581376465,5.179061903414588,-3.961057732806482,-3.199039275302403,-3.2807090175931553,-2.618364697963725,1.9107814832852368,2.1800678993179012,-2.4912263577351763
159.0,-3.0062690674202464,-3.4723576415112545,-0.46608857409100324,3.2155668628628526,-1.3273639305095313,-1.9152154382349642,3.6294709013421986,-0.6203009955598151,1.9651998562634365,2.5794781379291583,12.910560776697677,-4.852498798048632
160.0,1.9289969270497354,-0.5476947837647439,-2.476691710814465,-0.7105993736587,2.2256534728084216,-1.537668455383222,0.3336262011985702,0.10717163397361057,2.2303283527901017,-3.405541347681951,6.932925203276033,4.1766024388281835
161.0,8.398845060486643,5.722940486199867,-2.67590457428676,-7.078150352812288,5.563969739855252,1.4953770350949496,1.6849773906172367,2.797412337602874,2.3219781656413474,2.830319208102619,4.168875297050474,5.8425885874955465
162.0,-4.285298589072786,6.066820517435437,10.352119106508237,-0.9079657417387657,-7.285994611398031,8.175937480642904,-1.8831633582524652,0.18041782824045294,-1.3763422903457787,-0.995802385029604,-10.102356769320089,-1.1308977483635525
163.0,0.21869815500561174,2.9413441335433683,2.7226459785377513,-1.600254097198928,-1.2903895109230197,2.869448091570631,-1.8756364382354334,0.23872724215108998,-1.4684060733101674,-3.924004276452179,-17.402423883199738,-7.985195740906672
164.0,-5.719726076048468,-4.5983863600535875,1.1213397159948642,5.212053363519947,-3.4512994277777866,-1.7882414112074025,-0.6907804206830933,1.314023451541853,0.676803445335362,-2.072829028587142,-4.583038445295109,1.2137885945463616
165.0,-4.602853152439833,-10.428423028192896,-5.825569875753086,7.561729422493149,0.6652827853574395,-8.104479514658241,-0.7659520316247568,-4.088251915152471,-4.856621761479892,-2.3911004451685702,2.074277753619753,-0.23467795604291242
166.0,1.1541264913714722,-5.085889076390961,-6.240015567762456,1.9260283232358226,3.6749400840610464,-5.642683192118594,1.658326539527031,-1.2290019782680102,0.6503330711549042,2.567493133727862,10.268360021907617,4.56799268547459
167.0,2.6197104333086916,1.4468462756148628,-1.1728641576938479,-2.0797129972480635,1.872658162861323,0.16033885155725613,2.1054672749094387,2.77983553277725,1.8099817743940039,0.039400079027140045,8.05354815602291,0.27208455049722846
168.0,8.956735855487956,7.471209152666121,-1.4855267028218524,-8.18680588464147,5.27047862276661,3.0237411388287745,0.5198295624444924,-0.4128600084650893,2.411766972265159,3.339268139761513,5.674573568702195,-0.2953908483472612
169.0,-0.3003785959740215,9.852052996196198,10.152431592170206,-4.751532713796812,-5.264938458252814,9.963881816758779,-1.9471685885132848,0.5014097418179131,1.8407332279936497,4.16221082977925,-1.7225282513913847,-0.8416315310422172
170.0,-11.104771771889443,3.7880314176675176,14.892803189556965,3.6041191957940404,-12.96916787915923,9.310263736625897,-0.8991564465742615,-1.0470505067504612,-1.0529385241130271,-0.48150485536574505,-6.607155023156274,-0.7202507078585503
171.0,-0.15748087490546236,-4.483311218003373,-4.325830343097883,2.3485022466789576,2.0255985972424604,-4.430432910968059,2.6825070823835104,0.07030004778196763,-3.8549330486445728,-1.9379590521692511,-4.765488624424851,1.441926187923952
172.0,5.993982686425751,-12.666345793023195,-18.6603284794489,3.3708835667553587,12.341846064684319,-15.611197534705402,-0.3219257116212293,5.718567199950582,1.368498051838404,1.8629286976135564,2.6558686421939606,2.2516672696840185
173.0,3.0463695699174904,-6.603352464186214,-9.649722034103663,1.7426452201998706,6.363400094259788,-8.158337708597598,0.3300152772435783,-1.838036617366678,3.7537578548208796,-4.78386947525282,-1.3041095317871059,-1.2402350270992537
174.0,-4.489182317371416,0.31100589076338014,4.800188208134829,2.139662036285769,-4.621862935964271,2.594804955876689,-1.5637841399040917,-4.26070545717555,-1.217769566030301,-1.1711596795700712,-2.717359149607418,-5.895976243773896
175.0,1.5873522948442669,12.585910783188291,10.99855848834403,-7.109917697089034,-4.669949818217375,11.744822001364888,-1.4711559933058393,-4.539971983288486,-4.228625047554003,2.1932507746515055,1.5300165534074313,-2.6007718005572835
176.0,0.2833417277697996,14.970919975553386,14.68757824778356,-7.649759550363848,-7.230396534320001,14.854760141532983,-0.774199784297791,2.973304822815893,-0.649393407310642,-0.5262302764877576,-4.607450890249192,0.3539589474483074
177.0,-5.0475242972539895,-8.781178551460581,-3.733654254206641,6.888259383436015,-0.6727235162730669,-6.234357752947572,1.7193933756030324,4.98355228665586,2.701037707559687,-1.360779423850381,3.5370392736543605,6.531448674942448
178.0,1.2346997375947004,-12.259777154892252,-13.494476892486997,5.480707262575515,7.355186299702691,-12.852912142382147,0.562900207773743,0.5250815049913804,1.213171013070048,-2.922170772213686,5.78496588635371,5.5870687629814295
179.0,7.421868417981726,1.3182125837931116,-6.103655834188647,-4.328240647094191,6.75177392509516,-2.4431820522603926,-1.6427735271480022,-0.6755822940529987,-1.1405000460146861,-1.781576390789132,1.6989878421812672,-2.8398143305873607
180.0,2.7028238720392284,4.970047486405308,2.267223614366074,-3.796505568106136,0.19798407750664593,3.574033371531396,-1.3051184216287803,-2.002299340622093,-1.8222795611518605,6.202317456171117,1.6025821237315578,-4.176927678431709
181.0,-7.181610417325704,-4.241943412112249,2.939667005213481,5.754146488547649,-5.014663538859836,-0.6104524150995512,4.325600690459168,-2.6072625847497446,1.923839956405319,6.712000566088239,-4.416500695891242,-1.3368106518850476
182.0,-7.1288682351387225,-6.048964612600138,1.079903622538644,6.558245033511639,-4.149786417146378,-2.437499778097071,1.9893634787987287,-0.38494252624878045,2.311316504016027,-0.11590492900254956,-2.5235400586143055,0.9687087722553085
183.0,-1.9828010773938907,4.595950837103542,6.578751914497513,-1.3308424395302172,-4.2553650675410735,5.561090900576988,2.142189800065471,3.450269195835386,-1.0455685533277195,-2.0387834164968717,1.9915575329384219,2.157709386420181
184.0,4.116817551797504,11.034010346921438,6.917192795124018,-7.595362480764887,-1.3752013933071476,8.953332752546354,-3.756874023123972,1.4908416108211748,1.1080357310383318,-5.078711502025713,0.4259836177624071,0.5103039931532781
185.0,5.116515937120228,9.282625157971868,4.1661092208516965,-7.2189410870790915,0.507663070940028,6.704199131735793,-2.582494696233709,-1.3173951217822588,-2.6565309046734713,-1.9112026639055446,-1.8077219943318141,-0.7675015134085936
186.0,1.125417258208464,-9.553556210773655,-10.6789734689821,4.191617055580249,5.869152478259925,-10.057669141428573,-3.943500207851359,-1.0724268186101789,-1.6844400785035822,-1.2387462109932583,-4.302011625737238,-0.23787750260550938
187.0,7.71763653784952,-11.345745050193967,-19.063381588043505,1.86507079341397,13.372654775962047,-15.226771765261642,-0.4139433785190334,-1.031083301622349,-1.4502263434718154,0.5215147945675828,1.2328654125989549,-1.1546773724519388
188.0,3.089846715244729,-7.513859893341791,-10.603706608586544,2.2573541380508084,6.841850298405243,-9.084942858379678,1.856885689753029,3.722079104788076,2.5994488461069087,3.6320650971993573,2.3186546361490885,-1.1888987127182413
189.0,-7.841947991328887,4.948606428300634,12.790554419629519,1.408328835056512,-10.313752346578509,8.91662224032191,5.502135091311736,0.9830527295916127,5.803011055794736,3.2009757226135256,4.393220418684827,0.31052045229067327
190.0,-14.741547753394416,4.781286296833491,19.522834050227953,5.016297183186691,-17.129185027859236,12.113674990383053,3.312881105242798,-3.381583581347461,-2.443335838914272,-1.4887276907148124,-2.1781617890128717,1.1397754909043663
191.0,0.10361959384830399,7.59694789050995,7.493328296661712,-3.897263032923775,-3.697629649637392,7.578397048506645,-3.7923346013837147,-4.124599626266589,-1.9999351046937315,-1.3982705843631116,-2.4331293155022458,-1.5163195322309178
192.0,7.289961534864789,2.8919966561393364,-4.397964878725401,-5.064588575855414,5.831403180169868,-0.8050606430420357,-5.867006997777519,0.7138368756940874,-5.1334128501334435,-4.401418819672243,0.7218546757546882,-0.508550494252846
193.0,1.372817621970376,-2.9679996593155162,-4.340817281285863,0.7389020113100986,2.833552855090232,-3.6326919009926435,4.4470442763662525,2.979021680225772,0.3323000307583066,-0.35866966777007625,1.2946427340128328,3.681470639245357
194.0,1.9770349635862705,-5.152452786466215,-7.129487750052485,1.6017627151457499,4.5999061004515776,-6.121544979913821,0.33853988445616784,2.565719898874292,3.552266678863329,3.865930293387563,1.9067581762973853,3.990672568545896
195.0,1.3156479237978513,-3.983590905592895,-5.299238829390748,1.3445175673824794,3.3485921583473512,-4.620940811231914,-0.18327086019467892,-1.8267000336723442,2.0678393885056083,4.511286365754415,-0.5891519021186115,-0.5885740972901858
196.0,1.410950406073088,-1.7528857722067195,-3.163836178279814,0.18267632464469452,2.2473311250733423,-2.5121315712883994,2.166449095265669,2.836602751133361,4.094855588156284,2.168864216124158,2.6963022739227327,-1.7289257799368452
197.0,-2.4045710821551824,7.0210041887743575,9.425575270929528,-2.289570629024551,-5.877600433059609,8.255780989508494,-1.7225958411308997,-2.0526915980872205,-1.3966758072549266,-6.17659631420371,-6.328700271006271,-7.735717183230265
198.0,2.002735114026401,5.103295361123562,3.1005602470971483,-3.522295495952107,-0.5924115761154671,4.06528885458991,-1.2326952050741062,-0.8379498512265862,-2.2108284023868876,-0.6942046576326462,-0.25982273003232415,-3.243086286915373
199.0,-3.086408619165849,-2.051388762765122,1.0350198564007154,2.5357595335796446,-2.1089207674884722,-0.4555578040509545,-1.5565849259051339,1.5340501485338793,-3.710852357736197,0.19341192647759287,-0.7419390219267885,2.9346735684395044
