Time(ms),I,II,III,aVR,aVL,aVF,V1,V2,V3,V4,V5,V6
-200.0,-1.7811267383172318,-10.224394328764813,-8.443267590447809,5.958506222053832,3.3815192291523797,-9.34802866434606,-7.750666560530939,-0.48628249660553724,-8.699347589484894,-5.234765306680114,-3.9269868165251385,-3.5060075088949265
-199.0,16.747429636242618,-8.713323347338203,-25.460752983580626,-4.059635446398513,21.07451787051172,-17.030029996064332,-13.615569554405466,-2.6125230368258494,-10.835901304803306,-10.114358001661426,-5.917102084808422,-10.467956813022356
-198.0,9.300554526925087,-12.877623179753833,-22.178177706678454,1.8270928219799465,15.705139650504865,-17.56102580188757,-8.598989231743088,1.5227575231032864,-4.435173811132582,-9.237923568722863,-10.261874876049912,-15.682281951942606
-197.0,-5.610661215486324,-9.837625646956935,-4.226964431470044,7.766497240480731,-0.6538246127089282,-6.9985929176049915,11.338277733244055,6.570635695282682,3.1573133052559363,-3.9965195439003565,-6.288096514825222,-4.99643988082685
-196.0,-9.008240724428132,14.713950070422445,23.722190794851073,-2.8838764144594764,-16.333423321863563,19.163739693117584,18.40613828169289,15.853803876568831,19.82126950267326,16.250211030138427,5.272546417562026,8.371780691599305
-195.0,-4.471693714357788,8.106322924835144,12.578016639193159,-1.8420470883114684,-8.57569714991694,10.362298290706011,5.23361833599645,-0.1132503564725571,9.950955493475,9.30119515509965,4.141267946716283,6.846278100984726
-194.0,-4.7347705894107435,4.076167040952874,8.810937630363435,0.38906267161900465,-6.745011012638602,6.465388205108869,1.515528520994022,-6.483897914692141,2.1713473400962626,5.310124165105665,2.6629583366514735,1.7883073755412697
-193.0,3.892698468012356,9.960614233605968,6.067915765593229,-6.9422896215426455,-1.1343055451074782,8.043209913701311,-7.601156332918313,-7.214808771733055,-3.8254671733766963,-2.0537541485374904,4.858556510412594,2.8018110640277927
-192.0,4.3369372797091135,-5.775506643260913,-10.112443922970312,0.7030581343879554,7.2644234564112535,-7.98332168121629,-12.111888333222701,-13.584644610636495,-15.948314318642222,-10.350205735933606,-0.2527753072067507,0.417583810491136
-191.0,-8.09627470194624,-14.809115997222912,-6.712841295277002,11.43133265413689,-0.6429172404089689,-10.789434610132083,-2.1753445004167364,-3.940124783506853,-13.730428388004473,-8.235979243812213,-6.755188692194285,-0.9005538909134232
-190.0,-2.972553798596944,-8.830967354167022,-5.858413555570333,5.871491644379475,1.4204489809929024,-7.285998981622827,8.899086949931418,6.669749018984498,-3.607918433892922,-3.2151214065633624,-2.981029046250242,-4.181809727595065
-189.0,9.291444612303227,10.768738178511601,1.4772935662081608,-9.9923086619028,3.8874519548363544,6.106777352823757,3.871799775503053,9.332610046648709,11.956549377494238,5.053043494551693,5.556700438575465,1.604928703295796
-188.0,5.064490176212568,0.8026181537451591,-4.261872022467658,-2.9057879190440064,4.639906798636459,-1.747249078623358,-1.2729594508986657,7.4291142000807495,12.579622617121515,5.335302861111912,-5.40307325142679,-2.689662252834865
-187.0,5.330267189109307,5.749381898871096,0.4191147097616241,-5.51932232332641,2.4222810430631716,3.0611070890656875,-8.20197876361799,-3.741833768263831,1.8859840890261648,3.713204227198328,1.5328113388306883,1.937284243062877
-186.0,-5.02381224327797,2.6969788859594557,7.720791129237538,1.1016974419953667,-6.3409007086712865,5.178547713816074,-4.39852836936345,-8.888950052491662,-4.7640980944315965,1.6943776994041269,4.612611934646545,1.5010703896002202
-185.0,-11.361290834794506,-3.2520629478464653,8.109227886948393,7.32391453604215,-9.718134590417304,2.4710631790481705,0.629179287376072,-2.636927823374099,-8.163025683093123,-3.109266939029539,0.08116671640736017,-4.244955023991622
-184.0,2.2104167054792185,-4.782086857894569,-6.99250356337336,1.3059768210620355,4.608077344405334,-5.847318376425361,7.651693571179222,4.7481889356424185,1.4874239973430137,-3.798823210374317,0.570148721872896,0.23743253256374142
-183.0,4.233436422784136,-6.810794069408316,-11.044230492191947,1.313056731793818,7.6415995432587085,-8.88624070164625,8.12730362790495,5.144989332164007,2.392847841120034,-7.7025080271835416,-5.71825643021729,-2.0298788759249202
-182.0,5.082875932418746,2.6233376525529732,-2.4595382798655265,-3.9031417226865925,3.7777804922896463,0.04793717635561601,-0.049881706535733095,-0.43843500544345093,0.7305901549974471,0.19325299543146768,-3.385672438151235,0.21259508167098795
-181.0,0.6027789437263847,4.03054204460224,3.4277631008760525,-2.3629545646092116,-1.3954164377057423,3.6982858623233503,-4.350392326772898,1.4678588146490366,-1.5972124659917946,4.079571207747151,-1.1052974419627744,3.5286639837840363
-180.0,-11.00791988471602,-1.2875803299368607,9.720339554778972,6.183256411119034,-10.411013965105187,4.1859356661920835,-8.446831387329638,-2.8630137187693925,-0.7213901241118517,3.9592496212129067,4.786085198398083,1.6814585462702394
-179.0,3.1327998392853336,10.487138181674892,7.354338342389207,-6.771950928738417,-2.1416157535941593,8.88735550162291,-1.2159001800360292,0.7859146744145784,8.615580500502166,11.33462324275272,9.68568713631983,4.245245370869378
-178.0,-1.073089202373834,2.9962990314770392,4.069388233850338,-0.9217533887445368,-2.508990023832878,3.573021528677751,5.734714558610873,2.059825726533378,5.8497213123548715,8.435393737950747,8.422676372196285,2.7781310591318795
-177.0,9.422773219457468,0.7250525164311373,-8.69772070302696,-5.112330612395356,9.054007925505802,-3.9514559540743575,4.580766339516887,-3.806904676839079,-3.558532208505654,-7.192556654726493,-6.304784764069828,-2.034056834167446
-176.0,-3.8355460067768563,-10.921801963323489,-7.086255956547026,7.338502923591045,1.6236818075998096,-8.972627459722263,2.9593159337312143,-3.8780363012703036,-13.363506785836167,-18.660466120647612,-15.087306522471167,-10.921162653776065
-175.0,-5.124455331321435,-11.151636773625135,-6.027181442303785,8.17224595720986,0.44790693133584947,-8.637632326980786,-4.650016409282678,-0.6129144803646351,-5.596627241640342,-10.126095346555388,-8.15598078798912,-2.879705647121799
-174.0,6.1233122183314785,5.309361311907078,-0.8139509064240782,-5.767232839505054,3.457545761894919,2.2793910308392,-6.447406296902428,0.8148042921610561,4.399474074824975,4.34369712324765,4.058520486385004,5.614399934154951
-173.0,-8.391024791303625,-0.642950688559027,7.748074102745143,4.538261639776321,-8.092389412657148,3.507298172625663,-3.649895682832057,-0.5244355207723927,2.3154299742626643,6.435049005082039,6.354935412956427,-0.2307740111141814
-172.0,-5.209476646914221,-4.667916592923231,0.5415600539917245,4.955400471997082,-2.832786212388533,-2.0286209792161696,3.3384113668347384,-0.4974972536958089,-0.5129165192058833,3.5913989602564813,3.0629321834272316,-2.5872868378072034
-171.0,8.304378377638338,6.539243530233235,-1.7651348474046071,-7.405778466954513,4.987213673401044,2.3425773629465745,5.808992758096148,2.030562305535062,3.0298948953887646,5.951227960857674,3.6809959724175845,1.54888150737266
-170.0,4.506386599767139,9.234367524929308,4.727980925162165,-6.850317421453569,-0.08684857628869858,7.014239154149889,2.9408530539058955,3.8035574229529017,3.647981582359788,5.777751557849536,4.234616529866478,7.576195093786544
-169.0,-4.955539753485435,3.560751744068283,8.516291497553317,0.6468851577292085,-6.713625247953045,5.9919850796612835,1.8259053311092388,3.3466683251521743,1.5816183472164387,-0.1063504716287631,0.07853255837320583,1.1664158135461782
-168.0,12.798018437246556,2.2119862331864875,-10.586032204060697,-7.466025820253881,11.717823761183569,-4.153818099504925,-5.054359435496685,4.236869943806126,3.689001736337011,-3.573251125309506,-6.3828128221805915,-0.2046855307583298
-167.0,1.3026512366934693,-2.7163387289147916,-4.0189899656087045,0.6783150696523553,2.614435652668145,-3.3307579568597294,-0.6388290177143099,-1.3514510781582625,1.1338860514241857,-6.030123229830148,-2.8289292550795455,-1.919601633473546
-166.0,0.998211904461817,-3.2550533907643144,-4.2532652952264325,1.109764886635812,2.6646687793333843,-3.7899766510756976,-1.9986719787930907,-2.7273234125827064,-3.7076646388858956,-2.131042569015584,-0.1812875719200724,-4.684722311619764
-165.0,-16.232417185188556,-8.418843836056997,7.813573349131526,12.314100613416294,-12.059155847831965,-0.253087152985767,0.46840115182282616,-8.082718194971601,-7.877555415060716,-1.3652907837145225,-1.5930758959098408,-2.7972379382570853
-164.0,-12.069137335785294,-6.136785826485245,5.932351509300291,9.17370580615027,-9.03783991957022,-0.1267378593456887,0.5942930312838759,-7.642972583269229,-5.77927966874097,-1.0330004085853333,0.5149186767460168,0.8097022637091937
-163.0,-0.3023598762476345,1.4411437274379755,1.7435036036860327,-0.5779630861987424,-0.9866835099731177,1.5682749128490527,-3.10984222821333,-0.8564123242908681,-1.2146262708864084,-1.529611424489242,-0.3191813865947679,1.4242672128528056
-162.0,5.724118296022388,5.576307425986795,-0.14781087003519056,-5.66359631042218,2.964190588387221,2.6855057418386976,2.6672473667225085,8.230747451773285,4.839282859175467,6.348010528012386,3.576088132698098,5.096143351698194
-161.0,12.089750203983382,0.9343102479498011,-11.155439956033302,-6.534089448323133,11.564348967553471,-5.0694477923814025,1.6073727028363054,7.954456478309664,5.243337916154887,0.5883048435730842,-0.7212262776577276,-4.11884694854642
-160.0,11.195848992970369,-2.5388828546963613,-13.734731847666694,-4.361881511841353,12.48135062671922,-8.18480232202452,-2.4902576197840283,2.24770890707807,3.428229982088509,1.6592054544315658,-1.2720661943286147,-3.078223318463467
-159.0,-1.847235914515367,1.4007599394920933,3.247995854007333,0.25660575408987807,-2.530714190299528,2.3468606460217702,1.234962617455777,-2.5726130970958216,1.054014024976338,-0.010352329872500565,1.5606061624484848,-1.5562038413012107
-158.0,-8.520121429265172,6.394754001738797,14.914875431003713,1.08582793631392,-11.694221195657919,10.674184268031748,4.971272555132089,-3.4156248983647752,0.6620067342013287,0.6289741239275599,5.933253992881769,7.370591532484914
-157.0,-3.3147846743892515,9.57630543921078,12.89109011359977,-3.113981210455454,-8.069487444067857,11.2564717526197,1.8085882116180874,-3.176995499468254,-5.004784065438819,-0.6124933997484501,-1.0130275080982007,5.810355777202219
-156.0,0.6050744111235185,1.691187094884441,1.08611268376064,-1.2114243475659636,-0.27502235319910273,1.4204111979280607,-4.50198039529648,-1.4552102043499393,-2.734517390536625,-2.3286196631072578,-4.07035053985531,0.06707772404016299
-155.0,-0.07519152620463432,-4.672722677968899,-4.597531151764377,2.3930977642093336,2.2346951986374046,-4.670407196698801,-3.417720235128836,4.163157942772209,1.544934535448145,1.1375478671559458,-1.3084974676276864,-4.8582730138757855
-154.0,-3.8313805969343755,-18.82640477461759,-14.995024177683163,11.355475152615137,5.558364974790928,-16.935153141373384,-0.05870110276538876,3.0618629219708797,2.8159676941928584,-1.0463223753941502,-4.184312495014969,-7.043975307565034
-153.0,-4.158971511659703,-12.485808909762891,-8.326837398102986,8.357984600970195,2.0582347365306073,-10.423618746606232,-1.2040594059208796,-1.277846030616724,-4.163470014509662,-4.569212923427402,-1.856112387713471,-4.560133272058856
-152.0,6.272754508641895,11.50157625177515,5.228821743133532,-8.922287139787253,0.5691593463734423,8.350312785411749,0.31371140260171904,-4.802567217839712,-0.25157270951745037,1.3886708293611605,2.527392587280262,3.701124597679366
-151.0,7.221893807340319,12.374835578441676,5.152941771101545,-9.82851372393218,1.0747775886061883,8.747547234491808,1.5565997123923354,-0.5216964757432421,1.1810753200074056,3.2083915082830923,7.073477956887132,6.461369661055703
-150.0,-1.9824329049347478,3.1242542181412745,5.106687123076016,-0.599999161700465,-3.588636799550363,4.174519726158601,1.7342329213187866,1.7698689704878645,0.30091672301872374,0.48212403506653034,0.6813178902063646,2.701285297455169
-149.0,-8.344661717685874,-3.1185586316548113,5.226103086030935,5.779072827653918,-6.7539481100308,1.1093912785144617,-1.9340222903809985,-1.7535189881616178,1.0760126192406685,1.5945916040617154,-1.0570954312418779,-3.2712025452574145
-148.0,4.07836492721187,3.8588613677840877,-0.21950355942788224,-4.003638405621878,2.179305151504827,1.793869928366192,2.6401496682597085,4.176395359071389,0.13262970793610662,-2.5499238930709667,-3.788313948173886,-0.8516744095302436
-147.0,-0.4260976641888327,-10.235668488113681,-9.809570823924817,5.371181186229151,4.643419927215259,-10.050597916612702,3.4515615694266093,5.021623684115265,2.117384343018031,-0.47558959994651373,0.46346498525065805,0.9943970823335929
-146.0,2.6885270645351627,1.0208505262671794,-1.6676765382678607,-1.8164635566686211,2.12993151639642,-0.3536809512201966,-0.4287626984599525,-0.4006592738706203,0.1597640953526645,2.537622447187605,1.2724540335228631,0.3816458623747876
-145.0,0.8762923157749528,2.3145392346005447,1.4382469188257065,-1.6368673621986738,-0.2505046665469466,1.8435082868103032,-3.595703814552695,-5.799515618281536,-3.2829821434169144,0.25304879655511403,-2.203297476728839,-3.262724448834313
-144.0,-0.6341265257189976,-0.44757016905714364,0.18655635666189185,0.5771907004329975,-0.37970435984127615,-0.08706163052510868,-2.788709448233761,-3.707788200264377,0.6729712162067425,-0.10597900341605304,2.956863555109019,0.3059121794579067
-143.0,0.1945489935891207,6.59218104667837,6.397632053089163,-3.4380553470057658,-3.148261305666175,6.5370132436566335,-0.9919063152844239,-0.7831987769428288,-1.2389066096009835,-1.2210975886497648,0.3350471396059098,0.20780426248397782
-142.0,1.3040550661127657,1.4536372516555907,0.149582185542672,-1.4276411558477644,0.6125576909345603,0.7652508840019381,-2.3398338681581987,0.6540747398242229,-0.7587220633155789,-2.9860875844601966,-3.8269563459653257,3.345480685000149
-141.0,-3.4066429584648072,-8.123175097389161,-4.7165321389244586,5.789693953682541,0.6952370747549184,-6.375850931117093,3.8815825073389023,3.488670391452448,0.5524187513649326,-1.6720285638941683,-2.060882500290319,-1.0410586739862344
-140.0,-6.278359758372747,-8.264403416798,-1.9860436584252519,7.291619624878366,-2.179235312144792,-5.158130820830247,5.441703275845654,5.121033328158279,0.39783199696132343,1.2303143121846796,0.4107477837682558,-1.524575437850925
-139.0,4.720306082850355,5.564793234161741,0.8444871513115104,-5.124532353802069,1.9086649555974502,3.172403788234923,-1.3395600593063768,1.2941117504143635,3.71266367390865,4.124485799501993,3.064053350417588,0.251038491171103
-138.0,2.144146350471085,6.495843803548217,4.351697453077247,-4.30111600469767,-1.0538764480512612,5.468742352688773,-2.8756064025123194,-4.00915555126028,1.6719166854733967,3.9493575640991403,8.25217145966385,2.5201193156587545
-137.0,1.1172523124005487,-0.4072949940952899,-1.5245473064957908,-0.3327721687940812,1.287974610557391,-1.00367335548848,-3.2945901731676654,-5.438196871692544,-4.684506920485763,-1.1992411199368176,-1.1859960989417613,-3.029057091329988
-136.0,-6.407751043957518,-6.215762853745748,0.1919881902117631,6.259356742600738,-3.340996682768676,-2.976575734526154,8.377295988830987,-2.339346322069622,-2.523542510087344,-4.490820150571165,-6.099962149955728,-1.3098050843706004
-135.0,1.524479792145009,-0.04588399930730236,-1.5703637914523156,-0.7885620441068455,1.5744197363100416,-0.8575383603371487,-0.43012093951308117,1.5844687219493965,-0.410115555442512,-5.4121506507088775,-7.9053604158146005,-0.4608383643213766
-134.0,2.9864767740677483,4.189799632160415,1.2033228580926387,-3.557694300391684,0.9080427622459808,2.721266497243894,-2.544064354573306,6.569000559227437,2.0989603099571528,3.364131898555765,4.923952524403436,3.8774692898470633
-133.0,6.25919060152987,3.46409405870045,-2.7950965428293646,-4.83260623472406,4.535604840612258,0.3571781994953823,-9.051680263499971,2.843059989878886,3.4022104830007303,2.9086419596631776,1.435487704355772,1.4339621410713217
-132.0,6.562506823374874,5.341787258231939,-1.220719565142804,-5.9262957106889775,3.8961176955543393,2.0842023598350488,1.3285153204159426,-0.7477610074492245,2.815021606692396,2.328647819357035,1.0313020474502563,-0.5861876204165781
-131.0,-11.220385548767895,-7.321364674112695,3.899020874655319,9.213959237084044,-7.554905713244426,-1.7628132858421064,7.412228821792653,-1.732178387183109,-2.8899526216013633,0.7669452247863404,-0.8642831985042199,-1.904068549225254
-130.0,-5.755372816897779,-3.7048539097176345,2.050518907180223,4.74808187929765,-3.8945668987343613,-0.7954146973031225,2.777880256476315,-5.77961558465233,-5.416001515947143,-4.09148882801996,1.5541689995510286,-3.6241000737893527
-129.0,-0.6822404174000916,-2.2930046861711757,-1.610764268771132,1.5027643090111926,0.399192888541116,-1.9944221823252468,-1.8312160098394914,-2.1681033365488083,-0.47794186521384274,0.2546569510430068,3.148155191490682,1.0751394435036066
-128.0,3.303987309778441,1.2180517154141013,-2.085935594364434,-2.246917456520957,2.7141148821316765,-0.39447991422591855,-3.147053123993003,0.8144285097813604,0.08334575919743492,1.3441270647629682,3.7757687370333004,2.8187386794250022
-127.0,1.6720282976283838,-1.4150019932011804,-3.0870302908297274,-0.19183247948088789,2.403175739213051,-2.2886616565059046,-1.604847211637365,3.671208099762666,4.0012892651086025,-3.8683442333994815,-8.59817740939094,-0.8750242890514774
-126.0,-4.358699493980699,-1.5885417961487585,2.7701576978318596,2.9930926514759073,-3.537961476159615,0.6321597963374695,4.1922331512453015,3.735173364731635,4.635015973291119,1.375554576221094,-3.562624341935612,1.8953217902588955
-125.0,1.045112230433673,5.999762537964805,4.95465030753113,-3.496260570208368,-2.006241208041918,5.439265173464698,-1.5684519950664177,2.748150332239404,0.12491792711600835,1.12940668990153,2.2439988577696575,0.6755684306753377
-124.0,6.156436677417224,4.797150401975779,-1.3592862754414112,-5.441874533701845,3.7839070082661506,1.759111697536212,-3.5633026503181373,-4.062049757754366,-5.8113513466353774,-0.5912586338095256,-3.1884196986015954,-3.0045032917675902
-123.0,2.034900514362315,0.9699038871891825,-1.0649966271731408,-1.5366736394035425,1.5730451614223124,-0.08628714864770615,0.8552455180280674,-3.0520384327851304,-4.7604733891808975,1.03539539136095,4.7916344749103885,-0.6273646317078114
-122.0,1.3539125312146323,-0.3357820870178433,-1.6896946182325867,-0.5344936296998954,1.4622394279613333,-0.9722124274432736,3.8273520893501116,-0.9635022708250798,3.2182139992112444,1.8082438176539322,4.022637047921428,1.6385084467996605
-121.0,-0.8870634435774736,-0.4233715462888239,0.4636918972886128,0.6365212304373955,-0.6599229947122851,-0.016973146093632874,2.2403469251244035,-0.8900875404094248,2.3572627521266125,1.1002578154265212,1.7862352156289374,1.58308059974742
-120.0,-6.364996670954718,-6.219237880566123,0.1457587903887123,6.355885535788618,-3.242181926036176,-2.9938144619873124,-0.36035640308067907,4.6953422735135,0.03975091170700806,-1.2239089310407896,-1.1381928894031244,-0.09693411487841619
-119.0,-5.32982349944259,-5.683054802213989,-0.35323130277107817,5.491832367660281,-2.4748395175329208,-3.0528664781249963,-2.825983135866157,0.5475707498083064,2.49108174877358,-2.4801909341726316,-4.885797905864061,-3.6943520479221066
-118.0,0.37890760447947835,-3.3744236453398253,-3.7533312498189932,1.480384540068469,2.082777065565699,-3.5980354755848554,-2.6637216038827214,-0.6505498267149108,-0.03884400847020886,-0.4906590739814698,-2.3353382664704436,-1.8054603561525502
-117.0,2.348832838847892,8.497628184718632,6.148795345870883,-5.445884658111264,-1.9562949979896505,7.367653665707608,0.9174090924225029,0.13513165916066106,-1.09770655943459,0.5414939529519385,0.06735265219634279,3.810074980100434
-116.0,4.490454750005188,7.179212159482016,2.6887574094766675,-5.785580990967385,0.9306316287347747,4.977467746069652,-1.9307126683559694,-3.4986396374569164,-1.5651139498383988,1.7353213261525557,3.939611155815134,3.2929385499670185
-115.0,4.563429141461089,-1.061575219966305,-5.625004361427763,-1.787735836715823,5.131596245113807,-3.3803817771893208,1.0236618607466716,-1.6431634241896416,-2.161567608707027,-0.884122891523258,3.030317200156457,-0.25955303662293594
-114.0,-1.5419898164001982,-6.838516100755539,-5.296526284355715,4.225412666348658,1.842527518857125,-6.107225753607756,2.8853495836358904,3.3961041135656282,-0.418988502327164,-4.498513338874669,-3.932399355436537,-4.845341817516639
-113.0,2.8946820176096426,-1.0760744501431114,-3.970756467752912,-0.9584678270778821,3.4028937319976236,-2.487377763676019,4.457050237573628,1.4553158327066948,-1.4349262998398005,-0.10094186403273775,-6.072637680572265,-3.2780196002087054
-112.0,-7.256470720560325,2.1287224844422976,9.385193205002743,2.5892989685245036,-8.347574615386417,5.711563950292106,-3.1505000225469075,0.9084037030155028,2.4839386687474354,4.976207154851666,4.910508299232227,3.8677122396054995
-111.0,-2.3582431925528224,6.025427824433894,8.383671016986932,-1.8112386361723716,-5.317382823682525,7.236304025270773,-1.8196953011231218,0.2787917024519044,6.473755544111013,2.0274434176530516,3.328917117425928,1.4283838768914432
-110.0,-0.8235198772148373,3.4369673997122154,4.260487276927131,-1.2870992296269312,-2.4880994531977474,3.8802763325285157,-2.7641784438415895,-4.35471501031152,-0.6991041968334542,1.6790932449473668,3.643697879606782,3.3787036598799958
-109.0,-1.1655173239815841,-4.635470141642648,-3.4699528176612087,2.8381260783657822,1.12633735983851,-4.02039013251297,-0.49657332271435983,0.36065782158597903,-3.2743435316433427,1.1626049690503766,0.16561447414204644,0.8414469433788367
-108.0,2.8114484454497912,-6.582018682861669,-9.393467128311666,1.8974076181131214,6.073748181139196,-8.033387202473502,2.439547502028643,2.3987454884553703,-3.4785836601235154,-3.561032759192073,-6.537911618527016,-3.3626098407698723
-107.0,5.316390856805549,-3.7755777886007715,-9.091968645406416,-0.7633577731329548,7.170657060865972,-6.479484496642178,0.45405659731237635,-1.93173550055225,1.2650424996842298,-4.3519907393431705,-4.459633595667742,-2.4759660490896436
-106.0,4.00816804300867,0.35156495738349625,-3.656603085625092,-2.177759723939553,3.8714172139549174,-1.6204529922371016,0.4289542318561399,1.4533721165838116,1.7416307612235067,-1.3327135570436384,1.439382223502208,-3.330834304910301
-105.0,-3.387219673002424,2.38434562721273,5.771565300215412,0.5001034116750567,-4.625202219158858,4.030381061627016,2.6149196339037477,0.14465056708685436,0.15574074692517936,-1.549593204695484,0.08740036762380515,0.7938016266406409
-104.0,-3.2997336932164325,7.003760804639031,10.303494497855773,-1.8540074431534095,-6.772774977426306,8.685542060228393,-0.7712875459507696,1.0736964300647167,-1.344843099096266,0.6454282970447234,4.579500390292308,4.311268888118285
-103.0,-6.242655390152367,2.4394974635029816,8.682152853655548,1.9023729385050587,-7.434209674901072,5.5962458839071285,0.04936783860192473,-0.6489549995696898,-0.03863117608124317,5.931392373306681,0.9811195420513039,3.5758299048659072
-102.0,-1.8869287030430644,-1.4499865965398349,0.4369421065031336,1.6751812075696022,-1.1305854125873762,-0.46497953976146844,-1.6362627828815781,-0.9041850725019279,0.7459996531902935,4.775991825028571,1.7517736229023495,0.43175471747171956
-101.0,2.1289923242085926,-2.814620878892968,-4.943613203101914,0.3572490934002158,3.4948917939836663,-3.9092423204900246,-3.557975956971302,-0.8558265724498522,2.6443247225375126,0.7811850746569458,1.4620983488546908,-4.100484384276001
-100.0,10.444530940372468,0.0249161639256279,-10.419614776447276,-5.212909473833692,10.397642224875781,-5.221922684657475,-1.8031587238531415,-1.7313288416830293,-2.4014049376929743,-5.049884647157813,-4.224185728654661,-2.2197959764216924
-99.0,6.127307682590613,-2.413790184524643,-8.541097867115461,-1.908844686896011,7.384574973785778,-5.500100200828479,1.7550079330725774,2.5701303718826605,-1.1207195653587054,-4.098033493481705,-4.5483604015023795,-0.07998481720988093
-98.0,-3.6770000127764373,-0.8295669258735205,2.8474330869029174,2.2808342777073043,-3.286728317291563,0.9839244357237735,5.971255275095893,1.3413429851837613,-3.1855982304495782,-3.7452768861304166,-1.5663409787563647,-2.5032178512900143
-97.0,-10.602123939286846,-1.5230246020343285,9.079099337252785,6.008294574412522,-9.863684717019657,3.82634490289947,2.588288826893295,0.09599906536646574,4.273629162352667,2.8074623763058475,2.339754108642155,4.286548487278759
-96.0,-3.411693890480187,4.179653841711491,7.591347732192027,-0.364998351067078,-5.524928579521677,5.849024515422284,-4.941115338229427,-1.1965600752816066,2.278265435559824,5.032816503422014,5.048261821839368,2.9500431320182736
-95.0,3.3712881519450253,2.715106057797982,-0.6561820941467031,-3.0295229071382055,2.0679816183696316,1.0677730123685327,-1.2984938128171768,-0.7149061378323653,-1.3000546585594923,1.2964358210057658,2.409958268512863,-0.719390399740675
-94.0,0.7033478952737956,-4.135266877118205,-4.838614772391882,1.7271245773534738,2.82406642012566,-4.448792675833532,-1.3000616381515318,-0.13238472346110286,0.5230828376254,-1.3880974848145986,-0.6204052937508966,-0.662575601368596
-93.0,2.2570160537110358,-1.9648706802306422,-4.221886733941803,-0.13300476861127458,3.2125561090337307,-3.130225970043818,1.0320728040966587,0.4288580785980935,-3.144402580783891,-1.7300641974520112,-5.713074756758747,-2.4785813843368305
-92.0,4.734180961156653,5.063286596568984,0.32910563541211024,-4.87934229648588,2.1738575924199743,2.665549478054627,2.097917112790423,-0.12692987937133332,0.07574194983867955,-0.8372051960158474,-0.2989086379302708,2.0319262496149912
-91.0,-2.179874901142359,0.3796199546266328,2.559494855768744,0.8499842675034268,-2.401006326124313,1.5238534333336804,-0.5766478121659726,-0.10118227416586499,0.8163721333134036,1.1343318452524906,0.7645263845676931,0.17409351393698674
-90.0,0.8402393588319528,1.361520690723999,0.5212813318919223,-1.062579605554229,0.1250964658189645,0.9205754794711695,-0.79843256645564,2.4704256237971807,0.5714458155806189,0.7630955515928414,1.9912588367241668,0.03863634704430712
-89.0,-3.503380529581384,-3.2823996615585003,0.2209808680228319,3.360226469832031,-1.820191217919997,-1.5522862394157022,0.3714373198063817,-2.3038607919555485,-0.6038880975744518,-2.797808291937317,-1.9100226882622326,-3.453616479449984
-88.0,-3.8442912144180674,-5.887289100664177,-2.0429978862460647,4.83742635309033,-0.8593127891711552,-3.992355352370274,0.43947134183482833,1.9673121792739223,2.5072757566265262,0.3565307494119322,-0.12663277949368706,-0.9755228920171541
-87.0,1.480182299298515,0.008704723452696017,-1.4714775758457443,-0.6936448119547114,1.5183450725114045,-0.6894273534992074,-1.0557902908470156,-2.1699436108022465,-1.2897254296962628,1.7126430840750826,2.98589619828811,2.652205918888507
-86.0,3.018224721033043,2.7167377934571286,-0.3014869275758602,-2.898237120205014,1.6255241119196073,1.2381124116779936,0.2916306767042339,-1.4059405787449226,0.748613059308167,1.2303887326993599,-0.5127905831015396,1.4354827806549038
-85.0,3.9486763468135337,6.0823529808864745,2.133676634072992,-4.972230297488323,0.8740060008458781,4.048926152372,-0.10490914939158431,1.0966711926585597,-1.898502648796466,-0.877541448674392,-1.7118823765918463,0.06004965669488449
-84.0,-2.4799347581016864,-2.5223750216372776,-0.04244026353557073,2.4605292525962397,-1.2538390279277853,-1.2705691964696681,1.658732503879944,0.3371580293292223,-0.44569475557022964,0.73233696431117,1.9978653623294522,-0.22053256850801495
-83.0,-1.610028968829053,1.065364229755322,2.675393198584385,0.3060697048547632,-2.1031300608993497,1.8789856055773764,-0.4442683700718887,2.359614926074373,0.30163644452444144,-1.39820553676848,-2.0213597247197663,1.0470174590267396
-82.0,-1.7581531827731873,-1.599135746751104,0.15901743602207646,1.6308032128785976,-1.002863080361385,-0.7097110806179523,-1.096191405016718,-1.1355181553969769,-1.0610537534595874,-1.034614147660267,0.2909954644867778,-1.8339337273462872
-81.0,-0.6326224236664676,0.18152338910789978,0.8141458127743456,0.2554462785627378,-0.6927803497735259,0.5138947646449039,-1.258751842373437,-1.9344512452777434,-0.5446899742173377,-1.061533187940577,0.61005513214525,-1.9274357249221352
-80.0,3.8050289061739258,2.618211884694053,-1.1868170214798996,-3.1812033912114797,2.5258665727261342,0.7393106769425397,1.600917346272749,1.7023213487035416,4.54688378280343,1.1681871377204478,1.5129970253459297,2.9054914136321144
-79.0,-0.39202730479487147,-0.885317814648227,-0.49329050985337375,0.5916495303321809,0.08378056060279393,-0.7375834128277163,0.27517893330594795,-0.2969194181013285,1.699169491385525,4.212305201195845,-0.00757174257063703,1.2379483475653328
-78.0,-3.9250650845560267,-5.0786528680147605,-1.1535877834587214,4.5347066048805065,-1.4253008210541167,-3.160234555850506,-0.6229884257935039,-0.9742073584478786,-4.384003975129639,-0.7782045321850948,-3.052501601903935,-1.6369402741516645
-77.0,2.123847247050824,-4.892137226371974,-7.015984473422805,1.3382703311039668,4.536924843339001,-5.918682841360012,-0.7427535943085103,0.9926033030373247,0.3766428376784745,-2.325322307964824,-1.3822711004150758,-2.5651283572839536
-76.0,3.26138498202795,6.610103790760811,3.34871880873285,-4.904487172217163,0.006592641330509741,5.012795284243157,3.2398020092076902,2.245556404039395,-2.2439366016909887,-0.5610957763245521,-0.14005285787218014,1.7023537708546654
-75.0,-1.5730677461365046,-0.14427512091496153,1.4287926252214853,0.886607604704327,-1.5288509290461818,0.5938269145645458,-0.6449294728896096,-2.5691081951037695,2.3207999927823155,-2.1583920741183524,1.0796418967874108,0.3406118579265303
-74.0,-1.715356149994576,1.694707758901462,3.410063908896017,-0.045052291151564616,-2.5943892743182917,2.580470984281493,-1.6868220659247313,-2.0609491038468444,-0.2927441623549867,-1.1254900443192855,3.2423756626191986,1.0350321025456517
-73.0,2.7629152290792875,4.401906213928361,1.6389909848490536,-3.5639158726196687,0.6021951546730613,3.048578248341948,-3.018501026567965,-0.09188094225746413,1.1085426732971502,3.6523156222547195,3.063707258609166,-0.2907016853292641
-72.0,2.5573531707086206,3.7711399569928417,1.2137867862842566,-3.149687158532472,0.6258412896614137,2.4447034940790124,1.3801785295539597,0.8629996852322914,0.4172298291530807,3.1302688239912424,-0.8643770147168495,-1.3951407884149893
-71.0,-7.55588765978356,-8.666939261625085,-1.1110516018414909,8.124343408059932,-3.1947608587587593,-4.85280782476816,2.241233556758529,1.8404562431277929,-1.5324581152597725,-0.38239166421754067,-5.1698079775691,-0.20726287985874126
-70.0,-3.47181999968703,-7.058967447798407,-3.587147448111399,5.201400035666682,0.08462786783302167,-5.359390490168612,-1.0978822403787543,0.38553684606530725,-2.3274226531113675,-2.5177724058479196,-0.1604524128698106,-1.3162247374339013
-69.0,3.8075335932664096,3.216768526702583,-0.590765066563911,-3.491548840883849,2.230577935456138,1.3609369998472833,4.627348885668397,2.178554236033504,2.6430409778496626,2.2705378072949127,1.4701259575349368,3.524986996628412
-68.0,6.512308369545376,4.14111379539168,-2.371194574153706,-5.296651927493925,4.403050876229021,0.8572481714950696,-1.5767743364673927,0.288026462056882,1.2676052330860346,-2.028050765413521,0.140509290634998,2.301905308262842
-67.0,0.13773495831851612,-2.1584124467008294,-2.296147405019248,1.0518418680187716,1.1887600927323714,-2.2554972213974356,-2.7677203288635184,-3.1419927842000295,-1.602476616612897,-4.695166290914944,-1.9722182675986235,-2.1318485104268117
-66.0,-4.052840498004563,-1.8121411235272362,2.2406993744774613,2.9060094269556513,-3.1652286506955583,0.2603678407361465,-2.7296448009193632,-3.050731145330273,0.09028534945385547,0.41188149671975194,-0.37948180018591987,-2.4062686903705437
-65.0,-3.0029832031077435,4.898208626666248,7.9011918297740955,-0.9669690345083263,-5.3852385884612435,6.359326878888875,2.4433222808963833,2.201610518998133,1.1841118580832446,4.4327816996720255,2.4667713154186,-1.5368013714855788
-64.0,3.50496523966751,3.0654095994634765,-0.43955564020405813,-3.30321937027227,1.9621991257701383,1.3418757340904417,0.8945777846682399,-0.2935560144298288,2.6620660733812005,1.6918585586532822,-0.11762069473662251,1.4522922292327305
-63.0,1.2220405836734625,0.9072308136366825,-0.3148097700369065,-1.0875766997234,0.7550068491698123,0.31614458280409874,-1.9609118420723621,0.8871850864952465,-4.203881653133797,1.270261338224833,2.585633673378665,2.7135535850845884
-62.0,-0.7444573489426851,-4.806720716402974,-4.062263367460474,2.8218173796945933,1.6376560760548349,-4.499618130636373,0.7379880795929399,-0.634947782451329,-1.7404870331565414,-2.011237681443716,-1.9796394309298977,-1.4110404157536445
-61.0,-2.041387541335497,-3.2239050422702644,-1.1825175009349191,2.5888909851962185,-0.4611353462202341,-2.191240736778343,0.6808903381893516,-0.9599700566145146,-1.7755994989236594,-4.107308498490806,-0.0015108444707003787,-0.8831325910880403
-60.0,-3.6499090709896236,-1.6520654553339087,1.9978436156556207,2.6764597930772296,-2.787399634773607,0.1888842074826913,2.8357723702158015,1.062049599260544,2.6681660932700977,0.7331227372377278,-0.19077096655529813,-1.6090582252690313
-59.0,0.3160645105526496,2.009042053001707,1.6929775424490754,-1.142417142485874,-0.6603269200582051,1.8762274488322979,0.7087827452365566,2.0064818967749436,1.6838347894423533,-0.4845246394915431,-0.26364587392217376,3.364605947886508
-58.0,10.814011003767142,7.086182386144157,-3.7278286176228708,-8.930404340667186,7.294278141125221,1.7165902017667016,-3.2965610908050205,-0.029908136079021985,1.2976038900416436,2.226234498629669,1.3805870265496567,0.9330063306505145
-57.0,6.293791099051511,3.7493731453340327,-2.5444179537173,-4.998646517633384,4.362460517509196,0.5727517045081958,-1.5779596659213624,0.4164141330425967,3.102336854449792,3.378003492141764,-0.6778643190161022,-0.6175750286563054
-56.0,-9.590765945144378,-7.3719543634058,2.218811581738743,8.430040967808463,-5.8816574413715035,-2.599060165016671,0.6375207802435487,0.9839224239431462,-1.689195677408288,0.9104797873805588,-2.0975993108554625,-0.05678988247002753
-55.0,-7.449766525746258,-5.32908222048564,2.1206843052607134,6.341391081984369,-4.760506973443662,-1.6264563156632663,2.195229692344833,0.28213762685651567,-2.042702984876924,-2.3376648061518663,0.8638735438666865,-1.2382644160326428
-54.0,-1.5839721863499197,-1.8920965805740608,-0.3081243942241778,1.769457096942027,-0.6911430491499004,-1.1295999595540223,-1.39351270588043,-4.489082460854041,-2.862382509324543,-2.4692614311073395,-2.7005253870655492,-1.2145947144240403
-53.0,-3.022254932997324,-1.010136783770095,2.012118149227063,2.0459512466944303,-2.4919169043290226,0.537415767308163,-3.3582244161689783,-4.220997510990865,-3.9346446055684243,-3.573440148970132,1.3940747620766825,-0.9203717825606027
-52.0,1.380598003752974,3.7702738347787537,2.389675831025534,-2.626978805666842,-0.5584191051993366,3.101369866237654,0.2201564722409114,-0.9051247197022767,1.6568105374744162,-0.06206538096095815,-0.501055644187725,-1.1195173663101607
-51.0,12.018604979622594,8.32707764557866,-3.6915273340440997,-10.14710284133365,7.881161698714671,2.3256494473393277,2.5774968821127278,4.2033157398117655,5.697896335295162,3.884146594109547,3.3419922626253533,2.3662231726018943
-50.0,1.6201486113199755,0.9580545111675036,-0.6620941001524774,-1.2622582304978556,1.171762404231723,0.14671347412309954,5.379553371230142,6.754266559392866,3.113647606609411,2.1986608446590976,2.9427871395479572,0.5510325994903884
-49.0,-2.6805393060596017,-3.2878357122545454,-0.6072964061948285,3.0150695590118124,-0.9974806046634741,-1.95213538172179,-1.0064260312112503,0.21648653754070102,-2.975587169071772,-0.47750574614417785,-3.0610018780364694,0.594248954535479
-48.0,-1.3216702395305624,-1.9489073487383832,-0.627237109207658,1.5934950972003978,-0.3753463529465956,-1.2900180123478355,-1.3868612746063935,-1.201886376836935,-4.001542315514134,-1.1962375042317244,-1.243441893800307,1.775710279929537
-47.0,-3.2715024264284907,-2.9077802283147274,0.3637221981138931,3.054248142006516,-1.8336552489097602,-1.2662665518008407,-0.6376564533272326,-0.906318752225671,1.7713640409097697,0.4760682423369742,1.4392370760664241,1.4892832960825382
-46.0,3.3969859084200005,2.968269119360704,-0.4287167890592706,-3.1343191976438094,1.906591015470576,1.2083262311913618,-3.3586570093944097,-3.3464509426425373,-0.6301654269466874,-0.48909983767571963,-1.2529882505653458,-1.1837939009117717
-45.0,3.8125567279446466,2.7211175831971666,-1.0914391447475595,-3.294979049331139,2.4508165660744075,0.8461435834666882,-3.176572708914155,-1.9877704148079038,3.162660066108417,2.0594608002850903,0.26981978488640324,-2.1422197836654684
-44.0,-4.933335061723646,1.3770196071331662,6.310354668856662,1.7493080995465333,-5.623762003932402,3.8899881236169467,-0.02665209430946258,-0.10158756009222158,1.3369644029076975,0.7103199559557541,2.2556963808846637,1.1664844534814696
-43.0,-3.6029163717848567,-4.034690541424101,-0.43177416963941617,3.8653778257301825,-1.5936159576596738,-2.2514419380774524,5.4458966892819385,2.360243872430393,-0.37857474283909986,0.16297842040902955,-3.335815946528082,-3.6411493572407783
-42.0,-5.6499196528144555,-9.9289862859152,-4.27906663310087,7.830909682016315,-0.7033272801892605,-7.1108030618163705,2.6064964252385114,0.9996623132275668,-3.6455080769264,-5.78351055632568,-2.83476436316758,-3.668540970389859
-41.0,1.1580864723958768,-3.2653182064064343,-4.423404678802322,1.01040623990888,2.8402616440272834,-3.8445627443181607,-0.48851755015028764,-0.06401296642931009,-3.0932878571634945,-2.969520280220851,-0.7768646259865781,0.11943688553540671
-40.0,3.783373185373219,6.362204160529423,2.5788309751563303,-5.121645933135104,0.6411081467054109,4.470522751059274,-0.7932936336779471,1.1313852123375225,-0.7904327737372788,0.8811094455498816,2.4700846623990587,3.8765099750998817
-39.0,9.40051437417857,11.368534170110951,1.9680197959325638,-10.358881900832028,3.6678847272676594,6.661693377689951,-2.629929771387259,-3.1160911860894323,2.6506874948213044,4.200580813756529,2.9496436262852868,5.815677117446479
-38.0,0.34195897125508345,3.604614463946949,3.2626554926920663,-1.9494627761981276,-1.5139594626930228,3.4146422626652138,-0.7819154106329331,0.6184551036712722,2.2382947158993307,2.061668108794347,1.7587802919601674,0.9598139807254813
-37.0,-3.55168563829121,0.34167530880441666,3.8933609470957076,1.6300474809569658,-3.698932152089786,2.1613794529314925,-0.28538302854072684,-1.8381728795781143,0.5435590561847379,0.7803834063311339,0.23636223730676542,-0.8177821527515495
-36.0,-1.1475802799336305,-1.2664681056978286,-0.1188878257642092,1.1574494411200715,-0.4885855486911215,-0.7436798492966064,0.7595233695069572,5.196074891165937,3.636123426944313,3.487652661241033,2.688039940469289,-1.788961812022205
-35.0,-3.10074075005038,-7.5804470235665224,-4.479706273516296,5.37594031599564,0.7204397586619992,-6.015179740757433,2.829501343768515,2.216612450107496,0.4362970983232345,-0.3736996080332773,-3.287248155237443,-2.769029014251351
-34.0,-5.213284158215599,-9.281394194996055,-4.0681100367806335,7.210779638940129,-0.6137121970984215,-6.666642217748908,0.862943237834011,-0.9834574526585446,-3.950578234561129,-4.953476626465741,-4.82432758302426,-1.7739716943510415
-33.0,5.549829846926806,-2.154556081244846,-7.704385928171838,-1.64937206536439,6.670673570829974,-4.920794342396577,-1.409822126253475,-3.772385878191057,-3.337906226984963,-5.578058685804484,-1.854224790015186,-1.722413639540027
-32.0,4.32606379869576,5.254020074158495,0.9279562754626758,-4.816336935064808,1.6668873619782165,3.106857765879762,-3.572038778710677,-2.4013056323481243,-0.05426530508706362,-0.16850537461141668,-0.3866523497236307,2.372911297683029
-31.0,-5.03434454158355,6.246815054317647,11.281159595901201,-0.6307269096152011,-8.191201313038281,8.791024223500465,1.9014989727974438,-1.5515764918064974,0.5035533155984139,2.5973679536895764,3.199740465721318,0.6529464718285196
-30.0,6.081116777985745,6.9934700164472146,0.9123532384615087,-6.562211826722366,2.62414096386038,3.9125459781157845,-2.953955345357973,1.2690083816801545,-2.112034512567311,2.0806798462157134,2.474907235479349,-0.08216028609738113
-29.0,0.6641005330190424,3.2647615435748687,2.600661010555921,-1.912699493834158,-1.0155258027994527,2.9001994172981824,3.896498832270681,2.878093655593711,6.579255395221882,5.354285318542129,2.8204577540526685,2.983451034300949
-28.0,-8.730217928258476,-10.222522955822523,-1.4923050275639058,9.524839877234898,-3.595886516470428,-5.809089074980772,2.223794343824958,1.5166769921876813,-1.1622407463445907,-1.4459720801768863,-2.4939373121711292,0.2053266363850781
-27.0,-0.7344979375810139,-7.621363481994317,-6.886865544413259,4.143388568837182,3.0932282637533497,-7.288295004100698,-1.8286251001827158,1.1245691552317962,-0.7436113256487142,-2.1386601389407436,-1.4932983269732973,-1.9122343584229786
-26.0,-1.1032435286068332,0.5861025894816487,1.6893461180884155,0.21869708471273563,-1.3812000852008002,1.0960805458106,-0.936655972747549,-2.9016719241449858,0.773086740956521,-1.3167572433152543,0.14877294211103087,0.5608183891787932
-25.0,2.7021116714811364,4.020439789556271,1.318328118075063,-3.3286458048721377,0.7092476181504451,2.69885637109881,1.486275600564065,1.666706810309788,0.13639448518160163,0.8028004131603876,1.2330670532217474,-1.9718213924695422
-24.0,5.443817576003545,5.909129210063291,0.4653116340597172,-5.728969272209209,2.4329505388262262,3.2124420742489237,-1.5487436193730553,0.5059217421231134,-0.6040811225689922,-1.4400572986719964,0.8614711818539165,1.796322132713761
-23.0,4.622575055552561,0.8110152188383979,-3.811559836714066,-2.69563594632097,4.245149790653717,-1.4738106197673353,-0.849700626770271,-1.1528328572578666,-4.251527266876194,-2.714142355017674,-6.070988253691016,-1.1961114221750349
-22.0,1.7485240720508615,2.3336085744707757,0.5850845024199882,-2.022176350838686,0.6137051715417043,1.4923173200039612,1.9065475018674722,-2.0365377904248785,2.861895879069143,1.6368449396228744,2.646632117823219,2.2509374111271687
-21.0,-5.679135963086524,-4.48259538860401,1.196540574482556,5.101287892401174,-3.4838047969807557,-1.6794208723746693,-2.5204069340003894,-0.5070898843495705,1.5958750653886895,2.1414798268687822,-0.8142382666188495,-0.326000728441991
-20.0,-5.9513217397134195,-3.6075281924510936,2.3437935472622287,4.805093861757425,-4.195747351305467,-0.6594055510732708,-2.3177623027667553,-0.8585444256386637,-1.2752273988739773,3.6243682559057326,3.2693708881104264,-1.8280931591953424
-19.0,-5.996494558894086,-6.140507898195204,-0.14401333930132276,6.02326261892296,-2.899412335381151,-3.164324138131832,2.3766803706414628,-0.3164969551718616,-1.9364562244177865,-1.3100991940941626,2.1001636198460014,-5.220226514158861
-18.0,-2.348185541821317,-0.18826458915154998,2.159920952669678,1.231807056056952,-2.230225510582694,0.9647640066958512,4.414164500900729,5.010137063932025,1.194492381422894,-2.1949942276890186,-0.05124858509488739,3.8037188075968675
-17.0,5.7598114067570325,6.963780042363261,1.203968635606281,-6.311097377169699,2.3013342957906238,4.139027262643219,1.3733784228708497,-0.7912442354448266,3.0007457150905252,-2.1525423436701905,-4.1785519337937345,2.6754986806052345
-16.0,10.8482254331846,5.953898976619235,-4.894326456565132,-8.422013585108685,7.897370919591974,0.5024552443119961,-2.242976649693517,0.9725289769944743,-1.126862507801138,-0.6689629222421141,-0.7164087770669327,-0.6219991630965778
-15.0,1.7210128402904958,-1.952390621312174,-3.673403461602413,0.10038705304683937,2.6492297918586556,-2.7638439500701586,-2.3445670340141698,-1.772099690748449,-1.90735991917254,-0.022796564615970127,-0.3376092030763046,0.9969508028242502
-14.0,-1.2866720245790013,1.1885888030450675,2.4752608276242016,0.03803643630566411,-1.8456884598595735,1.8029495266650128,-2.707545329934667,0.9594942511084623,2.6006827821160505,4.945413909411297,3.09725974457161,1.5711800393765825
-13.0,-0.2723038619726288,-0.8062923557116061,-0.5339884937390502,0.6098909776282793,0.08953176012055297,-0.6950714788042394,3.6989919496366164,-0.26568872131608845,-0.499954730038505,4.293183935897991,1.3522339413532045,3.2754875080201993
-12.0,-6.901080965776256,-5.143196967949514,1.757883997826485,6.0147778929964035,-4.372160003049888,-1.6327824340499892,-3.2154189338539014,-2.8507555624052925,-2.1766426622616253,-6.384254161426485,-2.8513431963473286,-4.840947438778044
-11.0,-2.3770930166422124,0.7076652276993203,3.084758244341283,0.8251111488764749,-2.699484267944396,1.8829983117133822,0.9629523651343844,-1.5503174584573847,0.8749786705894409,-3.3927245058932285,-0.11735348520339817,-5.088803073664765
-10.0,-5.375389041957458,-5.103223447183249,0.27216559477407576,5.223672914244038,-2.798784960006797,-2.426116235895253,2.6999287532775478,1.6158346258290721,0.4386002133158773,-0.5816654632247504,-0.7128536919317155,-2.188391201228241
-9.0,6.807336245160883,1.3833119735108705,-5.42402427165004,-4.120498814612269,6.134277971576008,-2.0332022669667476,-1.3770959367186253,1.7227456994264383,-3.696332365485105,-0.22222929987595091,-0.5990147650525052,2.2703169484449184
-8.0,6.361719506698384,6.047011446817418,-0.31470805988098105,-6.240846491701875,3.3520105930808053,2.8459691275847514,2.8678206860238853,2.200593580787153,2.364889636009686,3.441291268723484,-0.08368264062741268,3.9009053505941393
-7.0,0.3281950436712089,4.410157511562232,4.0819624678910555,-2.3370863827991424,-1.9442178734952997,4.215202118379742,-0.6455857452121289,-0.1940357294483641,2.4531694606981502,5.018770591693373,4.775456349176167,4.960641787931417
-6.0,-8.776729712466576,-5.585457226725532,3.1912724857410826,7.207111574114076,-5.9724165497976855,-1.1600730189248032,-1.4614112081766748,-2.642519667740615,-0.5932342571054621,0.6578445884488686,0.4054887696687499,-2.17500970598794
-5.0,3.398693127352791,-0.009820321507829632,-3.4085134488604765,-1.6686144552176643,3.417499520568428,-1.6798448967234043,-1.8776542768454942,-0.49325225014326035,0.5427995474476159,-2.801765857928255,-0.46158277353729604,-2.782820997689131
-4.0,3.9262144134428927,0.8341391262947913,-3.092075287147889,-2.3489501775697565,3.526651842722653,-1.1018537968297593,-0.012174631548037107,2.0740148427978156,0.9715867358859254,-4.729781110366831,-0.8941318675900357,-1.1794811975674346
-3.0,-3.7137074453749106,-1.5340880806045132,2.179619364770524,2.585190189680179,-2.925445881035794,0.27486653903377944,1.2662225184861298,0.27991271016608643,-1.5477309477107726,-0.48769609118003165,-3.3981431052457927,0.4667292293196956
-2.0,-2.95084375932232,-2.9316413148101,0.019202444512199657,2.911695597353169,-1.54006620547722,-1.4170745559587352,-0.4650013231591892,-4.459098872770612,-4.02341417703227,-0.08025193675658593,-1.7687507767776074,1.1127387539699871
-1.0,4.537806961628309,2.092920558121598,-2.444886403506906,-3.337979206887235,3.5153074248147407,-0.20523944049141252,1.601317729952961,1.925780419634403,1.4940485154000882,1.771519906322038,0.20356971935013202,-0.37313508787271094
0.0,2.6304321765012144,2.608336815790842,-0.022095360710613743,-2.638429150000988,1.3479933635003993,1.273664649078891,-1.9078772674787325,1.4016119020396194,0.024661116725698817,1.6153740255704045,0.6386593045915698,-2.0519455896709413
1.0,-2.1810589803999787,1.0450824920424735,3.2261414724423463,0.6282899572597351,-2.764569334787753,2.1235364209433,1.6752619375136262,1.9150841304021107,1.1655490158214667,1.0265164109253213,2.7351837448188987,1.852600806408924
2.0,-3.869683762557805,-2.242686135654708,1.6269976269031572,3.0365632712398907,-2.734561027825441,-0.31577928681168266,-1.3351055299848094,-1.851650716213997,2.0028809567784367,0.5495413235540906,2.1764078244232685,-0.8225331426354645
3.0,2.2699888117424947,1.6110611278714673,-0.6589276838710181,-1.8832537408612946,1.4762185886633727,0.5477928679275001,0.6507485366020591,2.074825292107433,3.4431726243894847,0.4723077752948073,3.0994450725232583,2.4530802354408365
4.0,3.158951668000858,0.7556202142990809,-2.403331453701761,-1.9809202557670136,2.7944689884012477,-0.8328279813756811,-0.09352900862879852,-3.0037220334598183,-3.637680233353114,-2.911255752947246,-2.692479927950357,-1.2225902698933644
5.0,-3.3640913510131996,-3.131677138337072,0.23241421267602802,3.2215304058090224,-1.7793344238355464,-1.4629892696074762,-2.4243348746283093,-2.7322190495366616,-3.8374218796703428,-2.2709055182129543,-5.08208915674355,-1.220016021781389
6.0,-1.624449220636575,-1.9036797023431307,-0.27923048170661213,1.7340276712426532,-0.6450863885401781,-1.1110903890193233,5.099345865843186,2.319636437811069,0.33108456397738006,1.1232859939341966,-0.23653462461248909,1.5068620945394287
7.0,-1.4928334449291507,-3.825375840034718,-2.332542395105505,2.7031873816414604,0.3781674609939184,-3.1058153919241085,0.4644984514519961,1.8347512183355421,1.2535443304517804,0.8717036714023455,0.03745818091495612,0.11883429670334258
8.0,-1.9768850635215742,-0.31694341202237797,1.6599416514993404,1.1073141973701819,-1.8518983571977903,0.716715411460851,-1.803180556985872,1.0674943045771321,2.600235660742205,0.055065918747163045,0.9140624974172672,0.2030741893044334
9.0,3.718184258651613,8.968982034914433,5.250797776262972,-6.308585853882853,-0.7945095823610144,7.07200497939476,-1.1138531788664858,-0.446921793715815,-0.7081128442965361,4.093874350818565,2.919097438444688,-1.598766044336597
10.0,5.810969914117765,6.370091599448418,0.5591216853307894,-6.057790748787069,2.6783604886501657,3.5049604081925834,-5.229749802484992,-1.3294095846765457,-0.9636596253036054,-2.4389945587986492,-0.3521623141642163,0.40927939667040303
11.0,4.477953756012571,-0.2023372880700287,-4.680291044082546,-2.183394348694839,4.630518511964602,-2.475769647053533,0.6231218234557716,-0.6890236278778797,-1.4867417750193777,-2.8979873075516003,1.179152081403505,-0.8856488121191801
12.0,-3.6204337891459217,-6.576307970414471,-2.9558741812686256,5.056144589155461,-0.3626528589399216,-4.714112495719081,5.1907167838318085,-0.2922968504262855,0.6730940829365019,0.9051480393198112,-0.41946553738317016,1.06041597133629
13.0,-3.375825916604216,-2.5841547499920097,0.7916711666121126,3.0224301642887714,-2.11801323142649,-0.9136214180232063,2.746652391731806,0.9677606859622392,1.3239345796992108,1.9641662180340687,-2.3833549259092153,2.649051782099212
14.0,-2.0318489949682195,-3.413703935817627,-1.381854940849462,2.7725916404769557,-0.362898589682886,-2.4069523616305655,-0.8562340456422874,-1.5979512495012413,0.44943335597023665,-0.7163433492125408,-1.7431097240996687,-5.008774110683669
15.0,-10.184746590336871,-5.161163942159494,5.023582648177297,7.651080476355324,-7.565723470069071,-0.07386724324341953,-0.1857879425794925,2.762115428951371,0.785576674914253,0.25446349692354014,2.196365511494065,0.724418374541691
16.0,4.142852704538926,5.243028355409079,1.1001756508700904,-4.710161194801081,1.5590625755016658,3.1644514374706816,-3.739649739539215,-0.26640253436135264,-2.2390319072474796,-1.3878008151909673,-0.6488175122547496,1.8345705993421644
17.0,7.509813218850158,8.593578364426152,1.0837651455759039,-8.068398534716437,3.2513362105163357,4.822735610365459,-3.8023599683334153,-1.4139466566809276,0.8016079131585127,0.4283996695594903,0.47880231666270906,1.6675916858265156
18.0,3.03298007425842,2.1444012700481716,-0.8885788042102918,-2.6097057664126657,1.9211068586716804,0.6764153232746302,2.4813441585219467,-0.11395931807163528,-0.32615210037548015,0.9514825663284251,1.5298766280155742,-0.3006169412999625
19.0,-0.581159888114831,-6.1091938833447355,-5.528033995229873,3.394407672777657,2.4334961493964675,-5.866025258815005,2.848045482126521,2.4434782092760425,-1.4600519342506828,-0.9225983263441371,-0.0164840605766996,-1.3788649599864697
20.0,-2.589276114158287,-2.2571017999751675,0.3321743141832094,2.3827197303691574,-1.5024276717382479,-0.9475888251201501,5.933150241859492,-1.0729954845301148,1.9534711834277554,-0.0022562008317121088,-0.44932895688670793,0.5835574089671518
21.0,-1.4331690826771373,-0.6700757894804517,0.763093293196798,1.078769926908008,-1.0636607741250566,0.049273097223685225,-4.274246631425225,-1.586388225045197,-0.270047889506687,-0.26984852741179827,-1.1649421769366552,-3.324708118409043
22.0,-1.1511759033403701,-0.05230571158489794,1.0988701917555457,0.6196947243199464,-1.092513426920705,0.5211767141509962,-3.040410481236322,-0.9970257021755347,0.3135818434396898,-0.5838689375869087,-1.7272378919978126,-0.3038068454629863
23.0,-0.7475453515195423,-1.0918189299188574,-0.34427357839921613,0.9319067062851464,-0.1691773373996579,-0.7164143722429771,-0.2596222277505824,1.9925020866792378,-0.907898380357999,2.7737568812371514,1.2361090989588366,2.405041014240222
24.0,5.411254938106506,7.228402135083962,1.817147196977562,-6.387844630623665,1.7529891148241743,4.536139826716923,-1.6476530721219538,-2.636332404604288,-1.4697388075082523,-1.5504991102986556,-0.783831972420476,2.218943816450673
25.0,1.2104661298615562,3.876768104269057,2.666301974407592,-2.5300497914970403,-0.6894867664449493,3.302064279521514,1.5067258067090508,5.64012757926136,2.7908476220559866,2.4086455680573415,5.515305961886314,3.097590589261497
26.0,0.06022303418604957,0.31241199051503,0.25218895632899335,-0.16613253810439155,-0.13249691609801223,0.2527470168354078,1.9006834985427317,-0.8909998680920632,1.652088766330713,-0.5972238653653252,-0.49307501820297284,0.0006298574822246605
27.0,-6.042005923936117,-8.444824799455738,-2.402818875519676,7.272804918838787,-1.853682390382199,-5.437437567206741,1.9813160988319058,-2.8949856843836272,-2.720658523985533,-2.2978671880408044,-0.6953703076699175,-5.571710285007692
28.0,-6.765115357161017,-9.256220549507887,-2.491105192347024,7.971250204059063,-2.0921193207915048,-5.8774061945001375,-1.0619336568049105,-1.2216166852513004,-1.2727935261111847,-2.1725351274398417,-4.446898869768044,-5.779180013156263
29.0,1.000860312371497,1.2183981004199742,0.21753778804829316,-1.0618562488763033,0.3558193632201742,0.7165136323410879,0.7706238099336089,0.2857507400480721,1.4885979700690823,0.6185647823874432,-2.0189730883755685,2.269651766160061
30.0,5.268479724543143,3.5343968461648236,-1.7340828783784599,-4.4275364541945565,3.5406406775152215,0.8940268856270297,-1.8569140774198412,1.7257752177527683,-0.9885122604614729,0.7556406082536091,-0.6385392730094424,1.495465381168405
31.0,4.562630650968185,6.570566936051144,2.007936285082915,-5.592559682012251,1.31251366248982,4.27387704392764,-3.426884358757906,-1.0640333444853893,1.1350925268645877,1.9686058579109487,2.699159830816094,4.308812716936644
32.0,10.441418265885728,7.565334382356835,-2.8760838835288434,-9.033744929748309,6.611323457163876,2.397485550178407,-0.07310831934978257,3.641085683167043,1.965641147342671,2.782385773315428,6.147107115828205,3.9338364443379397
33.0,-1.1427363424916646,0.6242693324381969,1.7670056749299767,0.3002277285657966,-1.5047905713361625,1.1610910296675692,2.999403272863539,-0.0022370331800647403,-0.2637499836822267,-2.1177455054260226,0.8439794020774931,-0.4841495334952224
34.0,-8.169385328450318,-5.275928997451135,2.8934563309993457,6.755649444668265,-5.502776402770718,-1.1517700209819517,3.5850839505598033,-0.8599164618873874,-2.2210935989775473,-2.2062359735948425,-3.775386902915706,-4.169767089445597
35.0,-11.327798424044587,-9.383401209645346,1.9443972143993482,10.303517286022613,-6.604695720101207,-3.759064412109922,-1.5186737576154523,-3.432832658908177,-2.0653028869892167,-1.019926772820876,-3.0985440729806237,-4.1652684065802195
36.0,-4.11561182529231,-2.7086592229340614,1.406952602358273,3.435602463571999,-2.724259533450207,-0.6083994980535881,-0.7865093376872002,-2.1349342960319677,-0.7077507938192811,0.24201194108066726,-0.41456571520311236,-0.3090901382898794
37.0,2.318273541484083,1.6919576074974034,-0.6263159339867457,-1.9815019344997946,1.43804960352541,0.501461035160538,-3.230356317689629,-0.5229570426386022,2.2378781915513875,2.0834957989811107,-2.3036996303053687,1.991604353676445
38.0,7.425572580356111,2.1810372728498573,-5.244535307506393,-4.7770764540842245,6.308479149887135,-1.55863727004375,-0.4133284136715927,2.940944982852209,2.3935536799131336,0.2287505515717687,2.760441073204136,1.9755690464177538
39.0,6.012610081123028,6.732442386846964,0.719832305723775,-6.421364232231616,2.6259102838687376,3.7802827531397214,1.2747086532266345,2.4581538113786348,0.9406698372674627,1.349552581797304,3.86063260541717,0.7736101018553962
40.0,4.2006553894551,2.2774226838719325,-1.9232327055832823,-3.284240216379195,3.123447873227474,0.15173709279738934,3.1285349784520893,3.661624724792522,1.1309046600266475,-2.4487107860457287,2.0587464724890436,1.4924953947005086
41.0,0.7861158897255669,-0.0882427617637449,-0.8743586514893666,-0.3120364466371559,0.8128318997538114,-0.5102456913225357,1.8321127526284555,-2.4246499083190347,-3.48777409341694,1.523803331607874,-0.9548055171088696,-1.208820705312085
42.0,-4.026722292927048,-3.5218741299880687,0.5048481629390376,3.7361369385498486,-2.286487569075084,-1.4639790633934868,-0.4392198975172037,-1.3756532897139129,-2.690167155173312,-3.3450202437192322,-4.524094280315765,-3.612840889398479
43.0,-6.441379691792054,-3.546930042275085,2.894449649517122,5.0395974101849355,-4.694163986716706,-0.3656789898764531,-3.0427032394215487,-0.7512821560698979,-0.05788694473986178,1.9541592978460423,-0.4027907070146517,1.9138811309425334
44.0,-4.369762622880099,-0.446222744645997,3.9235398782342683,2.4595945267916486,-4.100697152301196,1.77455813721064,-5.218436429346375,-2.5428295748102885,1.0609000052532664,-0.856825962040546,-0.8351408179498224,0.3594708210566434
45.0,-0.1389656916771913,1.3836635097434673,1.5226292014207787,-0.6431096899713733,-0.7911169136851584,1.4098852440566807,0.873737002385226,-1.0230911337762065,2.716873908475668,2.4259241368649547,2.2924512690064516,1.8301804889983762
46.0,6.234283412908471,1.5567378149009792,-4.677545598007474,-3.9117151265339696,5.411883901025481,-1.522184566986405,3.334972000045356,1.6824908767650455,0.8048511487504919,1.4698436707571279,1.689843413340696,0.31164577217421763
47.0,4.545608566369557,-1.3298011539014882,-5.875409720271055,-1.6234945256347042,5.163585623417732,-3.5595879995233766,1.9196110438243374,1.8411701189506011,-1.116175472245523,-2.3577995992973304,-1.6056842159609521,-5.211370895365472
48.0,-4.948638202053324,0.3465569168137378,5.295195118867047,2.2810634757989736,-5.090383380639387,2.790026368234871,2.7260760312630246,0.005762897686724555,0.46232897329726275,-2.4208891675424073,-1.601328614235281,-0.3650205913648137
49.0,-3.0126176384806294,0.8093481850567648,3.8219658235373704,1.072921207985082,-3.383187843933656,2.2876516454014286,0.3505869134166235,2.511017352961071,-1.512478224970405,1.5540440048273627,1.722574476465652,3.782556916213814
50.0,4.521507986847649,-1.2237475482800027,-5.745255535127715,-1.6097343739490146,5.093972522760125,-3.513018104258251,-2.3814062137922365,-0.9184970819763181,-0.030167439011579034,0.010160840869301913,-0.0033218381000076347,0.8908799163257068
51.0,1.338682104598825,2.9183589121360463,1.5796768075371799,-2.099557912119551,-0.07407737916147461,2.295527390553807,-3.753409114413658,-0.9102461908847839,-1.856546818423698,-0.33274877424297233,0.5192926463993399,-0.805964744957153
52.0,-1.5804964130932035,-2.8275956598988845,-1.2470992468057323,2.2259449874567805,-0.19149506199726068,-2.0749080722718576,-1.624622027672412,-1.762127444361272,0.9759012488703354,-0.32390762386230143,0.24986937268616533,1.4515826302882258
53.0,0.19963408427269347,0.8848282619685094,0.6851941776958503,-0.6018581769689436,-0.2612279337438854,0.8217493745083687,0.9548398467584722,-1.5275280826369675,1.5230804074418098,1.1590832982439314,1.72611202505479,-1.9821709286681157
54.0,1.6343220428513687,-0.33988022882036995,-1.9742022716716794,-0.6268543534295663,1.7895052377535858,-1.2003067538620207,1.6948822098181195,0.9276578474707362,0.5543838426297385,2.437678809770682,-3.2817626437223204,-1.3061107062592126
55.0,-6.696452413080817,0.4804429153446666,7.176895328425543,3.1322514471528042,-6.872605948941019,3.867311237274329,1.80077266932368,0.5451744830538781,-0.7413640405787567,-1.1342972326342402,-1.5990665921802405,1.5960081411658578
56.0,-0.5922400186818999,-2.006478427100941,-1.4142384084190311,1.249450274758761,0.3925433495640669,-1.6646683949012693,2.8717859919484034,2.5447277964704944,0.48080009997738576,0.6634751510019822,1.2171210149548304,1.5538460634041433
57.0,4.991554149913157,2.853538469387021,-2.1380156805261286,-3.890239686863108,3.5393188070128603,0.3334107187278426,-1.5102905352956053,-0.49150460831445186,1.0116409756918925,-1.9776100859700625,0.8759330096304958,-0.5569252447643163
58.0,3.6138726091252416,1.394317903382043,-2.2195547057432377,-2.47066674477851,2.8824749298787493,-0.42976672135314936,-4.358413376250358,-1.2734596693161255,-2.5566341904124212,-4.490117893355398,1.5682954667486115,-2.5132237423981527
59.0,-0.6583613377514599,-4.995114166770617,-4.3367528290192245,2.780009472997061,1.8752917265834346,-4.680234559015156,2.0142441310057406,-1.4587159419383378,-1.8282742893877226,0.9205711027363292,-2.1763884522091383,-3.102590715031714
60.0,-2.7165281473665814,-0.019973465494267373,2.6965546818722803,1.3185727264939877,-2.676277179815689,1.321151970050792,-0.8747221234594444,0.15106251074682453,1.8384157945572481,3.364940073547138,0.6467913154625513,3.518086876517375
61.0,-5.994411261704991,4.218327009227824,10.212738270932869,0.9144883057360591,-8.153693411924912,7.190631569331089,2.6916115228565416,2.2577346303010035,2.374332170572234,4.719975451141791,4.470358032837929,4.138700524696759
62.0,2.9164782351333223,2.0426412100830755,-0.873837025050193,-2.4534551523142056,1.9267744087961827,0.6280973132523973,-1.6077871981559062,1.2405214262851991,1.7571798001688728,2.5893884483845557,-0.8145571453107296,-0.4908795768008609
63.0,5.752718899070316,-2.7825663998161683,-8.535285298886446,-1.4560006683327327,7.182255374228337,-5.624496219953516,-2.527332573567597,-0.29618976923684076,-2.0983289757371186,-7.778301220777249,-4.73671331040818,-2.7791774976844166
64.0,-2.8822521734895497,-2.838384393810143,0.04386777967948463,2.8950834713314824,-1.495320791701291,-1.447174714331207,3.038210746159246,-0.3770851568398656,-0.6528484656217818,-3.0199394337569987,-3.746185232319875,-1.5132476991164074
65.0,-1.215290164281198,-1.0320019095651363,0.18328825471608434,1.0859937625112206,-0.7241376007888579,-0.39610236438179225,2.486156990291866,-1.3420589153664995,-3.6834897110270526,-2.1654236985723205,0.19872016142511884,-0.25575138274773423
66.0,3.7887526697523812,0.27345747213827853,-3.5152951976141233,-2.0643458800730117,3.631822519044639,-1.5886469798392961,-3.6794952201442106,-4.099288619365028,-1.642594658199723,0.26716531664663445,1.267822296863968,0.38728898613286544
67.0,-1.636831251090886,2.207656631416148,3.8444878825069355,-0.3178941666600664,-2.6810605506905456,2.9863076885042172,-2.009960623101968,0.24466057415188103,2.304201591745409,5.6388765311545646,4.5619433972126995,0.8678183290942153
68.0,-3.8176448655487403,3.9719468160767097,7.789591681625329,-0.03375957988281425,-5.824852148396581,5.847765806841245,3.485008141305227,4.66414941647486,6.181370860181196,8.360783074077252,7.85808119871553,3.942151782844734
69.0,2.198375927278816,0.2773578712649054,-1.9210180560140002,-1.277944594959655,2.034756914167379,-0.7717904151795567,-0.803530231147247,0.606408047941966,0.2756692096841804,-1.3487832492595828,-2.3634844552693592,-0.4362420482816254
70.0,2.4370437569812498,-4.148663919840811,-6.58570767682204,0.8906793110317512,4.483106197016447,-5.3957164590624345,0.6368422467828343,0.7296375532354793,-2.8215011292510828,-5.903481112696757,-4.976183028968247,-1.9838423729592876
71.0,-4.509260022409549,0.4690141646962007,4.9782741871058125,2.05460314047254,-4.69450081840494,2.7696010735101604,-1.604986079719187,-1.6303115687385998,-0.1336655103612625,-4.114002336616973,-6.209871418148275,-2.4414605502353046
72.0,0.8187742140178892,-1.359968085154657,-2.1787422991724505,0.2305237450408738,1.5496557495537182,-1.8097151305142636,1.5952815933201694,-0.17150120345260567,-0.07019451718146064,-0.43949053904246016,-0.23516583313298067,-0.5296006772345878
73.0,-1.023851200385723,-2.307072248403317,-1.2832210480175534,1.7122899607874567,0.10564694208610259,-1.8439459412950545,-0.21544408599210824,-2.678256964259368,-3.398711906822744,-1.4159718251618614,0.8348069024509294,0.20480202077061052
74.0,2.078823865043504,0.3509410140980789,-1.7278828509454174,-1.2368656808525196,1.883538876902205,-0.6647080838088608,-1.3013488552503725,1.3085582119589558,-0.9579377863627598,1.7923987442075893,2.7824646944909124,-0.31081191690648347
75.0,5.999741499702746,4.496738638886806,-1.5030028608159312,-5.261347846130421,3.7341684894218385,1.5194570790347628,0.44097406767820246,0.3552058586359229,1.1516092265005848,3.7942254799080315,2.492477133156981,1.3757818466978118
76.0,-2.8892824842202005,1.815938546975483,4.7052210311957,0.5289219887794552,-3.8147595989779592,3.2882006446764898,3.6725011295046057,3.9868713068012913,4.822171458567022,3.848989734060287,3.6739757218558737,2.9800091245700173
77.0,-5.150313109085129,-0.6885198826681038,4.4617932264170665,2.9123123525329664,-4.82684482079433,1.9243321940319047,-1.5456804062160068,-1.712932540859976,0.1703160740294507,-1.3461184483462958,-2.3075561462600844,-0.15281153465335295
78.0,1.1064581538374259,-1.0106191180679622,-2.1170772719053637,-0.0587160785664691,1.6644657957811417,-1.5931239994502702,-1.2663578350779277,-1.7834260044579182,-1.1323656591225226,-2.0867412143483546,-1.1521144171427773,-0.12121636161142688
79.0,2.2309431281780725,-1.4498606822196958,-3.680803810397732,-0.4077889890821368,3.0027601376386395,-2.5854254205868292,-3.939637571930541,-2.28088138674816,-2.413947877780392,-2.8396095068875993,-3.108057637266479,-1.7950347342858843
80.0,2.524349509859741,-3.3381277144253283,-5.862477224285075,0.46111242984714707,4.15640189849721,-4.617299918181379,-3.9021845356797056,-0.8175137555556256,-1.3546766698426127,-0.4015013712095936,-0.9723690967306666,-3.0581627706844827
81.0,-1.516875856799745,-1.6454776967726388,-0.12860183997294472,1.6286608234675606,-0.7348634821027238,-0.9081925101076902,5.294819940339126,1.4296741125000032,-1.0021356531489987,-0.8268657859283745,-0.10435079685292592,-0.25206291703605155
82.0,-3.3594043911153464,4.602479459738706,7.961883850854008,-0.6586707288307274,-5.624419841202376,6.2513374342584385,5.70230096298214,3.1046560112065147,2.969082845786269,3.2821175806067595,2.531460075547182,4.147902558188622
83.0,-4.8641336811028895,4.856400649678528,9.720534330781371,-0.038726872209726815,-7.334321748895723,7.325048481311662,6.049842867136711,2.90627935241785,5.686447751746645,3.1558824834083445,4.6330047007801625,4.0700710910126325
84.0,1.9054967262329499,-0.963672171236936,-2.869168897469909,-0.440329205696112,2.427332316976921,-1.888355331000093,-5.192690875234793,-1.8666960409170403,-3.156324747872441,0.3035891243714284,-0.9927402642223293,-2.0998952094714367
85.0,8.068326989085145,-3.5706377529110243,-11.638964741996153,-2.3025676504168127,9.82087601145607,-7.579329279809135,-8.661551394948534,-4.894978162824237,-4.4651977741631175,-7.498207240993141,-5.315812687745433,-6.909984263370162
86.0,-1.5507045384809963,-0.6270516715084968,0.9236528669725468,1.1093428289937977,-1.1830802889697836,0.1776540916599867,-0.5332171953619991,1.5112380876355913,0.857074535078074,0.11357150951163764,-1.6313370049374951,0.530878503478815
87.0,0.5764206161242069,-0.12294364432461724,-0.6993642604487964,-0.20845113237252616,0.622092126636412,-0.45226357502715153,2.1067617494447766,0.6480756633688409,-0.006755435499140483,1.1930777383670623,2.341510852715198,0.8504180609700491
88.0,-3.2506432967199874,-0.9435499276328229,2.307093369087175,2.1166146458580903,-2.7870775015058715,0.649709498894319,2.5638301026702655,0.27558055080283694,0.19316164658701784,3.417995303070849,1.9336838155057081,3.5752443923748727
89.0,0.6368975648879411,0.6763604418535594,0.03946287696563955,-0.6324713531951666,0.2948125436081468,0.33198703510023553,2.5796322239553433,0.957123302005185,2.4387853885859005,3.7075420515712008,2.5756031650280273,1.6785402047415114
90.0,-0.0940415769373526,0.2340688157810017,0.3281103927183555,-0.11770282562109224,-0.21533975919744885,0.3347520346022177,-0.6012450673527683,-3.6487420159129558,-1.7550103458255009,-2.203368110532395,-2.2894191793379814,-0.3022767417946963
91.0,3.2985689922414485,-0.4738543115629922,-3.772423303804528,-1.3739294550595562,3.5259962153535676,-2.153193655440104,-4.387333070207237,2.637123579112692,1.4373220221975231,-5.0953176244677,-3.9710055505929516,-3.4538475522367
92.0,0.9273100468191192,2.793105238609463,1.8657951917902258,-1.894313203139104,-0.4877902761238715,2.3686663671410844,2.58385616396622,1.7955973352968317,-1.3115273690180151,-0.633934389905888,-0.5780738155058001,-1.068337544913467
93.0,-4.573438097395844,2.664825720366864,7.238263817762695,0.9245672282749346,-5.856496027884242,4.900578241794781,1.3713819245944578,2.0916873963443963,3.0905108948732947,4.223007847816206,5.34591350958522,3.612346223806991
94.0,-4.591809872287676,1.1301197017889542,5.721929574076724,1.7040448940385586,-5.1966013483116384,3.443514935662581,-2.146666687629703,-2.0544826186671807,-2.3432448059775512,-0.8869128546252116,3.6724677710666542,-0.508174554768972
95.0,-2.6799388193591303,-8.50133583505163,-5.821397015692396,5.6451629537819334,1.601830909509372,-7.150189119066782,-1.3657048080033778,-4.654123718097993,-3.0457418677415133,-1.7175111869443374,-4.7098359802208325,-1.3205751165515727
96.0,1.8275916904280791,-2.7700365943814313,-4.59762828480955,0.5287502491873264,3.239243261212568,-3.6731103496793667,5.2318181675267,-0.8621189604401043,1.6199292813150963,3.068224733998709,-1.0752283030142493,-0.34658409658180367
97.0,7.42142130260342,3.611758691072078,-3.809662611531448,-5.534633684065799,5.5624486187158855,-0.0823603788417584,-1.8062645701634306,2.4659847347532633,0.40724306380569364,-0.4886819687363786,-2.354106611273603,-0.45285087361043314
98.0,6.081207319049552,0.5502774936367234,-5.530929825412898,-3.331768741531688,5.833548465197577,-2.541268666082008,-2.5438426517549897,1.3562207882829673,0.7052687913858922,-2.1191436325929214,-1.105322598467593,0.42766058844098903
99.0,0.6532108432957959,4.514392325678305,3.8611814823825337,-2.600642988188473,-1.6516550147763147,4.230097957661251,1.7441895849677103,1.3928483851674789,-0.6508847636898819,-0.08103235393556962,0.8892068831431522,0.43378757009884966
100.0,-2.7580898752420357,3.162642023352782,5.920731898594921,-0.22367977321120047,-4.303977238284924,4.520486412828527,-2.585289011509183,2.5232124040401724,2.7382462208741045,2.4740500641508003,5.436929727702015,1.602373733685632
101.0,-3.3133425791413553,-3.559183897321302,-0.24584131817988375,3.4071451484024466,-1.4940815283289561,-1.9101953892068781,-0.6041539987825446,-3.6366799011750164,-1.6833024220982407,-1.0709774451057874,-0.12727852506472548,-1.5087471635035863
102.0,-7.44146928168894,-3.0176579407180943,4.42381134097075,5.270407119276198,-5.968252439373797,0.7052757557570436,2.4730304236049205,-1.1566403574766373,-0.045374655752553394,-0.6275658882392773,-0.4672866165603141,-0.0973669269752706
103.0,-1.9618994691844955,-0.46718669143655456,1.4947127777478155,1.2482961380672983,-1.7615404199456406,0.5210618621168399,1.700269142852449,-0.592483799562818,0.42801875969650105,-0.10076851162981015,1.3292362313375488,1.8098133209583869
104.0,-2.395802631924073,0.9115370472545425,3.3073396791785674,0.6940791537202186,-2.804659064918302,2.116714561506032,0.6993495119478933,1.3959870229845137,-1.2873281474608884,1.6815347631042679,-0.8586193862977085,0.46869422371662733
105.0,5.425325133399966,-4.202534286370366,-9.627859419770335,-0.578751239310883,7.495675457052851,-6.912666705773791,-0.47155625995871103,-0.13409474505457086,-2.353992775794531,-0.8350303470912166,-6.439962671546839,-1.3902687434226724
106.0,11.461479129165912,2.028824778443796,-9.432654350722101,-6.706299633343324,10.417218990059094,-3.7078021982161333,-1.8067608223354852,-0.6151145904183895,1.2346712372968502,0.07142437460846816,-0.4557311395262573,-4.12856428355998
107.0,-0.28891940020010143,1.7230269753315044,2.011946375531662,-0.7486023529790895,-1.1000172053543453,1.8511048259929717,-1.3900561972308814,1.8827031975573183,2.7861983020472807,-2.335456763971295,1.8535798382395252,-0.009249838109417041
108.0,-2.2003075187710177,3.6474401642459906,5.847747683016992,-0.7472341643404392,-3.9720495894868226,4.720550724958194,1.3597018138788988,0.32958916999580934,-1.3102757378196779,-1.0961945063627005,2.361700036061891,3.4517103631993558
109.0,-3.472308414168663,-0.36934077648744124,3.1029676376811866,1.9025168194774842,-3.313855983288162,1.4094999107098305,-1.8513243732535303,-1.5901670576882139,-0.9479409909501259,1.540733224728422,2.7418588746389485,1.6767381433857083
110.0,-3.641061551441947,-1.4509318614454738,2.1901296899965192,2.5297447124343755,-2.9433986667769214,0.4060936168092033,-0.8180053049113043,-2.873253044854937,-0.06624880298559133,1.5986190006357852,-1.3321516000949547,-1.3788715931712279
111.0,-5.119341811639903,-1.8042714250972767,3.3150703865426285,3.523590339113638,-4.24903335279585,0.7099930542400852,4.2724247694235356,3.297783051178186,4.295819299980985,2.606075892208934,1.4954838154390935,2.0205149666139537
112.0,5.694628751311573,3.363425423770923,-2.3312033275406865,-4.548177013743139,3.975776805770323,0.5486370832474029,0.2430718920370225,1.344843094754841,0.4705366251621411,2.52918108164198,-1.5470032183332274,0.2804216760646764
113.0,5.86096295734251,-0.780325929464949,-6.641288886807485,-2.561833602119274,6.288536859627116,-3.756669350232949,-1.167502428906324,0.3700739840283367,-3.093174441898526,-1.2556746684599305,0.31149466141940696,-0.25246241577237377
114.0,1.565391034303961,-4.1483274313292,-5.713718465633152,1.3468254855630661,3.676466879017829,-4.897560528988851,-0.9542980940227931,-3.4895098055427365,-3.6958657440713765,-7.5543541758048605,-3.6907448285751343,-4.303049080538573
115.0,-3.7010008721810057,-2.8437971738877437,0.8572036982933038,3.247458422672004,-2.2375703494209764,-1.038110062037597,-0.20842481691928205,-0.7460341743496266,0.442131476980117,-2.379766140461969,-1.6486744512425882,-2.9990859764445483
116.0,-4.707592117536594,4.142418822435321,8.850010939971934,0.25565716831738017,-6.806905144225308,6.530952715446845,3.0963631188675835,3.4234150090576163,3.454419325744494,3.486674296176808,4.509808362531376,2.5328073858910374
117.0,-3.602739645739744,2.405945182952963,6.008684828692685,0.6469104507412533,-4.822758714861648,4.165263935853662,-3.1504877393642667,0.5333898268023682,-0.005930242627082416,2.9744488725303224,0.5784067179261057,4.264169009101138
118.0,2.3196492579168764,1.0623365251054542,-1.2573127328114904,-1.7262718095050893,1.7809555832518589,-0.05703219727228026,1.0158770419026975,0.22871984617166363,-2.398238112036288,3.483114371789351,1.1263565796041768,2.124069681964001
119.0,3.9409825190893417,-2.336820265377341,-6.277802784466758,-0.8437172134047406,5.106794517793655,-4.261439876948081,-2.4062827905755224,-2.605527827873638,-0.08269588756240549,-4.267589422094197,-1.4271732957040362,-3.660130956454956
120.0,1.5518765327305317,-4.400893416337501,-5.952769949068094,1.4551965204632924,3.7485178895252647,-5.203753280341951,1.6599567850534296,-1.8281552964589296,1.2338933703569164,-1.4354890747365832,-4.408135785302276,-2.385708974552361
121.0,2.3476545619673512,3.74550286219384,1.3978483002264857,-3.0207426388914085,0.4642022993613275,2.549496261632903,1.021375964364609,1.3812855054012199,2.0184980323054056,0.7873914924008394,0.9773129493923827,-0.46331989603786106
122.0,3.2407280598171773,4.954384327057288,1.7136562672403084,-4.073611665403412,0.7424347531957755,3.3137103938878667,-2.579183121328332,1.9605671717376885,0.6873428921766087,1.0122621574412083,2.968644997637352,3.7666233194707104
123.0,-4.289247751123121,-3.1252403204232517,1.1640074307001693,3.6541119404789892,-2.679790463797128,-1.0027984670458903,0.6341326927898542,-2.159820767054849,-1.334211841529533,1.045978941995378,0.3687018169959311,-2.1895656071010006
124.0,-4.359166145736869,-0.7258673481444357,3.63329879759265,2.573028511497698,-3.9576833122962856,1.5048596629448898,0.5187984879310298,0.7537978137358237,0.14703358564789926,0.5659143406012769,1.2374040080961837,4.162043947975992
125.0,-2.4391970828734886,0.7656452510872744,3.2048423339607774,0.7955141604142233,-2.8660913442255174,2.0284702771480037,4.6045737111543685,3.918705119175681,-1.5069850829151021,-1.0871929526905828,0.2207376112894539,0.02032989844886024
126.0,-0.48556876469845034,0.20220400864852484,0.6877727733467371,0.18658873808765797,-0.6297536461321351,0.4006130005892432,-0.9747509438077111,0.15928239997422255,-0.5177386503429475,2.2631885000025904,0.04622859372137744,-0.8770927620844771
127.0,0.21380124751439694,-4.886429852017214,-5.100231099531992,2.308494408600418,2.697581311757931,-5.045724292665443,-2.13785553244871,-4.176835308529649,0.4152480526134715,-3.6908817478811047,-2.6881697803932263,-2.63165511100972
128.0,6.453119115060153,-1.2684767357616793,-7.7215958508221085,-2.5384405417085976,7.134739917896984,-4.474138621870515,-1.9749195905739048,-0.3209733142268081,-2.649068539661931,-4.081996240591779,-1.9552085158911836,-4.568435265739329
129.0,-0.8039706932287038,1.4787480871711192,2.282718780399708,-0.363441401996462,-1.5684415947272807,1.9000093477411375,-4.132680990835793,-1.9049824666063655,1.5760377017607863,-1.0401649447049113,0.4556082475545513,-1.0655944930533925
130.0,0.6499864589337789,1.6767516359846575,1.0267651770509205,-1.194670938831102,-0.209929343045905,1.3735128723598007,5.010527554135015,1.1944151754651353,3.1162613995312856,5.886590981165623,1.0850955884130276,3.075425671529201
131.0,-0.4740740796100297,4.886556352670298,5.3606304322804625,-2.245359079546023,-2.9390946795293957,5.150788862801033,1.1850642867722676,0.431290557296784,-0.23383709197638458,2.566359614523464,-0.38038367851894495,6.164735239873465
132.0,0.19980534562119945,0.1510696744560147,-0.04873567116496069,-0.1434918278804318,0.09912112274634244,0.005651691810619308,1.384153620277826,3.3020364661549397,0.48384833172511355,2.047981409771721,0.6730198729067512,2.060526466357889
133.0,-1.5981417350068217,-0.015613193091263317,1.5825285419158521,0.834292354096521,-1.5414101111616358,0.820567670592967,0.8075720260737451,0.023203356400463893,-1.0807140750919453,-0.04671741237621019,2.970498986153864,-0.20981590072084222
134.0,-0.5339991363550927,0.9530368675427674,1.4870360038980879,-0.18130804285632474,-1.0438832579581223,1.1781191295623579,-5.10596675595703,-0.6027359798784493,-1.0304379165046222,-4.496772252004862,0.22625812346966856,-2.8438505216647054
135.0,-1.3873374040660802,-6.834344755137363,-5.447007351071172,4.066818138127896,2.0744864887124512,-6.187269115425532,-1.4517801040120886,-2.988747886984393,-2.4814404789123734,-4.554862873006796,-3.2739934758815075,-6.662165756034666
136.0,3.4015394486427244,-3.620851212492896,-7.022390661135667,0.1550229522437292,5.258750933464485,-5.296778413117277,2.6833041919237415,0.334147890843735,2.1371858638944,0.9588911961500108,-0.822497197365013,-1.3383561760702665
137.0,3.369120015654371,3.0950142409948933,-0.2741057746596862,-3.2537019973950128,1.7930098416400737,1.4284626480622484,1.4647821269764598,2.4822096179835675,3.0921246684153836,3.624779272672648,1.8124596674936195,4.285548544325451
138.0,-8.098231559577767,4.217240003200953,12.315471562778399,1.928376707027375,-10.233392753534186,8.281183047712707,2.857568554920193,1.338962556639716,1.4173012552809152,1.1542766735362853,0.6221457956383887,3.280988116091877
139.0,-3.6055398477578553,0.7454578966803682,4.350997744437985,1.422736052818567,-4.0061364350289,2.5653962356855096,-0.6444082080834497,-1.9662208400833245,-2.8548674303010824,2.2105330552394755,0.8036632176982978,2.5163581814924125
140.0,-1.4452474485463622,-4.263687567288338,-2.818440118742054,2.846533521826122,0.6534760327911213,-3.516241313716415,-1.3926378577637637,-2.387141289219733,-4.032695999081434,-3.2593872006869273,-2.745246256073226,-3.8865871434171178
141.0,6.1512168405620855,-2.3852799055419514,-8.536496746103943,-1.895796270492828,7.381616300262971,-5.504009786231228,-3.8936613626379026,-1.0289780146862224,-2.0903124076582213,-4.528261606034876,-2.430850083073338,-2.1514605182748094
142.0,8.05014937029942,5.566579872569896,-2.4835694977293277,-6.827819203566778,5.29664650159223,1.509130771046896,-0.9565612960119796,0.3261718131372152,2.4779978154570212,1.6880341203500437,0.7388359083013963,-1.072567507631632
143.0,3.5498599084094065,3.4893503023107217,-0.06050960609846867,-3.4659081162917804,1.829467999556774,1.7684417434210702,0.6312824084913802,1.9645761292431503,3.0256617143049036,2.365473572224202,4.484448587964225,1.1971765120605777
144.0,4.216537319860472,2.0575113889653567,-2.1590259308949604,-3.0861107398463945,3.1318818471258583,-0.0727848576123209,2.6940790878811187,2.9786018671157146,3.152063170709482,4.030741459454518,1.0742175792715092,1.9852964360376946
145.0,-11.926129512189764,-9.051117965170434,2.8750115470193425,10.460931772125946,-7.374919160074547,-3.1124445016488473,-1.0157625012770586,-0.39523124086852723,0.23526479730168504,-1.7512743260358443,-3.6804084917651476,1.6171559519102368
146.0,-11.743125296822575,-2.075160709306659,9.667964587515844,6.883127415868788,-10.674001829956227,3.7660938340489674,2.7592189840123553,-2.1989563992985746,-2.1114911973228714,-0.5319941860778681,-0.20139414060941352,0.7310582428074068
147.0,-1.1170490967608595,4.749501703313195,5.866550800073949,-1.8410549501624374,-3.5319331822250657,5.349462170028911,-0.07961524695324229,0.6968913053534715,-0.8576585290024636,0.5586176042016895,2.6851913228906605,-1.244020820156047
148.0,5.882100650189647,4.809176878309238,-1.0729237718805211,-5.371387266639878,3.4436564742678533,1.9038447105391698,2.572367948691711,1.4497412269639685,-1.4285552421985923,-1.5374304819243283,-0.4490383067545339,0.0025663286247015193
149.0,6.352924388159787,-0.286434380563545,-6.639358768723399,-2.98387069967204,6.5450581036885565,-3.4302460968368433,-2.217867816834254,-1.04372440688277,-1.3446833042320754,-3.813307111779007,0.2569962948212845,-2.280644948243331
150.0,4.897305863407322,-11.250676679796971,-16.14798254320431,3.220172585788846,10.493923213861343,-13.74582876987299,-2.4833093139224944,-2.989517455499129,-1.6556345680077105,-3.3217009744953976,-2.4148718965726066,-4.087996400595537
151.0,-6.439641196953054,-2.522245784861779,3.9173954120913077,4.438718999083506,-5.1301685705906594,0.6524212361800146,0.38797430215237494,0.5817679145142824,2.0068129157283705,3.679055138197962,-0.7378016413538699,1.6306094209065596
152.0,-2.6009981194140335,4.012645753160196,6.613643872574281,-0.7545100738795565,-4.641504802196235,5.348742588484967,-2.2434411921290014,-0.7311914328105347,2.4697240153393256,3.11910174362696,-2.9071057654791326,1.73265319853466
153.0,5.8485912855699596,6.954639892051393,1.1060486064814556,-6.37588100371566,2.332214645039328,3.9891847523284385,-0.8942194105543635,1.0829966390809715,1.8310155029177784,4.5027440184104695,4.073241238036485,3.535436466935611
154.0,-0.502035898266938,3.3834308875759627,3.8854667858428837,-1.4158938164186075,-2.158946675402425,3.6738815547539216,-0.8158239829714354,1.450358543727849,-2.9848655754749664,1.0987662055402578,2.0033991424992745,1.610845117244498
155.0,-1.9391388599821782,0.19691368948048682,2.1360525494625846,0.8987923961285447,-2.0068631283918683,1.2076928513813034,1.445097665971439,-1.1763020212371484,-1.067585019966974,-5.3185353171215075,-0.6450112016952727,-2.428034889704236
156.0,1.6303194722468004,-2.0697069425071444,-3.7000264147540056,0.1745671767703305,2.6930382067935956,-2.920727196760202,3.9743207210312876,-0.06862232171219025,2.242386010281169,-2.1257827064938026,0.9920026884464233,-0.676548563345476
157.0,-2.9819084065537784,-4.124389767118775,-1.1424813605650253,3.594048801020424,-0.9722322102467602,-2.6679815901520665,5.47474853122729,3.5120347640670624,-0.7371286213392128,-0.6169234683166125,-0.7659939136517827,-1.9784134457528615
158.0,-0.15703217308110018,1.0940811650713518,1.2511133381525439,-0.4999135124587988,-0.7569699596027075,1.217366353844497,-0.11843543243539645,0.9840244063263244,2.734584316895948,4.657330605970602,2.1622530001771465,3.3375187451473773
159.0,2.549144876109065,3.4127588219505416,0.8636139458416004,-3.0085008190084617,0.8698065631159947,2.103701748016114,-5.243842495543921,0.9825746788263017,1.5209502377508533,0.26063587051513104,-0.7189702232021649,0.586054988635083
160.0,-1.884655692586752,-1.626322076093118,0.25833361649374303,1.8070517019258747,-1.0412006138337229,-0.6414541864828519,-3.1305348165145293,-2.425644622616612,-3.351403128579435,-1.658836732752743,-3.3718140087887862,-2.7272643579972256
161.0,-2.4541059869607644,-8.07537041935714,-5.6212644323962895,5.234770668566022,1.6193977031999471,-6.887432429818203,-1.5816049617142562,-5.138097409623087,-3.7817999060951824,-5.279798922385622,-3.3054608515804604,-3.186916144563517
162.0,1.7694549823792216,-3.2706785391384683,-5.040133521517663,0.7160750504369783,3.369115699969286,-4.119605612070163,-0.9516775833218417,-4.241685369690083,-3.6243603036220016,-2.0755461201891063,-2.719339776914856,-1.2165428587080787
163.0,-0.06860901743925019,1.1737766067990214,1.2423856242382385,-0.5128781724814061,-0.6835468010688892,1.160835613779132,-0.9487380010899712,-0.40824417399454216,-1.463109539634074,-1.5778055952374477,1.2350185059195569,0.018734232948389717
164.0,0.40117682666944177,5.91742712372007,5.516250297050508,-3.12238140431824,-2.5005957179632374,5.744231745297236,3.7622747958810256,4.9044515353037195,6.009201066340879,7.870253350090918,6.237854411002287,4.455479771589067
165.0,-2.0173670606028553,3.0488589451783676,5.066226005781051,-0.5577465404377673,-3.5602846027927644,4.081704584555112,5.52537659178754,8.53757264167232,7.167836814706325,9.544245131520187,5.123081726129486,3.9892792822110525
166.0,4.313551860916728,4.170615104548209,-0.14293675636862435,-4.202979059422946,2.209499946176378,1.9574539880478508,-0.6012959690112449,-0.28929343786062756,1.064813811236339,-1.634043290696702,-4.245516273043725,-0.735826022023337
167.0,0.5320352502979216,4.325339658842166,3.793304408544184,-2.464284977492743,-1.6525944787424076,4.081533601313645,-0.5543962713638847,-0.07318805714840798,-1.3598405115111478,-2.3135701025651962,3.3756691633908735,0.45495151136107626
168.0,2.0286164784703957,0.2779769153460441,-1.7506395631243605,-1.1842424363600133,1.8633238642080572,-0.7129052099193507,-0.5932567157352513,-4.5063458224652155,-2.6384488351632642,-5.46675482927256,0.7842581878040487,1.123628159707936
169.0,-0.009592434535267924,-3.6626450736064204,-3.653052639071142,1.8882756969129713,1.8711101385402324,-3.6326080189723675,-4.004236172054403,-3.349704613288166,-3.046465026099129,-2.8363229001923815,-4.878238178844271,-5.1271303578041385
170.0,-2.149494058770962,-9.197110815270594,-7.047616756499616,5.650234850927511,2.498636234989294,-8.17448393026578,-4.478784548549434,-2.665947114478782,-4.698344659190454,-5.736202988598064,-4.52898980037587,-3.40667511795207
171.0,-2.6362259418797604,-3.775699089043088,-1.1394731471632888,3.185367343003314,-0.7734012229062506,-2.430816345810598,5.185542548208971,4.331580952284433,3.9511499798763,2.6300303424261227,-0.2499628075583895,2.377810879852851
172.0,-6.085866167586423,-1.8495823457300744,4.236283821856431,4.0271837088270885,-5.178836100083941,1.1401149009118998,4.627240756642282,3.3196965699317236,1.2416492221132165,7.382181681788829,1.607164906006521,1.5978477783083185
173.0,-0.9111136911187496,-0.6324985525256279,0.2786151385931843,0.7525082873814843,-0.6041775895376946,-0.15336107405231703,0.8940041738500497,-1.3131283566906018,-1.3026853013915898,0.3190002880113516,-0.030880696227934212,-2.9698269088063545
174.0,6.7032847181890975,7.5896065628545095,0.886321844665404,-7.167222584298709,2.9066047047102366,4.26026730991682,-4.155867956120917,-1.8115677286033023,0.22125918158138536,1.876464137434248,0.4153995334253828,0.9326222397958924
175.0,4.382717240140594,3.284324373575071,-1.0983928665655522,-3.8572828035790545,2.7433925415116334,1.1160470005856196,-4.703969538664367,-3.3582847849840065,-1.5793270214535902,-3.6147994239846906,2.4722797804549557,0.5016702590564135
176.0,-1.480299288814796,4.0644502340966495,5.5447495229114665,-1.2413610608925594,-3.508500718266367,4.7526806898268585,0.2018511468558044,0.8702585581446184,3.3849379350312896,0.8466633039672284,2.20412878208949,1.2795572092415484
177.0,2.7837020504682917,1.3762703454383995,-1.4074317050298428,-2.1131257576752347,2.0974093527637176,0.018090850813095027,2.1705593248953305,4.0728400567004055,2.6857612278708545,-1.0182337468732983,0.08610638884607691,3.346960604809791
178.0,-2.993826616782403,-1.7457383470075674,1.2480882697749107,2.410037809752967,-2.1237342617747736,-0.28468782520727287,3.0269382971841265,2.408532463525764,1.159237355247428,1.6400698944417877,-0.6157543098733754,0.2784291615671075
179.0,0.21655227992247017,-4.975561184361701,-5.192113464284188,2.335992503729071,2.6958501856695114,-5.03075977633969,0.022536114259534168,-1.5984351419627936,-5.5136093363620535,-3.6663002523159878,-3.706477918951227,-5.259777863086536
180.0,-4.162942187981425,-2.183435355217809,1.9795068327634828,3.204298577863483,-3.0851408111405183,-0.11825687795667017,3.8598899777345435,-0.2973177632761702,0.9808153812978961,2.2749399583717334,1.1666129868734423,2.998193736170237
181.0,-1.8746447007121518,-0.1795467455241746,1.6950979551877767,0.9766892444717983,-1.7242311864700834,0.7483301004152114,-2.723167191991852,-1.2898698271912352,2.225425572041173,-0.14832113461587287,3.5265399902394736,2.77858691864357
182.0,1.9778825349888356,-1.6635499797083844,-3.64143251469737,-0.1299511677692783,2.788918392661552,-2.6587543054908402,-3.589676173734855,-0.84180993958253,-1.9581925192975136,-1.1764947807821229,-4.357771329920327,-4.677187549939369
183.0,0.9827109054384836,2.3735208447021665,1.3908099392636561,-1.650500142643481,-0.2261588887636068,1.8752893094646308,-1.5127985764199536,-1.0987514115082797,-3.00920627518433,-1.556572403780487,-2.8409598445958366,-4.7271724162851605
184.0,-0.5864032324380581,-1.4739580608336045,-0.8875548283954425,1.0591287426630869,0.12768454594860712,-1.1911066254812377,3.2053596118946555,1.3053878005810147,1.6022053314193447,6.154520696110993,2.181927891147693,3.7934595110922396
185.0,3.2645157226251063,1.1881363480849456,-2.0763793745399655,-2.274786992725427,2.725412625663563,-0.459198348010619,-1.2254779502558966,-3.6707363231122336,-1.9090408278864102,-3.7170407842553725,2.0613575160099034,1.1406703758196464
186.0,-1.1059524673305758,2.275026332751379,3.38097880008207,-0.6324809018465072,-2.2687582401636934,2.8872446097398043,-1.3921122382088766,2.8135594043057495,0.8148655936709694,0.7387126262722133,1.2201651064306998,0.7468305714388441
187.0,5.4779485224113005,3.853597757200473,-1.6243507652108455,-4.635626588726241,3.523506586837561,1.0917154710845487,1.9002943141813025,0.9669612883325847,3.462954479481254,-0.5924414108453017,-0.07946829461645966,-0.5028172530438264
188.0,1.8899698802116704,4.11389481167399,2.2239249314621885,-2.973434714767748,-0.11904514542798733,3.2219479960240283,3.179491741319069,4.5763643352368035,2.8787941107608894,1.3005557562333956,0.39399591604358525,3.169284970228719
189.0,-9.62052202892847,-4.083706312131103,5.536815716797229,6.878427022930617,-7.613296463024863,0.6973313765976412,0.7744648295479706,0.8290847164614845,2.9624155222206756,0.34381304085365594,2.639165726394997,0.5924888232909888
190.0,-5.572271317254523,-8.114520698315115,-2.5422493810606293,6.78864462940468,-1.4750567751948864,-5.363133262580053,-2.7135392384362422,-2.673054429416203,-6.210465732409951,-2.8442781400268022,-5.252672114585421,-1.3332861031083112
191.0,3.5992182978315586,-5.480619168813369,-9.079837466644824,0.962521555329515,6.296535736374719,-7.322860658342916,-4.326274052912634,-3.125946404870173,-5.097123957765431,-0.9314643490176124,-4.486772684688679,-4.640399957593664
192.0,1.2407432614130556,1.6041104397900687,0.36336717837720656,-1.4023944818169116,0.4706178345956573,1.010685810304628,-0.8982879638211858,-3.800629543639757,0.15869217327260143,0.585207495108195,2.805373271087641,-2.114255042660376
193.0,4.474906549304352,7.6674951867102745,3.1925886374061445,-6.13092276515905,0.591334633198034,5.448647385731656,1.1337609912316906,-2.650991151204866,2.3436302893982592,2.22931570926265,1.2300525648745215,-1.0819484617522752
194.0,-1.560298382269568,2.156499881666239,3.716798263935997,-0.27874521901396365,-2.6113928178507546,2.949880480273723,5.794087018904051,4.612958328878194,3.826567914776266,1.341284058633118,4.063830864514527,5.788056430227004
195.0,-0.6158939264773031,0.2200838724190719,0.8359777988964152,0.2194081069078304,-0.6991397226195007,0.5399378326491462,0.3742814390426896,3.072366217762154,-2.308823463049653,-1.6783750277930765,-3.419590073072026,1.4416300908130446
196.0,0.19238309259049402,2.7435841788672994,2.5512010862766497,-1.442421071547522,-1.1517392870701428,2.661516604364689,0.58976193425558,4.060038250793453,-0.26242398156930324,-1.6580847293042202,0.8582246716506494,3.0788390361792715
197.0,0.5866908915488369,1.4518441146550285,0.8651532231059028,-1.0670369909381048,-0.1886230985944578,1.1765827958952904,-1.6628621622426478,-0.9669499551427754,0.20263545063143246,3.0145616030817948,4.587651661073488,2.934565538073114
198.0,3.5654274506486034,-5.912192766920169,-9.477620217569063,1.2099650681848775,6.474306803274014,-7.751965764110723,-3.0596692512862123,-0.5781148564697615,2.7981084315604976,-0.11355429160826302,-2.1553288026260224,-5.9196123899189015
199.0,0.43172652717652726,-3.4965284244985555,-3.9282549516752776,1.4945247157534753,2.214219351579278,-3.7674342807338395,-1.7803423262146942,-4.028710917397788,1.2872515391888772,0.6171687434653246,-1.7367881984759457,-5.113245517248833
