Time(ms),I,II,III,aVR,aVL,aVF,V1,V2,V3,V4,V5,V6
-200.0,-6.122784212042941,-6.707419863945672,-0.5846356519027023,6.468640922744555,-2.802729050948051,-3.6868665900256787,0.09351277271943158,-2.011905905863947,-3.406577319237619,-3.387234492639035,-7.538689235858366,-6.400220438678703
-199.0,-5.700795673696752,-2.338940053539311,3.3618556201574403,3.991832633865413,-4.484458565378925,0.47126319636131986,0.3781916211630732,-1.4086660671088649,-6.3182754923201685,-1.5729463576159732,-2.414287077401908,-4.029531302718254
-198.0,-1.5862922245950712,0.270844474902165,1.8571366994972174,0.6254686519084081,-1.7542098614254398,1.1012891102090407,4.582689086019213,-0.8834360009595221,2.7645625137764127,-0.1926066774927655,5.525548949518766,1.7600464228578903
-197.0,2.5363268074857475,6.555252963932982,4.018926156447208,-4.582131860043228,-0.7775560973053152,5.322877661472774,1.1030635719366284,2.4066874068623525,5.1209693889636645,0.46605880050860493,7.195456108192469,4.036910269347089
-196.0,2.684227210060387,3.6240223507208134,0.939795140660406,-3.113846894869734,0.9080858672700574,2.317749273961838,-1.5918275929057666,-0.29353992652932837,-0.6914888824023055,1.8000426108680663,2.375504578466503,3.8131709505451044
-195.0,0.14858320630772592,-1.4281720034816507,-1.5767552097893913,0.6812652652582156,0.81185669229459,-1.5427161595987766,-5.62923240266365,2.391670472515066,1.1715315039685184,4.580105360751835,1.3281726305686012,1.209342263387056
-194.0,6.777153062782658,0.5210169957748435,-6.256136067007826,-3.6817637914635224,6.537760538792696,-2.902682919710667,0.7377532101368653,-1.0934154061635326,0.8961441234050078,0.5490272680682537,-4.440778771882128,1.055897216910801
-193.0,3.7637707806920915,-1.932375977481942,-5.6961467581740415,-0.8631967072815059,4.747732919887395,-3.764180044718384,0.46770914909842853,0.09995962685773269,-2.0564746476090625,-2.1880536993534303,-6.8728864350204395,-4.997282078366758
-192.0,-2.6855175998454848,-2.247337961565595,0.4381796382798804,2.445591738213226,-1.5426679920803896,-0.9271867149698396,-0.9676232455575853,0.02252602026816225,-1.75596809151802,-4.098161202182862,-3.8324580939924404,-3.989220800464934
-191.0,-11.862542000196706,-4.259031999968743,7.603510000227961,8.041327160122561,-9.708212329753405,1.653495322186004,3.6966309776785913,-3.249595900341523,-0.7102331396688908,-2.7546790829573355,2.7345975527074975,1.036945207749878
-190.0,-5.182224814302486,1.8613956550959516,7.043620469398434,1.636429714125831,-6.159272858412541,4.51275160721635,4.223993752850317,-0.029510011798010494,0.892756884474754,0.9377099321176083,6.141057848902915,3.749813207904413
-189.0,2.582068552561977,1.6317735937826772,-0.950294958779307,-2.14108959631173,1.8048975475914952,0.31821734078524067,-0.366209998504889,0.7408402528351116,4.741737803882554,3.9928769578188157,3.8186189766945766,1.6598625737942785
-188.0,10.955276262013873,3.8677403226900777,-7.087535939323795,-7.380342742500343,8.983482347774398,-1.6401593132773105,-4.095101395279773,4.86102492873113,-1.3267864753443306,1.8992930885509847,-0.2652733763484578,-2.470327125008991
-187.0,2.3895906038495465,-1.9936024968742534,-4.3831931007237825,-0.17974212272896128,3.3448747200265485,-3.228332816147968,-5.241913532866984,-0.05873381463935723,-3.926435444155108,1.2976698517504923,-1.289387025172717,-0.18199010445647085
-186.0,-6.2521019769575945,-2.238708179537228,4.013393797420409,4.254859163572304,-5.104291404760261,0.9172331294367406,0.6986904948712245,-4.729415167950632,0.7846333390705444,-3.207309437449924,-6.412627534741342,-2.4070063186498785
-185.0,2.6974096304721558,0.8825283819392111,-1.814881248532891,-1.7830336587201228,2.2729734272239224,-0.44178465502148434,2.318996159037877,1.0851616691808763,-4.705066959759806,-3.5150911572284658,-1.9059271622997076,-0.7971692863179473
-184.0,4.6404706315044955,5.358984210553464,0.718513579049028,-4.988989175654294,1.9666104006849094,3.062635047010356,4.240777173501117,1.5496140228711184,5.116121962449597,3.4247795307433946,1.0695742575580136,1.1367380503060645
-183.0,-5.987068013116831,-4.09428965782243,1.8927783552944448,5.059675708605029,-3.941905995380168,-1.0726553826266088,1.069373849560498,-2.193702876829045,1.8460602577130227,-2.0043037851876053,4.382693853073916,3.0158390125343297
-182.0,-4.787678127240316,-2.250290175353107,2.537387951887222,3.469112230240475,-3.6664358846413347,0.09981052381092137,-1.6865751204557164,-1.3039632914241557,1.8579193941194858,0.4330600114489664,2.5138208547397696,4.028078001084858
-181.0,-0.8630198109244533,2.08200492484996,2.945024735774396,-0.6504477347186803,-1.9035590523732104,2.4765047035645336,-0.5022928907251756,1.515402883756786,1.0931632058476832,2.2848178103867043,0.4138105647193324,-1.974395247030776
-180.0,5.927137146002644,1.447015419571906,-4.480121726430773,-3.64276123531656,5.213775327777311,-1.4707837620490622,-4.488699258860182,2.5109943318937646,-2.3368009251476742,2.1456103001082614,-3.2256801888584166,-1.0353008617761936
-179.0,-1.0892161538154697,-2.292245526254502,-1.2030293724390755,1.6603437094640863,0.07987032918648262,-1.780482178181124,-1.8104465628455306,-1.6130642342682053,-4.239950323936627,-2.677232676087953,-1.9191252807264345,-4.76767069891704
-178.0,-1.213459653100048,1.004296225364445,2.217755878464466,0.15530134704876442,-1.7582040904734293,1.5748495826244722,2.7964606201739715,-0.9900397882620621,-3.3631646632257253,-0.8360483284800664,1.5166439047259084,0.3765936793657647
-177.0,-0.9787013336703656,-1.4060918454608835,-0.4273905117905342,1.1658547706825448,-0.30731116836607997,-0.8793354867185432,3.831225985870704,2.974553995042169,2.2645703226092246,0.9949696362962048,-0.24962750384985896,4.878729144485758
-176.0,0.8045781653135542,-0.9106313841217892,-1.7152095494353528,0.10607784178096336,1.313763044704694,-1.2805790632508802,2.7782849010546897,-1.1283623816004014,3.606554445982188,-2.6123572601126814,0.6546131492589592,-1.5928377070787154
-175.0,4.268789055562708,0.10365593799445899,-4.165133117568258,-2.2122421085017105,4.19371904160187,-2.0020339459648766,-5.369541023664525,-3.179830770607341,0.9532056893493888,-1.0245605735859424,-1.8325691668086366,-4.222250719097314
-174.0,2.94296698488131,-0.8324646417601838,-3.775431626641506,-1.083636295089388,3.41116285275861,-2.3559578000013013,0.7859317122844165,2.049447467457335,1.263828580950741,2.8035073759842666,2.3549050282464727,0.3275608251221013
-173.0,-0.4233181921171377,5.736676021808083,6.159994213925211,-2.6901012512071003,-3.3263771364919603,5.974156714263131,-0.05613813787992916,1.7104996018712584,-0.3346678479031505,2.3324681538922167,1.1125443879919736,0.7902258086401918
-172.0,-3.6113607945076462,1.8799753504468721,5.49133614495452,0.9033891571469964,-4.596807383272201,3.6320171929787697,-1.2723965883642832,0.8219850377703324,-0.5336301491566615,-2.090749457428523,-2.214467445272506,4.373719784220318
-171.0,-4.88578279846045,-2.315364328143681,2.57041847031678,3.628886133861991,-3.7061039717130533,0.15174740278240773,1.0343493301398685,-2.4258396251217333,-2.2588291213107183,1.907248948671356,-0.029342560541734897,-0.5417773270760744
-170.0,-4.272390589026516,-4.786555330570418,-0.5141647415438846,4.54802853464679,-1.8664666756340107,-2.6268717304416054,2.7351657214571827,-1.8447752043083907,-2.770392717326568,-2.4040067929372544,-0.9745569068148109,2.1583990681276863
-169.0,-1.0490780487628388,-4.36588865861407,-3.31681060985121,2.638832321017307,1.1411889676875775,-3.896306042945607,-0.5525521753790805,-0.10838804594142559,2.2960154568946356,-2.112670936823743,0.4386226963342913,-0.804619383410636
-168.0,3.2418293401056184,-0.15072701687875822,-3.392556356984352,-1.540808686670154,3.3242266583854936,-1.7456159711018957,0.2968446715757795,-1.088045654340287,0.8134350369811478,-1.1290117823198995,0.3217749807832855,-1.7292696353166073
-167.0,11.930686807953396,4.809241174080469,-7.12144563387292,-8.365804884090974,9.53748748933413,-1.125621957986628,-7.310854740647933,3.123634659293842,-1.2362962774189292,2.4820003745710375,-1.0883063656488465,-7.048218001712616
-166.0,5.607721546992933,8.785172827988012,3.1774512809950712,-7.1870484097187,1.2341574512617441,6.017796041373149,1.703388477571679,2.970007607459718,1.4329314500884918,5.3126398182099,3.699493681065884,3.439897359280518
-165.0,-4.656140119017723,3.3372629704669836,7.993403089484664,0.6797055007812913,-6.375530286964102,5.629103314802764,3.8945978131564125,0.5012503103934363,4.083823156297005,3.5378497812230645,3.627508681961993,4.33519547605359
-164.0,-4.96923763463676,-0.3743285995519483,4.594909035084729,2.706732565766523,-4.823897901533718,2.0784236588223752,2.008734610405352,-3.376399079607989,-1.2525657755775306,-2.8645766574497973,-2.470717854889604,-0.0953013232004869
-163.0,-3.4671035828496493,-6.390202600840578,-2.9230990179910226,4.900138953923239,-0.22667209458824455,-4.686885037915333,-1.5866483619417004,0.7855169080708828,-2.073088653659723,-7.245025202873536,-5.100636177122559,-1.801308952991721
-162.0,-9.377700934122766,-14.22917086412676,-4.851469930004046,11.787085103806122,-2.2884265371362473,-9.492819196417713,-1.6721436099937064,-2.1414078978889695,-2.6170228001510196,-4.924238607541817,-2.237705632376422,-1.6045871994177032
-161.0,-7.4245590666928525,-10.51339817803445,-3.0888391113415925,8.95864109977929,-2.106347138614792,-6.834960066377751,-0.599938489107126,-0.10332152266553618,0.6445888835072837,-0.22150617341711687,0.9008344901872263,0.3598991260866856
-160.0,14.092805319007672,12.162904173079493,-1.9299011459281334,-13.1396386440254,8.001701484181613,5.158621844282061,1.167248034736389,0.1962945321372705,-0.6427103722784151,4.452962433133698,2.527475250584986,2.703615631717204
-159.0,10.606393251206073,17.166443416044363,6.560050164838313,-13.906329111787363,2.019166825496108,11.90333981110814,1.787796146589524,0.2230100472597339,0.012139410160452169,7.867964409607878,3.8355939186473016,-0.10501608040454458
-158.0,5.93609835778349,4.0905234234696515,-1.84557493431388,-4.96680863463454,3.888484143155384,1.0827142283940114,2.0470298306596,1.3746742367804827,1.940407243662453,0.3947099651671895,-4.0897711229065825,-1.2536768311909834
-157.0,-4.756967698970006,-5.645602871498263,-0.8886351725283366,5.234479864631376,-1.9406363114536997,-3.3075255877912872,-0.053056452180535285,1.1425612679431325,0.47969746345979036,-3.424636382211424,-1.370762538419134,-2.7327691591394956
-156.0,-3.5081034355764418,-3.057140893500438,0.4509625420759565,3.2257994505238057,-1.9964222999850216,-1.265552927513193,-2.871001746340265,0.47007941850951374,-0.23767530578826468,-2.7214857269889845,1.4867353174769813,0.691016417572967
-155.0,-12.059961189159157,-6.217248033052227,5.8427131561069405,9.153392142381337,-8.983658901217185,-0.22980607510744644,-3.073867313765504,-1.9334888916047674,2.084044107231261,1.9021710920795827,4.325707917353972,2.2182382983535662
-154.0,2.0419794929009605,-3.747968093288158,-5.789947586189037,0.865653139596346,3.944947610515859,-4.734604516894839,-6.019199814240792,-1.4005561462017093,-1.5631813833141373,-3.4686107703579836,-1.4011030705182619,1.0952305278012429
-153.0,1.8398841382159248,0.03379718186228198,-1.8060869563535267,-0.9215694187005803,1.8364215250577456,-0.8540588328349026,0.42635146716384154,-0.5384903406100255,-1.0567595948481268,2.413361739756034,0.9923501886451065,2.614188509327495
-152.0,-1.911181720494442,3.139106352521501,5.050288073016036,-0.6712494700669662,-3.4773391992092204,4.04537676657408,5.951533593804345,-0.12614033030828709,0.006761074584768156,3.286583358477544,-1.8757406650015143,-2.3055385959728447
-151.0,-2.6541498859507,4.915908590269751,7.570058476220474,-1.1013253235127176,-5.1110503596916175,6.269220702589335,7.758517137930144,-0.27874804967842365,-2.388342476581079,-4.150889655610255,-4.7841391574022865,-5.037428066115855
-150.0,8.417338309495458,4.893839392361736,-3.523498917133794,-6.617848529676074,5.9769566093009985,0.7075366406358277,4.398949143735152,2.3179921811203985,-0.33939162255776467,-1.6856953632249778,-3.4702268160679237,-1.1735174227394465
-149.0,9.507544401083722,0.6344004057279575,-8.87314399535589,-5.105269782665879,9.208279252649323,-4.180150803371148,1.0138603763828633,4.138538199457135,3.488911408595044,0.202832707010002,6.995676311736914,7.057562701110719
-148.0,6.144821324377164,-0.5536767439962279,-6.698498068373528,-2.82564775183669,6.374835992942598,-3.6123632081706,-8.181380469882019,2.2701385163411145,3.943898651830488,4.256343062179046,4.630861290615827,0.14906668014848456
-147.0,-4.633583216556759,-3.797017267403116,0.8365659491535493,4.265461356566093,-2.6902606842996106,-1.4694270885205918,-10.347072754348599,-2.600771912976315,3.717141955604192,2.3577927463444657,-1.5293725907546678,-0.6671309045810682
-146.0,-16.47809719292088,-10.728396752090653,5.7497004408302255,13.573945829455825,-11.139028647846022,-2.478799318125037,-2.804723726003542,-5.179723232647111,-4.6082820366212625,0.6173926631491522,0.5518515950727627,-0.28967975147070396
-145.0,-7.709381953344668,-1.985313998621241,5.724067954723529,4.816200703900858,-6.738546192678136,1.8834030250267353,0.15710466544601975,-4.806166771499105,-8.13001994826756,-4.173929315350181,-3.457269522429062,-3.058682315333813
-144.0,-1.200107065805366,0.7952930690435532,1.9954001348491,0.24817753963502942,-1.6213081902271993,1.3381347404662556,9.97254942469236,1.5723966320652498,-2.7991304223720386,-4.461838683942591,-1.5503332583598246,-1.066508209469966
-143.0,6.884052117347629,6.421963825251889,-0.46208829209556,-6.6082804603226455,3.723460863554882,3.012337107418659,9.450616161679802,1.6863858611674214,-0.23731428403420018,-1.7587204599997994,-2.4269059748249675,-0.1933504421112217
-142.0,7.292901989335766,7.625647463577981,0.33274547424228007,-7.49337391562441,3.4464041412701394,4.024113943977865,-1.0851846216050784,0.7945037181450374,3.040455338437857,0.49351100757344224,-1.0632663699907114,-1.0422967196228194
-141.0,9.12993246254359,0.5610927085991788,-8.568839753944463,-4.879000159126002,8.89066994749115,-4.025950872367544,-6.340424796150926,2.651472724587677,5.861564748933769,4.566193782734663,1.8858981647238147,1.9301070938099287
-140.0,2.4405532610722114,-1.320902795599234,-3.7614560566715887,-0.5923773963120942,3.1407055485017565,-2.554795783428996,-8.20116585789868,3.7486040675150596,4.838206798053059,3.1914665237816524,4.072715652654849,2.354288282751056
-139.0,-2.3591838907198124,-1.3283405253223248,1.030843365397316,1.891024321641216,-1.7342384773798636,-0.15900555376540426,-2.377762624623461,1.70056004949183,0.7376901789929842,0.10870132931959153,3.5535514616376664,3.620918467868552
-138.0,-9.576317571580486,0.038636741960145216,9.614954313540524,4.817229414980414,-9.635343536112448,4.814428095959225,3.8030817927707545,-3.2922843193161873,-4.679999075544479,0.34845636017699483,-3.906537673620109,-2.0213995104450113
-137.0,-8.15276573355746,-3.099640939045345,5.053124794512071,5.596920675715554,-6.566362319895524,0.9580892661890879,7.715121304512126,-2.4378076810986054,-1.5268811897788903,0.6850025956773651,-0.1403668989728204,-2.0990764957868917
-136.0,-7.806275481496463,-3.2521812790654936,4.554094202431009,5.500797661979874,-6.227594318871585,0.703130527062063,6.651230005796354,-3.7950250267288776,0.34887175202812815,-2.917739215642479,0.5599524278662464,-1.2530268707985845
-135.0,10.280996905779052,-0.7436969387433567,-11.024693844522318,-4.79652806928594,10.676521740636813,-5.917460877117908,-1.4806103857239243,0.5105286490923637,-4.523258295056026,-0.22819556552300124,2.995184857318496,5.125337290058356
-134.0,10.881321943126155,1.1063097945309615,-9.77501214859512,-5.942526791225176,10.343026360281785,-4.292127798128619,-3.262529040557074,-2.1862213648159083,-1.0878930614130042,-2.3944939173829933,-1.2847498609833294,-0.6794891609552465
-133.0,4.7719923575208645,3.3518272362707284,-1.4201651212500632,-4.088792417164159,3.1025538939585013,0.9302666242770017,-4.987815297611457,3.6797916532347803,6.3392374117484405,-0.3410803365148434,-1.7484443692899871,-3.832716246838208
-132.0,-1.494457062164884,4.539685219566561,6.0341422817314845,-1.4698382659733955,-3.7644544566569236,5.3344864748579,-8.841075038152422,5.55045630924269,0.6707596434879322,0.4805773753937378,-4.11863260357546,-2.7793009739290113
-131.0,-3.599831171925413,-1.4475048672019195,2.1523263047235015,2.4988118405862783,-2.8803685556201275,0.3270201575054621,-0.2881177349247168,1.5326651362275991,-2.690230256774855,-0.45065888968793555,-3.833717607188892,-2.7366648885722094
-130.0,-3.09281806525013,-3.092146399552324,0.0006716656977738822,3.068635927819809,-1.5525097840183402,-1.5664252117204231,2.676601555439019,-1.9996879975177915,-4.343134449389855,-1.4198920022624817,-0.15630479064697594,2.009917002326295
-129.0,-9.084717663052256,-8.12661793619287,0.9580997268592981,8.58246269325098,-5.026194445358739,-3.603393258618506,6.194887715767619,-4.683446853077143,2.4110966137587897,1.6133363625975377,3.1025934863396394,0.9552310930768535
-128.0,-1.4908618865288386,2.4177773090713273,3.9086391956000206,-0.4076669088181246,-2.7014535728802405,3.2202456903410086,6.0738154389642505,-2.4672613226869293,1.4583786134650043,5.036814992420011,8.120037662084545,6.477368049007749
-127.0,1.217222310151919,5.463084808840325,4.2458624986883295,-3.3631060922168765,-1.5112094816359452,4.826411644367522,1.431503075712254,-2.6867215504424244,0.939500340456058,1.388856447034794,1.363212230545297,1.4883927418958485
-126.0,5.6888646088797525,7.617854361583817,1.9289897527040565,-6.676425573425412,1.889202825007877,4.736805985646678,-3.103105530894422,2.8107249479421235,2.567236762653946,-0.3285402439162257,4.519443954580791,3.151115085023962
-125.0,6.291604989878325,0.1147156032686949,-6.176889386609567,-3.1478438298105225,6.250557754013481,-2.9973904784731666,-3.3050261221866415,3.8119306952316165,2.075509838047434,-0.8179731820186524,-6.329099018498329,-6.001519382273769
-124.0,1.6259105260163924,-4.69348239859332,-6.3193929246096445,1.5092708133343882,3.917622810890279,-5.4786456768539455,-2.5280641753808273,2.2847578019495023,-2.0154966191884798,-5.222035687315277,-5.112419436822501,-4.759556162284783
-123.0,2.2608674362583026,-6.025609118189677,-8.286476554447923,1.8553935422149384,5.304603243482047,-7.208571307730942,0.6889685256423883,5.205202028027536,-2.839135566029318,-2.422136617691572,-2.9977812999418263,-2.770767566093688
-122.0,-2.3877515486042182,1.313245940077989,3.7009974886822437,0.5845909227507993,-3.006991172847023,2.5367405913192576,-0.8735716415446645,-0.5820382136521869,-2.4204711850476817,0.6083836786832215,-2.9541783753552613,1.4907996197617879
-121.0,-8.004860784924396,-5.863632223873868,2.141228561050551,6.8962465318334285,-5.109207350316833,-1.823971156145,2.187011336120749,-9.576570383611424,2.3887895371126504,2.2791946447108873,2.481538303106583,1.4923763301440762
-120.0,-5.261724939893771,-2.170498721098637,3.0912262187951387,3.7486173667259894,-4.2090135556040895,0.4287143008713419,-0.6387294223138036,-2.723432455160893,-2.82058365628565,1.708319857748618,5.835433678063036,3.7630677365235936
-119.0,-0.5066741420342566,7.053762258402405,7.5604364004367195,-3.3284232431332974,-3.985387014391138,7.284964721833255,-2.0333163666950744,-3.453253332850233,-0.8861008369958454,0.7691659428530768,0.4852689555877152,0.46484197709127084
-118.0,10.302999288450273,11.119921074577904,0.8169217861277098,-10.694759954794876,4.712887049568557,5.952900213847363,1.6355654427840685,7.875444246316494,3.268483280813861,1.2758741687069965,1.1902587310538726,1.3905928690735632
-117.0,2.625591026385516,3.853102260642814,1.2275112342573666,-3.226398987240665,0.746808684623919,2.605409055338257,1.7193854670557998,1.4106219972713947,3.107420011829255,-0.4424750033057581,-0.0009243214906212716,0.8584397214144442
-116.0,-0.25148229235993025,-5.237315153210199,-4.985832860850237,2.758388651662623,2.3343962114375985,-5.128811288348141,3.0614224483518333,5.360541456560892,0.2549325635263697,0.16258591585381715,1.2090917098875364,-2.689607332974873
-115.0,-4.1757242085134205,-8.871163518566052,-4.695439310052683,6.543488032511513,0.22461227184455845,-6.809016291900429,1.3194254857696674,-1.0853965894633504,-2.6887923881797047,-5.041183089036851,-3.0918876672570295,-3.4175988157302264
-114.0,-9.226838735404446,-8.954096865946376,0.27274186945799084,9.041681533314541,-4.70908301734958,-4.377919596409931,-4.053387924637561,-7.635530652649803,-1.0754950466307633,0.35159863645580525,-3.0920039103322536,-3.4300739001952274
-113.0,2.5006986394820094,-0.15592742657572334,-2.6566260660577896,-1.1308774390870768,2.616616660943727,-1.3766032733728784,-5.148278567577717,-4.535286284569592,-1.7413286427931887,-1.4523012916354143,-3.2381981271870566,0.4794419893221131
-112.0,9.92689377176845,9.295907130154689,-0.6309866416137934,-9.638194777557631,5.235839011106836,4.352902529922229,-4.135279659884283,3.7453570175724806,1.1129111036190453,5.404859712859512,5.715024218857117,5.574963498269643
-111.0,4.195779339821206,7.832708018282442,3.6369286784612327,-6.034169462352524,0.2349121047074325,5.750814640462936,4.169331654489511,5.410470890074506,4.205236833131001,2.189936050198561,0.3907569129885089,3.3764266618324568
-110.0,-4.163087277428574,3.9562305642419515,8.119317841670542,0.16393371963000858,-6.107025786952537,6.054926672192307,6.63729384349774,3.9626212867921384,1.3435970755441786,2.986290519301219,2.0646724125122664,2.102344238559372
-109.0,-4.429087925419633,-5.679640143111963,-1.250552217692288,5.032320461208542,-1.5535251941474253,-3.5205476715824253,2.676717015628561,-0.8699605107593551,-2.968321860809529,-4.92629987376647,-1.5080548378332794,-2.446512036029543
-108.0,-5.593438256932689,-8.813292578698784,-3.219854321766011,7.173258030062587,-1.226834661789727,-5.983707530030869,-1.228516312715955,-5.822970135571503,-1.1556385534836584,-4.559268370786689,-1.4584652357819468,-3.454742214072473
-107.0,-0.8225068723313096,-2.8053057829772676,-1.982798910645875,1.7740290689420397,0.6222923562549121,-2.4287956627746587,-3.1434457980940933,-3.81976055188926,-1.8541759473544261,-2.023123764704232,1.3369760144334855,-3.72679856537161
-106.0,9.587485603974462,3.2367793426880715,-6.350706261286373,-6.381495923921577,7.9349195364805585,-1.5806213623896743,-1.2787450400063087,0.8462432388020178,-1.6804540082339012,0.8976580953829318,-2.6295638222453923,-2.049569612632385
-105.0,4.662801969665313,1.1776023975822083,-3.4851995720831592,-2.8934747257183897,4.118425622682772,-1.088955243990015,0.22164907878797813,-0.0806169573523934,0.5440273652140002,2.232770999646348,-1.7452604300472214,-1.5782877425385218
-104.0,-0.8361554730852414,4.2008213299337696,5.036976803018912,-1.6540295915530134,-2.974593536602461,4.61233461778851,-2.5726502745694106,4.086560816312252,1.1427870101084894,0.5866390639027832,-0.6578851947166313,5.116207684836985
-103.0,-3.395658809399201,6.211423628222819,9.607082437621928,-1.3736078913589282,-6.54647945254991,7.90661333571619,1.500587777157504,3.1577668636498535,4.020507145918109,7.243508311856849,5.791882705202384,8.73933887123859
-102.0,-7.739695724600942,-1.4853261040184917,6.254369620582395,4.575485505612241,-6.972373394639456,2.3815641372431933,-2.437160753170877,-0.1608082982103034,1.9495053022301476,-0.6963574995262043,3.8473787281324423,2.6538810150559407
-101.0,-3.221548417590014,-5.019403242170504,-1.7978548245805022,4.088995766088351,-0.6957240069120711,-3.4164179617609083,3.022832346379588,-1.129346411636869,-1.4130553646466741,-2.299582064630431,0.6983797492379253,-2.4557712769986937
-100.0,3.8975378906573397,-4.444206581389,-8.341744472046303,0.24327841271029094,6.129995690167888,-6.409441973492047,3.650388278070741,-0.43455680914809536,2.2586768823150196,-0.9786281546810809,-2.4953923570940515,-6.428746174576386
-99.0,6.676089722990468,-3.7831319855249044,-10.459221708515287,-1.479248384951343,8.576395601295957,-7.148470721480223,-1.1832523900008796,-3.7293448125997912,-6.31739766388315,-6.477096690613305,-8.854502161973445,-9.75574502629194
-98.0,-1.3420694501261305,0.8497917859968975,2.191861236123123,0.28731224891201745,-1.7557143205558896,1.5616646008596757,-1.0857398975896182,-2.4553524720655866,-2.8186949481469616,-3.371623005567592,-4.5322931259189225,0.7856958966995116
-97.0,-2.117936082014809,5.41514524270853,7.53308132472341,-1.6114505269579809,-4.808875606338893,6.506837057596734,-2.0411518820766155,-0.4223392032445401,-2.0509235734539564,3.1179659189876965,2.399584246646962,4.4193612424121715
-96.0,4.99211038859943,6.7483557045720275,1.7562453159726226,-5.834198324428318,1.5623118811484313,4.202131397203546,1.6770158918767062,8.341546260826838,6.7826584124021085,10.013170755106085,12.060597061818758,9.369071721768485
-95.0,0.5288222907354546,2.3992730292280595,1.8704507384925773,-1.5047344684278567,-0.7202411905448929,2.163475892664371,0.3212395261179589,-2.2657590976944855,2.808890208878969,-0.12995008292242272,2.7919298767503644,2.873969039183592
-94.0,-5.37995362621675,-8.637469601936171,-3.2575159757194987,7.050302662616572,-1.0266351358812604,-5.9156661621614575,-1.5119183080434975,-0.6041733676121964,-4.1198981116159885,-5.1704000159225565,-5.677713951125275,-7.210904908290811
-93.0,-3.5922115214504027,-2.5610531290232625,1.031158392427042,3.041934526720873,-2.272826050800414,-0.807175525713788,0.184985717937026,-0.04973290046587947,3.799613867313003,-0.5901383984758048,0.028798947753349236,-0.9161714380199184
-92.0,3.3240983984536547,-2.97050142717167,-6.294599825625404,-0.21215241318418654,4.851400720027124,-4.670286120053142,-2.0310880877356214,-1.3622995975299004,-0.9380793472564013,0.8632171333415561,-3.360517784578485,-0.8601056860863372
-91.0,1.824928469518711,0.9107007306651782,-0.9142277388535696,-1.4073361110547153,1.3343842023798678,0.04247067623752798,3.64528498515373,-0.06604979602336536,-2.4420726412384615,-0.2031826381399076,-1.2943747441428446,-1.2475880455541364
-90.0,4.46269013319806,7.403525002441115,2.9408348692430737,-5.900040764909007,0.7245453986587782,5.139374510743371,0.21009323747927167,0.6692107679909288,-3.899569072020155,-2.5409491727886455,-1.7982839925366751,0.7036006575983879
-89.0,-5.827824764454548,3.064368116043189,8.892192880497783,1.409304694604648,-7.322319494565654,6.024813128376712,2.9527334467081108,2.348390429152749,3.8003253958935157,0.7858122918802096,3.5744481553777963,2.083895730871705
-88.0,0.0657259495156357,0.26689015405296557,0.20116420453736739,-0.1410830429152383,-0.11687289760953101,0.20185073498784956,-2.2654408726751054,-2.985224071913602,-1.2516372800233326,2.372971198006309,1.38590264332864,-1.5155043648583146
-87.0,-0.1984954794111669,-5.930710432895769,-5.732214953484603,3.0917146334297723,2.786202169427055,-5.785002427114449,-4.170122531436001,2.1021679831880977,5.3150840434035915,1.861763434304669,3.1466308731333226,0.9214347261564189
-86.0,-3.9066158221512484,-5.890802191314022,-1.9841863691628308,4.852523534256665,-0.9520665333017739,-3.96996574477178,-4.501934279477952,-0.4728420632474082,1.359898247965529,0.4099432498910228,-0.2614068085427923,1.2608377978568728
-85.0,-2.4541697476542312,-3.2146454703350553,-0.7604757226808956,2.795249146866052,-0.8452689777625302,-2.0203903478704195,-0.762510392921969,-1.7536285531848779,-4.579742622304594,-3.385672912981882,-4.0801473780382205,-2.1688409738183507
-84.0,7.468342101224392,5.549551008804227,-1.9187910924202356,-6.463156881422767,4.692337405419106,1.860654747494358,6.076635727804876,-3.389781096766383,-4.901612307213719,-2.739979716794811,-2.050205877321436,-0.5127876165609423
-83.0,8.290665558808055,10.176797252082517,1.8861316932744192,-9.263282329032236,3.2040657578406124,5.997037530498427,6.528580214059399,2.9457459047662464,0.005323765709618122,1.7551670627049345,1.3815274891250002,3.4018978669274658
-82.0,-1.0041728705667916,1.4945178338695815,2.4986907044363784,-0.1963534960779718,-1.7410846209657227,2.03969155270136,5.679967171977178,0.8170924030909564,0.3206176074627243,-1.9760868390275173,-1.0153658345913399,-3.0138681185608007
-81.0,-7.453459974115281,-3.36457312595928,4.088886848156045,5.375047602140485,-5.748380401433625,0.32493921389300695,0.6443028815929461,0.5884206222069008,5.384335631740472,2.7800023146406554,1.5487241172840114,1.580154200026717
-80.0,-2.4625292634611053,-3.1130749369118087,-0.6505456734506496,2.747307167690724,-0.9480881655576856,-1.8422687774997748,-6.660566035801933,3.458925280921871,8.197560491721742,6.045885446993873,8.283443741484593,3.8835824298226007
-79.0,0.8270060202908627,-2.232289240984364,-3.05929526127518,0.7337358227163562,1.9136425627342268,-2.6875321180176712,-13.348298274818138,1.4924601842689227,-1.0033957905595097,0.9376098022047121,-1.796946607158889,-2.018892161547707
-78.0,0.8071585668746667,-1.0902829972569907,-1.8974415641316382,0.1667987102530195,1.4105773788687566,-1.459858864635103,-7.707454324563318,-2.2545178629411966,-6.08447148770847,-2.8423743614634818,-3.625719603956545,-1.7602247076051583
-77.0,0.5294802707321273,-3.2297610213675316,-3.759241292099656,1.3721830763709597,2.1278749043121805,-3.5423813849445254,5.126847702967158,-3.467029671443314,-6.368760316348158,-5.612538726273533,-8.034284328281547,-3.582837873893208
-76.0,-0.8865347101725012,-3.3509611257656142,-2.4644264155931364,2.061872475117971,0.7708363769485951,-2.879483282883252,11.346907978312077,-0.9590163277237698,-6.391059801005712,-3.07490221811923,-3.6073243857286625,-3.8311225876873145
-75.0,-2.9439522042260244,0.5473172892721221,3.491269493498112,1.2224201981965743,-3.163786702898372,2.0459779861836096,7.795694893364021,-4.1440354712914464,0.30416326113063286,-2.036157109197826,1.9214171629897132,1.4347551626081885
-74.0,-1.8508194105837144,9.219371069097248,11.070190479680923,-3.656791557647861,-6.496024998028518,10.092761869758647,0.07682330329481069,-0.01602316856553121,8.241309998948358,2.603090648224119,7.368511380941768,4.861482167191625
-73.0,5.682798643707053,5.793729136198822,0.11093049249172271,-5.786305517465497,2.738379638099347,2.980670081860625,0.7519984913980975,7.277894465476545,9.40753499044757,5.360537116328208,9.726473692589945,5.471918226058957
-72.0,1.182296958836632,-0.29053427736304016,-1.4728312361997369,-0.4129634931075947,1.3482112308672873,-0.8507076581631092,-9.180875591709535,-0.059398509423155055,1.5865200831599404,4.033690801502239,-2.690951634142725,-1.642372829147996
-71.0,1.6803978584369132,-7.216065297508398,-8.896463155945376,2.723125950210837,5.302820377942103,-8.10132256570339,-7.579049836540935,-1.7608382145620063,-5.791595457886444,-2.0956589240056656,-5.542025096268153,-3.670989420808536
-70.0,0.4569421099851443,-0.2878941041964227,-0.7448362141816043,-0.04971911647325067,0.6150462770396881,-0.480910492434945,1.0922225956742615,1.2796129544997021,-3.519595383363663,0.9259492271922032,-1.1010536515320233,2.903220312793692
-69.0,2.1748587678582822,2.7395622822189503,0.5647035143606942,-2.4996005770817273,0.8249125093528656,1.6089392433485505,8.160340575164842,3.8344520050008537,-0.7826935107940027,0.2883122943828895,1.1254817572484157,-0.4107538338760526
-68.0,1.0346592033693733,1.6820126024530972,0.6473533990838365,-1.3186583076568392,0.22298267667053984,1.198643035585603,4.292467983613102,-2.4441477924325534,-1.8803544310940281,-3.6186450025530057,-2.670322802140645,-1.0935855695565557
-67.0,-2.679536592726826,-5.061507590009245,-2.381970997282304,3.9154751446278073,-0.18825114482551641,-3.7690975394495148,-1.091937538877839,0.32874066323596063,-0.9825420865273695,-3.0368827253730717,-1.061651130697777,-2.775498260333618
-66.0,-7.152303685050708,1.222206522679036,8.374510207729829,2.9376670666848557,-7.795774562034316,4.827462886627112,-1.800209231697576,-2.841182810097347,5.1998092390859245,1.9797039115708408,3.274595366551072,0.6204737125648563
-65.0,-2.8476404654619993,-1.3593267397010522,1.4883137257609373,2.0821232967656513,-2.198031630007833,0.09288110270055672,-4.83853675343253,-3.829711551092483,2.130063249514455,0.39234937132087144,-2.839710869088514,0.7030120922639103
-64.0,-1.6816919490305353,-4.870729110436452,-3.1890371614060067,3.2589151088802417,0.7999960815857186,-4.0786113751516595,-2.7685906986862614,-0.38107452629107685,-3.546479877720184,-4.001079630831985,-1.795889578976375,-3.2235333467338956
-63.0,2.820318145754639,2.4795109370959514,-0.34080720865882896,-2.6660187761679417,1.5429256428491347,1.103272421899018,-0.8244709001863902,3.913785088277132,-4.379392971419601,-0.5764914284772734,-0.5381378200844399,-2.7416072389807584
-62.0,4.418058391125998,3.1329533113050787,-1.2851050798210595,-3.7145236852397874,2.8871816084365696,0.9630524758018213,1.9731950208675002,2.359171435674461,4.049543930229726,5.2174746185078975,5.256404230410314,4.953530446284214
-61.0,2.0908538932919623,-0.7321737362477818,-2.8230276295398373,-0.7008217309368163,2.4887008135952353,-1.8121320522059063,2.2996739279392022,-1.295855743418418,1.48879083343119,2.331608788818504,3.241403877054018,3.7290179640501036
-60.0,1.335248719735362,1.2602198592834748,-0.07502886045191004,-1.3237746019159315,0.7353254331923891,0.5618159081856556,6.094119273500669,-2.1446828425404276,2.813278619127513,1.8135381915732933,0.3556628540452471,5.421972143220395
-59.0,2.0972965622051216,4.747096324027619,2.649799761822541,-3.3736685000699174,-0.32492105902092633,3.669703035638069,2.224307627318937,2.7682935080948816,-0.11740618783077328,0.9930708730957905,4.432462995692617,0.341254762630433
-58.0,2.371471032999407,0.7629068527177815,-1.6085641802815167,-1.600264668038337,1.9412613514202344,-0.37183281315256167,-3.976378097885127,-0.43039240776540877,-3.323000414741725,-4.955310456484216,-8.859520364011406,-9.542275713759357
-57.0,-3.8195800924181107,-3.8754938790155835,-0.05591378659730395,3.8134116545948826,-1.8529988483338005,-1.9921673539293583,-2.6625688776677476,-0.26861174317612374,-6.430510381048828,-4.602304450649006,-7.116135008991806,-5.033258673706424
-56.0,-3.595425952980689,-1.1762453954628125,2.419180557518043,2.431066040494091,-2.980761081547149,0.6766046634508791,-0.13515395824712328,-2.1431491004641385,-2.7754311777975302,-1.1620185808117771,-2.6216846339228836,-1.5044920547661476
-55.0,-7.910074167012189,-3.7739117021298023,4.136162464882484,5.888662174710834,-6.077731695344945,0.1624222419366833,1.9345533825004204,0.36326070509302055,6.1622228487062785,2.047315974671517,5.465797279642155,8.026469077081176
-54.0,4.858643777535226,2.0591790696749785,-2.7994647078602797,-3.490025431350734,3.8522701296213873,-0.38238867863469383,-3.5111861418533548,3.937922259559333,8.400703602803457,5.028833233728809,10.033646133913656,4.492139681935716
-53.0,-1.0271504857447784,-1.589010897057292,-0.5618604113126549,1.2761842300625998,-0.20745235295249742,-1.0809644828196707,-3.787883407550967,1.7302609688074457,7.18185303204201,6.466524255802114,2.7675007193904335,0.17039451809424921
-52.0,0.3933199258845037,0.0018536298740924884,-0.39146629601059013,-0.2326150694185678,0.42299537873148263,-0.19490807878262617,-0.24590634821709287,-3.66490964996445,-8.7552559552492,-6.542671901907745,-5.626269488546509,-3.4116747970893897
-51.0,5.3480592065837635,2.4692515945102733,-2.878807612073633,-3.8699535570516668,4.073473121211892,-0.20203793508656948,2.378403033485676,-6.591524254526608,-8.901290072968957,-5.204819132346419,-6.009860644670318,-5.837339820368377
-50.0,8.496377581658464,5.143074178159453,-3.353303403499077,-6.786562247014611,5.894198449189453,0.8971830706499868,2.1120530940751046,2.498060980212152,-1.660582988633931,1.532895796334473,1.7618186453751075,2.664915934544626
-49.0,-3.403552338471369,2.3744632140464996,5.778015552517926,0.4645881580490392,-4.534296781235366,4.0748348632794595,4.801484305466715,3.003750608343488,2.8610295298073183,1.4030588047660189,-0.949453766112152,2.3695129928709067
-48.0,-5.035806603973329,-5.520176999520125,-0.48437039554671246,5.304900858263599,-2.2923728158089904,-3.0099522227919784,0.9367404956740981,2.2220851075680947,2.980673482078865,1.370961647385404,-0.3200433748047227,-0.18283639520102812
-47.0,-3.1200231218473844,-1.8842437025590613,1.235779419288393,2.5301109124043566,-2.192775747022682,-0.33961392345680075,2.6748580242990725,1.7227346000103785,2.8264088190319563,0.9960945164914778,3.9207084658646596,3.7022187749273665
-46.0,-3.840218268814475,-5.262199293553295,-1.4219810247387348,4.5039317654535775,-1.2260303851460497,-3.286565225900495,-0.8404682554938709,0.1598508061802857,2.1127123185939056,-0.8406102793403805,2.0430041966479715,-2.385494398061319
-45.0,1.3337521054462498,-1.5111047178495156,-2.8448568232956846,0.12474343744487548,2.067553973063433,-2.208066400581772,-8.183854945966514,-4.319698920799239,-1.7745287019996008,-4.257291282581005,-2.2846891541215224,-4.36547664066552
-44.0,2.550916574640582,-0.027435704026120444,-2.5783522786666326,-1.3004353569103126,2.615564782611188,-1.3381121087127164,-9.106395859584927,-2.6540109902481177,-8.02337471904465,-1.3485709182661143,-5.425874073880319,-4.149674956807366
-43.0,1.1707147726330307,7.545367524009908,6.374652751376866,-4.3161821828769735,-2.5568670478445448,7.000442160100664,1.9386665003626682,-0.006032683216053103,-1.1118289477901024,5.46084965421926,2.1864186199603077,4.226202660542031
-42.0,2.1098091070186418,5.585650315072479,3.4758412080537813,-3.886012915082263,-0.721363744652623,4.570042423836497,6.227268294815308,0.6103618265215245,3.4376383383831275,1.7548210043427388,2.7979201681843486,4.083828750717666
-41.0,0.37509940033093025,2.4977033117143197,2.122603911383291,-1.4006822461779525,-0.9154019353059666,2.2712790811609973,10.167689667660973,4.716793991713959,6.365203786458498,-1.4358036243654162,1.8775174776018044,3.232780023059692
-40.0,1.3734553943962058,-3.2844385760333106,-4.657893970429582,0.905129091426539,3.050848000661466,-4.00791283727413,-1.5633927551259026,2.0240542229332927,3.9831538198082868,0.11562485317598004,-1.3140278734367747,-1.508166888872527
-39.0,-3.896541717807736,-4.94769643137401,-1.0511547135663033,4.4421209767442225,-1.4667986630458603,-3.032428146217069,-3.1646967525610465,-2.123954144190356,-1.047270589499621,1.9160572597787566,2.738820550577425,-0.4439648234668131
-38.0,-7.209388094874251,-2.07137273666755,5.138015358206749,4.652815581999047,-6.138049740974061,1.584502228441611,-1.5763779010897836,-0.7623890793167205,-0.4364034194073487,2.926431390087979,0.400898537650599,-1.0479631014757038
-37.0,4.125923432437246,-0.31247892597530624,-4.438402358412453,-1.899357202349504,4.320417491745131,-2.317629391319914,-5.679991550280884,-4.160136323567308,-4.3541084601155315,-4.766129558301186,-4.947955207436568,-0.7917035195313888
-36.0,7.101582326944262,-3.6839885542566404,-10.785570881200776,-1.7029677642486445,8.907040485969672,-7.249432589713343,-2.290204854026711,-3.403558463736349,-10.109596335407032,-6.7935795966677635,-6.1890883529361576,-5.537292187852217
-35.0,2.2642110321715165,1.3121514403852812,-0.9520595917861132,-1.7801270589274512,1.5763288890147258,0.16888258957662416,3.655554007999868,2.179345147993968,-2.5105215888571792,-3.7920993429133123,0.5950516940695247,1.091641531767832
-34.0,3.921905130157897,6.091525311521251,2.1696201813634444,-5.071897683134086,0.9277859038114216,4.117636649891655,2.517139067172712,8.417708198766622,1.4094689442279245,2.7801813725611257,3.1952273720210007,0.14178023100105652
-33.0,-10.94711874860523,-2.8498026802604755,8.097316068344838,6.919877311118432,-9.545483235669868,2.6025520120914796,5.785704858360086,0.41678635460228675,9.639319330387643,6.059121683592544,2.748642288546221,1.842299056532781
-32.0,-5.190995332238966,-1.262055471383709,3.9289398608552863,3.256835262410866,-4.580970059264374,1.2983927354996254,0.4817379321927793,1.8924133454521532,8.712026509354128,5.962983779549045,6.171327897616592,3.7274938604536443
-31.0,4.614554060000645,4.414333314536213,-0.20022074546451174,-4.475757994062705,2.465315325611176,2.1344741209901743,-3.7021534868555332,-1.6827898328024131,1.7588860767760348,1.6042636942495325,-0.69606357959672,-1.1481186342780036
-30.0,0.6023694172696736,3.0784281145468237,2.4760586972769842,-1.8742408027126152,-0.9597552722409866,2.790396132711872,-3.5167670674141362,-8.336731781161047,-6.56461158586198,-5.562708085094152,-5.132096132965758,-1.740778054484952
-29.0,1.7062437750939394,-0.357627918717077,-2.063871693811237,-0.7053455690788268,1.8580351578796162,-1.2055963173917044,-0.8151595455520826,-4.255834558978538,-5.8136520582226705,-2.7187347931047583,-2.590074990705702,1.7487890048739527
-28.0,-1.0653203719036513,-1.7879946268323241,-0.722674254928771,1.3946234947943164,-0.20377891365814094,-1.2494093221870624,3.799449370430744,2.7558880695395165,1.0576262930518832,0.8001009384486562,2.1914552257001354,1.5182047627639126
-27.0,0.03944253714374457,-6.44331786271603,-6.482760399859586,3.2445525517128586,3.301602400592202,-6.447769584983019,-0.08720607183713902,6.329386229663026,1.675921801549929,-0.5983611415568353,-0.5571321134232126,-1.6507458930986296
-26.0,-0.6521696295670312,-3.8599755406848577,-3.2078059111175,2.2929534250780175,1.3129743630204556,-3.50363674493396,-4.019090186061867,3.1694862709514324,-0.609437018637657,-1.1618118976797513,-2.509467714557702,-2.4466032099100077
-25.0,-0.5879879640453839,6.211714416806378,6.7997023808519526,-2.859462114418692,-3.663287336193678,6.473103104819524,-2.4896697067395968,-2.687696643457374,-1.4234127363615592,2.650337947902474,5.542746397823893,3.075391008809802
-24.0,2.5924037199821504,9.069473112664054,6.47706939268193,-5.804244885602712,-1.9945560200152328,7.752532401707558,0.896681610503793,-6.152245740182226,-1.7107757669668402,5.342326292950323,5.45861451417381,3.896260016667574
-23.0,1.4183415174670437,0.19018876630314807,-1.2281527511641244,-0.780066989267262,1.2673578701399117,-0.5353097548917063,0.1130593812087417,-3.3833086399578907,-4.3015760604865045,-4.2267380129457575,-2.4241903915088465,-1.7759124336192798
-22.0,-0.7521018127207489,-6.027961881728826,-5.275860069008305,3.33517885537104,2.2816908773599494,-5.672082905946119,5.681537224899951,0.7346337448296705,-0.8261437784529431,-5.766230234335202,-7.929704321923401,-6.302814614321063
-21.0,-6.8023240487593055,-5.188103730857518,1.614220317901691,6.021053561418286,-4.190157331026042,-1.7384932625311467,7.039244409069065,5.946766403156888,3.0485716076504996,-4.39440015032225,-2.0784764413788155,-3.225794217445085
-20.0,1.709113404492598,-4.681814922395375,-6.390928326887838,1.43768834339417,4.0684953172417595,-5.579204886559284,2.8156719022342838,9.792271792824636,14.742552615494258,5.679509821904945,-1.788667722843592,-0.8769486224699158
-19.0,-1.6974298872921312,-7.26687058789015,-5.5694407005980935,4.5188033165690555,1.956903996363124,-6.392849095546639,-2.2207209675839095,3.54272278485344,9.816312074705092,9.986840314146763,5.409677403741737,6.025900821601044
-18.0,9.05571207649213,4.001346039108708,-5.0543660373837636,-6.483314019886806,7.079458584920918,-0.5066673660795437,-9.366756462966732,-0.016357618177842648,-8.84439914119445,-3.200032781195026,-3.8322761746123675,-4.981352379582715
-17.0,12.880582749049912,11.698207992323102,-1.1823747567270027,-12.313281067761697,6.98019618817499,5.278502457177465,-13.497390607443215,-2.435394983423392,-7.905066227664482,-2.943998898576699,4.326294331796293,4.42391055397832
-16.0,1.7168836177758835,7.8269187754770435,6.110035157701395,-4.786499121059272,-2.2466285212067123,6.994714300018787,-5.156269262803003,-6.803017640006962,-10.882718351731363,-6.499230048887248,1.3482211348985904,3.3606372966770786
-15.0,-3.652960878836359,6.5933807342559305,10.246341613092827,-1.477479996777969,-6.921913683066737,8.37501992749584,8.400177973152282,-8.397596383909871,-6.511741527624549,-0.47067218159388435,3.238829809599766,5.137515926120113
-14.0,-24.391324749473508,1.77051301351009,26.161837762984256,11.307252726477296,-25.25119317275911,13.92794991121396,9.253509726362863,-14.281339738157751,3.131474833534483,9.05534191869374,5.400073541396223,3.110388205558946
-13.0,-16.080311109980926,-9.438281585095998,6.64202952488553,12.756456239539977,-11.337971769342655,-1.4327062771494008,9.927618796844126,2.616186507934062,14.243797223260824,8.29655654898439,0.907470206848258,0.0710066787657111
-12.0,-3.259335546949182,-10.726170029052716,-7.466834482103407,6.986488272107301,2.0477481141344422,-9.051791564075026,9.686838682480813,10.14639867846725,11.356895893479557,-0.4128885272724818,-5.096232377055242,-10.194436503459539
-11.0,11.778013229837903,-2.5141941532001972,-14.292207383038622,-4.566062533118266,13.060112532140657,-8.35973681012034,-6.6453512822417675,-0.18323820181636208,-5.0306288072674175,-5.141825677743537,-2.9814798978795007,-2.7242349716389924
-10.0,12.06632319012592,-0.9255886212942313,-12.991911811421394,-5.592317812778185,12.55903970891159,-6.995232858919583,-3.857247235837839,-1.6769591903271817,-18.302692423851603,-14.215596238430392,-9.329707011956447,-3.602407205764014
-9.0,17.50485772222194,0.6949140109435228,-16.809943711279786,-9.132193491806117,17.11504280012469,-8.014947077305834,-3.5253133234178806,14.574475342173688,-4.472855632568998,-15.083658744936223,-11.1714057903694,-8.893543984023548
-8.0,12.321273532311356,0.9074702765301508,-11.413803255782108,-6.656840521394726,11.91000297071446,-5.286962390190503,-14.495131038882583,6.481870511918347,-1.272899976513505,6.278907614489873,1.9200212217285018,4.024073391770442
-7.0,-1.485378643694522,-5.522079221363509,-4.036700577669091,3.5318673145237565,1.2428329195071472,-4.8089588711530356,-6.8560106227836695,-0.9221141270552442,2.562608043136863,8.734998561706064,12.725836275860235,9.661348674763506
-6.0,-11.10609499204087,2.7358738941485106,13.841968886190072,4.208769242628477,-12.428991082950667,8.343393403403471,3.9229602255234575,8.326991207628488,31.287936847292332,24.558483651949395,15.492671082762877,10.651231135799623
-5.0,-1.3127616387317094,5.770891023100942,7.083652661833899,-2.2054680740834574,-4.237597661223823,6.408390077479092,8.53962243265036,2.20228360514103,7.877196237492036,-2.0724784551522077,-5.486905163338706,-7.651187096076672
-4.0,-4.602207314588348,4.749484936521059,9.351692251110695,-0.04627752182251843,-7.02553454376786,7.036341642214746,2.8994883530040045,-8.957763173918151,-15.060244720605459,-13.65838813638532,-11.233222172997138,-7.121474144797232
-3.0,-12.503958809769252,11.39592258460693,23.89988139437711,0.508481517233832,-18.18152523871252,17.63691066472088,7.083423668334135,-16.260289792377392,-10.732716642429487,-5.873432824965713,0.6648551078132563,2.690407147112956
-2.0,-5.228819635605983,1.0225979477130713,6.2514175833194745,2.0634361702928032,-5.726330871621213,3.6275244903227657,-3.6704223180027142,-7.556836257028417,-3.307963579154121,13.283297063178996,18.51421075419445,18.380900817459896
-1.0,-0.41021369624128123,-8.785358217589957,-8.375144521348776,4.641283647061839,3.9959562120770418,-8.511482626041577,-2.2093736884697535,-3.035336175136054,1.7504317269476024,6.5876516715005256,3.320575673337113,3.1561241610447603
0.0,-10.155666492447656,-3.2758477682154297,6.879818724231399,6.683241330035171,-8.49706742526035,1.7892305178704362,6.627603894957411,-10.258322533120896,1.1651834936024734,7.141598623963802,-2.01366312127048,-6.7114222881008745
1.0,-16.234350692425565,1.4442087292850703,17.67855942170914,7.36445462711081,-16.922641127396222,9.54340569479168,9.637518279480833,-12.212618102024747,6.256045727603071,4.738308099947085,-1.5947191577864945,-8.514367320308638
2.0,-8.602597050107661,13.164007502507452,21.766604552613266,-2.2302721485927,-15.21433556041501,17.43992855397856,8.44471510595422,-8.26156025487486,1.533168069785786,-3.6818311169212388,-1.6433323117168,-2.51170862917899
3.0,35.3301764113837,-2.804305608801645,-38.134482020187015,-16.209097436052524,36.714924245255325,-20.503305506577732,-17.43123221525415,30.816565168646125,-7.074329727671383,-30.488887967691173,-14.591604090913357,-4.791031939925743
4.0,84.97470524266852,-34.63614490158418,-119.61085014425309,-25.190108335749635,102.28065138375557,-77.08659556608833,-40.47179213156407,62.46689160448203,-38.22230008587739,-57.33621329709975,-37.00432771394176,-21.84183853335572
5.0,15.29198129731779,-28.104430362334142,-43.39641165965077,6.3887233927753435,29.328408874719564,-35.71898673401084,1.0644253929111454,25.5063352736238,-12.281284580524526,-25.13187172909634,-19.614157448180475,-12.829024158674795
6.0,-45.06641089420185,12.093329401118357,57.15974029532266,16.469980229295164,-51.140402731062274,34.656251022171084,22.397384953824982,-28.86183535944727,23.23148299720288,42.42261215144648,18.796703559947687,17.010882041980448
7.0,-60.55463279434665,34.12769476081347,94.68232755516252,13.19465711360759,-77.58291526369895,64.35825485901695,23.387979479422036,-50.62926635382486,46.19627984298347,75.75853601573328,46.5347568375336,27.95932683981617
8.0,-19.14196053283961,5.984237051879671,25.126197584720387,6.555220197558077,-22.11397210963907,15.513991299294737,6.075956139202864,-12.122315825796058,21.578224950311863,26.59524401381733,17.350867606098262,5.477701542093941
9.0,-7.7963433830195115,-2.4873332891271343,5.309010093891111,5.191382269034502,-6.543399399202585,1.4557651776103135,-1.9897708957631997,-19.932984555516136,-39.40418926954244,-36.08834350115957,-12.464455468047412,-9.540445091680882
10.0,-6.840982840248008,13.673072330662222,20.51405517090778,-3.4493685709047845,-13.67200107812908,17.067328912596277,-10.22231297141427,-30.151494657249206,-59.08050680118086,-30.337299468548117,5.852554652947074,13.747524020578316
11.0,34.62056441917824,29.6680748533826,-4.952489565797265,-32.10018044421513,19.795499280846922,12.416278817804006,-18.701762942525786,46.4482383716131,65.03504162696683,50.525414059936956,38.15808007816107,27.82037691420848
12.0,45.74940650675111,7.339768600074594,-38.409637906676764,-26.499105926117064,42.01856833487395,-15.552565050864764,-13.375997577890795,75.11194662502679,102.36825857064153,51.435722881121265,5.679456442132649,-1.6516711568398996
13.0,1.5585879308290131,-29.046411288771292,-30.604999219599485,13.712836320305103,16.11079311532776,-29.845297745776588,17.57165715834914,4.208671897385855,-29.03786567607546,-48.81160727058727,-53.420334253710564,-43.40078379756856
14.0,-12.40165553310817,-41.47198312715261,-29.07032759404321,26.90629971100358,8.373768308772519,-35.297589385102995,17.274472358280686,-31.66145451624704,-65.26500771916258,-58.622650818826386,-44.8709003420626,-31.742231045693707
15.0,-6.907723042664257,-29.998187913780264,-23.090464871114378,18.41947913168928,8.059259016650376,-26.502669440423436,1.479444544128551,-36.166702528901666,-58.56046754908171,-32.953252326466135,-8.716608605727835,-4.1635513211718305
16.0,-6.2024356992134635,-17.909737810237964,-11.707302111023532,12.094714064625625,2.7231208231833985,-14.857730795740656,-4.332686303013743,-12.908580763730475,-28.034735045319596,-14.824437681598535,-2.0272360816604835,1.07696399664279
17.0,-15.678718478418643,35.440740540642366,51.11945901906018,-9.929665532299186,-33.42973538565782,43.29916247542642,-3.7940525824348432,-8.50339851215794,1.5174798618806564,12.897052991428856,20.638286966950027,20.31792773190808
18.0,-11.361677095586096,46.37383179517511,57.735508890759434,-17.48327070244356,-34.504593960528936,52.06782557256774,-3.4020324336662084,2.5025722595911377,20.120458736875474,25.925715835201494,26.34524709979019,23.850516389370927
19.0,1.2114072097939137,28.027452202155725,26.81604499236009,-14.599515482638056,-12.763538716409691,27.435357914359678,-9.71211869002425,13.137413894573244,33.230195505361145,34.20183078977822,25.275202864615125,18.226031003916347
20.0,14.099669627418429,-4.904573369521312,-19.00424299694028,-4.5743299511581945,16.585547375423488,-11.933970893264405,-4.158628817687097,17.256149452564465,32.8460642536584,24.74843667005051,12.248172475485433,6.839337970995754
21.0,9.147665430544327,-27.3367638353103,-36.4844292658537,9.126869159542686,22.766060924500326,-31.95752901851411,10.07586475785498,10.641796423915903,20.236649700993876,-0.7133386437763285,-14.81893234048583,-19.019331964554027
22.0,6.984529561042326,-25.928919480905762,-32.91344904194668,9.43816459936822,19.894392643595147,-29.37651708180231,13.154316228282514,10.828919390009247,7.129341417630224,-9.110402747691868,-22.101347486670527,-26.154584547896324
23.0,4.208230234877069,-3.0308225923579997,-7.239052827233877,-0.6106242879650807,5.743378336454212,-5.158064260657753,0.4503259650253648,2.6308152597068912,-5.568559574434783,-6.308731995871481,-3.1772438031462222,0.637937048385897
24.0,-1.1722756738667002,8.073464607208267,9.245740281075454,-3.4639251239513067,-5.1930798763116135,8.642933431915383,-4.793108616279832,-9.16430508780659,-21.374159805675745,-11.677682926794098,-3.9176543439717744,2.048196609875273
25.0,-6.941482383377727,9.812902768188003,16.7543851515656,-1.4456531823649819,-11.834539305132939,13.267818001851218,-3.310371826862034,-16.163351354303835,-20.317354957502683,-4.895709652209138,9.301599587466384,12.061980407020702
26.0,-9.575683905151514,7.13102822696914,16.706712132120263,1.2108650531171157,-13.128595061113847,11.898801332046189,-5.522124781121483,-16.092265163678405,-22.83084451183359,-8.674275074936505,-0.9759855173301428,1.3390720402785732
27.0,-11.090515085459758,0.9801104082513383,12.070625493710615,5.11791214392495,-11.567066685271348,6.576414259957746,-0.4026400020309988,-8.690929137436271,-7.714673893254339,-10.189218085408038,-4.22042133924759,-1.7350508844714767
28.0,1.8701992789422652,-10.665104514755008,-12.535303793697743,4.3762242111791005,7.139572452118205,-11.55817513970507,2.903672643407702,9.273209111728807,14.674010129757441,0.7351814468031233,-6.91545895577303,-7.835029398698748
29.0,13.189665898261232,-1.853557626294296,-15.043223524555883,-5.693048169669201,14.134561079707526,-8.493923461005712,-1.2033846168452538,13.299459995273494,16.2619962371001,10.282869309066234,1.325204586998165,-2.7931233567159826
30.0,2.985546363664751,-1.9407042840143223,-4.926250647679339,-0.47006905730278525,3.976517028892931,-3.407940420227136,-0.987348141912427,3.6151544058052387,7.984681728153818,11.356046264127846,7.504148153583207,5.7712404377140025
31.0,-2.0810414356547504,1.4927142435290734,3.573755679183717,0.26836894365198205,-2.804497828690814,2.4739993146740957,2.550469578835637,3.0756167574680013,1.6864491958341308,2.764544657278206,1.1586012130599315,-1.4301233344038762
32.0,0.14308344537178486,3.6522444503129647,3.5091610049413684,-1.9222400266053494,-1.7366199780182383,3.5963919184710798,1.1944357608642377,5.098833385286237,-2.325148966803686,0.09522126937744346,2.5280419712602065,3.8733097028463224
33.0,2.739141814719063,0.011202977382290591,-2.7279388373363993,-1.321009254973382,2.7615089189259265,-1.3435675334151975,1.8148758550416497,0.9553396165844884,-0.9137257740943601,-0.8939251777311668,2.73758258235553,4.210857877207637
34.0,-0.6506665904304929,7.135152612740186,7.785819203171091,-3.269630181801198,-4.264965042599038,7.478078525975663,1.4056721537294925,-2.588984181145615,3.5944767930381802,-0.26798125702809505,2.7401873868876785,1.244582870520863
35.0,-3.6996177234697725,-1.0974990243636324,2.602118699106385,2.364989535193329,-3.1129486771546637,0.6979371525245441,1.0445717083932298,-12.130520274785912,-3.420806414593325,-2.4735105072488324,-2.213277555571997,-0.8393657462886777
36.0,-3.8867919124159234,-3.6987208550419486,0.18807105737403607,3.829163795673674,-1.9917985232781397,-1.7207339855695873,0.176658503750035,-6.354211101279924,-3.392586195883557,-1.3870178911264768,-2.2373659470934077,-0.03882157340293535
37.0,1.7755986404951405,-8.794930829487448,-10.57052946998267,3.4580694811442334,6.148631391724875,-9.636161721902067,-1.271316260345638,3.3120539552236172,-1.1438611310848898,-0.12760127864735793,-5.8813999068688805,-7.6961182418967065
38.0,5.971810996184038,-2.997906994987124,-8.969717991171354,-1.4667069356342246,7.454452997623491,-6.0048521615387225,-3.118197562536767,4.970269418274681,-8.07131429222378,-5.913451479658248,-3.749261280761864,-2.7605007690353984
39.0,-4.029256680372216,14.80749033597192,18.83674701634394,-5.370905364056464,-11.443428408251659,16.80849981000281,-6.19185283479872,1.6874254168871534,-2.764934644794653,-1.152205181976187,4.748122077745172,4.887618159713354
40.0,-2.812892119302788,6.774380866460692,9.587272985763292,-1.958497571778384,-6.208046849892198,8.168718937880802,-1.815405491104548,-1.4442987468612474,6.949375458213925,4.305488462292914,3.1964690729260044,3.90808610096039
41.0,-2.222147929878679,-3.7261784891105183,-1.504030559231956,3.0057876901830136,-0.3683187075217049,-2.6322025813559056,0.5041209004787996,-0.36837185438213904,1.8927573905401562,-1.7793462647001195,-1.6701685730547893,-3.3222628912005767
42.0,4.08108513776685,-10.714948513042879,-14.796033650809743,3.2820849312515867,9.503495823921202,-12.782721529617541,3.447735677019728,2.5696582745143823,3.6610922701717206,3.676869484355461,-4.331705356945784,-2.7760597193858234
43.0,2.801802085747913,-0.8120015248765959,-3.6138036106244815,-1.0177634381686946,3.1872630991216484,-2.17377358740608,9.948344033227603,5.023280104970105,9.347350237925493,4.498099212390603,4.572274477110469,-0.4927021041510158
44.0,2.14734490419338,1.7390108062287646,-0.4083340979646084,-1.9570474671345177,1.2498108982862925,0.6931953746836501,3.128066052918358,-2.675684900367861,-2.165477315676752,1.6455820387446702,1.4067939799136142,4.11283696244179
45.0,0.3019848088451126,-0.4906804269997621,-0.7926652358449042,0.08521441625488102,0.5125778248007662,-0.6212555350817015,-5.0549912524685086,-4.699044333145292,-11.208892221895605,-5.843315682376785,0.47462740217067245,0.9967539303615627
46.0,-4.8586304737182875,-0.8053884643835261,4.05324200933476,2.823687115518243,-4.416491017314872,1.5632761534132267,-4.934594438155446,-0.9952934942334974,-0.5330928081048842,-1.3626182008458265,0.9088268508939739,3.7725786204633405
47.0,-2.3225207978308378,0.27795806533450484,2.6004788631653497,1.0909542941727104,-2.4236127366698716,1.4598545080515914,0.21806398319956521,0.91817472335264,-3.6779664116973003,-2.224589447947058,-2.72443708432926,-4.289010174794621
48.0,8.698459876859062,7.254040895805148,-1.4444189810538441,-7.9891743232909205,5.0319098952408625,2.931386650068699,-2.080741964995411,1.8555919831192829,2.1735695698131456,-0.2933955061044884,-0.9431386353675271,-3.702683219373955
49.0,1.544655579861079,2.183376111592503,0.638720531731557,-1.8800220101690863,0.49527472570924846,1.3661864577843241,-0.4190042699162564,4.6212588315472924,8.231285285825535,4.386686519022627,0.5390372769493186,1.9754756777998734
50.0,-5.860857812064304,-4.079584432583751,1.7812733794806561,4.950908112046379,-3.854471495915623,-1.1085672201212977,1.3709382613983376,-3.0581134111902397,4.81846814016011,3.7667966043523564,0.7641268996413295,0.5770608638459038
51.0,-8.230008252905646,-5.930596779510712,2.29941147339493,7.135632104042039,-5.296931710347367,-1.849106162683456,2.6196620984090773,-0.5597424392537846,-4.273421307134763,-1.9837196539920794,-0.18818069985105512,-0.44626221061894794
52.0,-5.725623359545675,-0.15766147020708,5.567961889338466,2.912687651902405,-5.602090211401524,2.673594514618099,-0.07511698117335741,-7.0665116316789565,-8.013884473754329,-4.781422546722376,-1.503297609195092,-0.184287804277514
53.0,-0.7912647659777398,1.4628274797945573,2.2540922457720796,-0.3717980896400507,-1.561720202395252,1.9050264994148662,2.0513237949701892,-0.9426726918161132,-3.8111288715336253,-2.7944420652583117,-0.40709077694058265,0.24386600771482092
54.0,13.160915079567452,7.0839514088932285,-6.076963670674387,-10.087481013039978,9.651304130639188,0.5473985247753503,-1.5937687521772723,3.121640219142951,0.8975392010376226,2.203717321380812,0.5106102421755951,0.13454904505067966
55.0,12.454275176490857,-3.4822020923200245,-15.936477268810917,-4.536646982726733,14.219560444460686,-9.748189779637672,-2.517986261719452,9.021063284471177,5.189409110715331,3.794818678299034,1.0607532375587083,2.585701958042467
56.0,-0.21158355285134878,-3.852832347494224,-3.6412487946428334,2.0565319756800546,1.6530753861819516,-3.790516151828532,-3.205020296454347,-0.9896848458602854,6.537509168784535,0.23199650673723005,0.6581776808657888,-2.4252505394116577
57.0,-3.0296080513125725,1.734204375213778,4.76381242652649,0.6726884742312762,-3.884169724421856,3.2798458253306424,2.25417090430566,-4.058677303788447,1.0570810065964644,0.14873246266943785,-1.1481970596189601,-3.131032973765032
58.0,-5.7770434088149845,5.373602254411776,11.150645663226978,0.23192976606968108,-8.451752310065366,8.289622615781486,4.812186997846304,0.7313723258217308,-2.111630171236725,0.6090949216458192,1.5680804153051833,2.6404022335343367
59.0,-10.214953358596127,-0.9970954633778297,9.217857895218492,5.565587157425708,-9.700386011746694,4.0577401864740406,0.41761622234917173,-4.075009291704628,-6.754120977042577,-1.8534828964298358,1.5792173931267914,3.0231642526097837
60.0,-3.12519019493939,-7.73974231952307,-4.614552124583604,5.478718452430462,0.7682393936876801,-6.149956537985536,-1.0276190046028106,1.743589283532212,-3.4724155346255627,-3.7726646320511845,-1.442963752362207,0.45034602899975107
61.0,6.959982952148238,0.2553443627675329,-6.7046385893807505,-3.6357332950177463,6.786505574865346,-3.1939459076171666,-1.6261168282950318,5.4988923345087475,5.387928302039736,2.9604508821822813,-1.6251737145265337,-2.0262954986160375
62.0,3.780495041893853,2.169743190173757,-1.6107518517202202,-3.0045971269401277,2.7376101916940105,0.23669626970287538,-4.086551921927446,-3.8030763436579442,0.595047673944421,0.9162551167452799,-2.701025754454376,-4.143674257864155
63.0,1.5824670297908279,3.135389200823782,1.552922171032765,-2.3959338112373683,-0.015102273217701523,2.3858980898533533,-0.027014772219066563,-0.873713759112039,2.894761599210727,2.770813272827989,3.6436489887597148,2.3520657070526303
64.0,-4.283458995812957,2.07641535788297,6.359874353695784,1.133609785157387,-5.347534312925136,4.1861084947802185,4.029286851091824,0.01760908001876632,1.2014248931306089,-0.1443128262052209,0.1660415993744644,1.7857887805024926
65.0,4.000793733813731,1.3334605130910382,-2.6673332207227958,-2.649273464408254,3.3099112199348393,-0.6959525540750935,2.3518853897138556,0.6719347757924149,-0.7267898119068366,-2.1804935308011806,1.2427204553199325,1.6738250463802622
66.0,2.023600664203832,-3.008855455839544,-5.032456120043368,0.5014281191778472,3.583555514076369,-3.9704766552213404,-1.2337107095325306,-3.755651577796266,-5.4571406098508,-3.7874123747607116,-2.5836302404230027,-3.48450767340491
67.0,-3.483773730005516,-1.444433019489395,2.03934071051621,2.469620295553577,-2.783121505643555,0.2666876236037308,-2.6599488612859177,-0.7707826549171364,-5.263569232976046,-4.732945701466792,-1.3140703727603764,1.358675933839104
68.0,-1.3647611921544367,-4.454843214200832,-3.0900820220463086,2.9183797453339886,0.9228009339372181,-3.728937625657556,1.6206026500189916,0.3834903134482588,1.9765129313870884,3.376358448434228,-0.6532174909274464,-2.3636419084585976
69.0,0.9115132906554193,-0.7154614092953653,-1.626974699950691,-0.08150791805441004,1.2540367688931195,-1.2124798614296435,1.7756701190259143,3.81262759300596,7.191423350076833,6.698272963661841,1.873842123977151,1.839334255727504
70.0,0.6655084661200124,2.045861141693642,1.3803526755736524,-1.407883668180098,-0.37072266379900465,1.7439050620766492,-2.193154676592077,10.131976975246909,6.691552714720123,3.957697036691723,2.5270968650188603,-0.8069823989415219
71.0,1.3478593283155058,2.864524389890029,1.5166650615745114,-2.070498307272833,-0.09935606449186896,2.136410300833149,-1.3486850566803983,-1.8212783083246649,-1.99644110745814,-1.6575107028787888,0.2965976362750422,1.1214773793135953
72.0,-3.7970767408932677,3.3935034098094325,7.190580150702618,0.1648739212477459,-5.515058524191185,5.311965160769962,1.8789994996811843,-6.022760004955095,-4.50366143351786,0.885641630558069,4.178793314337804,5.546401481732406
73.0,-0.7038617129726635,-0.6019655291552346,0.10189618381732846,0.6185114088989487,-0.4344109642953953,-0.23233862047110554,-3.348179248581001,-9.663238532095141,-7.31148017906317,-4.778683646179256,-2.0011651996523834,-3.0957632691030508
74.0,2.15114478955444,2.285503386583666,0.13435859702921327,-2.174341413386337,1.0433902546158953,1.2279563333038603,0.1768467366665477,-0.8062018275794207,-4.282111314945077,-9.755901615513,-9.053627874668633,-5.934493602069703
75.0,3.1037297994462794,-3.037577241589562,-6.141307041035748,0.00916070532155222,4.646079083054057,-4.569226038927969,-0.06700099722125863,4.896837657004086,2.8208152539842963,-0.09820256585696985,-3.436180570321192,-1.457288666346436
76.0,-6.057174076780711,-5.115011155753909,0.9421629210269216,5.547851432295565,-3.4846379069598146,-2.1421749131901398,2.044701358462057,2.679076537096136,8.716499810097712,7.381480239395688,3.2680119531401592,1.0694552863615108
77.0,-1.6361681414797358,-2.9979498557083275,-1.3617817142285338,2.356598353149382,-0.12705975821123866,-2.1547302288914416,5.517328421598533,3.7996336815671548,8.630411698230441,6.9548157470410015,4.109410951222658,3.2208333235066884
78.0,3.6556465261602167,2.4428273664270366,-1.212819159733169,-3.088643774700131,2.442392344905551,0.5622751083745756,2.4037156937476465,1.0221290581259357,-3.574364025603985,-2.5641156472639,3.933482361298012,2.7683298476382987
79.0,6.467801224244666,1.97894187670912,-4.488859347535582,-4.262625891262219,5.407231395641866,-1.2290330889928311,-2.6826791809431487,1.9417538611470058,-4.955230568214614,-0.6486405728101463,3.433144919506656,2.222375379101388
80.0,3.23568039137062,5.450361616962604,2.2146812255918955,-4.3035559106583765,0.5178636151885184,3.858263495657943,-6.183018017453741,-4.796070264783297,-5.189728319959192,1.2240675566402464,-0.9034383326630759,-0.9520465895671408
81.0,-1.6156021943694105,3.2326996887330033,4.848301883102324,-0.7697694255639846,-3.22502988105508,4.066944487381973,-3.7592875929731826,-8.059650952586482,-5.078766152781261,-3.930897132971525,-3.9156425114395637,-1.6387859879829056
82.0,-7.347024631814362,-3.5170599297223983,3.829964702091896,5.390364976859063,-5.5816684537688595,0.10632196649233694,-1.0013523912595108,3.2570617930581234,3.4376241805956402,-1.7444016867854844,-4.925511564447865,-5.012859537152076
83.0,-6.188695884740262,-6.67248485331094,-0.4837889685706285,6.464787702021439,-2.844551298536828,-3.5458031681179736,2.9448716291562875,3.154061646016062,6.416547459023118,-0.9162747902895259,-2.1462771719602536,-0.38500016486965016
84.0,-2.8128063649898256,-2.762664857781906,0.050141507207985936,2.7394480122340594,-1.4208897320980949,-1.3977300215983428,4.662307736883902,3.020085886006652,6.7385880989079805,3.7303109112845174,4.626425631444623,1.0972471462964246
85.0,9.460685424545172,7.508892663081184,-1.9517927614639417,-8.457949227339824,5.72070567876754,2.821588538875712,3.320995452882979,-0.39253035832436844,-2.567821501407823,2.7723422653786223,0.6423634074270268,2.8398131229521026
86.0,2.4879210336851294,5.815274698357662,3.3273536646725095,-4.205463784224733,-0.4013299592589492,4.541782338272372,-2.030942382078522,0.18968574960751727,-3.6522781660675325,1.1673412926773847,2.5774396628683647,4.16297788731185
87.0,-0.8348264955374232,-6.435382534708119,-5.600556039170792,3.6613346752823093,2.3251403317186727,-6.041242278801713,-0.8952823648021926,-4.230131627615062,-9.831168717251055,-6.00626799673325,-2.5358751534298793,-2.597201939700895
88.0,0.3892344718609808,-5.438068229173968,-5.82730270103503,2.556204325091421,3.1300013367744937,-5.571284352964869,-1.7002520215360015,-2.0807751502674128,-0.023611606255312445,-3.1689081192602204,0.8606612838584081,-2.8334276140597447
89.0,-4.110102444309925,-3.499278809140191,0.6108236351697158,3.8457054914925126,-2.4181253801421327,-1.456593354150978,-2.748588555836661,-1.9158623617798973,1.4759140056606708,-2.1857756187577224,-5.128627743529848,-5.051454807964132
90.0,1.4530348206294632,4.186329413115426,2.7332945924859944,-2.846679593571232,-0.6193223911841064,3.4507086811350876,0.9127555146517794,4.79826830500652,7.80166266719607,5.0605531346297195,1.947178150782561,1.6110233785103532
91.0,-0.023980471179249174,4.471201407979261,4.495181879158594,-2.241512837449547,-2.236649755964436,4.474905316328841,2.54164867345428,6.687452022089759,9.604270124981888,8.062327218345704,5.452217475229083,6.6686387550220685
92.0,3.375107727760046,2.0520364073250796,-1.3230713204348712,-2.726973849482583,2.377744649355298,0.35422550810441855,-2.1606663011005116,-0.6928745210614244,-1.5874526523136812,0.23174942850145142,2.72309752898026,1.8264384932253335
93.0,1.4606194901381597,3.07564592528077,1.6150264351426564,-2.283198059852191,-0.039742767726203276,2.330566984678864,0.48661831967521707,-2.5628935964191166,-8.712030613828368,-2.998026953930533,-1.3404611289450072,2.6841162029647503
94.0,-6.59882019684408,-3.1205526614032046,3.4782675354408763,4.837203751590733,-5.070199645634138,0.2365621011555788,2.885555506672583,-5.436825287108797,-7.374112405922239,-5.625754789259935,-6.442138468930889,-6.952800181664971
95.0,0.9652707838889256,2.8156741322674748,1.8504033483785132,-1.8452151431387755,-0.4668260856098563,2.304988941988805,-0.684568525854454,-1.050601132175192,-0.40545933528016675,-0.48287220164126365,-4.147260858757643,-3.899622346783689
96.0,6.966613850844505,-2.4915030354590693,-9.458116886303625,-2.20386463234121,8.190807441225306,-6.009622595185879,-0.2999496646402952,3.212511772321082,4.932376313863188,1.02136602502802,3.149719003652459,0.05002009502748761
97.0,-1.8837715679793345,-4.142143031586162,-2.258371463606918,2.958625750501098,0.16307827669055497,-3.1621815193174694,4.219278924086447,1.5445470011928344,4.309424957550889,2.5401171338292188,3.9490764595015886,4.021621764048121
98.0,-5.711527153926986,-4.443801721296155,1.2677254326307739,5.096973736337671,-3.441670810297804,-1.5546887718481326,-2.508861653848145,0.7322289244068381,1.6993743962503434,-0.36559184439845605,1.1806079638579234,0.544385862697492
99.0,-4.973164789194758,-4.717539696437276,0.2556250927574479,4.864283286514016,-2.652704915690521,-2.2800878606522015,-6.062595881987889,1.3887194179987716,-2.7336447330707334,-1.7091419617323997,-0.505632753381676,-2.181635720826609
100.0,-2.4002592956352045,3.8457935170519746,6.246052812687179,-0.7000703863140647,-4.28794375091445,5.072533352749776,-0.39175627478324104,-5.057302302599231,-4.060287208675146,-0.6139283766767156,-1.426186808386189,3.0669664537163577
101.0,10.050745071963346,8.040241231790272,-2.010503840173039,-9.094888586640293,6.065081977526727,2.960335422077854,0.34265771720379234,-1.568856864960734,-0.8101025348502293,-2.215064138341059,-1.3697860220585907,-1.801551478484952
102.0,10.162577558779901,6.286012666380781,-3.876564892399096,-8.265452366049805,6.979299554587509,1.2273840871468882,-1.2338293862783103,2.8072647206109194,3.7589916951088123,6.013662827389642,0.7356279204600775,0.7180589141690868
103.0,-3.8633979411284454,1.7477585971470306,5.61115653827544,1.1042503065117826,-4.691636017677462,3.7018038049364606,1.7256422192409706,0.9171513324789171,3.8708447152235923,3.1566462756396483,0.7104808366017588,-0.8415315680758395
104.0,-8.577255801320455,-9.373850035485212,-0.7965942341647861,8.951968104153734,-3.915983339558539,-5.061703295025632,5.8131930554835,3.02841398607497,1.8252928790991783,-1.3539296378304797,1.2828614983800015,3.0542155175196246
105.0,-3.7083347941958604,-3.676305842310522,0.0320289518853466,3.755295338532092,-1.8909693181592484,-1.874916651846044,4.552778147589226,0.2589043250321683,-2.13764526238256,-0.5611648000136599,1.5720253886659885,2.2288951257819827
106.0,3.3966477471425693,1.7983697307494415,-1.5982780163930301,-2.6076750079955584,2.477166742987812,0.12907156044547552,-2.0375079851066253,-2.0082057917791576,-6.700952844288696,-5.578640058494292,-3.5009863334613103,-6.807097880921734
107.0,6.6744632545955,2.844387550230256,-3.830075704365127,-4.767805768294698,5.228011503669334,-0.461060747694477,-3.0421572942656034,-0.9087520099433932,-5.414078906495686,-2.925654672896093,-4.125657218433419,-2.981512406387134
108.0,-3.843759560674347,-1.8848655746443148,1.9588939860300685,2.852550309521799,-2.8538131820234587,-0.008207574553280361,-1.871151123570625,-4.853182523317605,3.2415065575531767,1.8917323241429373,4.072937595955857,3.442800768726003
109.0,-5.05903668179007,-3.317910360889734,1.7411263209002694,4.167909367361449,-3.360430674478306,-0.8330704934349515,-2.7090828106800804,-1.3897874404458248,5.8106521351553635,0.8377115339262698,-2.2367102013951303,-2.4314970863733274
110.0,1.8046410121022034,2.6782619201086817,0.8736209080063506,-2.274889743062676,0.41953503107222945,1.809777618970924,-3.9829200228430786,2.3987541491621047,2.9604684819601617,1.2841580020416663,-0.016170041470437657,0.9814112401901746
111.0,3.7255058205382743,-0.4186210359899798,-4.144126856528391,-1.6223089858105775,3.9627334949361677,-2.2477948242800823,2.1816006381518185,7.010505378379996,-0.614205956990403,3.3002604095441614,4.911753074168357,4.655181526996878
112.0,-1.039131546783626,2.5335942285704935,3.5727257753540416,-0.7282745108922258,-2.280644452055488,3.0870878397059913,5.454082806118833,2.7724656499448477,3.1252855116498957,4.740983187466324,5.22586225075267,8.712716958532072
113.0,-1.578423648170367,2.350230169471008,3.9286538176413948,-0.37448197411308065,-2.8075656107772704,3.0957905955498477,1.5138454328420758,-0.39959396143462045,-3.4892163189217547,0.01871907381610982,-2.1581519247367735,-3.6681796238691438
114.0,9.476425721694422,4.124626482857216,-5.351799238837106,-6.790983678910708,7.361613285545764,-0.6553386240224581,-3.1251725068334917,-3.111861781001877,-4.908642945643604,-6.01870418781307,-4.257682609460847,-8.887618557285656
115.0,-1.5769873835809496,-0.9930445786494639,0.5839428049316668,1.2974519926128572,-1.0502435402926331,-0.16502076441125385,-1.3582495089686175,-3.9906781883737397,-1.3341490791570014,-1.2994646073556297,-2.9837144408086558,0.9563510275415403
116.0,-10.265283243642378,-11.023377331599109,-0.7580940879565874,10.583375363186661,-4.716665753020068,-5.926729904778613,1.1914825599798298,-8.465700952848744,-2.6536066782662995,-5.526372330976834,-4.419155305441992,-5.664132477040757
117.0,-4.631818631805027,-3.679810387720398,0.95200824408471,4.178651884682344,-2.7460202060869747,-1.3171827587963674,0.9593103136035975,0.5884064803457325,0.7962079737085035,-2.059285710939686,-1.947026915114971,-2.0137986200822526
118.0,3.997198776144491,0.8546089253195182,-3.1425898508249848,-2.4006191094683955,3.546573967999638,-1.1716550356784259,1.839947404863826,9.509086442641175,8.300602237506261,2.441861228803627,3.588548488790041,6.037232844412158
119.0,3.0359336887814026,6.135239715409686,3.099306026628253,-4.640311606838101,-0.04747946896833066,4.6721861994621685,2.0719920572128987,6.072375800403712,5.759080013691827,9.899032087093968,9.750632608393769,9.353457145938325
120.0,6.870334345593865,7.746942836182533,0.8766084905886669,-7.289328818621476,2.9841056204425542,4.289812011201933,-1.802586546122233,-0.3890518194500725,-3.365677411147218,2.984221021600111,3.9004713281431043,0.46974518954728506
121.0,3.038961782043892,0.9891966879744389,-2.049765094069434,-2.0015754446749288,2.52892535615955,-0.5536697870561427,-1.6518517132806183,-2.047446777813899,-3.0187867359757754,-1.6474249490043888,-3.060169763131989,-6.0687815485491345
122.0,-1.3248461025415588,0.8224466544306305,2.14729275697222,0.2567265734816646,-1.759180570426215,1.4562178574848492,-3.8692125456420086,-4.30360711515851,-5.167186241342607,-2.9510509940372307,-4.650789404826667,-0.45115195115498086
123.0,-13.440635389157388,-9.849443243302579,3.5911921458548113,11.645258400147819,-8.470396347394505,-3.0874133003525372,-0.6226284400495734,-4.827412748971053,-4.258011539276117,-6.822663131119915,-5.53290787223364,-2.0273896075997015
124.0,-6.925684083203583,-7.400294303073736,-0.47461021987013097,7.160858337234162,-3.2678952918000617,-3.9840545141184673,-3.7873878043088833,-0.9799545108484389,3.8049749053090096,-0.22191773562932315,-0.9733130356998516,-1.0299854200012792
125.0,2.4099739107053706,0.33569355760589703,-2.0742803530994185,-1.3738091983216991,2.2733976172155113,-0.8453552051108888,3.1755568385556163,3.445198938691798,5.068328878408734,4.238688256038578,3.586046023125562,1.6850422925984874
126.0,14.33424369946085,6.785025155632999,-7.549218543827794,-10.556074829342258,10.973247445515998,-0.3628192082111811,5.351518668445109,6.497616709116394,1.7176939353581053,1.874436746094683,1.32853336551718,0.02301158992602459
127.0,9.452972367416397,8.518173067908474,-0.9347992995079029,-8.974679130037032,5.230165899112934,3.810876484575376,2.6643554630189237,1.0354422139176096,-2.247579351211382,-1.2884824557403407,1.2745259954681327,2.3106185796734833
128.0,0.2637576540420161,2.871729057954701,2.60797140391262,-1.6262682137816622,-1.2079606688883007,2.763045702453978,1.32325359826496,-1.0747178661728705,-1.1033759776541325,-2.303149563397047,2.007300233611886,-0.7254951901880875
129.0,-9.068760975724679,-5.970908159236609,3.097852816487965,7.550491165320333,-6.113922586862874,-1.485620770333648,-1.3070256273183556,-5.312714469291321,-2.850635117130552,-1.0757979641919617,-4.156753115569907,-1.5073240099604035
130.0,-12.038422633524867,-7.528947337506855,4.50947529601794,9.82484115821009,-8.30297575851675,-1.5518788181660048,-0.9295565920053925,-0.8836523204017084,4.839789931991463,5.070745305374901,4.25727378154033,0.43222259851834255
131.0,-2.5109339914513473,-0.31040998370442185,2.2005240077469486,1.3823771325704195,-2.387133214637637,0.9876382135918249,-4.280240850620654,-2.0946479134109643,1.924820832253765,1.1872761664739262,-2.080367418598604,0.17429339009516145
132.0,0.6307461549876376,1.361305388845394,0.730559233857863,-1.0177022428932128,-0.0073404716747242915,1.014168998511689,-1.7193515406219406,1.5345267594806153,-3.1402976590061895,-1.6775372397222217,-2.4275007656075975,-0.1427922084603907
133.0,4.010854639626967,2.3042789492461,-1.7065756903807325,-3.0979735449295482,2.8964838520077727,0.3487581307746712,0.7155515724149462,1.9933386336395043,-2.299792310250144,-1.2311125005494474,-1.0242196121375386,1.1248673597773753
134.0,11.50996784180293,2.434665988434614,-9.075301853368218,-6.993932256765088,10.327404401170549,-3.3474736061484776,0.6222468803740159,3.4947133937908483,-1.0636469513314986,0.09237831466581126,4.923423108780673,1.9974963129686973
135.0,4.37407306340126,-0.37107203342122186,-4.745145096822455,-2.030379782810059,4.514771750043105,-2.506045219546602,1.8741333218425946,0.7839693346701115,0.24672935462912154,-3.676965884908884,-2.3143709577284515,-3.094124398253138
136.0,-6.027400786892226,-4.066445579359309,1.9609552075328422,5.007499667420509,-3.9600691499906873,-1.0804567755809784,1.417702080673223,0.23023835665183934,3.2941565747973502,1.1531491378109198,-2.2703891280954633,-2.323560653164953
137.0,-2.4969866515436268,5.896590680825396,8.393577332368904,-1.6716180965340013,-5.490356781332741,7.114602355745605,-4.44076279200624,-2.440501280603246,0.7572322369369573,4.296048131923879,1.7766794808303974,3.3112300565216795
138.0,0.691329097283135,-1.0144143598384787,-1.705743457121713,0.1810348769010699,1.151186275004946,-1.3949026658728143,0.2666570078615115,-4.649809473686506,-5.034798795959333,-3.688112591104826,-1.3448567186929337,-4.753809709640174
139.0,-3.0291941028895457,1.1496781488779668,4.178872251767489,0.9553152586072586,-3.576834597000366,2.7030181515012335,2.8215022503263976,1.1619219585038696,3.488728817939567,0.5067472791720765,3.8985760918228634,4.076850504850826
140.0,0.6244013627283551,-2.4927694531618068,-3.117170815890154,0.9512488960353951,1.892812777121677,-2.77123287466434,2.8148612211504913,1.6727796408267643,1.7787300395526513,2.6301157754851445,0.6549095055380911,1.2859433750494005
141.0,-3.061481851588361,1.361382260495567,4.422864112083943,0.8729770241808388,-3.7249740150590496,2.9218969925157188,-1.911680081847868,4.315036130993183,2.7321740697455548,1.5669205888306603,0.4955175448389403,3.773125919027027
142.0,-3.4154983389869207,-5.512087520336783,-2.0965891813498447,4.416003082706386,-0.6458312725726677,-3.855755572631579,1.4800255132312692,-2.093485118605987,-2.90708434849577,-1.9844013895990478,-4.5669421001168145,-4.109870455162427
143.0,0.34216551093951997,-2.433676149135289,-2.7758416600747973,1.0060310859646484,1.5704582709100616,-2.656881769136074,1.9037259107289835,-3.5813417602105257,-2.3043479262207915,-2.469657490159376,-2.952721398403507,-2.7891856452716217
144.0,6.825580053735008,-0.9683477232844643,-7.793927777019431,-2.9613865644713444,7.241330805959065,-4.353322604469684,-5.065259371917341,-1.853161671447907,-1.648681413042206,-3.285952110447472,0.2912137447338672,-4.506527092536106
145.0,3.9265961184094373,6.015812961537951,2.0892168431285807,-4.919343148238941,0.9285975027633575,4.083488460046633,-2.9971789854942386,2.8036878819317113,0.5636844882857407,4.8179932614797405,6.299851231301581,6.870522636428488
146.0,-0.15417833655318613,4.039725921413237,4.19390425796645,-1.8854937517687715,-2.1637055358018684,4.152630902100563,-0.9753665799916984,1.4789088143224547,0.6227836155499175,0.250237435485948,-1.1479542225340529,0.22550478607444413
147.0,-5.585835044658319,0.5512997822680603,6.13713482692637,2.5010325626139984,-5.849241905149097,3.306943831646727,-0.07810880037116577,-1.9201850717383642,-3.076358235638574,-0.1697548830217459,-0.09424790103605452,1.7322570330513694
148.0,-0.917445117965634,1.6811750397599736,2.5986201577255765,-0.39359891919617995,-1.741627744724589,2.107797858008536,5.372019382740098,5.439763717800819,5.257622553264149,2.213530607953882,2.334944163018479,2.392005179276076
149.0,6.314035222497731,0.05712811760561243,-6.256907104892109,-3.194715787231331,6.229980119016966,-3.0498448992099516,0.9882757902911488,-2.2945849700428207,1.3293235388879672,-1.3942367797322306,-2.931616421222967,-4.43787753584391
150.0,-1.2712699107481944,-5.261554792549,-3.9902848818007426,3.256893201691408,1.3920252165953566,-4.6538030361298635,3.0216271406315087,-1.1189887218509014,-1.8644727768382474,-1.6832081342241068,-3.205108549040613,-5.170811823373117
151.0,-2.037723613546854,-4.712061571774905,-2.674337958227957,3.3616964713584068,0.36129798412376835,-3.722859775135522,-4.5538800776280794,-0.39938162295366464,0.5706775185360149,-2.5319661534249325,-1.2959519224280789,-0.7452000163919799
152.0,-1.146393328081615,-1.791277765786877,-0.6448844377052274,1.4494062992179464,-0.2768027016582815,-1.1726840938216043,-0.6999565907782226,-0.8645194593245067,1.6929728725215119,1.3887527607053312,4.0391209402109505,4.07178393910236
153.0,-4.916280950721717,1.026141524783338,5.942422475505022,1.9970812494626398,-5.448750168823716,3.446367368060973,0.041340801611032596,-0.33931124421613923,-3.3132412783161223,3.3519387654782054,2.323958370287194,4.387265355013954
154.0,-1.2738301796066422,5.813469758214911,7.087299937821448,-2.303413160193646,-4.1982884992606,6.486721526263429,2.3478688820710243,1.737265899555518,-0.3229661060103475,2.3489390201445666,2.3533300118327425,2.028739702665889
155.0,3.6096242033375225,3.098364396340481,-0.5112598069971455,-3.3143682518077373,2.1173247274527354,1.3258966229143931,-0.14467064450489292,-2.146922979589416,-1.2193535981110775,-5.907036906758804,-5.150231515276719,-1.2533685132303765
156.0,6.879395174010979,0.6754365198176977,-6.203958654193322,-3.742119610344386,6.510476582653531,-2.8142436404592734,-3.7940375224731353,-1.1621382575179684,1.8247307762926437,-0.004026408896884437,-3.7411387472069544,-4.674545924494543
157.0,2.2223863564758553,-1.0313207281174859,-3.253707084593284,-0.642988089494323,2.694431673246079,-2.117215119816024,-0.09872970335512887,1.0308457424290327,-0.2106235989246259,1.1768802136891414,1.189804789390721,-4.224593861385202
158.0,-1.2897847874920783,-3.096117883142104,-1.8063330956498773,2.1408916889852763,0.2810689994971769,-2.508087154027802,0.8171175342045023,4.790042879004169,-0.3389635738833279,0.8179421411711509,3.488764198510636,1.411800248017519
159.0,-6.684716397450943,-4.049961750825006,2.634754646626069,5.388533626116868,-4.645836278953758,-0.6885699524699271,0.5114618947812766,-0.0442237279178912,0.7215937496964762,1.1410643044435655,1.8422499514114037,3.435174385144897
160.0,-0.10022859221334457,1.3046132717320447,1.4048418639454114,-0.5867799785883481,-0.7415482994453475,1.3723924337605893,-0.6767363254835828,-1.6931886486233112,0.9216341097410802,-1.0294112629393215,-1.232003194483796,2.685613073211228
161.0,1.3393249568163976,1.4217829434622804,0.08245798664574933,-1.3700440149846262,0.6433396983431269,0.7708163828070453,0.14973195815261853,-1.3339224016102897,-1.2953191234015673,-0.25933177785084804,-1.2974963410734184,-1.805856368576313
162.0,-0.4728109951575963,-0.7294916547128371,-0.2566806595553901,0.608728970266619,-0.08352255878958888,-0.4705344887019871,0.9092290743457716,-0.7172965463276975,0.056518580022689724,0.4939414235247392,2.3610831096227707,1.1318537952858647
163.0,-4.1938536636898895,0.3877594872928246,4.5816131509826175,1.9101657421304346,-4.42919953623625,2.434903895520875,4.8663338363638955,-1.7806602498103787,0.5418567063974109,-0.49310592392162955,-1.0729304382122233,-0.15882660951040933
164.0,2.800573889566661,5.822275956058674,3.021702066492036,-4.302497367556413,-0.13930992016788657,4.380333718424518,0.9689573278384286,-3.1748245369158345,-0.028007762837541084,0.39981663043213705,-2.0659839827205637,-0.742243571817711
165.0,4.058821454559375,-0.21692710325658804,-4.275748557815811,-1.987366285822789,4.148616898168409,-2.2006398289442206,-3.580537891745833,4.712446580625102,1.1924366238523607,-2.6655301984367323,-2.98322925743689,-4.070484359778611
166.0,1.4257883359432948,-4.508948405091979,-5.934736741035131,1.5581175384350108,3.7462549835831043,-5.168567549431582,-2.1888613937080246,4.530778426949818,2.1239907522266783,1.6169111446754219,1.9002195587532082,-0.05311036137370673
167.0,-2.410615086873883,-0.9546110256407778,1.4560040612331386,1.7034405575101033,-1.9447161298941795,0.23014047770961055,-1.9140342421134522,3.858716456202007,-3.516480420217574,0.5603845057506847,2.0754954094607,2.1742202797984977
168.0,0.46135739053155156,-0.22531457179726888,-0.6866719623289597,-0.09349796047899583,0.5598347505199999,-0.4756646359213681,-4.310963710218564,-6.703217765353971,-4.238533540119837,1.7114447492137457,0.6291188014518265,3.183146433513142
169.0,-3.690965671460922,-1.638951999422018,2.05201367203872,2.6919129835817044,-2.891653851268269,0.18321326926971732,2.2399636445621915,-4.960591339232771,2.0201098196000458,1.0216189472896016,2.828478182295949,1.3936020038550154
170.0,0.27970332480227533,3.099125657048631,2.819422332246234,-1.7405146564642602,-1.2193391035473558,2.9286659107052397,1.2456393501551264,-2.7219306152000717,0.9464322298121418,-4.219916349439518,-2.7898433151332225,-2.3629049570480953
171.0,5.210193251373331,1.5506971629242625,-3.65949608844911,-3.43246953461985,4.397633335047314,-1.0149585103513337,4.401880891212189,5.8931882050295945,3.0462276560317068,0.0918751591825171,0.21493870840465945,-1.6411155472187606
172.0,4.169162251311171,2.9204059385338086,-1.248756312777346,-3.519685626082415,2.7416862386586223,0.8680552327393606,3.6786169960847395,3.7839616829287883,-0.38150185915143764,1.1416823152201805,-2.1298890455523978,-2.2523771058768576
173.0,-2.2514904184320397,-2.377676125708236,-0.12618570727610237,2.3387876709357993,-1.1163664406060652,-1.3016302078577464,4.352373460736196,2.7883161423188176,1.2941217248338943,0.8120580236591668,2.459934555434348,0.964032836736201
174.0,-8.718238693364412,-5.469132312178087,3.249106381186443,7.1189672578806835,-5.964454341390881,-1.0788389710611856,-3.506729897471774,-2.1568449647095322,-1.6474817131148591,0.5922724851562222,-0.7611758048950361,1.9758565991185053
175.0,-2.6419726023939067,-0.5134559363532256,2.128516666040785,1.6063966735340953,-2.3695491977645817,0.8456996883413894,-5.35555199922825,-4.2846672223827476,-2.6902865210832267,1.4532285703939738,-0.9017835978190669,4.521039279123795
176.0,-3.7056602249590416,3.8397913222285123,7.545451547187587,-0.11212756174173982,-5.611157283022848,5.661945611856844,-5.786326510310859,-4.586946572312566,-2.024293181324898,-2.252130613155063,-2.0613631774857266,-1.029399502205362
177.0,8.244311299311317,6.326005487283549,-1.9183058120278502,-7.324984092032908,5.096051126569527,2.1831935296121063,-4.376582371626794,0.056604777499486225,3.871012752897003,-1.1690398664744959,-1.0183174140665776,-6.142364498646765
178.0,7.040016472309993,-3.6862597060273705,-10.726276178337478,-1.6338371105790812,8.820249424751552,-7.2194787340706625,1.7676139423264166,5.350556860491231,2.2048843628743673,-1.6381219089831214,3.6851810348755394,-2.0567535260830234
179.0,0.5032022625411141,-8.625723240820546,-9.128925503361756,4.027721840947823,4.833025961490055,-8.887469753564424,6.252863836711015,3.8910372151096393,-0.2559581195341263,1.042048839836466,2.315388652233551,2.229028172351382
180.0,-1.892520276483431,0.014348346405722356,1.9068686228891654,0.9843174068013998,-1.8819622966899958,1.0273170969076024,6.236655873336703,-0.9246067921033263,-2.5824852602955657,0.3103885301803134,-0.028271713379464103,1.7356345905737673
181.0,-4.647897721573496,3.5722917381900356,8.22018945976363,0.5023750226724857,-6.415708492057514,5.8779201244913954,0.0248013749553877,-0.9300519627420819,-3.56947741824255,0.7300726319811567,-2.539500939246467,-0.8928412010485427
182.0,-1.883600643234994,3.2722733669217536,5.1558740101568565,-0.6544850321518847,-3.579193205333929,4.1865668418354485,1.7008212494752752,-2.375015958840176,0.27591414773636425,0.6870049657178677,-2.5734726496836497,2.3845626987525272
183.0,1.6994116426967567,4.924747702602334,3.225336059905624,-3.355671120274078,-0.7417701215678139,4.03747513424031,-1.185027294435144,-1.7578304935779687,5.544369711991894,3.1680441279288907,3.905261723248213,3.9388171170994464
184.0,4.4841496977922395,1.210964728472501,-3.2731849693197845,-2.818023765506708,3.903000336210728,-0.99874842387052,-6.7422796742031,-2.3107153142953023,1.7131940073843488,-1.421204574952232,-2.3715655802326805,-3.955806304498757
185.0,-4.434503777062162,-7.449110802224155,-3.0146070251621016,5.965130858438835,-0.6814732427704848,-5.205540864780581,-2.689783262269189,3.7947249920668478,1.0627103709810892,-0.698882093028183,1.2611211644095044,-1.1583199653986145
186.0,-2.065562555955777,-0.40644940944678964,1.6591131465088655,1.1743523401408016,-1.908269627169406,0.649766257082824,-1.236708781568601,1.6888511814680807,-5.199277071996647,-2.0811107899714596,1.7925208485000612,1.9097410332935993
187.0,2.3261138521895868,-1.1100858443493271,-3.436199696538992,-0.5962733831379774,2.917502711942416,-2.250317663622099,5.907110687627051,2.4081324752592335,-0.5049888459711029,-1.9376075300190652,-1.2142254244356216,-1.845206964047946
188.0,-0.04700086787022606,-0.5194582189485197,-0.4724573510783112,0.2915984249261674,0.17236078393057186,-0.5517911813669634,1.1883302809578393,-1.7023037958700689,0.19193200289739343,3.324968595763707,0.5132122548883181,-0.9060055717531075
189.0,1.3695761858142381,0.7904440343162482,-0.5791321514979647,-1.0720411239774288,0.9346314324605356,0.04936410143389425,-2.9959800543853996,-1.358699906961916,-2.2505554172591262,-1.1196998555012354,-2.897660574944802,0.9435045276435307
190.0,4.486200973403316,6.189841462522325,1.7036404891191097,-5.327078407499229,1.43043513329294,3.9680762802056635,1.7105755392687478,-2.864886635674325,4.1187581604081345,1.5636937170845944,2.0199947700191094,0.2488819431572431
191.0,-0.9865287000561478,-0.8240561002913158,0.1624725997649321,0.9220851485153436,-0.5345766849314109,-0.3101548581737874,2.676884719868759,1.1000979353749842,0.39062818115887876,-0.6402063522214552,-0.35277221399704006,-2.6848682079650175
192.0,-5.264818314312162,-5.966206543216365,-0.7013882289041606,5.56090884428148,-2.318399524304922,-3.3118610729574094,-1.3177012114606916,2.5394810127112954,-3.605125748873944,-1.5499852493064035,-1.9870343218867736,0.9897418062413662
193.0,-2.9762996500107413,-0.9330012319375347,2.0432984180731872,1.985766331478684,-2.464412197711849,0.581422527733533,-3.240734973578661,-0.7653837411859106,1.4651101303889857,-0.9385115351541012,-0.10738615882439004,-1.408391482826881
194.0,0.251776357196966,-3.364345439130299,-3.616121796327279,1.5921263731115118,1.9039781069390238,-3.5355213970554242,-1.8140017078814767,-1.8327846363436016,-0.05813007413812793,1.0747715956085544,-0.6159254973584464,1.8961738191316024
195.0,0.7887782916804814,1.8811104461987795,1.092332154518312,-1.3766400133434644,-0.1798248903713946,1.5287726399133257,2.4248399857305376,1.913993843107695,3.5625639553030526,1.4408868671354929,3.5142752174915834,5.264530742446027
196.0,0.45403945332764595,7.705480935249531,7.251441481921894,-4.124010864389302,-3.348820578922622,7.449595177025136,0.6455328752193676,-3.3932152158991027,0.10217290012902025,4.062311016500401,3.316306485468748,2.9152455898309273
197.0,4.74575790762314,4.778632919901585,0.03287501227842382,-4.733141589469957,2.323583052057562,2.3819053341721466,3.110005864150388,1.471135061127272,-1.6986221165968518,-1.464062074908145,-1.4719477483186183,-5.3467558759410565
198.0,5.856140644266474,2.174527886445565,-3.6816127578209743,-3.99292376837965,4.7295417813135625,-0.7764836380223864,-0.34437001402464573,1.1949672488970837,-1.499987000955786,-4.5080780904428055,-2.027956556328939,-2.950969921621409
199.0,-5.039281776780609,-7.231368394259481,-2.1920866174790055,6.151775452534718,-1.3915574714419785,-4.659385480097322,1.9824773685348704,3.3893781990971394,-0.49416014773980144,-2.1437366619900997,-0.3060146343517307,-4.576398289053198
