Time(ms),I,II,III,aVR,aVL,aVF,V1,V2,V3,V4,V5,V6
-200.0,-16.589674503737644,-11.810240311788872,4.779434191949039,14.167554254308493,-10.731586782602326,-3.4650433482588356,5.503098336461966,-0.17184196415178676,1.9647599989507163,-2.393711558566314,2.9390645472865518,-8.59558003295031
-199.0,-10.991426146343995,-15.32115288058424,-4.329726734240011,13.11436696741586,-3.3010671875333917,-9.859158224220645,0.5394095626070792,2.1251477328929855,-4.441296282432757,-8.773182247196864,-5.006024033782252,-14.223011980231423
-198.0,0.7581581359801377,7.399407883192944,6.6412497472129495,-4.050422177478183,-2.916219835511611,7.061422182620799,-7.80312078054313,-4.976997997789488,-5.142122242829339,1.6570890017135191,1.1977759345311667,5.743571415949571
-197.0,22.70113637608407,12.017878399124214,-10.683257976959926,-17.335842145385325,16.713158093684992,0.7060703113822702,-8.33311202623742,-3.554938816924037,-9.478401375296647,-6.090846874277554,-5.9779478175951235,6.820190175232882
-196.0,21.362329962272792,19.06898193526423,-2.293348027008679,-20.191091622027255,11.76832732901487,8.346348408329856,-3.437763663920011,-1.2649941895140515,2.412324707821364,2.3072323142595246,-1.0986177706334086,9.204415509350532
-195.0,-4.296001208203949,-3.940682107286941,0.3553191009168595,4.0709317071427655,-2.303937947652752,-1.8358840435339845,-6.678346420311949,-2.4894417970287073,3.3385501820073267,5.349474426442662,1.009505626038619,0.8754212408328916
-194.0,-5.059520507270875,-21.950103435111266,-16.890582927840512,13.547451560141122,5.943949344619504,-19.387456548864332,8.062524679397496,6.831583028853636,7.6857213280921375,6.858543224989808,-2.8777999343157474,-12.734009208404903
-193.0,-1.7664552327109018,8.084232999526535,9.850688232237303,-3.1817038721402895,-5.77088297801698,8.91825210041639,7.023125073060394,4.196575582262987,8.01153343899097,12.42705724197033,19.543023811378198,-0.03615558412777453
-192.0,-9.153718096069934,-0.009123075014450865,9.144595021055371,4.570979405022925,-9.181140928558449,4.594249408100643,6.197604042788271,0.4493070471365037,-8.420391557140537,-24.793389346743126,-13.490088945951697,-4.281337848888741
-191.0,-18.326098070956572,-4.908686855762362,13.417411215194178,11.615910325795367,-15.897707847006997,4.279236959589734,1.2012939314517146,-3.934688313300159,-6.583775545086226,-16.409588672884144,-2.639526754825077,7.628888579142697
-190.0,6.988285787671106,8.208414343137688,1.220128555466622,-7.595769254059062,2.859360503994673,4.739254276928912,-10.011384604295046,-3.6970226666512405,-3.163130289267762,-1.4306866442224973,3.219667633313959,8.136591001330972
-189.0,6.319216705374556,9.961533302958507,3.642316597583958,-8.138876229306891,1.3102432240841182,6.828043026991701,-2.1182093407863665,5.1714335332992665,2.4802412961797806,16.034088346291156,11.12783998318671,11.5357315854632
-188.0,-5.061122664336789,-12.919139964577159,-7.858017300240378,8.986245523909135,1.442520087898,-10.440494312969196,5.137779627036175,-1.3690382679202555,1.9735398248317653,15.135283923094246,-4.040748724568649,-10.290084238407937
-187.0,-7.888651098653785,-19.775854402096847,-11.887203303442964,13.820226616055272,2.036380325165556,-15.88443366827722,3.9221017020209747,-0.6341654124575198,4.936123027369946,9.251973924459588,-9.770620392675909,-15.900230218130156
-186.0,17.684078533733036,0.6216025154565843,-17.062476018276318,-9.095229566630598,17.40500158274174,-8.197554194723885,1.31267132302143,1.744129764551085,4.122723350381025,-2.500234412678946,-5.8079139731833935,-11.05199760802726
-185.0,10.49904464458368,12.451139871791327,1.9520952272077237,-11.504677849452108,4.223639463976122,7.220592269843083,-5.541370148810059,-4.984353506580568,0.6980627186129995,-7.474930959093823,5.3709297357130374,3.2934786172548103
-184.0,2.4540712906776605,12.376961290505623,9.922889999827927,-7.451578961187659,-3.784629893800222,11.165940157128937,-1.5090818663959906,-1.2623484732362589,-3.1026134560516785,-8.790801455080471,2.077319731332776,12.531236715001203
-183.0,-6.9692129542862356,10.255488754696184,17.224701708982302,-1.604033872533821,-12.067249028297574,13.756042357037598,-4.569134959550843,0.8007535152857719,-9.815684326236976,-12.178536476078769,-1.255502068152277,11.162657248099823
-182.0,2.299848621403381,3.106013629173609,0.8061650077699589,-2.7427645594043297,0.7781523175886331,1.897370848109996,-3.9988181789723196,8.02130446172924,-5.392849789329738,0.9389481376663689,5.435902790171832,10.931076788819414
-181.0,-7.2627988778799395,-13.749383791111407,-6.486584913231605,10.548154447297488,-0.3559023085147661,-10.08955875534763,4.669106552782139,-0.4385604138841699,4.3386160658197666,6.83558916663969,5.6680895515551555,-5.105748024779174
-180.0,-6.841222655389137,-15.35132887520477,-8.510106219815603,11.065266120763688,0.7872332996217297,-11.890604273971938,4.989447389837127,-0.8321799667686551,10.083155072513245,4.5683207156207555,-0.7623421361493752,-18.237113985979338
-179.0,-6.101724372482424,0.8083785087843101,6.91010288126695,2.701038013038513,-6.555576611853029,3.8336235162274495,3.4816727267366985,-3.2304032933933096,2.1178004283772855,-1.5922052833066074,-7.60192078454765,-6.930108292181232
-178.0,-5.016520737114399,-2.9024908832947887,2.1140298538198916,3.9405914488234393,-3.539854164654687,-0.4079032287511175,1.9313118040387396,-3.3980026107548484,-8.55885195752145,0.046692782978941416,-6.576467333307072,3.5322708334997506
-177.0,-4.723877956723149,-0.596573488458197,4.127304468265075,2.643592030497901,-4.403855640812562,1.7603656733562383,0.9048754341888628,-0.6754732886544661,-0.9545251103918773,2.2506302434194403,-0.42777700197620305,0.2340888815772122
-176.0,22.08828666875839,17.599435026981762,-4.488851641776651,-19.862655571712644,13.307820441969934,6.554271778412348,-3.783591599068099,3.1340901895122926,9.242929147844208,5.642281324413491,0.5470514404077631,0.0256440738863275
-175.0,22.636881156070338,10.456206619230885,-12.180674536839522,-16.571904310663257,17.427393848516846,-0.8643711641783227,-8.107214584636454,5.130423861648424,4.837718431376534,8.420916917557967,7.736188267713683,4.953041840741548
-174.0,-8.425881514121702,-19.564196737271423,-11.138315223149865,14.038787620079544,1.2971323462735675,-15.359128145584839,0.3747255890973893,-2.535420217843094,-10.696786985573903,-8.385192410363484,-3.4461764179644767,-2.956742299089659
-173.0,-9.486020037493137,1.4658019690859758,10.951822006578968,4.043260043964054,-10.19728157657583,6.2703370023455385,0.390646919039191,-1.8340524906578903,-6.129438654666188,-8.237487167331262,6.616725944460074,21.006448939880848
-172.0,4.233027162805731,11.153307228921072,6.9202800661152475,-7.748131428646848,-1.3199839018126553,9.007766843592263,1.458316749918383,0.5857490888753629,-2.3744667706990144,-10.044771002740443,-3.9544333919601122,0.4821824524019114
-171.0,-15.665051910731655,-9.278791542448175,6.386260368283648,12.48923775672338,-11.07933630892954,-1.488367495339877,1.6474544775926758,-3.5839622795635133,2.13832933639118,-3.8478404998240006,-13.600564240713457,-18.793608661778986
-170.0,-18.89581303759338,-6.402811827079099,12.493001210514567,12.663886329826202,-15.668581896241912,3.0685860214693155,5.0240526901527955,-0.35339352014016234,10.35530793253823,11.145520381414181,6.3904132255464905,-5.377098388854982
-169.0,3.6958679318854237,0.5315370037295382,-3.164330928155559,-2.0981723562179067,3.4563913925552736,-1.304921510373397,3.436731103547521,3.4107426769682547,2.6168631015029256,8.617694665547965,28.599005822516208,10.312568018488667
-168.0,21.86328294393872,12.75032827165823,-9.11295467228029,-17.366086337061315,15.436474444273545,1.8204498983108173,-4.524526669470195,5.508847090722213,-0.7581736350956811,9.788517248639053,10.916459083949567,8.858684175580052
-167.0,1.8136845505730275,4.991048916701334,3.177364366128339,-3.377089950887724,-0.6529988132715481,4.079512896905873,-1.4993197985141475,0.9092966484938259,-0.024846355086281302,0.7701155266969248,-21.19947024250601,-2.625282869901654
-166.0,7.390184904388936,-10.803976460282684,-18.19416136467176,1.7386143825463343,12.823913808792685,-14.506338465970776,0.9105242492877497,-0.3122188809863154,-2.5288121171661997,-9.115383042321971,-6.929536633442141,-9.053092126552666
-165.0,4.6420101731573595,-18.56062036392517,-23.20263053708284,6.918201809168484,13.879166820950585,-20.887360249151172,-6.700855455388704,-8.056418817758107,-10.265173069239655,-12.415719736890713,-22.330851740408864,-17.417042939898423
-164.0,-7.1692460258962605,0.3900933077694617,7.559339333665375,3.431735440362739,-7.324439791567897,3.974380695649093,0.6057108365234802,-6.994521461582829,-1.2147129306544318,-4.515908440028365,-24.824825693594278,-15.461955467217576
-163.0,-18.90030654802903,17.094428922228847,35.994735470257545,0.8689383096449355,-27.482383092210583,26.5526824611578,2.27533619884452,1.0797033757553396,9.606294961925009,9.513905560059015,8.221319858344806,16.374334242191967
-162.0,-1.994346050015853,9.558317738809016,11.552663788824633,-3.815338723633149,-6.804949827032395,10.573612408759807,3.7763058809354297,4.937394647640911,2.620717153381908,1.2995857871077074,26.611756287488195,24.627321035168748
-161.0,8.94412193062006,-8.38395074384059,-17.328072674460575,-0.2355815216935911,13.186136977856295,-12.828179596880869,-1.611371280054192,4.201689650977768,-2.1422954229383215,-3.052092704316617,23.446725631647034,10.723156153695516
-160.0,4.234635363720248,0.24454691863034395,-3.99008844508959,-2.1969075277133427,4.085820685061407,-1.9161447241987295,-2.6978766857777305,3.7790952446158323,-7.226598163901942,1.1475361918782279,6.58960265478798,-2.982654289337497
-159.0,3.7295823121580085,14.971379439793523,11.241797127635895,-9.388679130616435,-3.702266816383477,13.067442446699175,-8.326109252170586,0.22203678370429358,-4.786094395382063,6.181400967037449,1.3937481135054688,0.8795311203671723
-158.0,6.451310142497704,10.784809075261668,4.333498932764334,-8.658132915825957,1.034883329369944,7.599729809404317,5.4339917621515585,-1.775964514934243,8.840478679164438,-1.143796083478356,-9.083926355868615,-2.4140830769768176
-157.0,-8.629435640899624,-16.724368350838805,-8.094932709939119,12.714540376265806,-0.2914567670870376,-12.448838601851314,17.443365778482494,-4.339980682008081,12.323096070978133,-0.09307690235899124,-9.998845478323572,-15.516065076095757
-156.0,-0.5878929510518316,-25.58788636896201,-24.9999934179104,13.047126198521925,12.180427690156263,-25.255448786447957,1.628710053221866,4.9781306135736285,3.5824851358073047,4.70247983441204,-3.4785643336832255,-9.458566563800934
-155.0,-17.30743471518879,-21.906220268890007,-4.5987855537016875,19.646814801121504,-6.303663217357152,-13.213385185094012,-5.070187776381439,-4.290446306818074,-7.863079856860159,-3.7282748089734237,-10.33769391773155,-10.074111050528016
-154.0,7.081042318508392,14.478485404548886,7.397443086040005,-10.736455184148582,-0.18933443348105694,10.901550789396584,-10.132199502286865,-4.323472290069837,-10.860632378211822,-4.859176552666844,-7.049108544092297,10.745185190040878
-153.0,8.39860217731281,15.32424580567193,6.9256436283587375,-11.893237124372213,0.7809819013183841,11.094132961863998,-6.805147160218518,2.293058388851512,-1.7455454439608626,2.3994006899469937,9.824187303913355,16.687383284238308
-152.0,9.524950822918628,18.813186996726547,9.288236173807768,-14.198331966074356,0.0812796667544089,14.105531604163017,-2.702281440255192,0.8227366515122982,-3.382611587978438,-3.77130286203727,4.517463988100703,-2.901028830919625
-151.0,1.3052680166605208,11.159968895412236,9.854700878751837,-6.261606017591141,-4.2354133951087505,10.490051165459803,3.8964826530446963,3.1434755452035867,7.648392895337711,2.451762081896486,-4.617448418102595,-8.258143704512262
-150.0,-7.190670880731186,0.9145573868053232,8.105228267536795,3.1852761747355514,-7.68915295607664,4.497644343657994,3.797101951556833,-7.274896020818592,0.34582376938348247,-4.887604853627433,0.06501443824864683,6.346051193749531
-149.0,-1.9887874226222388,-14.52984755783132,-12.541060135208783,8.301432339515342,5.234040838059094,-13.545042608685975,4.025725451450882,2.5241667113236845,-1.3091331518647662,-1.671445009837897,5.239910325664149,0.32656892441035623
-148.0,-7.524377823789945,-24.709338479363616,-17.184960655573548,16.073518385593538,4.8671730839447305,-20.95637852102286,8.675837132167633,8.333250258508198,8.826718291930762,8.482633756818602,11.181227226080582,4.470491647121527
-147.0,-4.662361197298117,-6.126287833085513,-1.4639266357875016,5.344169166546616,-1.5610697963583302,-3.8054967988671855,1.2043557897157169,3.9840020201032678,1.013261902584646,4.113731260563725,1.0530141104551718,-4.386983849965834
-146.0,15.014083187966245,22.674940086732498,7.660856898765986,-18.82109719869155,3.7163387212733276,15.234608369695335,-9.540571615059566,-5.682499338283188,-7.437284110295229,-3.79264949599224,-3.251308400121456,-1.6000459234205597
-145.0,-2.7590788510769437,4.877418202398096,7.636497053474784,-1.0377832068123345,-5.236178169542385,6.243551198805719,-2.781006799219554,-4.783328704054307,0.37509110670441137,-0.5830838756660033,-10.597536018629203,-9.451363667440814
-144.0,-9.495428845238427,-5.570979840801355,3.924449004436984,7.556371483869755,-6.749766290524081,-0.8374799434344213,-1.4257554869784594,-1.115563705910446,1.602019852208997,0.6194915631742823,-10.194843473833803,-3.5420643532338056
-143.0,9.060223350446256,9.406083531033927,0.345860180587779,-9.205020133333258,4.313661318494026,4.861418795323363,-8.09099175495953,-1.563291293453874,-5.1974538058767275,-0.10853498543321471,7.015884602996994,12.082277873922799
-142.0,10.828069033836822,-0.6588653601975492,-11.486934394034177,-5.128823972996841,11.187877865747772,-6.0874412830542886,4.665239386291027,-2.773002586099955,-2.5875462763132115,-4.205368535464527,16.640444958146855,14.389056849261397
-141.0,-15.302491461533037,-16.633786975324163,-1.3312955137909506,15.929565097776244,-6.959348620533689,-8.996667409706726,8.96690448401357,1.6313170999768505,7.858578256398462,5.639067965979802,6.5208361447790875,2.295990840281479
-140.0,-4.8928623004828244,-3.9729834891174463,0.9198788113654924,4.476314651719504,-2.881896716933825,-1.460977045927092,6.762474372237319,8.225220868643378,7.155736523131296,2.8753398686386773,-8.763015812937443,-6.094746837520706
-139.0,5.5879071701635254,-2.956932021986521,-8.54483919215,-1.3506338475900361,7.0918306014759285,-5.762626312624072,-2.7519895770278335,2.4755526862977257,-5.634331789883629,-4.289687735049117,-18.28333790312217,-16.386696667767644
-138.0,15.952004389592698,11.46466156125253,-4.4873428283402506,-13.666879716869387,10.169056257213217,3.47844797915371,-5.447535552408173,2.13616142938786,-7.0520585171519246,-9.341745838959632,-10.810388862410822,-11.488978542666528
-137.0,-0.4751796323439974,10.351529915621104,10.826709547964938,-4.978494424969833,-5.620413808054555,10.57995989354377,-3.565325245095882,-1.068756435418553,0.09819057128712672,0.2081525497574619,2.9688823781179265,2.5368519471062436
-136.0,-17.315859296904527,7.686523137803546,25.002382434707883,4.850926526252314,-21.207023489800683,16.335449333796138,4.363441724764842,-5.421969695195015,4.376710746197725,4.9500932546847665,14.442215715353015,18.430218908489454
-135.0,-4.084115832947041,1.4022109227998962,5.486326755746823,1.2984344615311723,-4.756780443025548,3.4345235958578115,-5.314246366428964,-6.628366538923725,-2.12983438925484,1.2221347364140134,10.102900240532897,7.790398257733536
-134.0,3.831124437112348,-7.532077465241924,-11.363201902354202,1.8891754986506477,7.542699395182034,-9.458650105949685,-4.527795530623632,-5.982194649484349,-4.190967274888347,-2.33449742861282,4.188738410433543,-9.651234418785137
-133.0,7.437051988632309,-12.13308686996618,-19.570138858598348,2.390870321538002,13.524257968601573,-15.785226173586945,1.2767536034211495,2.0232813634644478,-0.8856355024708766,2.4038064349420534,-2.638327683039341,-8.156731534095384
-132.0,1.9129388860537446,-4.792854262192306,-6.705793148245885,1.4082002819623143,4.329539018404708,-5.762990486584158,1.4819444404046045,6.886097030996288,8.459662131595941,13.569431544457291,7.563082665151355,12.938938153950751
-131.0,-11.744713399782452,-3.463725514452686,8.280987885329868,7.5747053804722375,-9.988343146322494,2.393436728644114,10.351511070387803,9.571461079585095,6.932067636553585,2.3908827817002556,-10.049591917872876,-2.345126071372241
-130.0,-9.795347274573693,-4.003775042579518,5.791572231994211,6.8692001735216195,-7.759926438769374,0.8765009662281895,8.37232223132257,5.175870253502495,2.1059789188060742,-8.457352482393164,-12.54422263283146,-8.347230895701689
-129.0,25.005975811108957,5.093105215793516,-19.912870595315383,-15.005043595998437,22.425862117565657,-7.430400579045325,-3.546596082032684,-4.880983583181818,-2.0452055296474008,-9.47784662489083,-10.440106626259595,0.36078439877982316
-128.0,11.060779988506134,15.074201632438616,4.013421643932512,-13.10748753146578,3.50118201086339,9.598211207802155,-8.193088448487478,-6.699254726955617,-12.104270055485213,-8.184310196240542,3.1941123635427475,3.4938977910784677
-127.0,-25.807328020083432,-1.3903818394787724,24.416946180604672,13.631689582110097,-25.12729437928852,11.484969470319788,-7.980454758940577,-9.324790493958867,-7.41105761733824,0.8561102213696583,13.123471302341196,-1.2997606021415153
-126.0,-0.23184949975009594,11.956726922022593,12.18857642177277,-5.834387978736394,-6.223681159224212,12.040904074148568,0.8282242090455076,2.0138207269500477,6.847981121247997,9.402626701786136,9.742967750468663,3.329834347634254
-125.0,5.610825122541667,-1.619229771261887,-7.230054893803475,-1.9710095784725707,6.481576086698977,-4.3801790015092585,-1.4445923637561298,4.458637984078333,0.7573922641168589,3.576328771607754,-1.4646546055781888,4.3022909145778065
-124.0,11.45834707932105,6.162833091838063,-5.295513987482952,-8.866781568798382,8.35078614329746,0.4763156781071687,1.5621510265801775,5.98435949080306,-1.8377664088462513,-0.2171724740780121,-2.7647136041653075,9.051396442426917
-123.0,2.6034244077208255,-15.933866555301432,-18.53729096302235,6.685827681029082,10.533841390928952,-17.273402435526243,3.3484035424917677,-1.6923359777268372,0.33357748732650583,-6.435343194420179,-9.940098979051383,-9.414542439656966
-122.0,-0.7116523871027011,-20.126556149417173,-19.41490376231461,10.359022199437907,9.384551281021016,-19.810965895317167,-3.481430334006883,-3.419710387581015,5.545063125638114,3.7190917054458916,1.787173676595125,-12.919618283323713
-121.0,-17.857399326226783,-1.6111641525357037,16.246235173690977,9.751636491011531,-17.024635000317126,7.352627020719833,12.300417791095288,0.23677993872316228,7.679555213624077,6.653741009617835,2.230712593715425,-4.676374791641431
-120.0,-19.223459982103844,0.11497051747454395,19.338430499578394,9.572128494121383,-19.333254417636056,9.679037996044238,7.971053310605659,-0.2586675588966199,6.733151653651252,-0.557970858000572,-3.487797906374465,-1.9594072947891066
-119.0,-1.955394270699271,-2.2649510434497353,-0.3095567727503319,2.131463490148975,-0.7922290596200892,-1.2597054881662828,-1.3049424243605343,3.5451987731634613,-12.687754697892146,-1.679488861276441,2.990310508170663,0.9338339761363446
-118.0,18.602427732255276,22.42585797798387,3.823430245728826,-20.48652611850467,7.427982051701577,13.150244493710623,-11.665275287969257,4.294797258537954,-3.1202517546238093,0.7806506899745371,12.305389994235085,18.1282165310882
-117.0,23.04046571427395,19.336757508646336,-3.70370820562736,-21.231786223308422,13.340721806285218,7.842367044907522,-10.97388997669113,-3.4100634587037337,-5.12716529607178,-2.8420839148843386,3.2087125849050375,11.010009854095642
-116.0,13.353516654385581,6.892419700580053,-6.461096953805336,-10.080039366676854,9.883298901827173,0.16495506863174247,-2.240854257193649,-2.7108904460837158,1.2172556858649952,-4.319570925168918,-10.001747254888429,1.0874286042153845
-115.0,-6.085911403068346,-19.88403537572613,-13.79812397265769,12.953622923418292,3.8359005830059534,-16.809768796501544,-2.8393639766363266,-6.354459074023308,-5.883934435313301,-10.96804241441198,-19.471419266065986,-14.040275736413633
-114.0,-18.04925987700921,-10.213876306896958,7.835383570112235,14.10049503566697,-12.884297032543063,-1.2334130089252788,2.319110685599483,-4.250753948718689,0.3064994635078975,-0.15298031519892508,-3.690906515131167,-9.181932747913082
-113.0,-5.767226839869975,10.11348019982929,15.880707039699173,-2.2078676448468055,-10.848913605909392,13.034236820996602,12.828749625267537,4.540153931069758,11.069335896511578,10.952710241277355,15.320662119893262,6.08103186211271
-112.0,-13.321604196100253,-9.079454241474068,4.2421499546260595,11.238563823776305,-8.813025943619065,-2.4585224057077593,11.446313038042682,6.304907367996835,4.9910328841562075,6.975798756353192,6.717318419230648,-2.1409591155290686
-111.0,-0.1210118847083832,-11.71751948621155,-11.596507601503276,5.951165906124362,5.779422593119518,-11.616789630479815,0.9904635044068897,5.5905404397108285,3.8080660407600084,6.893568531525634,8.46439673677044,-2.922061333457197
-110.0,13.887088545915459,-15.601260734328022,-29.488349280243607,0.8842451578709891,21.647082265778035,-22.581729144219878,-1.7622222001105623,2.977246618339816,-5.635036524045685,-0.14504018552603126,-2.4183866072421614,-2.404252412885745
-109.0,-4.15872461623174,1.9256303006556519,6.084354916887273,1.1406803718951357,-5.08338253832626,4.049133084979859,-7.95230914305153,-1.545810906634188,-2.158060555273873,-7.73920225310087,-4.286449705770154,4.0434912289990645
-108.0,-3.2986698791163755,23.726220985042744,27.024890864159026,-10.270393099942634,-15.120008898075044,25.34391740114813,-7.379571574904023,-8.746791792784997,2.492197544449712,-4.387213559179017,-5.8020416940912245,9.309052537678218
-107.0,0.3306439564667034,14.193013068627971,13.862369112161241,-7.320251578987895,-6.7969053715481405,14.077802582186253,-2.277793011453878,-1.2969528511585429,-4.654627840377679,-2.846462306537658,-5.42706731967419,-2.290749789196137
-106.0,19.414885989170394,17.599074292734016,-1.8158116964363487,-18.488376266150322,10.5906933170202,7.8650818795973905,-6.243409335360961,-2.1362458917690024,-6.348054058853685,1.614805375490006,10.149660069840932,3.730399681088471
-105.0,13.018270133440613,-7.417366088408805,-20.435636221849382,-2.7826804411601476,16.7074989304473,-13.952641907862144,4.323318049474736,2.5920342463882724,-3.582526380255156,-0.6339725856502042,-2.964465430182861,-9.078645446490368
-104.0,-6.322138566155078,-9.023981862660541,-2.7018432965054746,7.692049553532118,-1.8263506564844958,-5.890476019965105,6.754053577059586,-3.0997946656562934,3.241597912306574,5.051740290219709,2.0145240296940687,4.026961456911125
-103.0,-12.55538605023246,-21.573390306674575,-9.018004256442193,17.087263969123796,-1.7046486462352048,-15.247183759217558,2.4913238230032615,2.158917733161724,5.372847853168638,-10.10988280665254,-11.82534469113299,-3.9166784378907797
-102.0,-13.336851140015852,-16.190320135306813,-2.853468995291035,14.792532247357029,-5.255940729642919,-9.555076103226652,9.363618919017854,7.800124062783751,10.691446569156376,3.6450432102058805,0.4245384949174489,-3.077925931260772
-101.0,-1.4022584462691619,13.746522589284284,15.14878103555342,-6.2151123503687185,-8.289710291809698,14.490797322642951,-6.279953996208844,-3.9607040818355834,-2.4224124976904626,5.341878704643757,5.479711973058975,0.11827947975720265
-100.0,-1.0082991647087252,14.716525198246753,15.724824362955566,-6.891137584143402,-8.380957565779891,15.262099940071032,-6.146384565919243,-4.353058690565638,-4.71080336659907,8.241619988870742,13.232203590010643,8.122090335135166
-99.0,-4.99735542351705,0.6563379365196216,5.653693360036852,2.1376025290762746,-5.262088676164256,3.116286896870239,-1.4594644616295653,2.896515856871708,-1.3053314740352793,1.9270227382543368,2.083495404170283,0.6314473599649708
-98.0,3.3939403089162434,-3.9702348383088424,-7.364175147224859,0.3362963257932332,5.361348357719038,-5.707450809837122,3.625689520132578,2.475953744052893,1.0806912591859241,-4.793902014990137,-8.458335408439746,0.1518822706832259
-97.0,18.414625125924005,-7.254790482772739,-25.66941560869659,-5.530586174726799,22.019903401215466,-16.50384359056221,2.431952308571786,5.197573876478607,-6.454961496719599,-13.163331545226654,-13.21938208669764,-6.034958664629903
-96.0,16.948348079862527,4.50866923847149,-12.439678841391018,-10.757184038344535,14.665764516240873,-3.9291076444266206,-2.4773122157830887,-3.020920886778873,-4.871065862432778,-11.656115320913663,-5.077626889473606,-3.853253327405708
-95.0,3.117147362992174,3.0186578932632853,-0.09848946972902795,-3.0960891650586153,1.5730946899650338,1.497822157772255,-5.718564850998125,-5.942344417250612,0.0871143993516077,3.8003095912896976,6.446726469395769,-1.4719996971981637
-94.0,-19.207582288781285,8.499765955970057,27.70734824475115,5.40434390786104,-23.418160644964065,18.145015691580475,-1.7995198101029803,-2.5838158894311807,9.278968870124402,18.19061179825525,20.303373621095577,6.972118542277754
-93.0,-26.43862922903981,4.655282698889001,31.093911927928737,10.862029633779601,-28.728088732500165,17.842636961238323,6.273735479947343,-1.3651800815696096,10.03039270679881,14.97809468136205,9.218342933879697,8.023823290551539
-92.0,-2.240725736439881,-17.343647649105307,-15.102921912665348,9.759642877024847,6.472326297194327,-16.25010140959298,6.5475730174906825,4.191520352242019,-0.24645056333959747,-7.751677166408529,-14.146949507197373,-4.044541040494869
-91.0,12.002260057454144,-4.1884429831792644,-16.1907030406333,-3.865014301867973,14.065050500789726,-10.213492016236975,1.3398558377751897,5.1423083632180875,-2.3174932827670314,-5.071850792967762,-8.747982845793587,2.4831709988423247
-90.0,16.368412617221637,2.854677361269493,-13.51373525595207,-9.653409635191455,14.916458440168228,-5.275490937489959,-2.661324593713318,2.3429170197701836,-6.158714241966523,-9.252994966691809,-4.024989455120324,-3.6188927691121258
-89.0,3.4255467148214045,1.99182916478977,-1.4337175500316022,-2.6765072070053515,2.4101721270999565,0.24956884124425205,-5.759532822357685,-7.057164998194469,-9.915939098032917,-8.165198586907913,-8.041421380462445,-4.84317580519657
-88.0,-0.2872004462237596,5.391038730285199,5.678239176508961,-2.5232659547447365,-3.000063248160826,5.497296523153,-7.519558982444197,-5.277663555015771,-3.8517682384694405,0.8863723699399735,-2.442414604593107,-7.450825125796141
-87.0,-7.654502724628701,2.3969374981639433,10.051440222792564,2.576747284434909,-8.871207136667024,6.256352345154801,1.9900130363000792,3.3503350656972635,8.463946812270866,12.675084564269735,14.025457314910673,6.6629402065711165
-86.0,-8.985727607965055,-3.22237572797816,5.763351879986708,6.130279187323332,-7.3169096412597,1.2938296953579487,4.827105685853917,4.1204641719956046,6.2112657536122295,9.858698620976607,13.769016320403795,2.0616196637269817
-85.0,2.84921510364787,-4.6372713931955385,-7.486486496843611,0.9207030338672251,5.221727659813726,-6.045657031498226,8.266397924037122,2.109174460970838,7.2750563820406775,-2.197855273671916,-0.7703375988530503,-1.8041962284363326
-84.0,3.948607294334185,0.03399924810355914,-3.9146080462308546,-2.042561785116469,3.9026445096062696,-1.929042426169841,-1.1720293315301946,0.4060623754254622,-6.312978169348475,-12.02463141817173,-5.199751474647865,3.918939986179173
-83.0,11.302945914731895,9.324504717105466,-1.9784411976265333,-10.285319856949258,6.6071930427624235,3.602593440955932,-2.310571021325471,0.014396369498465678,-6.22561889032096,-2.9848721594709655,-1.070228225378329,8.468317544907892
-82.0,-7.731917090038347,-4.423781965937714,3.3081351241007604,6.028719950994378,-5.55873772175755,-0.5506991066443299,0.16181999367877764,-2.5225353304497586,3.1654938487332775,-2.4502183698305204,-6.204530044721528,-2.833146894158527
-81.0,-21.40841304940565,-21.86350104540304,-0.4550879959970864,21.66766039862383,-10.442245530344199,-11.15155582887251,-0.645920804727798,-3.288628389040078,1.136652802902139,-4.025341655859532,-8.13296076044895,-13.347307556076487
-80.0,-0.11177345615729362,15.881883092611618,15.993656548769131,-7.849856254626603,-8.02336520182868,15.94821367149767,-6.7224225158955235,-3.307947034074571,0.6401059484926129,8.640655536539079,6.7330076534249494,5.545269081865403
-79.0,24.445015237280728,22.70851955545665,-1.736495681824004,-23.61533084541835,13.038228237304311,10.501411440611788,-6.127147482956897,-0.33570056013921046,-4.1047067220596105,10.130805421751548,6.07103747879755,3.5916368682650415
-78.0,18.787105742805167,-2.9882523890940327,-21.77535813189929,-7.853352547441435,20.307526226130697,-12.359558077126342,0.8868911322785016,3.952618557864696,-6.620209018640187,7.223877737915952,-3.112519349858668,-4.291447720969469
-77.0,2.066499744849027,-6.024447066398324,-8.090946811247527,1.9519878343799961,5.108877998195061,-7.106427295838843,7.400771847747572,8.990829520291788,5.7297670495063,3.7207568554989563,-0.06797252204741944,-1.3632046421012676
-76.0,-27.158468777869665,-15.406927786257317,11.751540991612005,21.26006150026551,-19.49635562073467,-1.7902788720724772,8.143477895108287,-0.7251203877042354,1.4879423536772618,-9.800404351666954,-3.003857798880638,0.7235078860347944
-75.0,-23.508935730359575,-18.107546774974992,5.401388955384196,20.78790033797012,-14.408521128808186,-6.3885804505672255,9.193962460772822,-5.901569885381911,13.474937270064503,-13.099976978309318,-5.700481885868565,-5.0587863751458935
-74.0,-8.221476486044173,-6.0983234939085005,2.1231529921354513,7.218499873700433,-5.195175758896881,-2.0195248813577926,1.8907826899741758,-0.5652764551548404,2.3660365230219944,-10.332353590887234,6.844786843444171,2.2655582895293467
-73.0,22.930978079299003,26.902447130314453,3.971469051015439,-24.93827485055821,9.464168748678043,15.48488394343068,-17.607154837780115,-3.1260490713633433,-16.06744169708043,-4.456277846345468,13.403419325768237,13.827762774502112
-72.0,13.093383954513143,23.390039914686245,10.29665596017336,-18.265540870212753,1.3867314840743195,16.89011670747693,-13.817473622208423,-4.329740554809121,-10.875908417446224,7.223537928022265,4.4357825110838975,10.706383279767046
-71.0,7.258571103979939,-1.0575416267204805,-8.31611273069998,-3.048024256534072,7.775973111224623,-4.7219136931071395,-1.3430415209728732,3.4199282580176877,1.1100976063084094,14.91361001153767,-10.555976591447834,-12.27248402585323
-70.0,3.3134838927926102,-8.61517348548475,-11.928657378276851,2.6224451675206097,7.685608233362126,-10.311560298451663,10.460161882609455,9.418544743381949,10.902156823785822,16.05732950036808,-12.506636840230652,-18.121540180429484
-69.0,2.421053001980227,-5.974769812792004,-8.395822814771913,1.7467869510594909,5.389494763648321,-7.1513413527356,7.912084436450686,3.457195262597988,8.86220346049481,-0.2713860736121756,-1.1580317018014954,1.2269584643189404
-68.0,-5.067264099246479,0.9619439536379879,6.02920805288454,2.1000815238724284,-5.572300760047825,3.446349792114418,6.915757628341379,-1.9847379177676192,3.266776088270391,-6.602027702871607,6.932207034119498,7.232194337682806
-67.0,-16.977937534502964,-12.45799819873144,4.519939335771431,14.685577380337106,-10.77702936788184,-3.941720388318367,0.4850825515456716,-8.33707029703217,-7.481303655234264,-15.08197420381917,-3.2261397045039955,3.5753912280736255
-66.0,-11.20054864393277,-8.359855996823061,2.84069264710946,9.825379379870126,-6.9716887899177244,-2.7311440263810263,-10.336327370325085,-7.641363528629302,-9.265860887553377,-6.959060536371377,-0.4853441721257652,-1.5424797688442942
-65.0,-0.7911143489702521,-2.118636880392004,-1.3275225314221926,1.419691904724031,0.23954944258398303,-1.6899474222863522,-5.502139432017747,-0.4381265553516407,-5.377731544006991,-2.5570025627737056,1.8819561067112245,-0.2713527163796132
-64.0,0.614169461922347,2.626605229332035,2.0124357674092392,-1.6577883338244521,-0.645287125470019,2.281330732745248,3.9860170649957594,6.348542865116235,4.60342908854633,0.3659016084301989,1.3052460354370297,-2.5529862853574086
-63.0,15.570882707952599,22.222451649923343,6.6515689419704245,-18.85814881270815,4.4398828662119705,14.407443550736575,-0.4641084291525993,6.598135385300218,1.9832580281635683,7.573084511464598,6.673868043919978,7.955528290104626
-62.0,17.95612683905348,14.587834260529903,-3.3682925785235276,-16.236844587376076,10.64722274739938,5.588387217402896,-0.41260057003785156,4.235110208779183,9.511920579255879,18.597678180848117,10.519136539870658,4.365085073135505
-61.0,-2.604213323241895,-8.653455284305538,-6.049241961063305,5.581262255489637,1.7103930799766074,-7.287499411108262,7.306875042212852,2.465242164137459,7.578754727085937,6.090355638380338,-1.4786128429719216,-4.623739816743706
-60.0,-8.206512132133309,-9.453023810845142,-1.24651167871141,8.856284516227555,-3.4920220841050296,-5.36063482717201,-1.3978870977111124,-3.4569988082593595,-5.596971461003372,-7.157652321969897,-9.678236965151111,-7.6240423465891585
-59.0,-16.44640796800316,-20.823152800828364,-4.376744832824883,18.6559026664346,-6.049434856770316,-12.609548288334313,0.4369648528029944,-9.826237080309403,-9.774666934223504,-17.460556040409088,-14.683328794008748,-7.072139985119094
-58.0,8.645582572771454,9.655794002156856,1.0102114293855284,-9.214054375003547,3.87730266744453,5.321933624247603,-5.6217386895293515,-5.395965959915022,-0.8978220613975125,-7.721143241888958,-9.941629721067757,2.287007894342484
-57.0,-1.3163795759139807,7.935449444826213,9.25182902074015,-3.2992116353115115,-5.308880480374735,8.578707877091297,-1.2380623225617844,-0.008636781732890508,2.7894590304262716,15.36589201760254,17.74866191478842,10.205168572070555
-56.0,6.0389168474563615,2.0540050089166955,-3.984911838539692,-4.038971367130971,5.059646275213954,-0.907269498926687,-0.23175345260442537,6.530266129326857,-5.707654921676422,-6.586144578631161,3.8748266705823227,7.349531677657932
-55.0,-11.438193055835674,-5.3992162266914026,6.038976829144209,8.427175337591006,-8.77626096014993,0.29272308528107693,3.685100348979098,0.8648555167297616,-2.517968253911606,-10.605232280558035,-1.3404447838431777,-2.480840695438479
-54.0,4.7824664098436145,4.0144328611239075,-0.7680335487198393,-4.3842419961642705,2.7307179057649122,1.5894307003444685,2.3125556709019692,7.386263400178697,7.928336954112153,10.49135456348847,6.407636277287148,-2.595269089200989
-53.0,5.378555944852654,1.8478385177624421,-3.530717427090429,-3.5887431190379533,4.482480135715139,-0.8021031886310975,-2.9153555736918415,-1.050283543282561,6.877451169323269,13.731034015874847,4.60112705899592,-5.421523637016787
-52.0,6.268826438941981,6.206574201606088,-0.06225223733607743,-6.278793052813947,3.1887457911051116,3.028973587153641,-1.205953961513882,-5.451623332972207,-1.898743839677259,0.5516697313427121,-7.2911878178605,-8.358480247824831
-51.0,-8.497451072949456,-4.139265599529409,4.358185473419942,6.290901486470547,-6.4847754949754,0.1436951838797883,-1.155103744317574,-2.8647327235636975,-5.987814107661202,-3.98500742303981,-8.566842498309285,1.0944933618810544
-50.0,-7.355516592306289,-20.821314420572904,-13.465797828266512,14.150887949412635,3.0797825044538403,-17.108220213069263,5.905907824586447,6.05318713946109,3.36766238014177,-2.0759850899166197,3.2906472848966044,5.191173301558474
-49.0,-0.29269882597025143,-11.381149382360455,-11.088450556389981,5.826776925852901,5.429509688180337,-11.275406497024697,4.328808255574743,1.4724599125027757,2.2576735340339638,-5.3348500370706855,-1.5096483169045194,1.304162635032145
-48.0,24.104923473874976,32.6834332084634,8.578509734588607,-28.404920509859274,7.8043045640138216,20.593598275335232,-9.104487570627267,-2.028622806630004,-2.226164383798475,-4.4689040848359785,-1.517132424267206,5.362493254554487
-47.0,-7.359872601361676,11.541577744291457,18.90145034565312,-2.1091623432662914,-13.159344390250936,15.265031006934986,-4.3032931731145965,-4.601407862049295,-2.179225241982179,3.2740220603818457,8.810059822182577,8.164399269900832
-46.0,-4.711307664569532,4.293876633186549,9.005184297755857,0.17728793573167945,-6.881740654919482,6.692700040425898,3.938347906627059,-2.6076898408065676,-2.418679140318768,1.4117281457655095,2.6062035328117976,0.5896313549344314
-45.0,-14.474374681552954,-18.195067438918024,-3.720692757365378,16.36622037414272,-5.401202047009017,-10.9972049416925,2.913456883001189,-0.7704730976461854,-0.08871118619341967,-4.646738185182992,-7.5364075565869655,-13.403722601324965
-44.0,-11.371935379259714,-17.146097249764768,-5.774161870505285,14.27548763010443,-2.8303995217352713,-11.506656621375619,2.62442100438044,1.375105475631911,0.4938469210239665,1.1018591132081412,-6.497209639060907,-7.613835200466039
-43.0,13.942846113872271,-0.11101145688838443,-14.05385757076079,-6.910539511036836,14.03413980130045,-7.059847340088636,-1.4039798149520568,6.7249469877932535,-1.5957051905208566,4.156536181466921,2.8413792405522043,-2.4748172633416727
-42.0,16.675564734529825,9.134610055897577,-7.540954678632289,-12.904927319862015,12.131744176919359,0.8093317787064409,-1.8110562617593235,5.1077942790958115,3.7898609719008904,7.160684598937762,6.3038952099366465,3.9590408331828337
-41.0,2.4595189708164433,1.3125659521790265,-1.146953018637209,-1.8848233447276037,1.8171774933812141,0.08717876400020241,-3.9367764536696357,-2.7173085837443893,4.471532095329769,4.490527788444973,4.67756885031557,3.038307148475091
-40.0,-8.55566559342332,2.3810856465574375,10.936751239981124,3.094900657745895,-9.7364501945931,6.659162264259358,-1.8626600663293524,-5.462251076902661,2.5852577149883333,-3.8588747071137464,-3.1036764663034333,9.211971447939504
-39.0,0.17179272405990176,13.006418470521533,12.834625746461931,-6.650279101809497,-6.3983121405212176,12.921708213808165,6.916478870445008,2.5201974504937374,2.0835511584897115,-1.803218919956581,4.310930859064742,9.394856812687404
-38.0,-1.3234406421107434,0.6722100717763055,1.995650713887132,0.3547251145548833,-1.6401740375636003,1.340922087361447,2.850559094574815,-2.131516784729277,-8.66076998829149,-10.572571786911745,-4.304589845037589,-1.2531364503001718
-37.0,-1.570356205690611,-5.732617256526932,-4.162261050836456,3.6918153755801306,1.3259022186487837,-4.931144085486551,-4.049536550273656,-3.225155911568602,-6.790419042847662,-7.576710649553393,-7.22548772981953,-8.92600031810613
-36.0,-6.704930007456627,-18.64343787058136,-11.93850786312496,12.64506860617249,2.657043812039043,-15.342701800888424,0.757761221220232,0.11415926792741737,-1.8484030599993106,-1.4847121363817644,-6.4219050493315395,-12.026087036578266
-35.0,-0.4322145052525652,-3.024534543169527,-2.5923200379171893,1.7054243579826105,1.048102320781677,-2.7714389058187274,1.1375505776812522,2.2326445370646986,3.6189664614328194,7.808365859508277,1.5831766970467336,-5.151478649124236
-34.0,6.372778249366184,5.136214052871503,-1.2365641964948724,-5.69639364713858,3.772950234905209,1.9155248351190717,-0.9537131395031088,2.154086113713945,8.53241625875184,13.555844441386704,8.474737933261244,3.2424679460297177
-33.0,3.0972605331255836,16.195535118382534,13.098274585256744,-9.66863269899682,-5.038917451899719,14.6953204971868,-3.3427365191460683,-0.224493563128064,-0.07176600262003685,7.3382302579421035,5.581675419309617,6.685277835274338
-32.0,-0.6321557879663344,8.341299801007096,8.973455588973087,-3.881462746046558,-4.774302157778375,8.627360325754903,-0.7872398031994953,0.5783137683101159,-1.306278421239932,0.0782637842674947,0.047953607503209206,5.882826121376137
-31.0,-2.024936699521943,-7.5104240929928325,-5.485487393471134,4.73471871463904,1.7454560935388024,-6.530731123034627,-2.0610963200548342,-2.450672420561663,-1.2159716786269075,-10.947525923723013,1.8576306539080596,6.145888736509946
-30.0,1.432724115752079,-14.446208951162525,-15.878933066914493,6.547188762005706,8.660504348184356,-15.121377631001108,1.3785690008154647,0.24933626615669024,-6.348264638966636,-19.11425270840294,-8.162046504790657,-7.710073636576031
-29.0,-3.2729169250627104,-0.0817371822391344,3.191179742824036,1.7151279096237646,-3.231582943182072,1.5903203516276383,5.24976949386408,0.613009306008462,7.000678797516188,0.9964656425457754,-6.568870267519855,-0.6190218962242615
-28.0,7.0553783089695905,12.266662147943546,5.211283838974578,-9.700853595755282,0.9261027946140605,8.690528864966865,2.968132005218694,2.261084256829425,4.027394834775948,12.433424722832632,5.104745643193695,0.9997689837722081
-27.0,-6.511590944005034,-2.986342737200859,3.525248206804693,4.792521631284483,-5.00389491205597,0.295720993295868,0.2195599065526369,-0.38716663993822376,-5.643937727724635,9.463895229708454,7.522399931804334,1.4380489183192822
-26.0,6.265734475116078,-10.805182048333846,-17.070916523449792,2.2412771155733284,11.697197907963865,-13.992433904081059,-3.541407273688254,1.3027323982946535,-5.188921222156492,-0.5916946963739056,-3.356709212229467,-6.576821051999019
-25.0,-10.918458793524232,-9.79110324074612,1.1273555527778347,10.333166971019976,-6.058580269372618,-4.306444791771387,1.8254781175565087,-0.07450147222588926,6.358711363600163,1.2719316341731757,-5.086516416132284,-1.9772300885983989
-24.0,-6.889535904734721,16.340739265859547,23.230275170593778,-4.742257359681937,-15.085128921825074,19.815562206770295,-0.8409266826737802,-7.029656701001407,-0.16499631422710426,-7.252848789696225,0.4212799079277403,5.880877229874059
-23.0,15.299733763625806,21.937042889067556,6.637309125441306,-18.55458701519413,4.310744267978969,14.24667588943447,-9.7614033969028,-1.1758225462751857,-2.767718907250221,-7.204299652091572,6.1637726169162335,3.428206887327716
-22.0,10.161823820179007,1.6828908747121147,-8.4789329454671,-5.939407047806414,9.299241187422698,-3.3488833044292843,-0.3017312556814469,1.3373362226100085,1.4397119446945856,-0.046121923716065716,2.010860790868967,-3.628087346902476
-21.0,-12.732135888981858,-24.30812893312074,-11.575993044138862,18.497480722644347,-0.5244971788548858,-17.95986736433127,7.122499200132237,6.12440502858768,-0.9490916854753496,1.549155597198093,-2.1934374768975733,-0.3640926626694629
-20.0,-2.3570818710723396,-4.346128726623769,-1.9890468555512202,3.3209438513409557,-0.13512641585713592,-3.1750043565066033,7.846518852847768,7.841411955437485,5.381427073211851,11.124338737161786,0.5099939685314736,3.845204977212591
-19.0,-1.8046713055642432,-6.944100550890308,-5.139429245325788,4.4136958163152205,1.6344145482818746,-6.042494030287198,-2.2024631312699423,-7.533669700934617,-1.2264220499567702,-2.412302939628333,-13.245773001675163,-8.900886107764789
-18.0,2.199864809949578,5.676185396224502,3.476320586275146,-3.9065156367016316,-0.6716558489735153,4.576938025187852,-5.0854403721153085,-7.900662766233518,-6.48751211381887,-4.48448740912931,-3.09308751465973,-1.731153812585898
-17.0,5.4867190445107745,19.174028959131153,13.687309914620476,-12.383084628299823,-4.052868966658825,16.42713587389597,-11.983146394542848,-1.9524506572319686,-3.971620294342841,-0.3970313182913279,14.009273340871406,8.878319253617798
-16.0,12.008236953293908,4.888970983371973,-7.119265969921933,-8.425097181576536,9.536341177659253,-1.1275265040456262,3.336114065325244,5.701675611846589,4.222113098305867,-0.16969513547672133,8.625633400800098,1.9758753835443228
-15.0,-15.539754385820771,-18.140150147456858,-2.6003957616361304,16.863646472917377,-6.4922848113492275,-10.394012457804646,10.378660296355974,5.170948533433968,6.60540736663545,3.2676456282361492,1.2012151236562953,4.173421461325585
-14.0,-20.029142805820896,-15.468121441482133,4.5610213643387185,17.69560025239238,-12.31273628074477,-5.409819668957381,17.765924621287944,1.3587200182860406,9.50435502267792,2.802217597193439,-6.482710440314044,-6.458078855549235
-13.0,8.353692800512336,5.228959402018382,-3.1247333984939916,-6.7629926218690954,5.804855569857915,1.0869472915801364,-6.546090400531069,2.133933529730143,-5.25010213538389,0.6679085554251982,-5.216295872854053,-7.599204568589327
-12.0,13.857064733560284,8.016555732548676,-5.840509001011638,-10.906513984125406,9.83927069030899,1.0390049366925584,-11.817979177723204,-4.260609949285751,-9.587134047129709,-10.73383579974979,-13.053792343402453,-4.346745146252396
-11.0,8.664132511916879,22.511354452624314,13.847221940707467,-15.635772894218432,-2.5991250965614974,18.208045152288598,-10.597526788582824,-10.15770366916752,-5.3803768168185275,-4.459474052098992,1.9775012582062348,7.851197872531632
-10.0,0.328862295749067,-2.8433904347183176,-3.1722527304673047,1.2866353079568924,1.7425072681626077,-3.0551721465344697,-2.9717367114362236,-2.0592883967727302,-7.51551786370741,-0.15380399411090706,-0.46479644135095144,0.927520219713502
-9.0,1.53619686380536,-7.472765945363307,-9.00896280916855,2.916323599240451,5.261163990106521,-8.204166031144474,-0.029862973657594494,6.116848376116644,5.730073765777681,6.351612293391753,16.77569480865145,7.670658970133581
-8.0,-3.8076187227071694,-17.86322179256409,-14.055603069856833,10.859545700208708,5.106373004301167,-15.994607959638408,6.981985090761292,4.555994844403557,8.863374259108042,4.089472257017123,7.318167091745253,-5.507354755095991
-7.0,-18.47162326290146,1.7571565329419823,20.228779795843423,8.379902519884602,-19.297440485173098,11.043831761861997,11.159739618536236,7.380984166821863,14.323330689950735,11.771030784825284,4.335830193043982,2.468271270944222
-6.0,-11.073060140163872,1.581125456313342,12.654185596477058,4.7692203427501845,-11.899037053960706,7.096446797929965,7.892667032309506,2.499690795243703,4.2682369334451895,7.457646757594867,-2.075805461748611,4.94399553514809
-5.0,6.85674360144749,12.520386452737558,5.663642851289833,-9.741469535187585,0.6306814636855451,9.075817866855672,-2.486119120169925,-7.497950425794286,-7.037486267360366,-4.525754628874845,-3.7980045383100647,5.196678526702147
-4.0,6.352275262860038,6.130102970911634,-0.22217229194867305,-6.211652642980895,3.2348206673756854,2.9402118542464684,-3.1609939699055367,-8.4153342926985,-12.752619045220893,-12.088409705092833,-7.934424554571448,-3.175355692330635
-3.0,9.82925997698231,-11.341103487473127,-21.17036346445568,0.7888288146493254,15.520737057126755,-16.191528789537937,-8.223909315857995,-5.7299957177372765,-14.17637360543052,-22.544256648369117,-22.695850580043974,-24.291961367343724
-2.0,-1.0326121876835774,-18.155067846895953,-17.122455659212534,9.549706474541377,8.063310456211527,-17.657640592282224,-6.835478349506923,0.6644378217129407,-3.899784682737791,-10.289450538101299,-12.007736194593267,-14.627438129309535
-1.0,18.570211938461576,4.3032104135870695,-14.267001524874512,-11.481491484795647,16.437321709951007,-5.008423503296768,-6.632628966716714,8.110585142188139,9.990306586726344,8.924789951850897,9.948625690970815,8.1571152798587
0.0,18.27598170934838,21.17888722844995,2.90290551910168,-19.6962342660648,7.629126158730604,12.004325225909088,3.4866182055733934,11.998615951177296,12.566604159308845,22.395072215949163,23.3122668436738,19.397746112596806
1.0,-25.77940845282627,12.225842412202919,38.00525086502937,6.804079202248698,-31.867015517096988,25.14686285405646,10.241995581435221,-0.0025139649568330924,13.119180395907941,19.145926827551843,25.83684714891611,23.141539646119604
2.0,-30.12399893432434,-12.584166187989402,17.539832746335083,21.377556785921172,-23.802333367900907,2.499315342107396,3.556734349968494,-9.121957776282807,-5.810765453101392,2.4286953264062277,-2.6853039898336277,-3.108770642934152
3.0,-29.31456139035807,-23.837638177296046,5.476923213062092,26.517984777041754,-17.441270466211904,-9.166133531823881,12.395814753938831,-1.7501661132219315,-4.04141303890783,-11.81257971135345,-21.097740132101162,-17.880998365877947
4.0,5.68167010417376,-0.7670684352848411,-6.448738539458641,-2.4382240919785456,6.100860299720489,-3.5975396983164716,1.3043869452555468,-4.501317513250074,-5.651162336205957,-10.650758227924511,-7.166533508193163,-1.8042163685907031
5.0,62.02753321135897,34.388685585122786,-27.63884762623626,-48.18960810687296,44.79121761547049,3.306116462039803,-24.874468576095257,0.3844245755244735,-7.472971474625373,-6.790373422934321,6.656680721719012,9.787208570473696
6.0,20.284831950437376,5.457714084607844,-14.827117865829557,-12.85306128102497,17.59290737964554,-4.672222764842125,-11.11250553319941,2.6473268897658424,-4.538480595160435,-6.2777909099847,-0.10984762833041106,-3.9163344953269337
7.0,-13.32992044183791,-12.326599228218079,1.0033212136198735,12.766925168464878,-7.208631015523194,-5.644479321985645,7.0423501440175045,3.329358071628751,8.339273131038336,5.467157644716506,-2.9340993883296482,-7.053551740907484
8.0,-24.500036141760805,-24.80972755665141,-0.30969141489051666,24.670419533395847,-12.058383427697823,-12.536734461049344,15.590241001615292,6.182100676588959,7.174706026437049,0.7700597749372737,-3.673220072489996,-11.418531632923093
9.0,-24.276770364860305,-13.693711234555792,10.583059130304582,18.997646665580596,-17.392543605861484,-1.526569340603681,10.406177442272977,-0.009927997659021859,0.788096488587958,3.6411935852806785,-4.388548694097633,-3.7045622759730303
10.0,-7.18363897454074,5.624199849137548,12.8078388236783,0.7879383976782126,-10.036085105459113,9.170703408588246,-3.5293705070001726,-10.19733058725415,-6.123100641289637,4.475478567312434,-2.4842846907867666,6.476491115435113
11.0,16.909909204106498,22.95971090423632,6.049801700129777,-19.93141587625014,5.390902211847381,14.462483916728058,-7.667794709299455,-4.39584971412083,-2.7317468459922973,0.17270996730309385,-1.9149444127634867,9.5944618182275
12.0,14.835404335045059,12.35896579343089,-2.4764385416142276,-13.598715392366508,8.69663857925578,4.9794969225993055,-7.307225329961225,2.1097516647779133,6.767169448499544,2.4914807018982303,7.090443655780048,8.898608036410831
13.0,17.06712523600341,17.024325982834426,-0.0427992531690804,-17.051577247374865,8.517887987667027,8.45181617818037,-7.102042396026965,2.320219335286971,-0.44501086319598526,5.416357302169673,19.69460827491863,8.163662219429003
14.0,6.218325516245588,-6.94712107913656,-13.165446595382218,0.35580911245426083,9.73430238638009,-10.013868755232998,-0.44977720391346176,6.3357665668529926,1.6709733212628077,-2.953586824416953,6.3996022332395865,0.3808848457076177
15.0,-17.341703566277005,-15.451717394861186,1.8899861714158064,16.388235740597207,-9.573117143755276,-6.734252101624784,8.747903719856295,4.656001772439465,-0.54678160511221,-4.7211731486899176,-1.666768872352804,-9.184608581095448
16.0,-29.384810448906318,-25.70672812510927,3.6780823237970965,27.541567543796198,-16.567913002504824,-11.04132104511022,11.416179271352634,-5.260342302122089,-7.258904778634014,-13.671910802895928,-13.413911925901191,-13.945286409480387
17.0,-8.625920183159105,-16.100490905726662,-7.47457072256746,12.368275754868046,-0.6134512323645556,-11.810155679011093,4.815800182864264,-3.7960435404915165,-5.835588952817465,-6.507204611738937,-17.970630112682823,-7.4721020403322065
18.0,24.812771436470626,19.99236078497818,-4.820410651492335,-22.383459696996884,14.777112709513247,7.564898601866482,-7.8672381942205485,-2.556995930651371,2.8124977942796257,9.883745176839732,2.304368236147811,8.771786751968676
19.0,14.934588319309317,20.07149561497261,5.136907295663397,-17.4668357713935,4.937063304532779,12.659081695945801,-7.597805393488146,3.8322872703396067,11.501294113750367,18.168003272900236,4.249695645178254,5.95345577880968
20.0,-1.180375313262406,3.7069970686277873,4.887372381890246,-1.288725751342131,-2.9949735635903147,4.265895795757697,-2.0216888773975032,1.7563673806085247,2.828735030207831,3.4847845530263637,2.7777627022492917,-1.70933484688313
21.0,-10.66468344513181,-1.2468666238582902,9.417816821273522,5.943906149610724,-9.999575689502386,4.043346067731295,0.9699001976419681,-3.2731910892884164,1.8601889499363256,-0.08599564494820466,3.017149221092307,-4.519749977285422
22.0,-1.548889958503099,5.3112741215234465,6.860164080026505,-1.8861357277313475,-4.237396351357678,6.110520327587605,2.0485910529083085,-3.390188745690703,-5.53610459602541,-12.89655154170036,-1.7619976229734151,2.0489349452765917
23.0,5.372061533655764,4.9234558900302705,-0.44860564362551036,-5.153778078154383,2.8817848275381905,2.252373255758182,-1.8598898352864883,-3.1617430228793153,-12.807196890898016,-15.448623800735342,-1.6797035746057825,10.04108264652656
24.0,5.4645515515481895,-15.241909891972838,-20.706461443521032,4.874416411765196,13.06026217960359,-17.964671689775088,1.1856775262956158,6.693650563628623,-3.886455140063056,-2.8678679408004877,4.17137156763933,5.291162478335973
25.0,-2.9727634247644708,-24.294230517960962,-21.32146709319649,13.606646901290206,9.151130383861707,-22.79826576484449,6.315221753478702,11.348368573043926,11.708324182223402,14.54613284433756,1.7400084134889642,-6.992148643666176
26.0,-15.414806295963896,-7.133411544200781,8.281394751763107,11.312927325796807,-11.791207086219046,0.5884926883697918,2.119867267441294,-1.5660784404153247,8.341510790677255,9.416255935037029,7.8264301048028715,-7.741101118463607
27.0,-5.628469388664329,12.252392573442673,17.880861962106977,-3.2832125721853194,-11.774932722787852,15.010025583978784,-6.381380384645407,-7.972321689359725,-7.281661666731258,-3.888233730005637,5.02973144197678,6.0279569187408955
28.0,16.557310671731557,22.341830522553607,5.784519850822024,-19.425934949415367,5.447012216964499,14.092879150968578,-3.190602970431618,-1.8812236105793794,0.9072036234671437,3.2673525055142267,-2.669062670322699,-0.2316055389818802
29.0,7.009643898546307,14.736594730087052,7.7269508315407505,-10.928550192956218,-0.3747824433118283,11.266364685186739,4.43827417303676,-1.8483073664651544,3.365588062854018,4.861534541236143,-9.907594406731517,-8.196655512333257
30.0,0.9803398450832326,8.532083333883602,7.551743488800394,-4.730332893359859,-3.3013453902594363,7.998477826473447,0.2544556820835624,2.1694712812930543,2.7213873368536,1.9931670838745583,-13.155218595932364,-3.746469161164772
31.0,-6.539287009311309,-16.080327490575932,-9.541040481264591,11.338453641633153,1.4829434052998192,-12.857484142700876,-5.693960066377784,-1.5368544183391832,-7.285862235305506,-14.255106039015809,-9.703152915438174,3.2196171610370277
32.0,-5.045846762564212,-19.914615325768626,-14.868768563204382,12.430927271935662,4.888246343945602,-17.36557397254227,2.408572997978866,-0.2565836422394363,-0.9697903909109047,-8.963779762023414,-1.1331747476208491,6.337682399240455
33.0,-4.061351478567444,-15.308070011507223,-11.246718532939765,9.633529147401752,3.5624097656063656,-13.257067081095533,0.03693638419977807,-3.756337879393251,-7.220684572715759,-9.492970222148758,10.398026050358009,2.687640750646457
34.0,-2.443542395570857,-3.727802987265318,-1.284260591694454,3.1097262133529444,-0.5377823929792531,-2.489113610224801,-0.18108082080371668,2.7694817124930386,-3.4226921207843297,0.30729520691045153,20.86937591400926,4.417138150128192
35.0,0.4271419495641792,15.628807893512349,15.201665943948171,-8.00688182731684,-7.349403950189351,15.432350708575383,2.4080910154317037,3.846651734326988,9.16458734663797,20.46667513952001,21.034608716410283,1.713975070936356
36.0,15.266532692738355,23.183338716644766,7.916806023906379,-19.20414278272396,3.7123947881565877,15.570748842625662,4.279807142260774,6.3862100421568115,8.840064863596934,15.790305526585836,-7.525203766313755,-11.812993822181886
37.0,8.672291401265868,1.6894024529327023,-6.982888948333199,-5.156895654252386,7.789204102798321,-2.6991667435000526,1.7020202397410815,5.138614006917888,6.107270444715379,8.508920164618573,-14.739620425665098,-4.497841054909284
38.0,-2.674206498359642,-5.8584233683257185,-3.1842168699661277,4.295858797314835,0.22094035854531335,-4.5674564155536705,-4.539125515163246,-5.610261363630191,-3.623155034534605,-10.324575457397795,-27.42682640945562,-2.3952391521702707
39.0,-8.90180319013457,0.35084665827784134,9.252649848412336,4.231956767350151,-9.107358069184091,4.840405744524915,-4.801023423854751,-9.268297427258656,-5.315222907365055,-13.49137163718365,3.809791294280773,11.25399082125314
40.0,-12.97707446359095,-22.348877814179225,-9.371803350588346,17.622832989024626,-1.7517009533371324,-15.894810527746657,-2.390419449682776,-1.2710149211415134,-7.849302897053402,-18.732912091608057,1.6657037252150668,2.1254203120901507
41.0,-4.520343044257349,-2.8462407238548373,1.6741023204024765,3.6430696044196456,-3.1245920719420672,-0.5365640781714545,7.699344714220305,1.2079006237361343,-2.212374992831192,-3.1178889592389982,4.574798008856977,-0.6912942641132751
42.0,2.7808112531918816,11.322222004382244,8.541410751190385,-7.015842239019657,-2.8298042507674346,9.985681172390638,-5.125108894621335,-2.795300613222672,-0.9867410505806793,12.329842469414883,16.609101835794128,7.545016663603951
43.0,8.076898785865124,15.420568037668518,7.343669251803444,-11.71660887765525,0.3370760677269622,11.359486838227987,1.8484628955154345,3.924417831443003,6.798083626111467,12.173553258586725,12.009147019560267,-1.3124596828778512
44.0,7.295977616627457,3.184358008086136,-4.111619608541275,-5.20995374055421,5.673551910766755,-0.487660485123417,3.6801969372603947,5.613468310975362,3.7478458634292364,4.975590033748611,-3.3206797707622924,-7.763265795488874
45.0,3.264506406109871,-13.959129368825938,-17.22363577493574,5.2999617200976825,10.29322737389111,-15.62129437723225,-3.5712846890328898,-2.0250616119102283,-0.15986911260786485,-5.172919627661222,-15.305096354613363,-14.288913500912265
46.0,6.157885155852827,-7.068634364527448,-13.226519520380212,0.49105667306607703,9.665039471096375,-10.187065296319595,-6.022467676664002,-6.443209351603322,-6.447589380150484,-5.593344765714723,-9.820480215369207,-4.824003417971463
47.0,-2.878749855256168,-0.2291989432658621,2.6495509119903806,1.5169421901252744,-2.7872132185679592,1.2387180389792793,2.6655187108187484,2.4957732775364216,0.8336294392489934,1.0152676135555136,-3.839744661257191,5.001587315415123
48.0,-10.509572574385718,-4.165890585480787,6.343681988905024,7.385181086248007,-8.365897884215535,1.1090371017591152,7.447493497079231,7.218040177416476,4.360285645341186,-0.539228218200563,-6.766666460265896,2.664457192140608
49.0,-13.247223717983468,22.42915881764576,35.67638253562933,-4.618775801187044,-24.475117896455835,29.069743978140874,6.016150373468504,2.141218295402207,14.919161585974834,19.273108329928974,17.886724025997072,25.11418562601307
50.0,-1.0874711131789478,-4.125900510607051,-3.0384293974280308,2.5790776441820378,0.9650104855787038,-3.562084212174428,0.5417444461060403,2.159832897588972,-0.3018900863306593,-0.2896767631130235,18.170714050975363,11.496176667199485
51.0,8.264560964705165,-9.42232745525466,-17.686888419959786,0.5484054766028904,12.964990127905475,-13.52647816479359,-10.586241045202787,-11.448285718328117,-24.089038852552395,-29.10461571849507,-6.65065901736714,-11.143358902658004
52.0,4.128585321653675,1.0644938737757315,-3.064091447877951,-2.5528958205034993,3.581761076158707,-1.0405647366944075,-5.6530063034658395,-6.496116108759051,-8.524215321434308,-14.334500340290623,0.627317732916322,-13.622432204674784
53.0,7.811298325662211,8.687663124357254,0.8763647986950103,-8.210541445242368,3.4460233568811676,4.7493520156159015,-1.0861435729910105,1.5166220329532778,3.25815291109046,13.46029394366546,-1.5575691205039623,-11.981902356857466
54.0,-11.978855776890251,-17.49062522686451,-5.511769449974298,14.69133543778737,-3.1847561184999496,-11.529964562211457,3.601709271549769,0.5546164353343186,9.652493288604989,12.880053453721818,-13.938111464853666,-8.78920058685544
55.0,12.63238502324764,-1.5955452853049232,-14.22793030855262,-5.485401742731487,13.470453936829784,-7.862507361689664,5.062645556983855,9.4018824148322,9.487050454740881,6.653000265209105,-13.125956454785232,0.40527541732048533
56.0,12.550735446367884,17.732898868783803,5.1821634224158615,-15.110643275459754,3.638877583384108,11.424157998771383,-0.19539362522383108,7.320005271596973,5.621498039585306,7.168652316373591,-0.43499498378620416,19.483326544745587
57.0,-11.36151234242362,7.602284663956333,18.96379700637991,1.82959316723952,-15.212391648143516,13.324125619136888,3.1516906488654355,-1.3699988965744092,-2.435988762430685,-6.345451012390784,20.41719797234635,18.816111890449285
58.0,-7.622358689382147,-0.8667707285968058,6.755587960785327,4.1909668229883135,-7.161047891935235,2.904556537976638,-4.164289009785616,-7.887101587398124,-6.233218472760063,-7.742147040147793,9.12004001698422,-3.8132649129361518
59.0,-6.373685888858273,-16.082931840376997,-9.70924595151872,11.249315301678678,1.6979217938913074,-12.855947047906819,-0.9426681387345452,-5.901454624457612,-8.286468854594649,-6.949813104150567,-1.3047664685979354,-22.698469185201958
60.0,-5.369866416688685,-17.355333922851898,-11.98546750616321,11.380407816315435,3.3428584755860324,-14.626039824445206,-1.2554868406562076,-3.3137988831746736,-2.395889036359671,-1.727758639757206,-7.122357524114484,-11.655871612341844
61.0,-4.600104630396727,3.656421756507812,8.256526386904534,0.4890593767688638,-6.465603727933913,5.927247404512428,4.516816236429156,5.388536294619818,4.679330007713132,6.356345879991061,-2.636092872972607,13.793874675378415
62.0,1.9397193604334917,13.214731011843412,11.275011651409898,-7.557159016478408,-4.698492719317912,12.219078912228078,-2.6821140315372185,3.1607419709558044,3.995965390809001,5.0859228822362255,2.444566076652862,11.338711731054865
63.0,19.35538534638671,17.287423401085743,-2.067961945300989,-18.29560740829143,10.68611416130413,7.583596853760974,0.5473122747693511,5.234471686841485,4.869843226853849,4.838412235861979,-4.236284539317309,-1.6138110830791335
64.0,14.84398346627852,15.068791170730591,0.22480770445205112,-15.002461152299873,7.366238300471793,7.616073369051664,6.001044528043199,3.5849702395102936,5.7147633101263295,4.601681418562875,2.7129958103982044,2.5610815053755145
65.0,-14.794203680699614,-22.434622582542517,-7.640418901842898,18.574276956933822,-3.5976373181574233,-14.997116640337024,-4.885087345888874,-7.0584074447911505,-10.94521939688006,-14.854099569074661,-9.566672991518253,-5.1155460733769536
66.0,-6.7228192258115875,-11.074203813060963,-4.3513845872493535,8.940622595351357,-1.1286465857219794,-7.680837568762241,-5.785576196198289,-6.090796147649556,-8.75689041501788,-9.450434504109195,1.1217316302185472,-3.0291984190837415
67.0,2.1981463782940986,-17.18302467799821,-19.381171056292317,7.456504920584531,10.764556117788663,-18.25733420578152,-1.0228217235120063,-2.0158543393282162,-2.0623191066296616,-6.503772824843914,0.5950419151774404,-8.474476067668451
68.0,1.724494579375631,9.713432236466364,7.9889376570906725,-5.677496234089865,-3.1632092179929847,8.792382326649786,2.4230767431472238,2.2594374812098597,8.746619712719918,12.969569603109122,17.865504813923298,3.4613531019192294
69.0,-4.523443785429153,12.753302049150424,17.276745834579447,-4.154315706503423,-10.938776288710512,15.032461037271213,4.366779152133091,4.629867521806844,5.339581374678916,14.422653477228593,0.9949972579707067,0.031266439986921135
70.0,-2.7821151840520453,7.63059574740358,10.412710931455456,-2.386569421442599,-6.565416744417705,9.037945352928661,-0.4480119123612081,1.9104541030041475,-0.15590874680733346,3.544060205783735,-7.105556419516443,7.8595328949852785
71.0,11.54678665448223,10.312238731033899,-1.2345479234484902,-10.892610210320573,6.416078518363934,4.554157567992816,-0.16684796485547815,1.5130894718110373,-1.3974168144810262,-3.196050021118042,2.132207800850707,14.173996825931408
72.0,-6.6799771012945826,-13.46638356665304,-6.786406465358529,10.031223262925604,0.0751354954593384,-10.19146862214842,-0.09318000786073863,-0.6519672891808691,0.7544375846218414,-3.3864904599021903,-7.844842110028303,-13.27063337720238
73.0,-12.901337404026036,-19.3867186429115,-6.485381238885418,16.101873946991052,-3.264496020254556,-12.924672422288909,9.307597724101607,-1.0653910079584135,5.176830156199445,-9.462011865190497,-16.47197575232837,-16.363708742779572
74.0,-4.454338863404564,-6.83771334024992,-2.383374476845238,5.681615682852763,-1.0096044477702253,-4.601298823056387,-8.108776876083434,-6.287365848950243,-9.404252749327508,-8.168174296103446,0.7923938614561639,-0.5619068958034079
75.0,29.149582206394573,44.26888644834031,15.119304241945844,-36.67574313398211,7.046508195252476,29.702592627790395,-10.992926566651164,0.20600083372682976,2.1755720395142912,15.245461125372692,21.859646143866907,21.4062359741285
76.0,3.004001307735031,-0.46100533301276236,-3.4650066407477587,-1.3196116154869149,3.1924280955454316,-1.952970793942006,1.0305579745560456,-2.4521404028070166,-9.41633880484039,-5.388428594818508,0.762041118336942,3.871139420121593
77.0,-18.197179585982056,-36.7438706242928,-18.54669103831081,27.498480330635807,0.21464455052668208,-27.63141167513623,11.803200603889614,8.34481384043069,1.6349284370256152,-1.9829708582882473,7.925212891854091,-0.40189823433095295
78.0,-3.1674409222965716,-7.291897643741182,-4.124456721444746,5.177698937971234,0.43968905842315364,-5.689170776569711,1.787960903245608,2.778616871012995,7.273588978321677,-0.712022357019044,-8.28499599599706,-10.990201872255202
79.0,7.287416112594899,7.399705613646969,0.11228950105189245,-7.315114512667403,3.545809226913924,3.7011315698386618,0.2520505437738776,-3.0618758020156944,-1.8125449598341152,-2.373265755908455,-13.55964549982521,-15.247284811892373
80.0,9.114870032921088,22.537239477635104,13.422369444713837,-15.79233212481518,-2.1212282908090896,18.006942428352804,-13.240955220689916,-2.1622514663432164,2.8566655772589282,9.045773828719833,2.819163217956584,-2.621325716493261
81.0,8.765604808635388,20.65619732695841,11.890592518322894,-14.747390207650088,-1.5338809662036632,16.22295151837307,-1.2875747939098456,0.032288653153540015,5.755808844469645,6.555941842199961,6.933683207145554,12.900284666018646
82.0,-23.22140957526565,-23.19661341166958,0.024796163595979692,23.26140034610855,-11.59591662626001,-11.557814470969598,9.580271766788762,0.23865471558852414,-1.3248500692792535,-1.003206020882987,-1.0802817119211277,7.931745109120186
83.0,-16.981209325207946,-14.567356897846047,2.4138524273618804,15.756979771420731,-9.74699980945838,-6.048690903600182,7.924063744962876,2.512574129127375,-0.9932146785872511,-0.13180909510387528,-2.8014124512946195,7.347413528086352
84.0,4.207388433636885,3.656288780502491,-0.5510996531343388,-3.943950299959372,2.4140955867011784,1.503749907175938,-3.2219816909274757,-1.7975170985892013,-6.332598715528933,-5.051115863833633,1.0721592922009848,2.4801325403924572
85.0,10.48497108009099,-1.8897078509949763,-12.374678931085828,-4.310273308346607,11.394075350304055,-7.0975298801687945,-3.398500431881931,-1.8439636343732253,-1.3551049875279517,-7.33702981183502,0.5543890895628174,-6.191066601527064
86.0,9.007472187528586,1.019639972104137,-7.9878322154242785,-5.032516708103412,8.471282279081475,-3.4419224384063254,-2.381980068159718,-1.9065653440388417,-3.6207088636020304,-4.899423777408046,1.9661183266682563,-4.1379107481580535
87.0,5.323066780992898,-5.023445299538476,-10.346512080531218,-0.1789663952135898,7.896291137276852,-7.7127072872147195,1.6278100641303723,0.45392308442605267,3.5330313162282954,-1.930965055485599,-0.14229272184376585,-5.628859607291657
88.0,12.947021104481946,10.866836014280391,-2.0801850902014722,-11.86814962949687,7.503737037399407,4.373599946099468,-7.942775620951126,3.412969974502235,5.026609092103185,5.653296109222111,2.3774091271695172,-4.8700884528908865
89.0,5.797344992711576,20.661271859880564,14.863926867168958,-13.198608796582006,-4.538873432966696,17.74789863752172,-2.932541377963389,2.1427093884450876,-0.8340775498901487,9.77536961726403,1.5678283721833182,2.1395210130719113
90.0,-24.799289897130826,-0.5278348411850766,24.271455055945694,12.691093319515739,-24.54078899063399,11.857821469630707,3.4728393396071233,-4.255261357245244,1.337907301813063,6.454817360849248,-11.426375612512889,-6.525199864277143
91.0,-29.92126314465499,-20.708004407056904,9.213258737598034,25.26543546237007,-19.577006867406624,-5.686392420708824,6.134140662115018,-3.417477599305014,-6.415988756359413,-3.7930309301916196,-5.666397672210931,1.7086410965528025
92.0,10.777191812924357,3.7452822703112094,-7.031909542613169,-7.225946089316262,8.886455183337782,-1.6684720394795352,7.2685128995843975,4.856694573865923,3.087147706745629,1.4404069967760296,17.10797082282741,14.134394020825395
93.0,14.842927855219417,-17.677179191448573,-32.520107046667974,1.380734424602152,23.731099788529583,-25.133197262289755,3.1623783189747994,6.54806821935244,2.756132187172925,-3.926724373362478,3.791571085359445,0.9214578337166275
94.0,4.057684016687119,-9.35484658157931,-13.412530598266393,2.6183201132454457,8.69398644032532,-11.348999125085609,-4.280409196121452,-2.1036904357662296,0.40883068701330577,-11.184128112672974,-12.710812914191699,-2.9099896200858764
95.0,1.883507803974802,7.9775703103834,6.094062506408623,-4.878218394032805,-2.0784927137638896,7.062678273243341,-4.871657034181055,-4.208298007898355,1.879999317700804,-4.516515135907983,-5.0739288414100665,10.0845627290466
96.0,-0.5112916613751182,24.642405212265132,25.153696873640207,-12.090645266928206,-12.813670840190973,24.841362245777713,-6.325235646904359,-3.589891876287219,0.6730859645053573,4.619579331932221,9.357078295132556,7.657640921771968
97.0,11.988946041882896,15.152993458986622,3.1640474171036264,-13.59648307364165,4.3487401287078535,9.179495435466864,-0.17080288339444039,3.4537723048979183,-3.041261372935688,9.169390162014283,6.215190295828253,-7.572668630526653
98.0,-12.399344628431043,-13.4165033584169,-1.0171587299859661,12.960041585688769,-5.67504266365348,-7.1933037107851865,0.7980096528762508,-2.2785085938336103,-6.598568788672997,1.9325216801250757,-4.408469878512628,-13.976258400318962
99.0,-3.5471116212945546,-3.623008682151605,-0.0758970608571301,3.5573953536407927,-1.7140306844297584,-1.899341980346268,3.5978194705109803,1.53826589977455,0.16950049784750298,4.261441610923259,4.066690400864608,-13.53934473303535
100.0,-0.5543729888517763,-10.107310512089251,-9.552937523237492,5.381036751545274,4.52956916803495,-9.794711572670868,0.04106393257896235,-1.0297601504107006,-3.230246525066728,-5.584917518662312,-3.341079730118828,-6.9325223625467265
101.0,-5.748151508306259,-13.856089649501936,-8.107938141195628,9.772117027965045,1.1409981176623367,-10.940865524812128,-1.2547997090201002,-1.1767366706745395,2.5304898041736497,-8.002017395612103,-14.895421179438962,-3.5839973184122167
102.0,-6.12497266427265,-3.435746502614105,2.689226161658607,4.747284229932541,-4.359653177175643,-0.4079804929104034,11.021646035713514,2.7973305182300976,10.579787619282143,1.2096989914890708,1.8533403730035536,21.508641518849263
103.0,22.659055000329268,25.547323151519016,2.8882681511897608,-24.063038691052963,9.857240761136998,14.18172144262687,-9.292001338372295,2.161906292948208,0.7530683882281135,4.645206805629821,16.7267882759888,22.333733924458656
104.0,8.093600152121315,21.824735264511176,13.731135112389826,-15.005850201608164,-2.849334106134808,17.8149407447477,-6.967139431017575,-0.15582651015585447,-1.8306668310593965,2.561036080541701,-0.2491255257702365,4.84304577812661
105.0,-16.604742116840356,-6.773814543296025,9.830927573544296,11.711468235802664,-13.255559559442192,1.4783203061648624,6.7516669023968054,-2.992838966039399,-1.0669912764666474,0.13281525780131664,-7.8723929421375525,-4.621177362777383
106.0,-16.792115321027254,-23.721909771567443,-6.9297944505401725,20.26894533723792,-4.8994152253864005,-15.305901559271692,10.769311245023717,2.7115504403116284,0.2802807108757923,-2.4485611288929907,-3.572766857256071,-13.370985142354487
107.0,13.356054193165129,-7.461010325676256,-20.81706451884133,-2.94459488165125,17.110368404017557,-14.12458836862761,-7.156461644094521,2.3801278589138395,-3.375381900035209,-1.4440431694007616,-1.6661612434506106,-11.388922107343065
108.0,3.3598748517806647,-20.271060813691996,-23.630935665472617,8.452175446019371,13.515556700209938,-21.936581477787264,-3.7956402493417585,-3.3013350905654324,-5.856510287513092,-3.8968515905395145,7.934726248673176,-11.339236716657567
109.0,-2.6821631906610808,3.736626151991807,6.418789342652913,-0.5334262962647764,-4.528427855780475,5.098340256145629,-5.654523220383681,-5.321733013545495,-2.652220208862789,-5.17752020959147,2.593388884453021,3.55615360344546
110.0,5.698336804397274,34.26241702829559,28.56408022389823,-19.985485177501634,-11.482855435200939,31.366413206605188,-0.20868852855037634,-0.7351797449247788,3.345771746284015,4.09757382134105,1.5719672698192202,14.952177855676867
111.0,9.874668949456566,29.876900004481122,20.002231055024364,-19.87625651658769,-5.025700303411988,24.98503709034694,4.843330922773779,7.0407372956312315,6.20227897708061,14.11561916819883,-0.014312418803341775,7.479606178819536
112.0,-10.15716885551506,-1.4054901014958947,8.751678754018998,5.7881628357392305,-9.485837132676721,3.652118895594029,3.64613416009239,0.6049194498352986,8.512813873113872,7.919897724851198,0.0686525334691972,2.981302550375027
113.0,-6.164386716092109,-26.0669207567078,-19.902534040615787,16.13112648889314,6.844850345852051,-22.997841292678235,2.8933186672605133,-3.0091081741784387,-2.51241140786368,-6.489488074345501,-11.05665054232132,-12.678970840331754
114.0,5.912194367058748,-16.490400099203768,-22.402594466262535,5.313016054904001,14.137566087145062,-19.45809871882066,1.1113824573766706,1.9169304775469742,-2.0793136795450105,-7.471793147623169,-4.617047946423616,-3.6690885197213445
115.0,-7.943989606441191,-22.138012472542673,-14.194022866101463,14.993100190117875,3.18603420105792,-18.182584545617217,-3.897466589633399,-0.9631400392830534,-6.832068225626529,-11.94662139613078,3.852572727595344,4.88133203811009
116.0,-0.8589671903609216,-5.270497617315504,-4.411530426954517,3.0216319135918104,1.7594313996456559,-4.788716062032888,-3.425998889193952,-1.0929258425624309,-8.003462263846007,-13.421155002876787,1.737525746991245,3.7430786583221654
117.0,-7.643010493051801,14.53014594553844,22.173156438590265,-3.4050244165314316,-14.924418950080112,18.313042814831043,-4.817686141816716,-3.2368035225372966,1.1362041934123295,1.0380038422624862,0.132470284675426,-4.502346155650805
118.0,7.427764625491578,44.458901130884236,37.031136505392595,-25.902969796232075,-14.739088297124727,40.77365012076916,0.7074715352890961,3.838291323205353,8.988836604449325,28.92570224448956,14.96461276849964,7.626149372463556
119.0,15.938671038517398,17.50852727026808,1.5698562317505527,-16.760364916397116,7.167300952671988,9.559402536309257,1.8984676076134508,2.2883322179980286,3.3823044990538493,19.45154359667194,6.57292138344083,-1.4773969216364429
120.0,4.648761407730865,-13.93349520260661,-18.582256610337616,4.686197160766447,11.595190028890633,-16.32025988365715,6.037241348191329,3.457046425450185,5.386256941028137,-2.665204930889292,-3.078687828879846,-1.657290182834368
121.0,-6.669100203294449,-25.389513249622937,-18.720413046328584,15.996283398597301,5.999246793544591,-22.03755383784876,6.315151282120083,-4.380228221434793,-2.43439622204135,-16.747470154572987,-14.074068735269256,-7.092771653931423
122.0,-14.955019761271574,-34.40451621126099,-19.44949644998949,24.648120160374578,2.212374425460539,-26.904551367099906,-1.2337534974381579,-3.338553481769792,-7.752792554115065,-19.668588528120665,-16.57766120644081,-10.481089947232576
123.0,11.274652651726875,-1.5784455921917875,-12.85309824391872,-4.8007788619915175,12.098607395638947,-7.186205631564073,-11.055536493811521,0.4366672196773127,-4.085052933676737,-11.785326503894712,-6.522869086773757,2.8516664353838213
124.0,-10.345527736690057,20.194561379794724,30.540089116484733,-4.957309011011532,-20.41578916541744,25.324739710072603,-2.416929647037363,-4.798982760488201,-2.977619744870537,8.10935392533754,11.015367472293288,11.004461493173018
125.0,-4.528666413650265,16.19862432926173,20.72729074291199,-5.7921069931746585,-12.60557775464539,18.50271451451002,5.119861477240845,1.1643669489403397,1.6984782352462235,9.542557524197232,7.807319072564987,-0.4966404101737387
126.0,16.54005434373446,29.251243370701534,12.711189026967137,-22.936124274315528,1.9358126376356637,20.94129426613497,-7.810873112810379,6.07581671574715,5.996890388186407,14.776863173998755,20.864138686111033,14.247536095164785
127.0,9.238202969369173,11.452795444640802,2.214592475271729,-10.312774437311269,3.4563834835250136,6.788466464923612,5.204057799839037,7.608248515801923,9.056565957081133,15.71154457943496,11.766822926922533,10.031943248261069
128.0,-19.37044135103336,-52.90013087675564,-33.529689525722176,36.08364269037065,7.027933933802425,-43.18917505375389,9.756109968597034,-1.6319107301410374,-6.391293078248798,-11.791301952198289,-23.69368494407242,-25.687875960000298
129.0,0.1704503081055151,-11.203466359596732,-11.3739166677022,5.5389861562777565,5.803651054276025,-11.270242566163208,6.809728840331701,-0.415565624621939,8.597751065628433,-0.13411313992069918,-6.472727198506778,-0.0726604000924933
130.0,-10.398233034002493,-5.420173290406092,4.97805974359639,7.928968723331342,-7.652358843980328,-0.2065010677508461,-1.8114873502133833,-9.015798986925201,-1.2386614553314617,-17.008057784766248,-4.222476406207832,-1.687227348720433
131.0,-2.3365473217127333,6.303026489905627,8.639573811618288,-1.96383527994064,-5.448565520180503,7.487005712544172,-11.696861788064549,-5.5953275495405865,-12.86881163418344,-11.700796300190827,-0.4979280955562544,-1.1110752724826387
132.0,16.543477041561886,13.72157734714758,-2.8218996944144203,-15.190160396413068,9.646128052415623,5.471568261559842,-9.665530801865312,0.5716034429406074,-8.531945332697463,3.273142116352239,-3.0964038280135835,-9.426869486980682
133.0,35.59063545125102,42.84037141546853,7.24973596421739,-39.19155367419656,14.135437616769227,24.997163376066368,-5.856672959124231,8.763901156140841,0.9526974803714134,10.09749061016784,6.110776124126984,11.494495463216776
134.0,-5.625051487323498,3.418070448831866,9.043121936155309,1.1300470144480705,-7.368302923307325,6.192393441089575,5.688751729273492,2.0500183680543866,5.793281332451668,6.157117384093956,2.91096446010948,11.863972090068849
135.0,-34.036968414413,-40.9881047173026,-6.951136302889547,37.540196910114325,-13.497415066358199,-23.921221617761113,12.274798081128893,-1.779083612867327,1.838010589662642,-4.459785576041154,-6.059834994224253,-3.448540034899837
136.0,-15.813126420771267,-19.839511530770245,-4.026385109998838,17.774205816906814,-5.845708514683938,-11.95888925718434,5.317749719116795,-0.18842164887606155,11.167090863063873,3.2999308294859118,8.492563709586454,-3.066771434828169
137.0,-9.052307702869115,-1.0895313512878566,7.962776351581436,5.016202108034388,-8.53477004248742,3.4897937278455426,6.232111007193536,-0.029039800697733154,7.530371160248242,14.840179312711797,17.60219484601191,0.28911237910223164
138.0,13.455537429424435,14.352176360478875,0.8966389310546193,-13.882196422423956,6.2573800269142055,7.59548794512637,-7.706142888692613,-4.65769505634097,-11.14509129914651,-10.207517584796403,-8.46553402260492,-2.0104779065700216
139.0,32.252088030533066,23.726418182519314,-8.525669848013624,-27.967267146202143,20.372007082316333,7.565578395064367,-9.125339069383307,2.4523347126750092,-6.819776667916884,-6.3513893400922266,-6.224025131615999,2.5888007517114824
140.0,5.109003969486039,-11.551481641669394,-16.660485611155448,3.248189465081971,10.950114272250543,-14.068653491946648,0.7638409311211989,3.4019818494745904,-1.9600203470424873,-4.6990998508949975,-17.16364322168414,-4.388952587579957
141.0,-18.781058883908713,-24.015579825800472,-5.234520941891841,21.43515320369304,-6.786547702825512,-14.671825413970058,0.26052404905316306,0.7238467417124734,-0.47834057222379567,-4.41340655164481,-13.881994968012313,-6.460226495514156
142.0,-3.4287098460316807,9.823443848494486,13.25215369452603,-3.2263008111422495,-8.357990272219398,11.567332935030034,-0.3136234563085907,-2.854814759120357,2.9707934723553704,3.169782707019351,15.34417955482274,2.0217747718381878
143.0,0.555191802524373,29.85266596098163,29.297474158457124,-15.220158570979267,-14.397075573255465,29.605720224730693,-2.0544240535048006,-0.3589876243030474,2.9726152031691297,5.943081940884465,20.904959185852988,11.064165795229632
144.0,-0.7476323121683759,10.266360204814932,11.01399251698319,-4.76684925435888,-5.917413663147903,10.674815458818491,0.5117431298102012,-0.12571369497482177,1.9781736555358038,10.963956806711895,21.89614407407365,13.483504989715557
145.0,0.67573022223216,-31.73945788163158,-32.4151881038638,15.526546271019157,16.577564041612824,-32.11631067573674,5.205771514159491,1.2323586435017222,-5.5736796739265575,-11.992528436089714,-24.131514937978793,-25.61216327907812
146.0,-2.2079511053980836,-17.00310514099708,-14.795154035598964,9.595158101533215,6.3192441709566305,-15.933813678916513,4.995992115671267,-1.4381365802928583,5.565245925500907,1.7539972781959714,-16.708334374438497,-10.78179518156189
147.0,-3.127349745852251,0.0028678442940002213,3.1302175901463727,1.541069645483642,-3.1042893679364507,1.5341449698477874,-1.8597732474708022,-3.5730438054516,1.0301531768653407,0.5886306236495233,-2.808881480111072,8.319895591930397
148.0,0.47475193234562374,9.792647424879732,9.317895492534182,-5.089689680018339,-4.393215521241274,9.601962147426152,-2.7915363178122634,1.6304708783109347,-4.4473986339456335,-2.831573326697939,5.975524154584338,14.55998219187987
149.0,7.474002832639557,10.649881040054684,3.1758782074151446,-9.030830663885315,2.105324294134971,6.880283521895295,-0.6794404501427187,4.344488483753427,-1.7916242428740288,-0.1706265279244108,-0.595742933732021,4.687981844536088
150.0,-5.365881449637844,-2.314286095150676,3.0515953544871217,3.7830473402143934,-4.246146877218643,0.41462905636618785,-1.6824543696537246,-1.5580456932211075,-4.075999160414004,-1.3801296835901158,-3.044405687948536,2.9841685055442495
151.0,0.771316491265775,3.519639859734217,2.748323368468396,-2.128141968501164,-0.9438048575846361,3.1806548986272127,-1.703160725868783,0.5979579965067005,6.084360440787569,4.703809375830679,14.188503023771332,-5.920271516261217
152.0,7.578446351499164,13.003752602085523,5.425306250586363,-10.273126649888509,1.0418149191441892,9.183490733541301,-2.4236686431371255,0.7857668520970122,8.778334604804222,6.766815517475412,13.939182912912639,-7.576428110967317
153.0,19.89304787838528,16.67744438613403,-3.215603492251245,-18.262918977411772,11.515620422752713,6.700047567540977,0.7134537277957371,-1.1595921646952274,-1.3988984287670951,-0.7178156907278694,-5.802281822407018,-5.518435170818985
154.0,-18.884184128659534,-29.283967288027547,-10.399783159368011,24.033732258349474,-4.207130248598415,-19.87448058720799,1.5949960730818242,1.545545130897998,-10.269279254872334,-11.546319166075548,-11.095150203545707,-1.6514601542647327
155.0,-20.822566908353984,-23.460940524801796,-2.638373616447794,22.17607484504614,-9.06049966460749,-13.007228305682078,5.7124086742065066,-1.8314901210435661,-3.220512572195241,-4.535644790113453,0.6023254305631651,8.24737168688685
156.0,-0.7077783086818012,-7.327239588150624,-6.619461279468824,3.977770971158078,2.987085972984646,-7.014329399709123,5.725226122151606,-2.4319414306953293,2.6842183510424924,2.598627372221207,-17.66363984312513,-11.390521898186922
157.0,-3.0845366877259597,-2.622618958671292,0.46191772905465245,2.817408311011696,-1.8179764734812986,-1.0464676463086915,-8.179554761036611,-1.8362536374272014,-0.5886190736624102,-1.2647329160372116,-4.965764754435929,2.8126149421388353
158.0,12.054485946941618,25.680812209803154,13.626326262861555,-18.821620028452493,-0.7475927676947969,19.685908164931703,1.2980041071259927,2.100058844111219,5.573895536781549,9.908792069057094,15.288984784388695,14.454106182690134
159.0,12.77381765512898,16.5463934170267,3.7725757618977713,-14.609575317779097,4.463862700818642,10.114575668924001,3.9962148601265746,1.952773806849167,3.87362399533811,4.035231430579422,7.727630370566341,1.0173458920581524
160.0,13.483348800135461,-0.7291093283698018,-14.21245812850516,-6.39922993113036,13.812323206434364,-7.432903710291113,-8.307529333199977,3.335206491518665,-3.2351014566642307,-1.0273586409847288,0.9190305352184955,-6.104340330309128
161.0,10.300944822683515,16.201076414341603,5.90013159165822,-13.2658420313065,2.2416941076576604,11.01474573465417,-7.556931550324873,3.1347503531239074,4.472882989295662,6.559259578305177,11.500043213320968,5.167369110710405
162.0,-19.607974543991677,-1.6362582359752005,17.97171630801667,10.614495243348836,-18.83134905698845,8.214538570297764,1.4392417192388307,-3.823100788616422,0.9485654290666685,-5.321133526464343,2.0813725337025186,1.9085591003301063
163.0,-26.236672781865277,-23.740948783466404,2.4957239983990713,24.98684779415343,-14.3332075146072,-10.65355107863802,8.701335812593546,-5.610730863322853,-7.563553272122906,-13.864877442897592,-13.038676337369372,-1.3460756060945016
164.0,-16.952096836877026,-32.336827319799255,-15.384730482922157,24.645418575763898,-0.7530112632117358,-23.89450296281188,3.3514013149105164,-4.919448192631082,-12.517306594303777,-11.725403620614287,-20.713820231499028,-14.386540309791195
165.0,3.843046864898386,-7.0054740958315485,-10.848520960730012,1.581753422156055,7.2988248917401215,-8.88805603980246,2.6373764617459727,0.7886216908870267,-0.4590997876246483,5.658273211616531,-2.3251884440420074,-10.16099922400463
166.0,44.335238196660924,42.42674328234871,-1.9084949143123886,-43.38421164837131,23.158512561791532,20.211683149308584,-3.784991730233997,10.66118925571708,15.967081967457936,19.816959977568956,17.89459533431647,9.491330472777321
167.0,-5.006432854328516,-4.300726442403434,0.7057064119248664,4.643637683464167,-2.890604044670079,-1.7729955700960272,-0.06918755489735684,1.2215496061488897,2.7643251384267167,2.845628949756378,4.374101617788776,5.462770758779093
168.0,-4.60108766710186,4.799928125711681,9.40101579281337,-0.03976325307524764,-6.9485949062448285,7.121108386286209,-1.7541615961230963,-3.2073304688650324,-0.11092714409986026,-5.005724144881501,2.0318936830753866,12.544317591228321
169.0,5.965450488047058,9.073149462374538,3.107698974327392,-7.549430399255844,1.4090496719249024,6.111012567440772,-3.1907889326757397,1.282760312441272,0.778718911652783,-0.21482157707095095,4.6796471889288505,9.845738959482196
170.0,-9.992570248767727,-17.7397327192749,-7.747162470507087,13.82371152543528,-1.1398859375915333,-12.719683209196287,6.8009128744375715,-1.2355103215625372,-4.903536971732913,-6.438890738902463,-6.7456903072279015,-11.348660225517994
171.0,8.426133379548977,5.379224477592189,-3.046908901956522,-6.879103711429844,5.717247083402897,1.1158006575796175,-2.7914938671397826,1.9993711180704132,2.4793697567075257,4.939002965314324,-2.45911259783064,-9.401191309472338
172.0,-25.391088138918093,-21.498748579370034,3.8923395595483035,23.45648753021305,-14.667237178393925,-8.849542390364523,-12.058827550748063,-11.66665816915713,-17.969812301000474,-14.115050018341682,-14.832814289823837,-20.396792960914446
173.0,3.440183384586579,26.038672379259637,22.598488994673176,-14.737793734997231,-9.534508472438349,24.352950205496764,2.1571843162756292,1.1938427117545305,6.619583694811901,9.818206901718966,11.16062776240797,11.268625633297784
174.0,7.023077212107284,2.3526662770660645,-4.670410935041203,-4.692813816121589,5.882783667611108,-1.12499462811145,9.803624203637677,3.8716553618163227,9.268350845499905,3.7135388866835632,1.7671312072034366,3.0172593295168504
175.0,4.215748322404932,-9.621514395210601,-13.837262717615475,2.695717316957969,8.977084048951335,-11.776624447843563,6.550308267113049,6.780351598437821,9.652833163622033,3.350857978242285,-1.8206699459051858,4.640577442248326
176.0,7.749456413087772,-4.866902583131889,-12.61635899621955,-1.4458047313868403,10.208366612917237,-8.713246545520803,0.018266289265434388,3.3407482741201844,-2.2379844719990434,-1.8715807180477242,7.110717848602232,13.802951866613409
177.0,1.460700626667979,2.945205728600407,1.4845051019325606,-2.2001209215089244,0.0124398559625023,2.2404940598154264,-8.873292811781852,-3.1707906021611807,-12.22348245611757,-4.359687866967434,5.019449794869846,10.242642308334917
178.0,-2.6340228236200174,3.4581578657015752,6.092180689321638,-0.39806450763829215,-4.41663915456086,4.720538641029138,-1.085661655714813,-5.249572801794581,-2.13321924818176,-2.86373426632475,-8.21612540063616,-10.879512675572474
179.0,-10.283163147273463,-1.543468271425143,8.73969487584819,5.940626237824349,-9.484252033007094,3.6222975403215742,-0.08509869191970099,-1.9051440820449503,0.9989310506702913,-2.175119361599342,-6.823780579868815,-14.708959753963462
180.0,-9.175628394631484,-5.160276771690483,4.015351622940667,7.129770188778451,-6.644574555575952,-0.5467853780020469,0.5968286519185604,-1.6960286977767882,-1.0558838203600804,-0.3190682327807026,2.608905845730175,-7.330963505999957
181.0,4.0837803538465005,-4.216043138477475,-8.299823492324286,0.03893538734003066,6.224366180496273,-6.308687782967732,0.26838679721567693,0.30057482348061193,1.022658083586157,0.06704998197471157,0.19382542395714286,-1.8921827170540997
182.0,9.26363256649088,7.291751000784412,-1.9718815657066584,-8.219128017156342,5.653760678360098,2.6901696255475236,4.3232593252164335,7.00571270477711,9.56450273641042,11.69026098208408,1.513801975052428,3.908407243479431
183.0,-2.3828978963229916,-4.858058730315566,-2.475160833992584,3.6025491547317756,0.007387372694246608,-3.6351947553784427,5.494785380324361,5.87929264416327,6.853077074648334,10.540863561315359,7.936348780630871,9.674106402608395
184.0,11.15336776529823,29.384768244362498,18.231400479064387,-20.289157442052122,-3.494739924454084,23.760115434364494,-11.25590491828584,-4.166305832284289,-5.792232523456308,-4.12003102208889,8.949206416299981,19.692485768423925
185.0,9.365498193088168,3.1947339470578084,-6.17076424603022,-6.305419974290744,7.737658368207661,-1.4598848632761028,-8.258600238754196,-6.083198667825241,-9.234619172520734,-12.227762064963976,-9.59724814040614,-1.8803454177748726
186.0,-12.050390682584236,-34.068449130335914,-22.018058447751542,23.10660611216343,4.956567623220058,-28.09797998188018,6.3792186736365375,-3.0036691422041213,-5.926503833736863,-13.40332382135893,-23.205332397507107,-28.98301349436691
187.0,-11.074262131915862,1.6366344831614423,12.710896615077438,4.68194788986489,-11.917756150965264,7.193461762807695,4.3196036860529095,-1.4708449890583322,6.9322976734212585,4.087224472841397,5.7062756467312745,-1.5565818546513555
188.0,3.062712317954732,2.9621127853870775,-0.10059953256749798,-2.973594602683858,1.6360032120275418,1.4473455117323082,5.826944656903107,7.433496133193538,5.647284877437581,7.438386104194182,9.991696228103864,4.586959782282177
189.0,-6.628522869522147,-21.236695031545388,-14.608172162023148,13.970687615035997,4.043289837526702,-17.906750443090207,6.146156485859773,3.23952286201236,-5.090481521581754,-4.145016999055991,-2.802442895795032,0.646016522877134
190.0,-20.031154216241525,-9.895493917115617,10.135660299125846,14.9231973630179,-15.111831686682462,0.1370920456675595,-1.5575500021437167,-3.2583444524099128,-1.829596555558242,2.5686439845671187,-3.1634445957335124,5.118727439783476
191.0,24.394048880288704,45.41342568652589,21.01937680623703,-34.9436375882441,1.6529664938213307,33.236071200336845,-14.439893672526013,-1.6003998319809563,3.57827766298079,11.965278155906743,14.657548779601584,16.843121126710965
192.0,9.277462968662046,14.041938429963219,4.764475461300936,-11.622312432615526,2.213497147893004,9.346892134561276,-3.3057056358939487,-0.9117657427962353,-1.8717943004906694,-0.7354435522729723,7.964854974843872,0.36547886306822885
193.0,13.597661059625299,7.706100105109517,-5.8915609545161445,-10.69695328346975,9.770276851768582,0.8530678061310164,-5.704293525878096,-1.0727836921947014,2.3236341875646356,-0.7063239560996557,1.0141877191182607,-7.257435365464898
194.0,0.5170262059078512,-22.337679138805427,-22.85470534471351,10.93838315360507,11.702117559015344,-22.569998196908635,5.150202130394647,2.423036594515869,0.4858399109991493,-9.375401284688163,-16.099060158989364,-17.295512329455345
195.0,-3.6521145580294956,-13.516866360639527,-9.864751802609977,8.605931172720668,3.1161112565913918,-11.662563059950735,8.203544567250534,4.178985378023768,1.8866682211356824,-0.5669835060867436,-5.162113133791989,-0.33129082302172996
196.0,-14.694307998210352,-10.053104436236566,4.641203561974125,12.388578918938567,-9.65994491712739,-2.6745019569091983,13.056093196806774,2.2068745347947507,1.032307041432119,2.722465868984971,-2.5149107232990477,5.8665862394525075
197.0,-14.10065553994172,3.1375874908596595,17.238243030801726,5.490818486329224,-15.658927829072198,10.22356406453504,-3.138522848542703,-4.302128116973581,-0.5372397256230852,1.3964272084845568,-1.021870883023189,3.168405856399722
198.0,-16.05935639854108,-3.8273769457711637,12.23197945277024,9.87018325018497,-14.128767901342869,4.16323176895965,-4.762056007434403,-6.787762050721592,-4.696121191831025,-0.6787950565160163,4.566983242014933,2.1635818946739924
199.0,7.2873249524854,2.4156366989520617,-4.871688253533144,-4.846745883790938,6.026041306718582,-1.264762346079264,-5.310682784625204,0.5056904726733,-3.120403073575958,-4.043382881246001,5.484784043318497,-4.304773184221527
