Time(ms),I,II,III,aVR,aVL,aVF,V1,V2,V3,V4,V5,V6
-200.0,33.85136581444863,9.751565005060552,-24.099800809388,-21.796924301232142,29.01824749175897,-7.12907739394647,-26.68714097907396,-28.798686848406888,-21.07706673946945,1.7864082192388162,-1.1371554059302342,-15.539718916229848
-199.0,25.63594217882813,-17.55813353271772,-43.194075711545835,-4.027834549989983,34.45041623561792,-30.33561927020061,-10.139862942694776,8.358866915444112,-5.720727841966932,-4.226772512826489,-9.091862633544327,-21.624197884329792
-198.0,13.858009831940711,-15.82833055502012,-29.68634038696092,1.007652094850175,21.723167615117234,-22.801543629045526,-10.162630973794418,7.76646904826907,-17.711445135794104,-31.432224207492325,-18.68441519836785,-8.317989638621402
-197.0,17.35176967153614,-0.21664872855064932,-17.568418400087005,-8.610413738820409,17.48700027153484,-8.942541596118549,-17.509683410725472,0.7766579514253493,-21.244575003043835,-25.988747345612158,-5.772793890044927,3.7630090695069427
-196.0,-13.281220541392129,-1.3505899412382831,11.930630600153533,7.363538213138305,-12.578558597408723,5.314915301483488,11.29480502683149,4.060605717224377,9.23114017844984,3.099008763303213,-6.53471491816539,1.3293435332331534
-195.0,-32.604892375557256,17.543948159113544,50.14884053467033,7.506070191993241,-41.424698382407314,33.87101699639459,20.434149936711158,2.4294802656076944,31.853258047144518,38.35709716892966,28.136793080874188,28.961604214571384
-194.0,-43.57260989988299,37.49990267445537,81.07251257433808,3.0116240803310124,-62.36439909265293,59.31491799080168,20.375020802335094,-10.37765884585957,28.87038067797544,40.11920724002185,45.16207455263114,44.42144668474378
-193.0,-26.748434244405146,21.621703170163602,48.37013741456857,2.531230847731968,-37.51487412492609,34.95378332193819,12.740154537188907,-5.069960013136148,12.60230110642874,24.236664322889737,23.37229924874779,12.891266612949563
-192.0,19.3125231736705,-7.300480738378211,-26.613003912048708,-5.971944005941191,23.01492673448923,-16.910282769410006,-10.250746103967197,3.0010012955397087,-3.6932520239529687,-7.253234229251078,-22.661900161711664,-30.38663775142463
-191.0,71.22211111457229,-50.19832337830682,-121.42043449287908,-10.492268886526453,96.30108778215427,-85.83250046558665,-15.64101905550712,24.005291031648238,-14.079327824795438,-43.54649610272086,-56.008610471999944,-57.955273193331955
-190.0,10.597716395211222,-43.56415732125021,-54.161873716461756,16.489878251840864,32.36295753325449,-48.88009397506509,-2.6115995729996584,2.1865628984546825,-20.093250213668853,-36.29511164287497,-34.546625443024176,-32.00388223598346
-189.0,6.9802998385411605,7.65627523901782,0.675975400475842,-7.320523048139092,3.134382622902322,4.1505763456132705,-17.280966978773634,-26.400597054860164,-29.751150826007766,-23.653602937796162,-1.584300484781668,10.971319081953084
-188.0,3.0473926231470294,15.338517791250077,12.291125168102337,-9.19875238668811,-4.645047369959373,13.796427187631682,-0.27579250047954673,4.085573161007645,-1.0835299993985767,18.63687373799268,28.38223724960406,29.43103989500673
-187.0,-29.469102136648388,13.492577321769982,42.96167945841792,7.984176906281893,-36.16856866949411,28.281766676957854,8.362631468424933,6.042487881316946,5.023518203005247,23.354221161351624,23.948703799262166,23.883421912399832
-186.0,-31.16175632367203,11.046504574856996,42.208260898529225,10.059529807718773,-36.72696129000083,26.59685692706421,9.087317390611474,-6.4861145885040585,8.245904961585852,14.017718745875428,10.626982401287684,14.472734248185336
-185.0,-39.11296015565255,16.92623590270557,56.03919605835895,11.104096603215586,-47.54829445285634,36.52581441530961,2.045993502662638,-23.688881732049467,14.189630131343897,11.361409708624123,7.924786582827849,7.947067411466248
-184.0,-4.441393391482249,1.083996234623747,5.525389626107106,1.6208821701565572,-4.961894060294419,3.2663527559480983,2.0905686121382283,-8.835053243637017,5.383341653823798,-2.383805628463996,0.1051952442830495,-5.767388672227284
-183.0,58.0496696803531,2.561814193166584,-55.48785548718548,-30.274566086785043,56.787329676966166,-26.42276651580549,-10.071593967021375,32.52068759350401,13.15221498738757,1.071990735008909,-6.746560560664548,-18.559763799161857
-182.0,57.78631424641965,-6.657006625244154,-64.44332087166325,-25.524417245995295,61.054569012493815,-35.58705086752674,-2.8617169918292413,34.642092446873335,6.970304587587487,-1.1415141195742864,-8.833739207494126,-14.58116842248077
-181.0,-6.9277913998081715,-6.354320481138494,0.5734709186695923,6.609186192606179,-3.730529722653337,-2.925164921254524,7.663617632150428,4.3845199667631665,5.719231668294326,4.033362491926001,-1.3883018185790235,1.787833836160635
-180.0,-23.351420294832508,-10.067849909135688,13.283570385695938,16.75957809772853,-18.295441218674355,1.65327251036312,4.9325372400761855,-15.201063370579897,-19.13703630684655,-15.27130337736347,-7.900654112964126,6.588242798193036
-179.0,-34.290221406055956,-17.740772003138883,16.549449402915933,25.98549190831467,-25.475174150427804,-0.5506407210849387,-2.798590271297741,-28.067603563785582,-33.089305207561395,-28.337757378898967,-16.543351551215995,-6.020134766503748
-178.0,-20.80377995340308,-9.516140508395928,11.287639445006027,15.12488708652749,-16.02192273096294,0.8492690496773534,1.155142442511616,-13.692276473623016,-14.18969629097703,-9.875002297932841,-0.5678653557955453,-10.59425951510303
-177.0,-2.1727511957096564,10.34728847221675,12.52003966792586,-4.129479370822932,-7.323118371628016,11.392297690417294,-3.324293878180609,-1.3932338054034563,16.196595986168887,21.156024489001073,14.796126083715686,5.13489160325407
-176.0,16.34313410240887,13.448047048551599,-2.895087053857077,-14.865370589269881,9.641345875463971,5.30809950254768,0.9249795475116822,11.711867300789844,25.354975981109945,25.098287580465676,6.40679400626342,7.857347683901832
-175.0,21.041402161038377,17.183898569994952,-3.8575035910425535,-19.08503511905347,12.391799189255025,6.611596002945133,2.4052804621329664,14.325473096452303,22.632970607387897,12.212535784962325,8.587753300071068,16.578449782661913
-174.0,7.117066547173648,8.461808620074677,1.3447420729021067,-7.759199160388858,2.9065012935150047,4.929665132348385,-4.90341807967927,4.123040745310789,-9.62404234348756,-8.607022836955931,7.496182948674326,13.601859201057364
-173.0,1.591620726639717,-4.682406370003543,-6.274027096642426,1.5826745090470444,3.953331950776617,-5.447263765263143,-3.9527720200471403,-3.2885307503826553,-19.350915716407943,-8.6709807076227,-6.187305176258761,-11.288034820102178
-172.0,6.394488804293841,-7.940878527227058,-14.335367331520631,0.7401891600984563,10.308318915722694,-11.097454290893944,-4.509492987442176,-7.389276508706974,-16.94881130703514,-8.31153754286685,-12.078238241679077,-13.837847074507918
-171.0,-10.751106474559315,-1.4473778298629565,9.303728644696081,6.072164298035843,-10.001877991650083,3.9026852670187804,2.007445194352777,0.9122023634478662,13.9670865899946,8.318747481040571,5.441624477744133,-0.11160706289486555
-170.0,-10.747561133614141,-1.1955521634504906,9.552008970163175,5.944731622357626,-10.11931542141685,4.16442200790291,3.2328184127296575,1.106775860067434,11.671537273189353,1.8663808087347908,4.117386976512927,-2.9124811370365356
-169.0,-4.9755956543161854,-13.993745723699453,-9.018150069383825,9.451507606091365,2.057272736611382,-11.512926292432079,4.614093840024396,6.4853612091545045,-1.469601009394859,-16.036091847280872,-11.275505992164769,-8.762379549667028
-168.0,-1.887771781183723,-8.788252588471961,-6.900480807288618,5.372349789666995,2.468286060600685,-7.851976719459755,6.856127014079338,-1.3519651004218987,-6.533673326259346,-10.523531463153718,-10.929661560690231,-3.1954164874579805
-167.0,-2.057356655503162,-1.8623356167855107,0.19502103871752752,1.981514295735872,-1.1617607923210889,-0.8495691528111737,6.005579643229796,-2.1419369506672696,-1.5650168737295203,5.632692807204964,0.9452764126329387,3.6031967647519947
-166.0,2.0669379437751325,6.1798470617047,4.1129091179296875,-4.111982148470894,-1.0588684724111388,5.116851895825574,-6.266466491042657,-11.312159007164821,-11.64808998897653,5.041143849720175,5.477734536808661,10.967136030474544
-165.0,15.215033605552186,17.578065154427165,2.363031548875271,-16.39023120919677,6.466101324478723,10.00499389328116,-7.263800899438794,2.0195641292600053,2.084668635254613,13.184827776625381,15.054274912294456,16.775848201481793
-164.0,3.517939964771772,14.458293540657595,10.940353575886137,-8.980816934261105,-3.6753609741897826,12.722316931389226,-3.7905714036305858,10.774656183115624,21.583676691247643,16.20631001562024,16.430604273716856,1.4644938653570119
-163.0,-5.399135408648205,-1.264822440080973,4.1343129685674205,3.345484989124361,-4.735675763433814,1.452896487271965,-0.7564668023931578,-2.785951765424527,5.310176055593982,-6.895591324581942,-15.313117468242112,-21.62352374397584
-162.0,-7.330863492422109,-14.220789245984488,-6.889925753562353,10.7201481466487,-0.2729894818447925,-10.534370473671512,-2.918886319211378,0.03902702515251044,-1.2025251481849455,-6.2727341768434774,-5.890739111352417,-1.239817834897492
-161.0,-2.5860191838843547,-10.716462564310573,-8.130443380426328,6.606521887140024,2.793817021524721,-9.471954756766527,5.785277164115275,1.3435215360373467,-6.752455699916958,-3.0874038259738406,-4.255114647451077,-2.342332421487016
-160.0,6.303681172545877,3.697184421329874,-2.6064967512161727,-4.955541153541533,4.393866423435929,0.5096573308700556,1.5835518057530775,0.25297597168052377,-7.886822474466218,-2.6353757404701295,-5.146751107804333,3.061438358084537
-159.0,0.9645308517226066,9.623725998229002,8.65919514650626,-5.2394856731860475,-3.8325467690976023,9.197457321184203,2.499804160588893,-4.768391934886271,-4.708112703094867,3.41444303953236,-1.6636895525967879,7.533916666029637
-158.0,0.3247310285045646,-6.791211947649441,-7.115942976154047,3.2169182785449464,3.734760268178025,-6.966340377074578,3.3846315326870062,-1.2020243519132632,-9.731668765778165,-21.21717001363896,0.42886161694595537,-3.8990939902589687
-157.0,-1.523566881063845,-8.541623607026413,-7.018056725962532,5.0211984213915235,2.764376734170735,-7.787628491161826,-3.8955903543608033,-2.343136663328813,-3.5046948068702353,-10.9998092142484,5.91659680072482,0.5873341893186588
-156.0,7.294992835512743,1.291341351366047,-6.003651484146612,-4.3032265980510624,6.671935098306377,-2.3647795665660674,-5.4255820169174624,4.5418666208980865,13.081085560200622,3.7198693290237133,5.52588077473454,1.0842800123847325
-155.0,-13.245848665933867,3.7416561010961558,16.98750476703009,4.739664815726009,-15.087266390954674,10.349795770222302,5.528792896768556,2.240109742008167,17.7104190643951,21.61701167089702,7.172089888960773,1.2328959113386873
-154.0,-4.163214619007431,11.417641203381901,15.58085582238931,-3.644928035204535,-9.915341742346076,13.553237161088683,-1.956937866450524,0.5201494629573471,5.4487311908303475,25.735334190676532,3.223701786077878,0.9074717001338034
-153.0,-0.4929169537956186,9.418955282569145,9.911872236364733,-4.408540180920798,-5.24211529813924,9.628947311290881,-0.9725651005974633,-4.230357378061296,-7.584722176858216,8.838281285912545,-8.18676844400315,-7.253886855234397
-152.0,13.872187190012923,-7.460215233927352,-21.332402423940273,-3.2360774014335347,17.563337181590807,-14.36525299042051,0.9380425379337821,2.539045067414212,-17.318863220368044,-19.882743520460124,-9.149131389277384,1.3924919778067015
-151.0,2.769686089867033,-12.8927644734505,-15.662450563317458,5.028076860154138,9.2549180874979,-14.334109684230016,-1.2434139309557504,2.334753942323569,-1.4087586374473542,-13.513654714329276,3.4497753544784575,6.021542617960436
-150.0,1.7264888240226166,-2.3680120692091284,-4.094500893231622,0.36592169463201696,2.948593780626126,-3.2140402331131526,-0.1505175942143397,1.9622119381786494,4.499610173767514,-8.288458437563708,0.5542072908875143,6.792932959620987
-149.0,-5.627770008119686,-1.7619779287775583,3.8657920793422256,3.7426565845220674,-4.707730476187984,1.0683170732466065,-1.625532157792483,-5.233938552685139,4.431169087071502,-10.693531101581755,-6.753859383772241,-5.904186368657084
-148.0,2.932342658990925,6.205381926169775,3.2730392671787527,-4.596141159411946,-0.20715362713154795,4.758325692988835,1.0438717030350944,0.35177757607892257,8.594925245441315,7.8465303774625585,0.02685898773826878,-9.658762498550768
-147.0,-7.67904743888779,-6.355891992845665,1.323155446041877,6.992714846887024,-4.534212831984057,-2.492883037629526,12.619296866175706,0.985745540268895,-1.0578748188948017,7.048925191357424,-2.8395565347661873,-16.904251729367083
-146.0,-12.747113109806717,4.066903724515481,16.81401683432194,4.314894386414736,-14.732346704621614,10.388754292561877,-1.1793677691011104,-1.727827096322649,-10.55005679781313,12.877724368196628,10.942703612487962,4.774306064743683
-145.0,1.5689434507551576,11.919401402117156,10.350457951361843,-6.7734548350449675,-4.421592966342561,11.16251543900551,-12.68738923047865,-4.5966167377499785,-3.6307103854322844,3.5746661334274403,9.487208767260482,16.972513002819667
-144.0,18.673115474127986,6.864538271038189,-11.808577203089719,-12.726393851734814,15.20598130313846,-2.526659623229211,-3.8745945977881915,3.4147249137622095,5.922091737787511,-2.9872903533187785,-0.08261720282866936,19.36509636441096
-143.0,3.0211450048216566,-9.865610131804852,-12.886755136626226,3.4560599293077168,7.990545086098082,-11.358847874828482,8.797309773787948,7.206493595362445,5.0501070727683866,-9.70972760504332,-5.347733329896013,4.057834231230581
-142.0,-2.664314398045301,-8.373830651600485,-5.709516253554819,5.544062495074453,1.5503115744177105,-7.0321539152917785,-3.541042457426667,-2.937027784390116,-5.908056924457205,-7.701447524603885,-10.066944472773276,-9.385986956239842
-141.0,-3.6394263757279828,-4.35875378951438,-0.7193274137861154,3.9370643116701305,-1.519193206685514,-2.535393825943353,-3.3973692926963284,-2.793002238044835,-3.297972595335795,2.2971028806236573,2.1260000481170565,-15.762708047477282
-140.0,-3.7276479139505665,6.623593624713129,10.351241538663755,-1.438624923769737,-7.024773232906216,8.489719137454841,-0.7393219597295018,-1.8286785668564078,-0.992967948080247,2.2454343331971467,-1.5379656136510143,-8.666062847238171
-139.0,-0.5358518204880744,7.040854369864099,7.576706190351949,-3.2494216150643016,-4.0416876840092595,7.315460521786074,4.652861835239073,1.658448383025481,4.978827092841462,6.5050767430329905,3.72075171948256,1.664235726616842
-138.0,-1.0093276666625302,-2.4929688268677515,-1.4836411602056492,1.7495394080565005,0.25692328975253,-1.9722180985996527,10.791017239020338,3.3551812890466355,8.676473863384258,6.467725675456219,4.856848340967254,2.32432519068405
-137.0,1.0326984075787073,-4.597043247339087,-5.629741654918142,1.7782637079176702,3.3603176637198056,-5.085283511522554,2.4888375239431264,-4.873354166419669,-4.111976522311499,-3.289267127843523,1.231483644486815,0.1887341744008353
-136.0,9.301119173177453,2.4154616534984976,-6.885657519679122,-5.86117053000574,8.054955109447155,-2.274398629610421,-13.429490443790735,3.3012630935508223,-0.03896433676511757,0.5229567779812772,-2.828721722613825,2.702465692147073
-135.0,-10.000877581106842,-10.046756575496575,-0.04587899438968002,10.025969371285036,-5.005449244050841,-5.077940619875276,0.6428908680744332,2.098241142020966,-1.7522382201679263,-9.982659980482298,-13.056846356579197,0.08389801201981673
-134.0,-8.900540301864554,-2.781120307284307,6.119419994580426,5.851997741755524,-7.530245508887723,1.6399363215117655,-0.44758177836588287,-0.7516262355313437,-3.4657700430731246,-4.6124936071941995,-0.49110534789744165,5.705957930141908
-133.0,11.020399891611687,15.134739676212114,4.114339784600613,-13.05440594117194,3.5154737696510114,9.67141546133236,-2.1394027885444284,0.692263841687621,1.9390162205776345,3.5993571642631057,10.398934378072003,8.051729877925357
-132.0,9.053855883727122,7.433475881978312,-1.620380001748667,-8.286225788075816,5.321291955739408,2.947363616324184,-0.7788711775485646,-1.560283712844318,-3.3533401485831487,2.879294902612097,6.606874152412429,4.4682018497434495
-131.0,-0.3589567266082847,-4.5056925931486385,-4.146735866540224,2.480075065152662,1.8761194738148537,-4.371253470994329,0.8808226232425205,-8.853284025899361,-0.6329725769923479,4.359241605671101,0.3505337673830309,-7.047118837446132
-130.0,-12.621485894108613,-8.751219271807276,3.870266622301461,10.663092929150036,-8.266674263566856,-2.412662311008718,7.367065364207191,2.3879020739238497,0.15868546441765696,-0.9029557285215515,-2.81438045873469,-8.820519515844019
-129.0,1.2170664228741304,-0.09178171832698379,-1.3088481412010184,-0.5834521276097124,1.3179109521221184,-0.7543167831481177,-0.42028270127597134,1.7807398150166434,1.2784477446944411,1.7867433519561213,-2.4149218729701927,-5.640941053693453
-128.0,12.32653580004498,5.790652801773976,-6.535882998271048,-9.082310048737341,9.404939324191842,-0.3474055664716218,-2.8239333214297133,2.727636035216516,-0.46362637063239376,-3.0545788247312635,1.0570660397520784,2.7428396898126763
-127.0,-2.8494589589228285,6.820978729380013,9.670437688302613,-1.9375955391562087,-6.209651083809279,8.27453340188424,-1.9636992413147134,8.006652452907526,5.21550553790704,0.20179213701041232,4.025322651585694,7.096808501727548
-126.0,-13.168206289732781,-8.985222277208212,4.182984012524341,11.037669633659108,-8.706608958271405,-2.366894682269368,1.5911530149321025,1.6095948525404284,3.4584306315690183,-0.4982397724935115,-8.170347664798706,-6.619358521793818
-125.0,-8.397527431938181,-12.486671217788075,-4.089143785850067,10.474296132504541,-2.1886538138944376,-8.327188987485775,-3.5708950758008884,-8.860904582023949,-1.799804965624133,1.4118099364090189,-7.524077994294548,-7.480764246679733
-124.0,10.821768832448337,0.8976918647017897,-9.924076967746569,-5.832208868681537,10.334314279941376,-4.549137899636449,1.30061047288768,-5.890874739877345,-2.3035062840388068,-1.3147308858145035,0.22907342880603365,3.9982289408855722
-123.0,-5.524163369493306,3.71181874681977,9.235982116313227,0.8538176202968559,-7.343830257520758,6.4385403831115235,9.266471339205555,1.5975876007301668,2.076138560059519,5.704271422599357,8.428180203010466,8.535396968414895
-122.0,14.876614534813555,13.0622947450318,-1.8143197897815364,-13.941131793428955,8.379221271897244,5.665509884681814,5.269593795828828,4.67335625877452,2.5839223377027913,2.2309416199172087,5.427191798423889,9.48864427431585
-121.0,26.48647997082015,-4.022703754015818,-30.509183724835687,-11.199907138946832,28.53108618147975,-17.22771479303129,-19.880016753322778,1.820750413767562,-20.202506195043462,-22.732960167491065,-12.179769361346118,-4.57067529474733
-120.0,-18.450229551178424,3.7574376587048093,22.207667209883454,7.303506478222994,-20.373443511993756,13.017106764962975,-2.924540580247929,-2.207994941442567,0.4113509570996161,2.247194753944682,6.216268634244901,1.4870111207288512
-119.0,-24.154172676896692,1.1934147621389835,25.347587439035706,11.44054849854706,-24.71547376249438,13.22285227724106,5.536740673287869,-1.3328725014174017,9.964354197310083,9.073650061908262,9.6191547945644,-1.6098751183912836
-118.0,-5.128314808294549,-3.2895160104768824,1.8387987978174642,4.249873100404146,-3.527028923425359,-0.7760250029676605,5.181410479742047,0.7866151539129377,6.997958372473333,9.347247166306516,5.6986765425369414,-6.791634324308862
-117.0,8.597117833016153,-6.714509993909387,-15.311627826925893,-0.9775554982585755,11.908850294914913,-10.987397076157889,1.7676292179016664,1.4346010294627383,2.5055680142326384,5.558144164720015,-2.944113874769039,-5.21096189743985
-116.0,8.092154066567616,-2.019206761237398,-10.11136082780525,-2.9922432585110084,9.1315877940591,-6.041070761878316,0.2686534276857344,0.23949666292638838,0.7933714392622482,0.44389533239693524,-7.963506668881738,1.0536239533900549
-115.0,4.224045572649254,1.6115275539808995,-2.6125180186683865,-2.871422992489997,3.4448935581765436,-0.4763413594504442,-0.9331603578599164,-1.778002421955325,-1.6070410111847988,-8.657096725031977,-13.562143610916596,-1.2405094282453961
-114.0,1.6894376615835895,4.8687536955318,3.1793160339483624,-3.3094997581896495,-0.7196789695981929,3.971103692666303,2.7338680664525654,-1.8882730531979608,-1.5192181814839696,-7.706797476411961,-5.38173274466378,0.6113171031198164
-113.0,-2.4548881166068,3.340647920172073,5.795536036779009,-0.47247067551074684,-4.1771667412036875,4.597342523914042,-1.1200777021286688,3.7208830094390857,-6.571123437002555,-3.735146910254648,5.239831851385013,3.737483233293282
-112.0,-7.354778338065349,-7.560103503937909,-0.2053251658724955,7.426689846961359,-3.543609032615419,-3.927322940434718,-2.8672813695036856,0.25776306034674856,-7.025975589864579,-1.076736123786725,7.155291274274983,6.7032483296890035
-111.0,0.3446633667234398,-3.1506090633546133,-3.4952724300779967,1.4478346679782983,1.9570625077132573,-3.2831611128415332,-3.8652540951556156,-0.9412199869879854,0.3844204091543615,-0.26408381587568186,5.282289600104367,-0.6252555794118257
-110.0,0.7228231642529883,-0.39988688665015054,-1.1227100509031769,-0.19956074708389693,0.8871192930788281,-0.7162694550275023,-0.8743242376414719,-1.306663674257037,9.504788400560942,9.625264697794998,3.742601625178689,-0.23268789159193534
-109.0,2.9741094368692202,4.677783094009802,1.7036736571404976,-3.789128512100864,0.6042611911433253,3.1604725628183172,2.144377411213969,-1.0121266357846057,0.8560638518932171,3.2916010317640643,3.291383136237448,0.25461345757487774
-108.0,4.610693657217852,5.77949973323726,1.1688060760192627,-5.160408527937923,1.6929238686862949,3.444369147016105,1.3142166570229241,-0.08479759646689333,3.242370078051556,9.671751554459533,4.344945665378706,-2.2426737612061496
-107.0,0.4548729871306516,7.789734734991923,7.3348617478611855,-4.166014660157247,-3.3874646357816287,7.52952883606443,-1.0523801495510803,-0.9539168022291018,1.1381508670772114,2.0652178973985027,-3.9426570605554696,-1.1788159672762895
-106.0,-4.856479176081567,-1.1599343231157886,3.6965448529658302,2.9673293431124135,-4.300864444399705,1.308430778374541,2.8798213700669013,5.376182360433159,0.7207008312742644,-6.32688448483849,-8.225731913832249,-2.4191049255910824
-105.0,-5.4505370818791725,-8.925343563501931,-3.474806481622604,7.230402354615507,-0.9305249185145706,-6.167206069893713,4.774144759923225,4.672474983783895,-0.7834022067476085,-8.399998322406333,-9.075241461950684,-2.9266044725064835
-104.0,-4.733376778655572,-10.646306671895442,-5.912929893239656,7.737343883554127,0.572573573876258,-8.33235579360513,3.4391929749634693,-2.984957055911662,-7.087443727660181,-14.853567357346284,-8.634999387770758,-1.6005564587197036
-103.0,9.584903923907863,-6.143482124078624,-15.72838604798634,-1.7480858936479309,12.64418629133781,-10.914848892244846,-9.684132240300825,-8.28811189111476,-12.05995007906603,-5.894908208106116,1.1339900421571116,2.3011488529842334
-102.0,0.9054909076636375,4.29708426466318,3.3915933569995165,-2.6274176664893947,-1.2514351937190185,3.863267663693299,-5.4295524311699515,-3.457727752380789,1.4249668513958413,7.1184469500295675,10.091699275684077,3.2080866728007575
-101.0,2.307825533255987,7.466864193364092,5.159038660107966,-4.915579494324415,-1.431608391512666,6.332532045430218,2.6303213804693764,3.2972132550023776,12.641338994490168,12.700931021838386,11.88014900911604,4.20513945896572
-100.0,4.301772771610134,11.889458118046676,7.587685346436332,-8.050157768660315,-1.6486013735611573,9.682282559544298,1.552670623727374,6.119624805032139,9.628906860569174,14.201853011496159,7.844720213617692,3.425080493544154
-99.0,-5.13863869472355,4.9340923195837565,10.072731014307086,0.06239055968655505,-7.612553037532519,7.5301715937485145,0.6743352583786995,-0.07804034617399669,-0.5305635556730639,0.5497062276993736,0.7540668266452317,-0.33253905031802333
-98.0,-7.82803503056388,-1.251449296308132,6.576585734255566,4.57238526609613,-7.211111094761163,2.61561000548151,1.3540806433043509,1.652661531123504,-2.1870825842616486,0.28761232941656023,-3.6138103279493157,-2.9127410590981215
-97.0,-0.3907544068941702,-9.932069616995307,-9.541315210101263,5.189851563563609,4.64329118227111,-9.699598158999692,1.985814546926223,-2.5368001891395804,-9.725235305621363,-10.23623774540901,-15.948636546819694,-9.239312744347782
-96.0,7.292586621889548,-12.05084406231973,-19.343430684209245,2.327479948382807,13.305381703726663,-15.654871461013188,-0.39623884228629835,-1.6680336041196473,-7.941666679677809,-14.91349126671988,-10.818890575117038,-6.0493490591418
-95.0,1.5962575542659758,-1.2185276382328212,-2.814785192498622,-0.1604010500068731,2.1904189803500946,-2.048649481641988,-0.8644421851714829,0.46134558118180147,3.0898479916458914,-2.8115569336988884,3.8106763126428316,4.428171465625128
-94.0,1.2361109569094726,6.956741605016672,5.720630648107414,-4.064874381051213,-2.2613181966586433,6.3097945647366505,-0.7285524660957732,-1.8679706886424121,5.5133480498395455,7.254534828928471,8.994499705546744,9.369495821366277
-93.0,-3.816258094594466,2.329402770598563,6.145660865193199,0.6997340038984121,-5.00595024051743,4.288470715546822,-1.1365343525942282,0.6272704761650919,7.984265812439679,9.536452630915711,5.7233985417339,5.928077273786011
-92.0,-3.630016335305647,2.5869556427559433,6.2169719780615775,0.4806725452437508,-4.8772954196370994,4.372984156590778,1.2970930911732363,4.55258708366772,3.482368497105282,3.3821941987151343,3.194260088621574,-0.3242173786105531
-91.0,1.9253215418335214,2.9719957467670777,1.0466742049334448,-2.409073460126601,0.3987770143736804,1.9773271891923994,1.2173667653831348,-0.6299199744363229,-6.777005574214833,-6.582580743015928,-2.28130722024868,-6.85329529609771
-90.0,-2.715953143282011,-2.078643965938769,0.6373091773431288,2.4376150585497127,-1.6452117602408973,-0.6778381095414758,0.8476024127166084,-3.286485808268669,-5.521598216189442,-0.8830894336104349,-2.806976944138967,-4.339997004173183
-89.0,-1.4102620441690705,-1.0744270998102334,0.3358349443587536,1.2042683505533291,-0.8456399480153368,-0.40876780892954867,-1.7518918431012533,-1.4103171851758112,-1.7883252999524126,1.1871649620768951,0.08264372374527795,2.1858582663343515
-88.0,4.9678147649451985,0.5592579251744219,-4.408556839770858,-2.8009753463821356,4.636652718508011,-1.887539023533016,-4.7792457108745054,-0.8988040697509538,0.3591284285331209,3.4820293232643533,-0.1345308246960093,0.3570229950202128
-87.0,5.25198079247465,-0.47554719721678795,-5.727527989691459,-2.345555441162547,5.520931143890417,-3.0648664637191096,-0.3670673531787918,0.9278044251464712,0.8498957694103009,-2.3791735173343556,-3.5926309489788943,2.096791283885774
-86.0,2.4498626845861575,-2.3394397395264024,-4.789302424112558,-0.01046187428790385,3.5797364158052343,-3.605645882714115,1.0393544931801213,4.049117337609695,2.820800171819331,-6.869907576929307,-2.1839503711568486,1.10753019897894
-85.0,-0.8509567277356733,0.052631178510171406,0.9035879062457923,0.3675938068785721,-0.8278932282199534,0.4377962286637598,2.782236634235926,0.13826956517487843,2.0241938009205556,0.15257716505760843,0.610736816972347,-6.419058200543379
-84.0,-8.266404343724277,2.219971878215831,10.486376221940064,2.993849093474285,-9.39408069262825,6.391507390754084,3.693067204454593,0.7094518161074232,2.118266003413844,7.229714326621835,3.4987906934872295,-4.321661449585866
-83.0,-7.304098083386048,-2.758058145612077,4.546039937773904,5.003309687592546,-5.931763647873087,0.9302537185364872,5.86937465634644,-0.49564330819393243,2.830367757180508,2.840018712210698,4.884328161711515,4.081969903284242
-82.0,6.26881298849967,-0.7969036172334907,-7.0657166057331775,-2.683934506041932,6.668923500000266,-3.9780870750949076,-3.545894506805926,-2.5342556615099303,-3.396669919733383,-2.884693047919555,-2.4273226675987236,7.383558407466448
-81.0,3.764247732830693,2.019068110875479,-1.7451796219551394,-2.9175796953148936,2.760409095337174,0.16302186448536904,-5.869317213854345,-4.247863186334196,-6.3184818028625225,-2.526723766158105,1.5228832506067687,4.766833717400894
-80.0,2.5802189749798825,3.1330144992724316,0.5527955242927334,-2.8029462925262436,1.0180872769025293,1.78426405042527,-4.494413911485626,3.834132902883137,-2.258654125821872,5.573970087616839,0.6248684821839354,0.9006792454038459
-79.0,-2.4197987816965543,-0.9687735878475068,1.4510251938492313,1.6700198193648252,-1.9378307474536858,0.2573731874198269,-1.0824175229127921,0.4311307173135337,3.0066545948428294,-6.65659404545902,-4.706915452191002,-3.2208990705008693
-78.0,-2.6155826359458576,-4.08334726274921,-1.467764626803254,3.3256158505587017,-0.5876308621828947,-2.7589222705326906,3.3666229238974004,-0.3995419169407779,0.6782181623802113,-6.388379960754422,-5.916741003934387,-9.529009863853082
-77.0,-1.9891803192988522,2.157327574578253,4.146507893877128,-0.10833030649083009,-3.0953885262017016,3.1743657070781746,2.715540039648989,2.3034194061083153,1.4774019233220401,4.3375297485343545,-1.8799172257287995,-7.4789322528677324
-76.0,5.358640434863273,4.861328480618722,-0.49731195424467145,-5.056992111102229,2.9654894155345177,2.215194035911079,0.9091460030647021,0.2792637513927759,3.5036616232830227,6.1368897901599615,8.382460252444881,4.1931643493113455
-75.0,1.1542099548809355,1.439027431897435,0.28481747701634597,-1.3250317356072918,0.4613289953538583,0.8297336756466231,0.432894749520784,-2.5601791975639134,1.399123240324515,4.015285361939811,5.167262737635822,6.056692357770761
-74.0,-4.150609010199315,-8.67943053226395,-4.5288215220647965,6.461625030141558,0.1309362632889675,-6.623721212821295,3.780480450097704,-0.3576799945547777,-3.774656997767953,-2.5342496774688175,-0.6328000340380946,7.064192924874552
-73.0,-1.300650009984591,-4.325994759000935,-3.0253447490164325,2.7765621581154543,0.8825202719777488,-3.686906995319375,-2.9095547826006056,0.38564534762251423,-3.7226732583092783,-6.833041169985989,-5.465985181284585,1.6489183950045412
-72.0,5.186864476857571,0.17395633656722298,-5.012908140290311,-2.7222990875171993,5.1246960274594695,-2.4290277192599987,-2.955406147114088,0.6858966181337389,-3.6558733410350426,-5.729072161297404,-3.846762580330112,-4.21960976302284
-71.0,-2.3135991464930177,2.3884918258777743,4.702090972370851,-0.005649156572319458,-3.4752201138577794,3.608715210524116,-0.6223967369989061,0.7576505383742603,5.454770143611423,4.652661263169013,3.6807720562285495,-2.882907712739309
-70.0,-0.7911727387872479,7.11504356444539,7.906216303232657,-3.134484534665125,-4.386389605546904,7.483081955952378,0.6061130372274819,0.6791188481534025,5.292661234090808,6.515437022406717,6.719005278666744,-4.037499123794337
-69.0,1.3038060861101424,3.9569996452603475,2.653193559150208,-2.6060669926626328,-0.7057403850889736,3.2614836577373865,-1.8858050930624406,1.543603086840588,2.492583021251103,8.260552505065474,0.44321136345207135,-2.9233755777255714
-68.0,-2.6786367606157495,-1.8582130722132235,0.8204236884024799,2.2124162283769024,-1.777129683320077,-0.499957674689143,4.807844414517579,-1.2567583650004466,-1.2102622088380748,0.1660000774431074,-5.699677809715052,3.6658841421659853
-67.0,-1.3570281282054029,2.66602311046818,4.023051238673552,-0.6316225677063849,-2.638770504613329,3.3511616599033425,-0.8664081507574122,-8.70124671781122,-7.573558360210593,-10.256720876282316,-1.1590934727336788,6.936333188541271
-66.0,5.842599382668902,0.24086159628808645,-5.601737786380812,-3.095426176218382,5.6922949439192205,-2.6789376304971704,-4.134139410287736,0.10974772902845098,-6.25982120120616,-9.772074799817858,-2.924180646655869,-1.8765379447875539
-65.0,0.46537728827251335,-8.531722320949482,-8.99709960922196,4.0628331090624465,4.776218992788493,-8.759290277647914,-1.088342501194072,5.6443594472648595,1.5991342630929397,0.6366926149223842,-0.8107257087270707,1.0314705285543877
-64.0,-5.073031253520701,-11.093994869293557,-6.020963615772734,8.120270811376349,0.5140976445116929,-8.540821736702386,4.6672772745866675,7.327580854170857,6.463198856566258,2.613227832819021,2.1212977962746673,0.7004402924910592
-63.0,-2.153272501813285,-3.2906209393697354,-1.1373484375562855,2.688790691041309,-0.5524265285182237,-2.181031115934962,2.7093950456024,0.27322682782225094,3.8816898632427512,5.69878115883485,0.2021060481618151,-5.646965385578633
-62.0,6.630220559554683,11.524125605917138,4.893905046362666,-9.022804953600849,0.8166396152367417,8.179637942480728,-2.836029453665688,-4.8776263515240155,0.4197100954866002,0.6444729419421904,2.3382568270790527,-4.9123176977939105
-61.0,-2.3193044364777267,5.317743816330398,7.637048252808269,-1.5174284729588372,-4.958957683669199,6.459908104075399,1.5338160149270401,-2.3166973318282635,-3.7914637852641495,1.2672600048675333,1.5044911415290725,1.3238679560457038
-60.0,-1.1768222801329917,3.2693070926705,4.446129372803442,-1.0633131595224574,-2.8001950042396078,3.844507871810995,0.5292355809644426,-1.7639969593212164,1.8051312784255424,4.887505207036893,1.9881228754486475,3.0057436774890767
-59.0,0.14723487556908166,3.8400162177690356,3.69278134219974,-2.0158765549378095,-1.7677478742585269,3.7494225653777944,-2.2177393239949157,0.3334774955506954,0.5021718415737366,3.2404388324903817,1.5835183805454347,6.650179672166488
-58.0,2.0555572588695084,-0.5330611191706922,-2.588618378040478,-0.7943906599419255,2.3241163477566755,-1.58731091412694,-2.121363245793228,1.4682367029879198,-2.539052335312856,-2.6186671636844934,-0.39014707241918956,3.4174447826315144
-57.0,1.597449596074743,-4.805482126732262,-6.402931722807268,1.6355222792819595,4.003391853852143,-5.56306470602517,-2.0594228504661167,-1.007711345145057,-4.731774679339545,-8.870359480536278,-5.367512424199855,-1.268093194931422
-56.0,-4.006854548641026,-6.371720257454724,-2.36486570881382,5.207069790769317,-0.8125752308874108,-4.335722509760101,0.5369064177170406,-1.5125683941369743,0.29022986570940934,-9.860585421002448,-5.99662149994486,-2.999109546668199
-55.0,2.552314482053792,-3.4058214001124743,-5.958135882166246,0.43459250179929665,4.271772690690131,-4.652707536524705,1.4561717778615366,3.374277496137,2.15832804816899,-7.747285641932255,-1.7341927778163195,-9.50313047402914
-54.0,-2.21262831929634,-2.008929496457377,0.20369882283914809,2.114513144698141,-1.2610924055270576,-0.9497853583810492,3.254770723148646,4.083300257733619,4.216257888289762,9.214662328645874,6.671488281600235,-4.889665216605115
-53.0,-0.9712315826044142,7.614265473453136,8.585497056057735,-3.315909734462088,-4.7439595800381005,8.137539685430163,1.8845372547209653,-0.08962806122279554,1.6755646573562148,20.289240750353702,7.295040536322176,1.347759618458685
-52.0,-1.592871266428107,7.394267517601854,8.987138784030133,-2.8888466816687988,-5.327871811906981,8.156505791048133,-0.3023824039757579,-2.8030456305202605,2.68272638325307,14.09008256303039,-2.010812066710141,8.453345016836707
-51.0,0.5704393304167376,-4.543771098903556,-5.114210429320226,1.9277997025728673,2.886825974839882,-4.858193711349159,-1.2916204117291945,-0.2744751857417671,-4.84513890434941,-9.955411996053119,-1.7223602945362,9.77662608824827
-50.0,4.139296679075094,-4.9022526520774825,-9.041549331152591,0.4086344273952869,6.556804564705062,-6.999462826103112,-1.968919966053448,-0.538873441511962,-4.249906195549315,-16.786270895687384,0.40829778155110863,4.6913407340200965
-49.0,4.751351392900142,2.4231106693576976,-2.328240723542478,-3.5552054198222907,3.582892818994116,0.09701274383397118,-0.15378602474710767,-2.6689780140947654,1.1873184887891242,-11.325581556026913,-1.3980019397011008,-3.1151383293838997
-48.0,-4.510172528391117,0.5046791222495958,5.014851650640644,1.9582128406302426,-4.802275620752697,2.805709959285644,-2.943493265367545,-4.450955503767849,-3.344016985175322,-4.890969915487442,-5.16941486447107,-12.945692219399959
-47.0,-3.310553865948414,3.500841480062003,6.8113953460103165,-0.13911995123641951,-5.027425761982378,5.11925408441328,-2.1282042748779624,-0.26854445649451775,0.32842547658759097,11.133590722108625,-4.774450578108996,-11.94446983432735
-46.0,1.5356357290321268,-4.415360924027967,-5.950996653060178,1.475359320770486,3.692191713485874,-5.223192343738731,4.7872585924927815,9.092726084135132,5.39630695156029,13.64160670703015,7.162363736113,1.3456293414096754
-45.0,0.7287906697016475,0.6163181984665875,-0.11247247123511539,-0.6345719340342664,0.442680435825142,0.28918547892787183,4.061654602663492,4.2477042119665285,3.34724642664348,4.6950150705418,7.75154323660203,16.17479602108053
-44.0,-5.498110811706105,-1.1094960606936217,4.388614751012473,3.3465009139438013,-4.925899815787214,1.6771662805940974,0.7261083922425176,-1.2849233515921705,1.6282634835898564,-3.1075855718881216,-1.206581396349546,6.211993120438721
-43.0,-2.6681905274709576,3.261012993832428,5.92920352130344,-0.3265471218866688,-4.284544310133847,4.555756969191828,-0.6724684393659879,-5.828344608600475,-2.361770396343119,-0.3388453732169028,-1.1821797597200547,-2.358623110059251
-42.0,20.24400303065362,1.0505096800246596,-19.193493350628845,-10.672303671610987,19.730794570742567,-9.108255066336566,-7.0521468858801235,0.2562023185779845,-9.52961922468814,-8.678796096225428,-6.970064253492819,-8.620425103536734
-41.0,-9.877791520702766,-5.631882395029742,4.245909125673137,7.73210061956726,-7.129636040005064,-0.6482931924642648,2.1959779934185253,0.09344741106005938,5.611991997598031,-4.964933146912587,1.9249832618674154,-1.777497924089798
-40.0,-4.432847818302371,-1.0328383277641358,3.400009490538302,2.70879307362466,-3.90547267332684,1.1517677865467164,-1.1071845157827835,-3.252761837642861,-3.5558697925864253,-3.7875692694245573,-2.090300217725175,3.045435400012669
-39.0,-0.6435037094247917,-3.0949218452075646,-2.4514181357827707,1.919615499337775,0.9163905391594356,-2.725017204756692,2.006666524701081,2.113463137197773,3.6564190650132193,4.122407903435493,2.679866824789924,2.0791157825676985
-38.0,-2.580876633476426,4.762260575410076,7.343137208886464,-1.124586166695219,-4.946060567433753,6.0217128245184455,1.3940110425106196,2.7440513648869382,4.498021059850537,5.876402993360358,2.4809411428695762,1.0852373407377909
-37.0,6.551393257741601,12.869576458799452,6.318183201057783,-9.670468105317994,0.13835230706663748,9.639104833543962,1.70343804974559,0.9117129351228861,0.17724307453085641,7.569594829331893,4.329671638905843,-0.201840313535272
-36.0,-1.482182422684485,-2.144364771997763,-0.6621823493132881,1.8505047526615104,-0.4593014652983718,-1.4416653090866118,-0.0005811031174351999,-1.0322430221267282,-0.16689325399641602,0.35822331032958576,-4.268607055253836,-4.440367504594957
-35.0,-2.2334819157396852,-7.177745120335273,-4.944263204595581,4.663704579928156,1.393367159248524,-6.106029908534401,-4.130278397122662,-2.8986569246523852,-6.003085613738788,-4.620681962049246,-1.838546110481405,-3.477903675739575
-34.0,1.3486071812165563,-6.795839393607114,-8.14444657482363,2.6832053970207292,4.713587664443974,-7.443374397452443,-1.5983174035729681,-1.9634798909008122,-7.22852227935101,-5.574705443732343,-1.503012195441788,-1.1250872950356925
-33.0,3.0008509895091686,-0.6593805117253329,-3.6602315012344753,-1.1299024082694302,3.3819333287979276,-2.138282892905637,3.374929262532656,2.2686917750622424,2.656858280081602,-3.3962748671148035,-2.106814754784679,6.212877928348996
-32.0,5.648118696769307,0.49413780086638304,-5.153980895902898,-3.1064351631363802,5.3758902864675555,-2.3099969195036767,-0.13194938038819437,3.7603133781036364,5.941374557642117,2.272378826962287,-0.8630854857686648,6.208834089584302
-31.0,-0.6661381785543794,3.905661417681759,4.5717995962361355,-1.574328714193733,-2.645593203342659,4.183046242793928,-1.7476983191775692,0.9262664646712333,6.186323946677918,2.0527133568928404,1.1468587178012528,0.13021903143439273
-30.0,-11.191326625460436,4.834710860192102,16.026037485652537,3.145683757158639,-13.639671534763998,10.461072424527638,1.1622676654808313,-1.6256403837623308,2.89417538396787,1.4946198126627566,6.183684745061927,-2.2907761203442263
-29.0,-8.844825507700337,0.8594568165651495,9.704282324265506,4.037511978114676,-9.23247472365373,5.323014186877922,3.464752320941524,-0.5863625119499276,-1.22237845306909,6.495570852059314,4.260475417389978,-0.5747341154451884
-28.0,4.446997104039644,-2.0690140896017932,-6.516011193641422,-1.2268244037939644,5.518356133592069,-4.319613306422745,1.871427738251,-0.7730728369196005,-6.195756365619432,-0.21078022016397524,-0.5902448398636015,-3.0027989076516626
-27.0,7.087949935717974,-1.7033095089537018,-8.791259444671667,-2.6581864266955453,7.894137396560462,-5.266909608266621,-4.071729882562187,-2.1288612322338394,-6.991252465261468,-7.364099255699853,-4.535665407861185,-2.832912176255446
-26.0,7.432205022155713,1.7634769445619334,-5.66872807759378,-4.651656333412017,6.582016984681531,-1.9702730064583056,-5.62420639516125,-4.114165607400447,-6.5705624099784625,-9.132133682188952,-6.249569402375648,-0.15902678972447437
-25.0,2.724124355417327,0.38990303287884953,-2.3342213225384807,-1.5423142844807662,2.560057561911904,-0.915592792963726,-2.148828587405511,1.1514748427891996,4.864182150187563,3.886914641652309,0.06716840101755883,-0.4908243473263574
-24.0,-3.9767792686340244,-5.111429077333276,-1.1346498086992372,4.549691436962143,-1.4696952307923277,-3.155401167587625,4.352650465187208,6.538485389644083,8.052207858647977,7.889333592215215,2.264967681595845,1.2788025610182607
-23.0,-4.6075080524450565,-3.8570370881500184,0.750470964295038,4.232275624813912,-2.729314191100532,-1.5987920530746869,6.605017757732869,4.560762587380177,7.902367797844674,3.6809691344619506,0.7586517011933447,-1.3547633432292834
-22.0,-3.6309449086327166,4.401016340083599,8.03196124871633,-0.38520494899909874,-5.805656569024241,6.237452806665329,1.8700239088707429,-2.306195929715935,0.03450199178040858,-2.810333257988647,1.7647479483368393,1.5968291439780569
-21.0,0.02493836495873758,4.10404039500376,4.079102030045024,-2.0587766710095705,-2.0040989298435523,4.105012845625959,-0.5196948898502156,-1.73434507913205,-2.2887059986747764,1.5144991680176771,3.263119688621404,4.736462545270003
-20.0,-1.219620756686108,-0.8753174159249553,0.34430334076117797,1.0641217387223132,-0.7610324853087709,-0.2522546474518159,-5.370448933735386,-3.990967462622528,-2.425276468326053,2.092062670152662,-2.940069904896492,0.7162560635798332
-19.0,5.375182908588352,-1.6074681615661937,-6.9826510701545175,-1.8537159291357752,6.199065116505456,-4.274475207214532,-5.317682778394609,-0.49070187888717864,-10.56409525302054,-9.401925999996607,-3.5671339821532206,-3.0036339018879343
-18.0,-0.9661300207825314,-0.31968883483521177,0.6464411859473502,0.6070139695745846,-0.8645775039081331,0.1963168325185738,0.7323533444535348,-1.9429305003310016,-4.06983772792129,-7.331396600014315,1.9400866686116895,0.04047196063887215
-17.0,-2.1014662076045254,-1.817019847580496,0.284446360024059,1.9322263932283832,-1.1717399156398018,-0.7991508484908989,4.4998674313041676,3.091407190023599,7.0870464391745855,3.6680120651904806,0.6596629622438583,2.2068941448730164
-16.0,0.9144043462407759,1.9316493520233573,1.0172450057825773,-1.4467541579755292,-0.0296039242416396,1.4503298893370755,2.449519286820393,2.765707928893907,5.565438535402174,7.7708672194714685,3.1039912483281156,4.206286306012261
-15.0,6.011328285253411,7.426808072235345,1.415479786981922,-6.666268838713513,2.2413098306554065,4.398236786596441,-1.7992893330126434,-0.8441520189534863,2.162437678766569,3.0895153810662164,1.7428466080584983,2.510134977907182
-14.0,0.9728946194019921,-0.23368146053992467,-1.206576079941952,-0.4015682877357236,1.1124422083941554,-0.750011357132614,0.06578370756220187,-0.6688843920467302,0.4659404932103559,1.633899270345894,-2.6958329340307556,-8.121521467383044
-13.0,-4.960177866258595,-6.350644206141013,-1.3904663398824568,5.695044155055485,-1.7603177995834054,-3.8346631390701753,0.5180016234364642,0.3253152986352335,-1.3620824693932594,0.7507227020100826,-1.509937193845393,-10.49118587812148
-12.0,-1.3910379283003724,-4.9602909477372545,-3.569253019436909,3.1308992352832385,1.0389982059909426,-4.2437909185680756,-3.1958436142579902,-1.5918141897993097,-4.8920534290499225,-3.2144603912722793,-2.4273192211226977,-5.17165697650244
-11.0,-0.21486842390446204,2.9439573953331735,3.15882581923765,-1.332814678953735,-1.65139011937782,3.059910199706243,-0.396999208076521,1.8539869525795551,-0.6213161708237402,-8.398625295255654,-1.0244275393118007,5.945663121851566
-10.0,-4.01820006512545,-0.7533739018915737,3.26482616323393,2.4193341849594328,-3.5970741809498428,1.2574765507450627,2.6246451873893646,-0.3701747000102629,-0.32788689822574546,-2.180905200922866,-2.0564421800808144,5.526225071391
-9.0,1.2982134642439112,-0.8186303515280968,-2.1168438157719365,-0.2796635780387004,1.6828016932421812,-1.465787187303209,1.985120277068397,0.18538666683914554,3.1337126272425775,1.7264582203473016,-1.5580801021725064,3.03733707874121
-8.0,1.9541135467112212,1.507998581389372,-0.4461149653217976,-1.763534546449498,1.1834716276126962,0.5393071631897547,1.9046722327751446,0.008348898821316425,1.8088575613660467,6.994207580482603,5.129825623390423,3.825112373012041
-7.0,-1.5680228091953388,2.8967029946640643,4.464725803859394,-0.610412486079505,-3.0282531647414492,3.620736381491572,-2.386862711789249,0.37871338514623726,1.7685804763910973,5.387392667633116,7.460077653671911,3.6785125940251797
-6.0,5.100389020563072,0.5254960860867233,-4.574892934476426,-2.831493099169867,4.826426944131847,-1.9944129422043897,-2.963919747877508,-1.8730505771572368,-4.282019860437413,0.2685069087388059,2.3278821094780744,3.1721636301567164
-5.0,7.877376367519847,0.5960766473324061,-7.281299720187565,-4.251552224378742,7.565253693255463,-3.3024854439197733,-1.467466709298284,-0.7950136999744917,-1.9989394366850344,-6.490361505378912,-3.5481724583795553,-0.7394383549704875
-4.0,-2.1960099246869085,0.8310274982731447,3.0270374229599395,0.6683123095958056,-2.551660054040653,1.896476556033227,2.279550386659208,1.3493714625042734,2.2699140875751462,-4.1896023542749035,-2.2137182901718715,-1.8932463985946058
-3.0,-9.089110480261358,-3.2808295223977293,5.808280957863573,6.24721059244539,-7.472391993121504,1.2324334512668549,-3.1593153908170297,0.3289680603283952,-0.8752032350754785,-2.1897729663667858,-2.862350753427368,-9.18078928983902
-2.0,-5.547780568202196,1.235409533102767,6.7831901013049665,2.1350155279418725,-6.192531392926403,4.053436615164948,0.9367523189340139,-0.5288732776104262,-1.0957726714865883,2.0772584832161725,-2.1957447219478134,-11.454794766650778
-1.0,0.020338185464483516,3.3275713907345,3.3072332052700655,-1.7010148938643992,-1.5931469518334764,3.2762544706668364,2.9606230648098597,-1.7684249187391543,1.9961673148706123,4.753652537826101,-2.806186127661428,-8.523563440349717
0.0,4.389788846568645,-3.2128952238757154,-7.60268407044428,-0.6211841127589106,5.967709657488739,-5.37781950449423,3.046004067692545,2.0392582081357684,1.5936370399987738,4.5570009088882815,0.9879408477747098,3.7933046234345715
1.0,7.216707544467993,-5.1235472040190215,-12.340254748486936,-1.0044975031044254,9.82853869381326,-8.708390956323019,0.8801982160385816,2.7221606417011572,1.1298859358009596,-1.0956797073091953,-0.07337499875866982,8.320725866295186
2.0,1.1152902566954532,-2.567117022023474,-3.6824072787188697,0.7670023758038007,2.368391964329285,-3.1834590933432723,-0.14350323275164303,1.6710765896640725,-0.8344730914213164,-2.859150212826593,1.1040354864419726,18.679298987194812
3.0,-5.466894741880727,0.34922113025101376,5.816115872131762,2.523518052172201,-5.676066932964892,3.103211618223715,-1.5828996751012823,-0.9477324370792348,-1.5726459213401291,-3.474453493091198,3.008728252994889,17.339791647912083
4.0,-3.8783412843126115,3.97681578088133,7.855157065193938,-0.079451564173035,-5.9071105000531245,5.940780368859742,-5.8033532042670775,-4.1674288157660015,-2.6078526419737895,-3.4930963649530504,4.683600502849621,-0.3706113466062133
5.0,-1.3103259858493077,6.51495151413004,7.825277499979324,-2.5472822668381814,-4.534928653206974,7.201630941770495,-1.9582404259750161,-2.1421175401158985,2.0182264745026934,1.604961917889757,8.323171853296527,-15.291418685006413
6.0,5.686660170599689,4.5608068577616745,-1.1258533128380463,-5.141313844618381,3.436370972341463,1.6774285655151129,1.6039445605689722,-1.3894194112797023,-0.2074463575735318,2.0065135010129076,-4.3236497427570315,-23.409769018667678
7.0,2.3952466107235217,-4.744794265746016,-7.140040876469583,1.161367671919309,4.799476349957692,-5.9768358045425805,2.276776958083829,1.2419837377822942,1.141088857359527,10.032268882170943,-7.435192546117326,-9.659808782962324
8.0,5.26722177870812,-2.309362575200171,-7.576584353908359,-1.4911420822585435,6.381169006031181,-4.895819461151605,0.3147827332567128,3.0305988415354594,-2.666320264743054,-1.640639646548986,-7.3080241207366,0.1476413423236238
9.0,-5.231377890293972,-2.246974097335952,2.984403792957991,3.7250091522492648,-4.0611626832829035,0.33711831417606897,1.9272290579123241,4.06767800224034,-0.3483141958244089,-9.993020111450504,1.2167188597302938,13.491051526997555
10.0,-8.406072461728442,-4.491281517417372,3.9147909443110733,6.50878729080486,-6.184384262944026,-0.32150390955200425,7.96165209763903,5.757367789592709,8.798127887463291,0.9810197989028451,0.5918645237694173,11.659207352732006
11.0,-1.6567632311380627,0.9892605598317648,2.6460237909698643,0.30924850773060886,-2.171079970966505,1.861575893595623,-3.7350719554834617,-6.015891925654044,-0.06403479322456906,5.135267605693265,-0.25540221661212303,8.526876299143128
12.0,5.337449311147944,2.2617691871340364,-3.0756801240138447,-3.830099684523665,4.18546014084712,-0.3629434946740706,-7.150794248581651,-10.38363138163391,-9.227579294873385,-5.900222960029181,0.029389790340776045,-4.96498030413638
13.0,-3.251650036709436,1.7223259285542074,4.973975965263722,0.8079312446164599,-4.140880911520606,3.3157009003288573,-2.0907272920206914,-2.106861155355844,-2.479165063636463,-1.4703818610603425,8.336733775394329,1.9148048285258343
14.0,-2.4299332629054247,1.1400749011852156,3.5700081640906998,0.6062450087403346,-2.9597484531294316,2.326443346570005,3.1567714587589584,4.489125048934268,3.895133372288053,6.741605921320641,4.576011929794108,-7.254120862495805
15.0,17.900792648683925,3.4147715061345965,-14.486021142549312,-10.61880127755812,16.222758126834954,-5.481633372772007,-4.4990833051634205,7.048781630004964,-3.2005942203542452,-1.4025951976808888,-6.1026158325163795,-6.465868489531023
16.0,-0.921545305830862,-3.23431919898131,-2.3127738931504456,2.0390133195952527,0.7166434611432706,-2.7963258858411395,5.026291619517071,3.353621969290517,5.409564129607182,0.17936249218211198,-3.4081730418681477,2.4720721088218873
17.0,-4.6739388326560185,-0.04877329779749051,4.62516553485849,2.403329371297067,-4.711104850063906,2.26415667892992,3.121873570592929,-0.9164576851471513,3.224577757071777,2.114202244473385,5.085549502045366,-0.40702300232113187
18.0,-7.755380246611454,-0.6712677828464032,7.0841124637649795,4.179066418843201,-7.401314619752913,3.1775257257157627,3.952849997636867,-2.394599069512501,2.0292193987032134,-2.346070886621315,-0.7058527433469277,-2.663332291430058
19.0,-0.865543076459339,-3.8510804854069054,-2.985537408947658,2.4048265876617085,1.084053330376448,-3.376098126707893,-5.672757304317535,-4.28676351660166,-0.6494921021123791,-2.6694944079759346,-5.42101384779682,1.3154019373889874
20.0,0.2955883029538404,-2.1299839066931723,-2.425572209647065,0.8860323571834687,1.3143063796508792,-2.244312928722255,-2.9555269889541758,-2.4816458413683646,-6.877670337815696,-4.41805101974486,-2.3410493057136574,12.547510683078597
21.0,-0.5978594745732295,1.3485268979887581,1.946386372561963,-0.4061292946085677,-1.2305485061205226,1.5943258062415846,-1.6434659104230291,0.8748566382858938,-4.084896483139291,6.347940052782766,1.9466701612251822,-5.770579724861458
22.0,1.324418693904871,6.202211850303269,4.877793156398386,-3.793494251977271,-1.8063114714369979,5.5604817219839155,-0.33064060224988734,-1.658042623956503,0.2786225603934369,5.103153668945376,-1.326967250722812,-7.729682454385692
23.0,2.0170970009379854,-5.373443698053579,-7.390540698991522,1.728775557724033,4.75705888029383,-6.362674936168224,6.344329488106866,8.60712697700057,6.015073022260248,0.864673643756626,2.5778167808088472,-1.3138031978310631
24.0,4.8341430964228405,10.054756001984146,5.220612905561422,-7.3898028823499775,-0.219147473823329,7.581622652891424,1.3461571954505422,3.14508446884104,2.608765944496067,-2.757047163892233,9.087544204417044,8.275935208433607
25.0,-2.3227172690020113,4.928337073858432,7.251054342860577,-1.3214604813431805,-4.817560515139441,6.120029408656688,-0.9223321955493167,-4.063818814887777,-1.2954663839217817,-4.377556245291931,0.5661084579061337,3.8052014711164173
26.0,-2.1875177173658646,-9.580263380408036,-7.392745663042147,5.8703086272977645,2.5643683949045366,-8.445337854871498,-1.8459457607214005,-4.237004408830766,-0.8349745354660557,-2.2764911943431985,-4.451708074705114,-2.7038510350075544
27.0,-0.23178081425585484,-2.2476349683985823,-2.0158541541428656,1.2285943398627213,0.9247320050002598,-2.1570817917852194,-3.410721129609211,-3.65497696524975,-2.858438680449685,2.1007495360507322,-2.236153280578266,-1.3844690122969916
28.0,2.9953177198893983,-3.164864846389177,-6.160182566278816,0.07199764207774528,4.605057747117388,-4.676284927144563,-1.3714997246456067,0.9308498875892623,0.5098089381663503,-1.701161638263486,-7.10202067369955,-0.773482194227237
29.0,0.17446366065051921,-4.6038187034943,-4.778282364145035,2.1961057171126668,2.5023567393490533,-4.695741848777041,3.4156679507988272,2.3932271484601984,-0.28824181599470744,-1.3293003509838786,-4.525584014630907,-5.973061904703
30.0,-8.501715576329657,-3.2567655657500088,5.2449500105795535,5.852379897499424,-6.8446489171467375,0.9948837729826723,1.3168892623886705,3.7376311679606076,0.15502947309625328,3.95836463753407,-0.3872032316593068,-5.901321441519103
31.0,1.2744854952129687,7.355696514653215,6.08121101944031,-4.271398985201926,-2.448230521774442,6.7210415191162065,-0.6498123917022802,1.447403183740948,2.0044380961991908,4.459222923457884,12.122765518281641,2.606724808355949
32.0,13.671809315501589,13.45816262070045,-0.21364669480099518,-13.527051996924328,6.903494418437271,6.623704889668998,0.32485758582023094,1.670481348787241,2.6841959830128097,-0.15075057077999876,8.82791416507586,12.947658592982021
33.0,-9.688676354564624,-3.9568959163103257,5.731780438254451,6.858480592523852,-7.744885106563106,0.8860074283501316,0.6124749844077753,-1.752096960330298,1.3331419728207914,-3.0713373913781017,-0.9544966984723553,6.272616904471119
34.0,-5.075316637927985,-3.6958858996071298,1.379430738320934,4.343338070758356,-3.1800945190591543,-1.1631558919287146,-0.21489538325754998,-5.702403841940281,-4.06937992071932,0.4194119174976132,-4.9832627920257275,-2.484605593604157
35.0,-2.6805170654447235,-3.3015284809488286,-0.621011415504128,2.9510968937748125,-0.9800416978257833,-1.969698756864268,2.2656863702602723,-2.022512904160446,-0.3162587499060123,2.6021246500464756,-3.4674832085157137,-4.34240788596786
36.0,6.022559636525237,-0.00796039526063863,-6.0305200317859455,-3.044849349608945,6.000111380297479,-2.952581808658465,-2.5759740791612518,0.06338873208389639,-2.2903579063518857,-1.339316244627779,-4.809261123784699,-7.478698742875237
37.0,11.612445604782542,3.9427375839229746,-7.6697080208596375,-7.734786009658339,9.61802044239549,-1.8801712919700586,-5.053440089303143,2.9154795102653033,-3.591370405617205,-6.823704625044864,-4.881008176071815,-6.684114329028695
38.0,0.8519883213243924,-1.8234259529422363,-2.6754142742666893,0.5293233211973591,1.7446958716731968,-2.2724382863537542,3.302835925651608,3.8367219924930627,4.684519067868272,-0.240407286709591,1.2168145339375616,1.0442366866010886
39.0,-6.656577988738149,-5.279564598900176,1.3770133898379215,5.933270792089214,-3.953083669308741,-1.9824142304389265,0.2657502257351132,2.665854229993377,-0.3717062693516193,0.8622404047258521,3.883287572933061,5.882417159301716
40.0,-2.4667919681612784,1.9328961773226427,4.3996881454839105,0.31114421721138097,-3.445647063382268,3.1264667941923463,-1.5045875632261365,-2.7084656805241827,2.089626241604356,1.486924456507051,9.148579334271648,5.2640190779102145
41.0,-7.5802221110068535,3.414440207320719,10.99466231832758,2.048770164799153,-9.299914436533037,7.236492802512201,1.315557540824305,-4.696343157584154,0.9169578885975473,3.13098746367331,3.7995660557864044,5.681340637723827
42.0,-9.912381137806094,0.5047261830465455,10.417107320852635,4.670706985486191,-10.180896412906986,5.489873954465213,6.548358490903746,-2.034991560187466,4.543707554521967,5.000646477018503,1.6384962124166693,2.4208659276011346
43.0,3.1975357998257783,1.696294571937198,-1.5012412278886305,-2.4779033097601975,2.3259723720967873,0.12849992598122384,1.1223050413112161,2.1235405886905445,-1.1859604553964798,3.4450161114274898,-8.478809325979983,-5.524765350755
44.0,35.90500091883251,-3.5177994415542826,-39.42280036038686,-16.14210320357732,37.70954874022636,-21.43342181192116,-10.846293847059286,6.4911260735199585,-11.316005110384568,-12.56052273850814,-17.770579735971033,-16.451776265572096
45.0,-15.348497489491136,-2.8839506821612173,12.464546807329839,9.172859531440062,-13.94971936758386,4.75525995683833,3.0762603776683695,-4.783188620535319,2.141860188940571,-0.1483200768173898,9.823342804395656,7.252896015323097
46.0,-5.408385858108314,3.2039218387750372,8.612307696883324,1.0853475570685298,-6.983066013334105,5.877360365076947,1.0533341940124656,1.958897950731037,3.9832646483791447,2.4767676962808,9.220756996395345,4.763569648611538
47.0,-4.346172962554505,3.6071472885202827,7.953320251074784,0.35572314528600657,-6.127156377533067,5.748947979474513,-2.566813764734179,0.4340524496396675,0.22976378988874813,-0.3808279673362375,-0.3451951769769588,1.074592451457506
48.0,-3.7135925127085834,-4.193367200316006,-0.47977468760742603,3.9384024142771903,-1.5946068934960609,-2.3730532346635016,1.1398320492156766,-2.453655092001911,1.8376327095838425,0.14316927684954295,-4.317375720543803,-3.074531889494946
49.0,0.4142821558121432,-1.8332544404604456,-2.247536596272595,0.6876310455887586,1.2784007296525808,-2.0054305742125162,1.7381238462689228,-1.8391997099302844,-1.204502542175536,1.5094853089593663,0.7393015552329687,1.5378538241422892
50.0,0.4876019611150712,0.9206313965588183,0.4330294354437523,-0.7374477986101027,-0.017955276777059992,0.7061211358595716,0.6939357357240344,0.5676262719199192,0.2480462378222162,0.8874123401871725,0.5870983954698585,-0.6252473446905931
51.0,6.328481541112281,-0.32931050096278536,-6.657792042075053,-2.967750409950764,6.535928184097851,-3.4652081219939967,3.2927034270832745,1.0460733532693403,-1.0989066844719164,0.93830983332828,0.27517731114498817,0.7256200342055429
52.0,6.562860740888265,6.045579982122648,-0.5172807587655663,-6.284647632382539,3.592569938111576,2.7972826509977358,-1.9828927324668173,3.7591473926608003,-0.9226640630231973,0.0538318955957669,0.16788462156198458,2.719048058959741
53.0,3.2467349284845266,0.4185624344334542,-2.828172494051015,-1.8211194328736462,3.0195143111429426,-1.2413551997934844,-3.539727038065224,-0.3731821695414821,-1.0620432505896213,-1.2973463317009715,-3.6031870254074905,-2.6772099819523407
54.0,-7.827319517506,-4.448786559249745,3.3785329582563044,6.1470030547499945,-5.615748210311573,-0.5614871382818674,-1.396123690424869,-2.1636295567015136,2.143474643496634,-2.2393227275573513,1.9516715802091065,-1.7044723724427344
55.0,-6.921341230893921,-2.5731455685626132,4.348195662331297,4.758321072082633,-5.646880425155397,0.8690596059157355,0.4351585689044255,-2.780567028549949,3.3624768253185295,-0.5060538296239204,2.0994419660162906,2.342195898575671
56.0,-2.04488607303567,-2.580177969499868,-0.5352918964642672,2.3282475814757118,-0.7706314020369396,-1.5729644022620417,0.7183719917969544,1.5755839441257509,-1.9530276600692946,-2.85793126051934,0.5393063800453433,0.6891566212286739
57.0,2.3602084545398903,4.573369591662512,2.213161137122537,-3.5251104389145684,0.05092727701258437,3.4547081779937483,2.363082406513293,0.31869280529706184,-2.0969189983324075,1.6040048084813188,0.3854046877048432,0.11579407329629945
58.0,-4.604670585952265,-0.30618512264214703,4.298485463310056,2.4004623074578175,-4.402809508308827,1.972406377384332,3.7062243134700354,2.4776027689218636,1.1766309548457397,7.291297916027148,-0.005223262206900947,-2.0061052976492824
59.0,-1.5426820635900234,1.8740627390503437,3.416744802640364,-0.13972924977485213,-2.5151807075239403,2.612836746707691,0.07019709040075317,-4.2995666767907,-1.0038293629491637,1.6325104754898998,-3.9362521921197793,-2.6836873749127226
60.0,13.652423823695598,4.326125828894649,-9.326297994800921,-8.960920017396658,11.530634421645319,-2.4628776148035607,-5.490080949759824,-0.09169922075056547,-2.8874419694290845,-2.342788145272028,-1.1626150505053587,0.9011152566267246
61.0,9.137334504391362,-3.556979815581768,-12.69431431997308,-2.757744596625014,10.958508805468673,-8.09574808704574,-4.331009278973588,4.40465496016841,1.362923320775257,-4.665543446426499,0.9605183680824547,2.245097800292514
62.0,3.7549106117248736,-0.5161411475495628,-4.271051759274407,-1.580811154191407,3.9800906869815473,-2.447142342404883,0.32406531888057133,1.550879564798309,2.937149383315429,-1.9064844758992994,3.274547020323346,5.330322968855518
63.0,-14.198833897460183,-7.167542861820805,7.0312910356393905,10.650077237744389,-10.645484630690945,-0.04503049272526294,4.361036777017883,-1.5744013867405617,2.2240260182647402,-0.7584560642635103,-1.9618884132269039,-4.3880739707901375
64.0,-15.542114249990519,3.084227341765488,18.626341591756002,6.2017072658418915,-17.115019539656704,10.878056591744121,3.9252589000622162,-3.7672943435437536,-1.4871636873529137,4.529562588300634,3.322744002091704,0.8081376654620984
65.0,2.301417706266337,4.377606440856549,2.0761887345902057,-3.3640364787970194,0.15650075773695526,3.1711989737424977,0.5132537689232537,-2.2433680269462517,-2.606915166096938,0.46071669232737045,-1.6385673348370504,-5.325459800008211
66.0,5.713918962872956,0.885794208482261,-4.828124754390683,-3.32568546624756,5.229037064654701,-1.9483783341227854,-1.7400405234590735,2.5070008902121335,0.8806327047857816,0.683409408639079,-4.519877213476205,-2.851752906160592
67.0,5.581764235257318,-4.906116125725877,-10.487880360983167,-0.28966772440520705,8.063131646910325,-7.675793666883327,-3.093575811813877,3.079158319307891,-0.0719669130160806,-2.4183724661164767,-1.822942106305891,0.22860836228762627
68.0,5.3688182490262495,0.030639881357471976,-5.338178367668739,-2.6582755400601563,5.373942581194564,-2.6356481250929495,0.25776577230648234,1.334681333312755,0.9481347755262683,0.8389411030919298,7.722895451341044,4.524836650801278
69.0,-1.0319717302008398,5.380744647783592,6.412716377984468,-2.218601137107574,-3.707820306923213,5.832046848115402,-0.5628274264697807,-2.1791364259759662,-0.12958985612233787,1.532387990236754,4.743632982790335,14.244099537023835
70.0,-4.8565741453819395,0.6427357990636307,5.499309944445593,2.1356422861639928,-5.166955493582543,3.0812964602058943,0.6638549020971827,-0.187415961926099,-1.2999681133347543,-2.181304117769863,-0.6222489240448725,-0.6100525170735782
71.0,-3.242985407726125,-3.4121896289429596,-0.16920422121683787,3.2735463623547156,-1.6060805340135968,-1.7822790003352802,-0.42230820131619795,-3.8510478283043077,-2.0451071800589133,-1.9082018715110407,-6.687360229798531,-10.807010917584524
72.0,1.1814213228018313,-1.922816132485148,-3.104237455286998,0.39328704966228223,2.1526065535098704,-2.5034736005312928,0.4046272940408157,1.525022052674738,2.3049005779114045,-0.44689035436122404,-6.168085900999087,-6.303046007579148
73.0,1.5066380140783644,-0.6012868816754722,-2.1079248957538743,-0.43070041770063416,1.8186769634411966,-1.3386719434176166,1.3961724586864743,4.370750146980724,1.6182743269289572,4.091290657908722,0.8723970997161672,-1.1086204424007668
74.0,3.1552222075076886,0.6685700996039952,-2.4866521079037547,-1.8897770715491,2.835388727965223,-0.883471954020064,-0.1954266739263999,-0.23718220548184488,0.040537105555573216,2.976327639790067,2.449275010403383,2.7831197983505582
75.0,0.7906767948595372,3.545180196653235,2.7545034017936256,-2.2245235859149775,-0.9629046285897077,3.1083598230110656,0.5063048933259269,-2.229697196552929,-3.2605564316171085,-1.4052401148852505,3.6459487048245434,1.7702419243572467
76.0,-0.8313704468478379,-1.128516496158102,-0.2971460493103275,1.0014009437789966,-0.3210048356279948,-0.7429147152671811,-2.1150843359832603,-1.4183232523926304,1.8044172635169737,-6.530605323184285,3.090657972273369,-0.19193454042310476
77.0,-6.500218501517607,-1.4349383178042443,5.065280183713332,3.9875668246092153,-5.7513789391364245,1.8726378938271429,-0.04562322347353809,-1.6556385236122457,1.936412128863879,2.1434073763425525,-1.2370704260500096,-2.053058858281571
78.0,-4.567689406558815,-1.9400286118213395,2.627660794737496,3.193525270461881,-3.560112546671691,0.32715569823431956,4.3083512189535895,3.6449182939191602,3.185765414603822,4.1479473744972415,0.04382082670539178,3.7275473567099837
79.0,0.3419705337847663,1.917604138192873,1.575633604408161,-1.1119003254801412,-0.6532499526598659,1.72994473811867,0.07063154150590045,-0.027751199504136848,-4.403392209247479,-1.6381075893263348,-1.392954276997451,3.5105256840636994
80.0,7.2845967952077775,0.30984039444365763,-6.974756400764075,-3.7777413002755935,7.0957487694441586,-3.3530035258991755,-4.790536911778649,-0.6057349362556383,-2.7609803379722937,-2.9902442566220806,-3.615001616062097,6.170896971641554
81.0,11.838842748823835,1.7564730914793554,-10.08236965734447,-6.774111516702012,11.005374280213706,-4.110650733746576,-1.0484860619263743,1.467858736278542,-1.3321049730171426,-2.107959567457937,-0.8040459717591855,-2.77082821673742
82.0,-1.8881263478752075,3.0720022418646815,4.9601285897398775,-0.562589227753227,-3.4602562868525366,3.984035105469095,-0.41675086180228804,-1.0925232941050793,-0.7150914067350937,3.206090096369164,-0.23213329451325315,-9.810412949246057
83.0,-6.056340320244147,-1.086787389822776,4.969552930421335,3.528021154942962,-5.4735617809132755,1.9062997374188466,0.6163892878753785,-1.602165726456512,2.504726906341723,3.2271306680934657,5.11930898499221,-1.4118105595616761
84.0,-7.114151735200844,-4.3650557030600865,2.749096032140748,5.700078897504807,-4.974131309860903,-0.7635612057466747,2.715915311936747,0.7809847220582373,5.831556595110846,0.4835943508649212,1.7060184966447112,3.5888590785549397
85.0,-2.496689161711827,-2.7234411096556714,-0.22675194794381248,2.6502126681888143,-1.1008110341935509,-1.426321817584363,3.099673825837576,2.1857191371835123,-1.3245452194391245,-0.9751293597902291,-0.33423422407931613,1.6077646215560046
86.0,1.9345268131173161,-0.4745621807482481,-2.4090889938655193,-0.7708359101890203,2.2054146141880713,-1.4656240690432314,-1.0785683490668405,-2.1777314613111707,-0.8418916292975227,-1.6700275648795686,-0.9877693309746834,-1.143208575788706
87.0,2.9351933264838306,2.955216972981862,0.020023646498046554,-2.911662754334161,1.4133876998291526,1.4689930903547777,-1.3907641961036996,-1.3208948443976525,0.6212063575806812,-0.6049907251166067,-3.004615031658673,-1.0142190516852498
88.0,3.6796061161598606,4.281637711851761,0.6020315956918558,-3.9517995966192148,1.4966724623353649,2.4245628249641937,-2.632485314667821,0.48403287624675617,-3.5114891518487914,-0.35474293891486686,-1.221114948470741,-2.2752738267668757
89.0,-1.8725621840694662,-0.6077057400629129,1.2648564440064918,1.1868865429364481,-1.5293032600126697,0.30716065684827765,1.381194396977871,1.0054317978986662,-0.6843826406090732,-0.2148190724628532,2.3967789967569706,3.141476825531589
90.0,1.096091809668828,-1.9515932760746122,-3.04768508574349,0.4526080259527896,2.1143240618615913,-2.4518408703025174,-0.27959400537750045,1.7585527440341886,0.26128605568669183,1.4637603606406357,-3.1425878601296056,0.4336970772801765
91.0,2.6558316111025246,-0.11991897591535128,-2.7757505870179067,-1.2405720215956957,2.6823341114302055,-1.491858007735726,0.1566664528634491,0.5940278196613292,-1.5875729078546699,-3.6109366005591967,-0.6173970484820352,0.8434724521049799
92.0,-3.3689007193845697,-3.4548096075263244,-0.08590888814178266,3.3658730996135526,-1.672690365105544,-1.7492479968206214,1.787802557709794,-1.0325246337853042,3.4170623693007505,4.082012496764731,3.9221212443446443,0.5474674210488628
93.0,-5.497531541816758,-3.449101833737549,2.0484297080791993,4.513368052123693,-3.724070110033848,-0.6901973770138758,-1.0170364161260887,-0.6822342033359041,1.533923638866242,2.368031831244925,4.004741751176935,2.6466862545423755
94.0,0.40737218398742403,3.8935640755745795,3.4861918915871395,-2.18127772665096,-1.5689065101966615,3.6941461251766516,-0.35368953067917325,-2.4304329313328497,-0.9857064013935342,-1.7801364568936633,-1.0555401886907485,-3.1041881640841016
95.0,4.6935883041371405,8.660972380789163,3.9673840766520256,-6.700913867274963,0.3330239810551814,6.3187728269869226,-1.7367955896332952,0.4939852409913798,-0.9485320142016552,-1.5399409578647143,-2.3889320947847836,-0.3166845332595276
96.0,4.222014269455209,0.3728542639075654,-3.8491600055476027,-2.236981428452464,4.08290231393234,-1.7274857381353437,-0.676376033313586,0.17897225281060972,-0.5964711319778583,-2.824458926859146,-1.1909841477506895,1.7585361348125286
97.0,0.9529360235762834,-1.545254775684227,-2.4981907992604544,0.28053440589943845,1.770827249351942,-2.079720793692034,3.2347798885088745,0.4253082935533655,0.7540125673950565,0.2892865173338419,-2.9589548860339354,-4.042200183653035
98.0,-6.023895633996757,-6.773937294264704,-0.7500416602679518,6.382863476369817,-2.6731018986266797,-3.7296171077196547,-0.5350053431369641,2.16787823662244,1.0654075041424615,3.319731497744427,1.7877485997030482,-5.206815408217242
99.0,-3.365356639469926,-1.5389608376409147,1.8263958018289705,2.4326482503615052,-2.63506358764557,0.18664372639672155,-0.4532399644812718,0.5629501572560706,-0.4599864415036238,1.7150602916270812,0.9737527577332574,2.598709164177325
100.0,4.347543564279968,0.11379336016062669,-4.2337502041194055,-2.1772423267104424,4.24897830170701,-2.0884451989621753,0.8165754322742179,-0.71703836186785,-2.7321950812336793,-2.904258650702235,-1.2740451431273516,6.979013847956146
101.0,-3.6109725860986366,-0.576465343390987,3.0345072427075843,2.0614754311880965,-3.2863222340045612,1.2035977321827125,2.178981388120911,-0.1826458172464568,-0.4054266092363873,0.8513590516108778,3.982072597309706,5.6844179838223265
102.0,-0.36115055865076306,6.752705387986886,7.113855946637591,-3.2344200045818314,-3.6988734283129783,6.906847788503279,0.22909312811998175,-1.9481240788770726,5.242214101667286,-0.18166690458524626,3.3827293769669065,0.4786565414280819
103.0,5.7976251814295185,3.6918448448272785,-2.1057803366022836,-4.708867975879936,3.995399467995714,0.8418807804045434,-5.620050648245935,-1.5076753160559246,-3.954109778899729,-0.21094910312639725,-3.879200780957252,-6.841373700571456
104.0,2.46417877857701,-3.655466695978058,-6.119645474555016,0.6306028585518062,4.263274437135865,-4.921013864092011,-2.031843598349216,-0.5123542237422921,1.0337782542908078,-0.7402105987676264,-5.649500451323318,-7.192400951820432
105.0,-3.151581711103379,-11.384997413275666,-8.233415702172174,7.2272132582447846,2.5174831624447194,-9.765304305465705,3.1679660597269854,6.935653821583095,0.5042708234601121,0.8234335165425138,2.815885284536166,-3.4874359591998516
106.0,-2.9824213445278973,1.941370569613328,4.92379191414134,0.5638107661792726,-3.975086836967953,3.3997892648347636,2.704630839142444,0.10488904415781564,1.1708422319709904,2.0871051703587282,2.6880267438772454,-0.5049169101470808
107.0,-2.2535086849398804,2.988190592916305,5.241699277856213,-0.39578354396701987,-3.773288069341416,4.166238776641934,1.612050531582455,-3.451176568333545,0.6041964485804294,-0.6520809153330906,-4.032515177433366,2.1815677197000065
108.0,2.584301042210008,6.741322881326512,4.157021839116435,-4.684544627741679,-0.7418638992030657,5.428820274683337,-1.7094106756227665,-3.4366341065683006,-5.160196806912169,-2.591385784186724,-2.31039994543066,4.5441269641058755
109.0,0.9968490549203297,1.0273588023857698,0.030509747465334414,-1.0288729490923292,0.5160772800774842,0.5152296403507055,-1.9484018009448167,0.726171673373663,-0.31913335506724216,-1.5708732367011229,4.31165102717502,13.573331549510343
110.0,-2.2265142384714656,1.1074603925106197,3.333974630982043,0.6238735672672279,-2.837921392382343,2.2111769759263415,1.8111872034205585,1.4106882780403027,3.7788578102163184,1.7664918767885376,6.991995161782604,13.685976885873249
111.0,6.537668259032684,3.6667361387898163,-2.8709321202428453,-5.117075286563248,4.716231201101834,0.3890036746002903,-4.110463058594904,1.6534973184822006,3.115917320900401,1.5635514590392798,-0.5918268630810641,-11.142943095174225
112.0,2.9910428080098237,-4.85065894996702,-7.841701757976859,0.9119264340760515,5.424255130594508,-6.357705782674236,1.3195608569615556,-0.8162899918428719,-1.686909033619028,-1.3630711999444138,-4.578002697412718,-22.79903637973037
113.0,-7.271560126252064,-12.603821890547746,-5.332261764295772,9.91503314375786,-0.9594285783378109,-8.984249625027601,2.79141533466578,0.8544452573059671,-1.4290671374631105,2.5948145866493606,-4.06729794252756,-12.031664567977097
114.0,-5.483219082396478,-4.29943422710887,1.1837848552874704,4.942052441345361,-3.3147274073410786,-1.5006395491947302,0.11238397746790896,-0.2250135753715013,-3.515877546074637,-0.5185719516023393,-7.587325582817811,2.7220698720992393
115.0,2.918351416829183,7.042984581344126,4.124633164514862,-5.01324911257082,-0.6499809109913677,5.6356955029006,0.7689856863721078,2.0870099782811056,1.5820249646882976,-1.8015517579754086,3.425198074584004,21.150826424525096
116.0,0.7555015724032191,7.791644612718782,7.036143040315544,-4.308615885280069,-3.0934032122247817,7.381567403618753,-1.5017620511660554,-4.200540299465846,-1.6262676289931397,-3.8535531602784814,8.976918691174745,11.916689996939668
117.0,-0.3321067303767622,2.4698385253128263,2.801945255689672,-1.0247744380815385,-1.585077711910451,2.597199961399526,-2.1274066673568375,-2.1036129620140533,1.0436723327596535,2.512664741356325,7.5380382889364705,-0.7588891232928763
118.0,4.541889676527132,2.5003398389964735,-2.041549837530515,-3.473933863423858,3.283528217695734,0.18308160691030073,0.7713337958926727,1.5611005303698362,3.0749206014939916,4.068834917918502,-2.5915596845563424,-8.264865066365083
119.0,1.579648642059979,2.060941494976131,0.4812928529162648,-1.847167240902909,0.5453347220722566,1.2953935549567668,-1.1845439151463688,1.0108797215929468,1.7212275595785558,-0.1842908500377407,-3.7709096882965736,-8.822979175810215
120.0,-2.217745256618712,-6.178095826326256,-3.960350569707483,4.175687984887333,0.8661997195305791,-5.051912291951246,0.8981441633850981,3.873770370780907,2.2508186209021863,0.7173446660286095,-1.5573136143904356,-6.026556123195436
121.0,-1.0671953108239873,-11.7627169719012,-10.695521661077157,6.395799210465643,4.803521103130636,-11.215607280248076,2.273817218494505,-0.5063130064083783,-3.368761420704739,0.21372050553995636,-3.8936560519671115,-5.625721211029384
122.0,-1.6586792851022714,-1.7238332748744245,-0.06515398977214426,1.672919941338428,-0.8150234546085546,-0.8804066999126823,1.3939628524373076,-0.721241202027507,-0.9937994814286721,-1.3486070330002122,-6.86811797076445,7.589782037558864
123.0,-0.8660279073097319,5.534756638678894,6.4007845459886035,-2.2750510041171492,-3.580408462271008,5.986606634751997,1.8359259582706213,0.5748952479651794,-1.0134958829504757,-5.048255792637434,1.3505661087168541,13.00871533432553
124.0,-1.9388860656398192,3.159412127143005,5.098298192782741,-0.631662600358168,-3.471552942320761,4.076292312101671,-2.241340755275865,-3.5910819867103303,-2.892730499165853,-2.2612467887597303,4.840877162338944,5.924328450449319
125.0,0.7372798297818861,8.589625194425267,7.852345364643247,-4.686461916751964,-3.5934008726701743,8.254818826877509,-3.27640990407792,-3.287250743437053,-0.9308746767165663,1.2241910736483557,3.952602975951777,0.3309847558840926
126.0,5.335065404339177,0.9276927003714044,-4.407372703967924,-3.0760405082097733,4.832444207265416,-1.7789577234742828,-3.022567893918388,4.753935331059143,1.503495682513319,4.914222321429024,3.5662395001612888,-6.385031587443153
127.0,2.9798805608217136,-5.57456995891411,-8.554450519735909,1.2749565337469366,5.726067085417339,-7.022139141790676,2.1366800439779943,0.7296895935040626,4.095982299457449,4.114318238149824,2.434513046775047,-8.641199552038572
128.0,-3.0512299793887445,-0.26916082255722795,2.7820691568314766,1.6398482996807284,-2.8809869034163134,1.2198414052586752,-0.7831946928070306,-1.6227946363686465,0.09273227484921565,0.30132380676391257,-2.9251609954408306,-4.167169989504814
129.0,-1.1984256903140986,-4.333862819910268,-3.1354371295961028,2.7480476893936157,1.0026951936184836,-3.773222594263773,1.7693514344660723,-0.5035971407996811,1.015406748256574,-5.587624147801676,-4.526210012614867,-0.6146238124259225
130.0,-2.0496783285649167,-3.3736033744717195,-1.323925045906611,2.773839734938341,-0.3294114515278677,-2.3104927341726698,2.5757854937071407,1.2382271892337715,-1.5471736005913317,-2.4566408125524486,-3.7454862916462184,1.1990081357715592
131.0,-0.898271570777007,6.978298667867847,7.876570238645041,-3.0564744890640902,-4.4327184342190415,7.4652595761801965,0.24200777458383227,0.26390699007739793,-1.1449656738058143,-1.3168152348495172,2.332860274615726,11.052518607906016
132.0,-1.7964783622031986,6.544099857848185,8.340578220051553,-2.3919758785734997,-5.113424801159428,7.481449579025616,0.36686249536064497,0.5606603927368594,-2.5754531981311795,1.571932275441757,1.4115663824701699,2.2594805066373347
133.0,0.18783196496892743,-5.08630211627792,-5.274134081246759,2.427836069510693,2.7653201652452384,-5.217836504691135,-0.6600094363858098,-0.9043275248618884,2.418966602329802,6.252376545486822,2.4377844621409746,-2.1062977914378274
134.0,2.9300010304486372,-8.239201936822425,-11.16920296727108,2.629288125811072,7.084295231796682,-9.740695734158987,0.3682852214784895,1.9191074950771625,0.5378961927342911,3.4009596493463485,-0.31040899462862703,-10.59421540288227
135.0,6.540667623309746,2.4380564690125524,-4.102611154297264,-4.439451162515284,5.277688614384996,-0.8697939510104269,-2.72573692802992,-1.1082400605520188,-1.9396165517515311,-4.171608543024512,-6.953400485895223,-0.8423742225454198
136.0,-3.6004836677952157,-6.935820193273816,-3.3353365254786915,5.315600194786957,-0.0980579036359126,-5.09765276722317,2.404889364160672,2.0755916659076723,5.296424919504485,-1.1864183860426152,2.4049221290459,12.610414819424246
137.0,-5.68110285053615,4.556948351461775,10.238051201997836,0.5292149133943623,-8.00468397655251,7.430848158901379,-1.4088338682922201,-2.9639101974881537,1.3858961883605159,-1.2532968046970905,4.420282376082536,2.6834583368877505
138.0,4.270773569135915,13.504837191146326,9.234063622010346,-8.922274677228836,-2.449689158208199,11.319776965441026,-3.5917126622254143,-3.0310710624330994,-3.843767273513486,-4.00984407797283,1.8599420855173852,-3.6262502311261287
139.0,1.0048800712676695,0.6977398089017548,-0.3071402623659134,-0.809856290631918,0.6852928619188221,0.22173769236937524,1.103309408170045,0.6935596341616264,-2.6649176501878618,-4.207212874049902,-3.5619531040817454,-3.937042737646065
140.0,0.2652575878036776,-1.7156051752606647,-1.980862763064278,0.6831660039002398,1.069947764236661,-1.822330316886008,2.275578982552857,1.7554142651462101,-4.325453463861519,0.45561779216724796,0.928640800449607,-1.996022347085571
141.0,-1.2547145609924721,-7.405669592335224,-6.150955031342708,4.360702360531081,2.469520633731146,-6.751381817426691,-0.4361812106873475,1.2385905453492967,1.1608062412334055,8.767813075454617,0.620574851826037,-6.31394736402947
142.0,-3.7718264290552757,-1.6605895249937275,2.1112369040615198,2.6616717449721863,-2.9240753295530526,0.17489830630212033,0.4388925338280859,-0.8730604265471891,3.974585954425059,6.751204841485987,2.5258137632403326,-2.080536715302399
143.0,-2.019524784056325,2.1248715554003796,4.144396339456582,-0.032724780473873505,-3.1455686531244726,3.0848302309346396,2.1194980729102633,1.4290946422573358,2.939717130976797,2.4515295878335817,-6.619028788656459,-1.1234260712683732
144.0,2.8866175500898636,-1.365484983457745,-4.25210253354768,-0.7409652682526912,3.5852435030501977,-2.7804596635450434,-0.46137187588048334,-1.0007572224708734,-0.5152091343369247,-7.275817894823973,-4.441025513686515,9.24524972645899
145.0,6.154109816052194,-0.9022320434611145,-7.056341859513287,-2.6020124138903107,6.625777319540617,-3.952427910461444,-1.7332443871974326,1.69781322495504,-0.27652525278823176,-3.6586596078523224,1.7755394132405935,9.979380237706723
146.0,-2.5811229155082467,1.011619305384038,3.5927422208924,0.8167722795910151,-3.058164559773247,2.3275583546779375,1.5117481878833803,-0.31679455521076416,3.5857737279879514,-3.731936235320882,2.7908161406618346,4.837201608057336
147.0,-6.792633937364158,-7.456551922959854,-0.6639179855955377,7.087376681492557,-3.0257624167375905,-4.114279773511388,3.142996785900692,-1.2327888662484525,-1.216472155283962,-5.873465105935771,5.002737297579859,-2.664215944014731
148.0,1.5680726115215622,6.470565886700114,4.902493275178652,-4.048466521786308,-1.6989728089449527,5.711781969999849,-4.78809473220643,-0.12733484556792352,-8.470259273519899,-2.6413241774775003,1.0265880393665048,-4.024368255032723
149.0,7.866520937495132,7.168897537707359,-0.6976233997877466,-7.542417855288254,4.254314805104931,3.262575525152732,-5.974532954089834,-3.0956957367490388,-4.811195929990024,9.821268044176293,2.8280208742855137,-6.2795957481247235
150.0,3.3333601459093964,5.127651528973722,1.7942913830643192,-4.176313192197056,0.7399764641228181,3.4115353995130406,1.5735421113330164,1.0413914975501328,9.397841279647533,16.81334049638649,6.889790542642885,-5.598531496531837
151.0,-0.6257625041517045,-0.03117417677016321,0.5945883273814899,0.30078977602213675,-0.6463414072771154,0.3134852715622909,4.035849396043511,3.8761365379743467,5.714244957571767,2.5344664352013977,-4.36215635504114,-4.923739010636025
152.0,-8.115959392483216,-7.988135645465705,0.1278237470174521,8.020118613772095,-4.08754848117456,-3.9751322354667855,2.672728666712378,-0.41222309652217204,-0.1454126899362369,-8.851765123556245,-13.034935064588556,-2.7365313784199423
153.0,-8.112724149366015,-10.794812287303504,-2.6820881379375194,9.497531022365033,-2.686844554104564,-6.703587432596844,3.1487369230206363,-2.0156848843371424,-7.225165088529856,-12.192740941186214,-12.77686142012956,7.824178729839899
154.0,4.109391693177255,-2.084371475096148,-6.193763168273394,-0.9691027701495205,5.1795697519359525,-4.10437399161814,-0.8835250988799614,2.7592237569422506,1.901471456982316,-2.7223414536161075,1.9876441029443943,8.513998913888758
155.0,4.9030166815166565,5.625452823062326,0.7224361415456788,-5.297172165501591,2.1238454892791703,3.1281738243485138,-2.6636891026952996,-3.7743670464336843,-3.3794577852316343,1.1651910980785178,5.9099419844904,-1.6223551895400803
156.0,6.324887092635208,8.751231987148987,2.426344894513785,-7.567248481169277,1.9137175994009934,5.61840017416676,-3.5933266796141496,1.699569488672193,0.8306957539193194,1.944527279925136,11.93080958531491,0.8492193449448135
157.0,-10.898941747115705,-3.135983364723036,7.762958382392678,7.069816340841621,-9.35644191536736,2.2595933439460287,-2.8569123917177954,-1.2400218476325104,0.9116087188036817,0.22694367898295464,7.018433046828731,1.3662780363537674
158.0,1.1442148310184725,2.1489393929733995,1.0047245619549177,-1.6733782340917187,0.05097147885323938,1.5962768419544586,1.060145083082041,-1.342518663883648,1.5310907041466375,4.290756940222825,-1.9380673408535811,0.911778137495725
159.0,5.084175921540496,4.120827770166801,-0.9633481513737127,-4.634159880653204,3.0059489939866317,1.5931551198820992,2.7568290785173484,0.4706639726388867,2.6965850836928813,3.044559821844212,-2.4708585778299352,-1.827334121673752
160.0,1.8274197398319676,-0.7235180320823374,-2.550937771914321,-0.5138169741315399,2.2449891392818633,-1.6264949478516875,3.4880262518946727,3.957442274421244,1.5791088787243392,1.7812412307100902,-0.5496597752908192,1.6571417212776947
161.0,2.714299828258834,-5.805833635341962,-8.520133463600784,1.4941267696367144,5.584704789041493,-7.154039446666158,1.7389967562997841,3.849462210172905,-4.173850055887634,-1.5790742395569701,-2.277413870433387,-3.625118446895652
162.0,1.8064647208877942,-6.036409023750019,-7.8428737446377985,2.1321612081153596,4.859798118209415,-6.930558385747571,-2.589728866506934,-4.140079892404591,-2.356693926548737,-3.0484326699114095,-4.963339766511211,-2.1095279915204967
163.0,-9.196968992032089,-3.7704166727932917,5.426552319238805,6.4953043495843605,-7.364787409739424,0.7601809109168003,-2.0195557023876605,-3.702808123138402,-0.6197741728011743,-1.3694580193860544,-6.415898469032939,-6.85899978409735
164.0,-5.236509059406283,6.3666718998939595,11.603180959300225,-0.5526314468368185,-8.399170214705439,8.998866825005509,-1.1015198022817678,-0.9839154992661441,2.2426559786348417,-2.680693388255131,-1.075837442551427,-5.4175490552742795
165.0,-0.15630080299073024,7.331611523447708,7.487912326438444,-3.567982795367843,-3.800817138392525,7.427740815167329,0.8384972063709617,1.6348253759027176,1.1728714629112396,2.8179321593083766,4.693629091048966,8.575190748222184
166.0,4.331952381683671,7.300306322465268,2.9683539407816326,-5.785181940990131,0.7088838247396709,5.15678569996599,1.7222559685010497,1.4434381496424606,1.8345473967368664,3.497174775652138,15.565334011529785,18.264087972569854
167.0,3.2049622867198977,-5.050652708458346,-8.255614995178206,0.8864688226902544,5.687405610788163,-6.62669241176544,-0.9065616347037403,0.7024087890892843,-0.03646920747256133,1.3274142939277556,1.9782327829296964,4.108525457710943
168.0,2.0539101653217915,-6.210500775922707,-8.264410941244474,2.0494615970670322,5.203574460883751,-7.28752526748244,-1.8724097345790622,-1.4694654010448716,-4.763483657756166,-7.301101634238156,-12.726685935717933,-16.539588458191908
169.0,1.2749310141133359,-3.9162966173897744,-5.191227631503087,1.2928907168325554,3.203918825857371,-4.525701869941361,1.5067003469677656,1.2313160541570807,2.003196515828561,-0.06681720603243946,-4.738105748214908,-6.403794442054022
170.0,-1.9940347122759912,-2.9764714739658635,-0.9824367616898533,2.530543586053927,-0.535054399800748,-2.0339726798406663,-0.40588950608181784,0.6748605917458743,-1.2635589408947683,1.480252399164392,0.9856675171474989,-4.312729338660145
171.0,-5.207793650691211,-2.6251134403296694,2.5826802103615543,3.8728532984969966,-3.9298141589678144,-0.003228404960471387,-0.6494466207270638,-1.6151609158371265,-1.118550873614135,3.9695270854607,-0.8004258307015386,-5.6461858279700765
172.0,1.3910234915180952,8.903599501833531,7.512576010315367,-5.12296799583688,-3.025252814656793,8.219230412609814,2.706753911390093,-1.0627716894333479,3.3948172026736434,-1.2208968816919703,0.4145612012021438,4.638625744440514
173.0,3.83155976449971,6.278274004215961,2.4467142397161545,-5.038044604835529,0.7188442125244494,4.368419314415842,-1.1681697920010576,1.799763136354847,1.9524066880961686,-1.06475036441039,4.626552286682731,14.072344752008242
174.0,-0.3905622409649918,-4.9365528612954375,-4.545990620330538,2.679130026076145,2.097188497821118,-4.737078167351847,4.335202992124173,2.7886194374706585,0.18233449875792196,-2.5465781219175083,0.5596609201274716,6.373583711728218
175.0,-1.1531827997902382,3.308140598733904,4.461323398524107,-1.0562191271640904,-2.7911994696682787,3.8915345297797703,-1.526459234505699,-3.5209114739847167,-0.13487435477198575,3.5238503222035273,6.44533303826388,4.051480996173065
176.0,-2.1187924757257797,-1.3263119518985986,0.7924805238272221,1.6764314377312837,-1.5183516513993012,-0.25354805090511257,-5.051912192795284,-0.2720940480712998,-5.381590125350559,-0.016143458210481798,-0.3590624127067297,0.29399006569385877
177.0,0.8746062255777468,-2.907242993134121,-3.7818492187117583,0.9843981262674952,2.346451871325399,-3.4008389344178953,-0.650721795148459,0.8494472979130978,1.6571910852617193,3.6790462579586936,-2.9774839423262756,-7.5724874848610115
178.0,0.4388285240578643,0.9546180541645328,0.5157895301067699,-0.6363554637843267,-0.017382010201400178,0.7672794282628752,0.4010366297422039,-0.1989272941754321,0.7454285103519285,-2.332625003710668,-5.131410764902653,-11.780042048266013
179.0,-0.6720792828589013,-2.6793479877915756,-2.00726870493264,1.666961251654259,0.6122901747314415,-2.303060647701795,-0.14623692760537366,-3.1738535879128547,-2.4967101242176017,-5.343124072992721,-5.245820233867703,-7.558671376206676
180.0,-3.021693218687421,-0.2679688702645826,2.7537243484228195,1.6395360932499679,-2.8630321260440277,1.209696010778777,4.647993180191112,2.476390156264604,3.647082607284866,3.105977519823538,1.454492185340015,5.383951377340689
181.0,3.1327740121690266,6.635757499074945,3.502983486905844,-4.89299821375619,-0.1602990839060739,5.038248041385599,-2.2264490874204084,1.1438078005400543,-0.6056090110986307,0.8329868766454729,6.961664964699802,9.747786981021253
182.0,6.1318782523548325,-1.3527511136560832,-7.484629366011048,-2.407518159870194,6.8324961817582714,-4.450291960691654,-0.45678017805955934,0.7420748271388731,-1.1293080302379863,-4.830985892155218,-1.7296520528564931,-2.559992738416211
183.0,3.012003450341946,-6.601213020208344,-9.613216470550443,1.7644151029887394,6.257471478588718,-8.061568590578286,-2.2879370987058603,-0.9028086574255201,-1.3246297304416053,0.18335798141043824,-4.223004856961104,-8.289034296766232
184.0,-5.587291974219759,-2.6832174709436956,2.9040745032759263,4.172253863711351,-4.221999033059179,0.15507943592429574,3.1804558275289065,-1.419340702136605,2.4062952765055172,-0.009178674042322199,0.15172494927704952,-2.1549858332457106
185.0,-6.595199308090783,3.4608133706980433,10.056012678788752,1.596751181573997,-8.379056092186703,6.724546352515061,4.488533237906276,4.8861844015502065,5.239176192341602,6.706665711889261,9.335071618939615,15.928142697613175
186.0,-10.437070674846106,4.397737770842505,14.83480844568863,3.047994357267769,-12.60684993350807,9.6621740053277,1.4508493782006855,-2.659749538671612,1.4196100803448082,6.952153096259498,5.53323997014507,8.704865623869079
187.0,20.176982062248612,-3.151334192761049,-23.328316255009618,-8.558115059641258,21.78765533658467,-13.27212508392213,-8.856808546837176,0.9814564202000589,-8.80137605184822,-5.831633984515587,-12.315773211214589,-8.724630530517356
188.0,-9.421532472679786,5.277074103533655,14.6986065762135,2.0367858377850854,-12.01810619316938,9.954404632485982,1.9647543542600912,-5.951872247884815,1.1870939645208263,-0.8145483853707316,-1.8075747595697669,-1.2758655540227002
189.0,3.2686820206398135,1.7908031529997381,-1.4778788676400307,-2.4746429713775084,2.3425190930233377,0.11984890292707506,-1.009695653025597,0.32932239482913883,-2.5946874765483257,-3.8665502774350315,1.948540485746459,-5.067921209924734
190.0,7.773482618541385,-2.3110045073480996,-10.084487125889476,-2.744226888122611,8.901262172389105,-6.160032917539929,-2.719493409783021,2.3674840072801113,-2.7092169402490933,-7.570110102373281,-1.3098379127944149,-4.17048814617431
191.0,-5.8680676714869815,-6.171584249663455,-0.30351657817652367,6.013730455119587,-2.8109825779020703,-3.2039600486340234,1.8168468749595061,3.4304710349521104,2.9541235040288476,-0.3024757493470789,-0.6854714528295816,-1.003965941745038
192.0,2.0719961632331843,2.2051652720008192,0.1331691087675677,-2.1431812172768723,0.936409060334854,1.2004556078848356,-0.6905326725782739,-2.8408918393554328,3.6275079338039515,4.005400763123843,-2.3301574934400837,3.6447769311599947
193.0,-5.970388255244295,-4.3399269334479476,1.6304613217963113,5.146385513172072,-3.7599975549030544,-1.4018187653121603,4.300405931956544,-0.07949843095240391,1.560205474724663,5.259893037058234,4.97899847371541,5.079290021709188
194.0,-3.761346089399726,1.4323111190188675,5.19365720841858,1.147003774105282,-4.440572172233143,3.2689661376311205,3.8721974795120575,3.520197669344707,2.239328822567729,8.859637547185368,9.007065565378273,3.708727457202781
195.0,1.6141404688448695,1.5175866490114889,-0.09655381983336797,-1.5158448167887064,0.8926606451772163,0.7503572042997608,1.5283804359711997,-0.2038212154778214,1.4479348448110607,-1.5686644201528273,-1.7693507689407055,-6.723663970111394
196.0,5.629527115729143,6.706992381197347,1.0774652654682233,-6.208221768453684,2.2392553410938008,3.9381749632901593,-4.155849021993131,-1.8230563511966793,-3.5847565621603605,-4.2718915648705975,-5.800856082171854,-4.242287580745129
197.0,3.0782966318369454,-1.3182091338447963,-4.396505765681716,-0.8503235052809313,3.708252080371562,-2.884217823123741,-4.245773406180132,-1.779697916133396,-2.9365090925670962,-5.596188508986936,-4.958376840970647,1.008217574343032
198.0,2.4952684414250355,-0.6815962567999,-3.1768646982249034,-0.8825815312012121,2.815143577527744,-1.9512328449354368,-3.6841719314681542,-1.1646939140538932,-4.1662769677004325,-3.4578477385220037,0.2839806498438202,4.222693006603328
199.0,-9.589036925649872,-2.7351685017743397,6.853868423875543,6.106309446952078,-8.157345186484656,2.0408006651491033,-1.8324689845838122,-0.26773969560470023,-0.9978187057781849,0.5967722281726591,1.7458474329566653,0.7188453056305328
