Time(ms),I,II,III,aVR,aVL,aVF,V1,V2,V3,V4,V5,V6
-200.0,9.447241312872073,9.222374854198144,-0.22486645867385402,-9.283442487836782,4.8021605149877695,4.465851449345559,-7.00717073013128,-2.724165880261766,-2.0690679948240276,-5.314907597432796,1.3499705108922182,5.161390479178233
-199.0,11.296825292550249,21.092140085503328,9.795314792953135,-16.226808663912443,0.7846134947915395,15.411381443349864,-18.358610232175714,0.5173973252188215,7.093504638707772,7.060008013080705,15.759881598093394,12.728475082276617
-198.0,-7.895925178244656,8.441791904613847,16.337717082858518,-0.31403840974051356,-12.089313153972505,12.358558712913052,-10.134388804802681,-1.05400683801088,-0.687809714494839,-0.4580386041416096,3.3182118841230865,1.5500143050038133
-197.0,-11.893993316293482,-12.705317381256188,-0.8113240649627116,12.325975710766452,-5.514504054696474,-6.709424279617219,6.304345461151302,-0.6287915394309294,2.9370659524650424,0.36783900779639,-7.365003602176875,-7.945130125525894
-196.0,2.403786982082859,-9.659229227589945,-12.063016209672863,3.6423298337868886,7.263930093714561,-10.811278215745576,13.564351439062834,5.177157122077601,5.056563018060499,4.7618373700396885,-6.868723590712542,-6.795957829592448
-195.0,0.3613619745408254,-16.33812222579626,-16.699484200337096,7.993278714163624,8.48722357327987,-16.547912658260234,13.660099752782546,5.656452542899791,-5.280269339638419,-1.0553850053989806,-10.677415468440184,-10.29347094726214
-194.0,-5.508226452734148,-2.523257193703115,2.9849692590310273,4.01485547142558,-4.286822216436336,0.1997059470961684,12.98314522208437,-5.1547266584422236,-7.004257884555569,-4.646263622977211,-4.455901599917537,1.1861458603907744
-193.0,1.4082379810975816,10.779386496087978,9.371148514990427,-6.095559746926645,-4.022874747930896,10.040054834611091,-9.455665055069323,-2.9474984194094622,0.6602939339262663,0.9508072755391042,7.674332347723261,7.6650669156032265
-192.0,3.001342628396743,14.02268331356382,11.021340685167138,-8.509726776616471,-3.978042070990373,12.560048649558103,-11.242216466813797,-1.2695749306290052,8.489130600730132,2.8466755372773562,12.083478359385744,6.967032281131029
-191.0,-1.7701775529130406,-6.191614014607836,-4.421436461694743,3.991249736953711,1.3499053689735576,-5.274230695319206,-14.134175958735462,2.559518608010369,-7.999261075694189,-7.364977496375189,3.9703032479624465,1.0424971980183306
-190.0,-2.415974164986037,-8.465938003971058,-6.049963838985001,5.3833062604073145,1.8339522929873031,-7.309089849872574,-7.001170534739676,-1.8393529528723744,-6.490390349987561,-3.9631614669993085,-1.6763212161021521,-2.9125940090950895
-189.0,9.1666240958774,11.445205122368908,2.278581026491495,-10.272930464492683,3.456259937322002,6.88673241791879,2.1329911034591555,-6.305178368811935,1.5774465990489075,6.922616326242336,-0.03723346877045586,2.933849000254363
-188.0,8.943222074977122,14.274445054200418,5.331222979223259,-11.564361312138194,1.8171766383633843,9.826911233944177,15.28591810399542,7.8927285644337655,21.524254794408588,17.45531789409313,0.7015414571049341,3.800893820624658
-187.0,6.598287594074625,0.10799700087232278,-6.490290593202398,-3.37772389813305,6.4791662192835595,-3.1664087310334113,3.597474178252858,5.086247375549238,-1.521974378726477,-2.6531731680595856,-8.296560603333193,-7.218035115154746
-186.0,-3.2620421493334084,-6.36907728591569,-3.1070351365825255,4.7978135129168615,-0.058784436960858555,-4.790816621615598,2.917416529925479,2.476398151057716,-4.5217575237964756,-5.084578192274832,3.4479030775234545,-0.01273326657309859
-185.0,-24.672481485920034,-19.13006569018057,5.542415795739183,21.88700269929428,-15.08201809339034,-6.845225973313785,8.327783574334362,-0.27001983950962627,-9.337118345424217,-16.213283380431825,-5.940396140747737,-2.7979806495439563
-184.0,-7.1045484516207065,-6.62867873377962,0.4758697178409139,6.852637932813929,-3.8360348742328902,-3.0473640733983136,-6.260159665764771,-5.446645895930118,0.12299060974278397,-3.4509976057084897,-8.089209692515169,-5.330257882663265
-183.0,10.306384200804304,1.8129226233621853,-8.49346157744217,-5.997086816125531,9.440503788632292,-3.3084574235948203,-16.57691688794977,-1.8445197334410772,1.2880330577557986,6.200769120240196,6.242221719531592,-2.0884145397529994
-182.0,-6.172808565604589,2.0753026793161444,8.248111244920926,2.0286322462161053,-7.241371430815351,5.198020783906206,-8.994575986894105,-6.40459869389792,0.04021072490078148,12.685807321078354,8.710859431400745,6.016591089372511
-181.0,-1.3678558800801337,-0.5352266441144948,0.8326292359659271,0.9262649797689066,-1.0462316117148662,0.11244680985684585,9.391976086853045,-4.519040727355673,-6.0922910943665185,-1.3588293445021762,0.4716701133423209,3.9160242686210562
-180.0,7.87774322502198,4.109591731141708,-3.768151493879922,-5.94641833118446,5.8024537944868,0.14140617193452876,13.248866904658964,-0.8801623577648104,-5.477100588983335,-8.455628038881397,-5.154824966933984,-2.2350314586535216
-179.0,21.89807268456081,13.92547634855499,-7.972596336005678,-17.95059704183914,14.916363824868672,3.032101237648772,3.5951837358378347,10.378153210004106,2.1552249802212162,-4.199049331904084,-2.7291381675510773,4.123988398729204
-178.0,3.133082907637518,17.444709793226192,14.311626885588623,-10.25724789306931,-5.609834833321425,15.859145743035386,-0.759575243537673,6.782594916375498,12.768796851817942,2.53907040021196,7.7924083400108435,6.755291686358032
-177.0,-13.36109417203972,-5.162750521487635,8.198343650551829,9.206214213121767,-10.725926926698921,1.4998563157561517,-3.704878560316771,3.1782087309448666,11.805441224214869,9.702446493028557,7.492211200870881,-1.1130465992501442
-176.0,-9.683826289287357,-12.758776694170479,-3.07495040488336,11.23663201078431,-3.335513310796614,-7.936535044553105,-8.984780078855335,1.4686759038805346,5.930628522736399,7.125877236242577,-3.403883374270079,-4.692730948981495
-175.0,4.38296142118581,-20.010652748488734,-24.393614169674766,7.823930055418611,14.351005534062839,-22.22521380728652,-4.566623494730548,-4.452523213088954,-16.29118927413191,-5.923419300372342,-11.700162934081739,-11.49287904366704
-174.0,-8.222586904226034,-12.715526684100467,-4.492939779874451,10.477734057877925,-1.8279119857881803,-8.552055222310813,7.820709292050118,-3.4693577724000138,-9.329139619698568,-4.577469860011626,-4.131998087635712,-2.9227049415859154
-173.0,10.322186713280932,18.7422289140587,8.420042200777937,-14.520506797414305,0.9863687836117994,13.631023555362368,2.793478330069594,-4.263440559635895,-2.7664523408780415,-4.606221788604858,3.270064632737814,8.09228139277354
-172.0,-1.9055443044485258,11.023982188172305,12.929526492621036,-4.540563652907581,-7.459289278483354,11.94720528487713,-0.1601982662841861,-4.695015708959923,2.8770924238053293,-5.045475695146538,1.8008081180752766,3.0800160110716117
-171.0,-7.803239493990711,-4.359624550138129,3.443614943852797,6.030771706555494,-5.582099856989691,-0.4871286152906631,-4.956423395588059,-1.1094034661275183,-1.2574664714636388,-2.3294646930324077,1.360557492055975,-1.7919012038011966
-170.0,5.448485271151731,10.577080173366268,5.128594902214573,-7.974655186938389,0.1280284607055251,7.824374428747103,-1.3797159179243492,5.534872584893677,5.228503399747126,7.8287334754424664,10.209326966837153,7.63780169273694
-169.0,1.573502803946432,14.761459632853462,13.187956828906934,-8.199124004052315,-5.834122519569571,14.025233850120248,6.934798421628082,4.407863883643251,10.525611895759816,17.425736592604494,8.05167885683301,9.697934298449315
-168.0,-0.9813672626174257,-12.493798444612686,-11.512431181995447,6.7128784161537824,5.3206621617286025,-12.031661346494518,-0.8857712417865966,0.15483041323204372,-5.165484244412711,-1.1267266778302165,-13.456718200988647,-12.427468326400808
-167.0,-2.2417302257034986,-19.6729294244585,-17.431199198755298,11.016080085598151,7.572193128278702,-18.581237239964622,-1.2298751480234307,-0.9500537512966569,-3.1018775623602597,-7.160504752912921,-7.562233243819456,-10.694016793679483
-166.0,20.36200135381529,3.5072747661971846,-16.854726587618423,-11.951787008222805,18.585177498367507,-6.624820495627347,0.368679965370432,0.1396050810683061,0.7782906515538162,-7.100774871349941,-0.5063908507960528,2.2179923777238013
-165.0,-10.946049769756055,-13.528083983364466,-2.5820342136085968,12.221489225469359,-4.206374721008461,-8.006992193983695,4.5434200662266555,0.5270978239918919,-3.6097540036153006,-13.29216852818774,-3.908794833899517,-2.965226025829196
-164.0,-3.554705405015511,1.218570292801307,4.77327569781689,1.1532059440819025,-4.109954631528276,2.9636576734219378,-2.8828106828673175,-0.03353792358914198,-5.699501810472703,-6.698742174820946,-3.2321179365619903,-3.0916616666006407
-163.0,-3.9917275665095593,14.843815027622142,18.835542594131976,-5.362221864040899,-11.437038441049953,16.804424348904753,-7.08465905737077,1.7293068895946309,5.277452686799881,13.717321044363008,8.10645692057286,8.360975354606614
-162.0,-23.654901104226504,-10.106773182573958,13.548127921652817,16.864785832703625,-18.543506968324294,1.6808734065376392,0.524149103847261,-6.368772761725253,0.8151675314074516,10.781377576221447,6.627060233459371,4.4173213047698505
-161.0,2.1741877006951658,5.72884557660829,3.5546578759132625,-3.970116646447448,-0.7084801460442502,4.675298815238473,4.81425905534144,-1.8452521794544632,1.006654033658071,7.615527516442537,4.8227328631469515,3.757657992405543
-160.0,9.258886874455643,10.652893230057684,1.3940063556020186,-9.978512362260856,3.914404546889034,6.052123685952575,11.793716659705506,-1.1526006341196187,1.6355579700718474,0.5651344184171152,1.741097480930788,3.050420773859663
-159.0,27.43838005636864,17.142658715899564,-10.295721340469163,-22.318054994764044,18.84523864171141,3.449214018525227,-15.541919361109578,1.288580866222516,-1.7545962760351395,-5.99587010168445,0.13431356164401187,-0.406648120941117
-158.0,19.7700289911027,8.00491665832609,-11.765112332776692,-13.840919739010246,15.737692312958167,-1.9332331766991775,-0.853646900337961,8.33381760696073,3.9236619380633666,-4.439647266105174,-1.8313175642726378,-2.0765038311231203
-157.0,-8.841537198060529,-13.254966131901536,-4.413428933841098,11.091643283992699,-2.1760560888164626,-8.805900026451845,5.920025384770141,5.968840939126673,6.168792361299705,1.0327512764271196,-1.3028665080303385,-1.9428108544059972
-156.0,-18.335809902975257,-19.127867911445634,-0.7920580084704323,18.69563724842854,-8.744657399664856,-10.005671766854421,2.776925831223291,0.035325344880951404,-0.9376394883992109,-3.1968912756596066,-7.598898556500164,-6.4869807228439695
-155.0,-17.800900690736032,-13.812084106012884,3.9888165847230868,15.771882738608971,-10.953693788832268,-4.873078529016722,-7.750675809837109,-9.383141674255612,-5.234930809551704,-3.2823722859337874,-8.888415943055731,-6.1245259099956595
-154.0,-11.171144600796177,-17.253968624489037,-6.082824023692931,14.260210734769345,-2.5253468798562686,-11.625100301993113,-10.608903890343502,-8.574835595527986,-15.713155802361555,-9.053523838519975,-9.364520772183653,-5.904129310196711
-153.0,7.948728342209374,19.00586348957341,11.057135147363935,-13.503859758465975,-1.5292098790617947,14.998594447672593,8.869533815144539,2.6891979170563705,5.341712176945887,9.492123025654427,9.488979426364109,7.18283245770287
-152.0,21.277802152661955,25.418570785825533,4.140768633163517,-23.370270410862535,8.60583736591187,14.746314521850874,7.105130217587707,4.514631551536839,0.7470119843960494,2.8837718891749677,11.794473471020222,10.576435923665759
-151.0,-2.4167232455331806,-7.018121294875359,-4.601398049342177,4.777431825133149,1.0661446280727773,-5.846370331708256,0.6962344083805241,-0.17825513129271364,-3.1237373379789775,-6.994484667572932,1.3966391773548068,-5.07638349155201
-150.0,-11.085369679967956,-4.583101021484602,6.502268658483452,7.81674132378811,-8.806323850477474,0.9968238854201479,9.26545240924412,2.1929601096866773,13.24141028124072,12.127420320632694,5.5830112686752615,3.1840141270568703
-149.0,1.013515799467019,4.577770338813021,3.5642545393461953,-2.8146330558055688,-1.2799972526246055,4.1032557907367835,2.858393463771142,0.2339055618284327,5.015796147562278,9.064750682099419,4.402568023268069,6.204689427959261
-148.0,8.309598815545561,7.454571697406976,-0.8550271181384115,-7.905412504689059,4.5771175340223795,3.328028022423535,-16.019287404133486,0.9013352952429141,-3.9733112035503524,-3.537520660541798,-3.448424684187369,4.180186104074915
-147.0,2.9886652483490987,-8.87343122033913,-11.862096468688161,2.991215778743953,7.411087680999712,-10.421108728371639,-5.973162811444267,-3.307342844718982,-0.567167615916043,-7.139600186845206,-7.420665526224146,-10.632439050683018
-146.0,8.562024680924313,5.344252586341312,-3.217772094583113,-6.9906987947710375,5.8605058995408665,1.0861587718109265,3.5624703196989165,2.222429467479222,4.369544234589956,-2.58683030103467,-2.107071168508085,1.3231362380275042
-145.0,-2.048144645793128,-0.4387577162797225,1.6093869295131253,1.277462996709749,-1.7961931625716847,0.6050504609800993,1.9015066450467768,1.5600279858241837,-0.06709809778888398,-2.7759291674568134,-2.560103871928206,-1.2853735266803743
-144.0,-6.301609625563845,-10.73487567014171,-4.433266044578182,8.468221593070615,-0.9154226863921371,-7.647521173178767,-3.11123278044432,3.6484821911163667,-12.023520522792785,-4.567126325472517,-2.700827600540217,-1.3912521306458911
-143.0,-13.093208061295655,-7.235478570934669,5.857729490360827,10.190614538543663,-9.464161210779693,-0.6787568674486846,-3.5662582098293427,-3.2301125617645674,-10.427971533515112,-2.597814059548223,0.056874959238392364,-9.411001315262949
-142.0,-11.901559629430498,1.6149135779660566,13.516473207396656,5.170075812068911,-12.697629052125489,7.571496862101868,-0.8534262963092702,-9.93875661687187,-4.955594499602088,6.015147914105909,-2.4121900656279127,0.6327117648089148
-141.0,3.421615411233974,6.1902297745601915,2.7686143633265266,-4.776518338026992,0.34419116486155144,4.4839464911422064,6.651616111232123,-5.412474113552559,9.190231272921393,3.9635316609225892,0.8475838866156975,4.234268932732802
-140.0,0.4258367122435054,-13.791789114520498,-14.217625826763655,6.637114333161612,7.2702011872932,-13.996634966204804,17.10479165691817,5.18094127262786,10.977427150929564,0.04156476333446335,2.390981668341681,-1.655383054711379
-139.0,10.831691231853988,-0.21657515570137842,-11.048266387555175,-5.350380643441445,10.897737403159947,-5.615443506206848,-1.1748218326069493,5.745398499087067,9.118524468724125,-2.6095744464342,6.300660884767463,3.597784104587939
-138.0,16.742314518721304,19.08547131002768,2.3431567913063818,-17.87599327192509,7.242343600096313,10.744390891417718,-4.337099205568693,10.279757979066806,6.405649297116095,5.252312166451057,6.646693596442788,9.30758554603397
-137.0,16.96090901833433,24.45543198881549,7.494522970480993,-20.747923736007202,4.7777040416336725,15.940995355034428,-9.210682708217663,1.9905475755130526,-9.02295487883997,1.3764935883507101,1.8893116204747762,3.3225992090483807
-136.0,-12.01758040789274,-6.7174508630738465,5.300129544818635,9.407347667476778,-8.695924086302051,-0.7295658277343549,-0.8326136489316838,1.366890908423907,-9.893318236985039,1.0224330600409188,-3.6866764369525096,-2.135681605223288
-135.0,-14.78229764652468,-0.4348988167118808,14.347398829812596,7.64936393485143,-14.608225653886509,6.944043869785351,-10.663650246228553,-12.407257354892025,2.2109754329585956,6.527382770239963,-2.4206536036169837,-0.9371376600700545
-134.0,-9.568628659898764,-14.757887352152451,-5.189258692253806,12.125925837773806,-2.162281267203836,-9.983007102312278,-1.8674532209268877,-12.47896164608093,-1.0365788567087808,-4.503060497723301,-5.200761931557396,-5.111486202363574
-133.0,-2.3731508601328457,-13.054670307390762,-10.681519447257902,7.754633395228973,4.173884053768637,-11.802033458987093,7.521010796580124,4.081626269911461,-6.626442788927371,-11.409338060740222,1.192640157246684,-4.381443141503497
-132.0,-3.034040679902985,-10.929087873550444,-7.895047193647308,6.940352158789441,2.4441503903081134,-9.432908341270508,5.41797226594065,3.5222292119379466,-3.2945068440206784,-11.813736242279283,-5.807257545900563,-2.989874520257503
-131.0,-1.368931439023347,-2.8114153069097534,-1.4424838678862466,2.0428803403960982,0.0464869437316584,-2.1588788705324666,6.592533900431215,6.363035863811852,10.40695685599076,3.677134838271402,0.32238006749522813,1.7925726825843866
-130.0,14.808275386183729,10.989296586390914,-3.818978799792629,-12.875463291448284,9.321190554247009,3.6203694863925255,9.154938872041935,8.461816635469361,6.522436961099997,6.774581106272145,-0.5820877754632865,-2.953726870800602
-129.0,19.242358264093447,28.762587114279462,9.520228850186196,-23.987387959106908,4.788983080536681,19.088218546030085,-6.588394825235008,1.841554666091887,2.886971279400786,15.988495214570147,7.192451852008249,5.157758419836492
-128.0,-5.591358770365716,-2.8660875000872608,2.725271270278534,4.2377669285535475,-4.151387563524613,-0.05048454864241059,-10.609977633524357,-10.625081975852734,-4.602866445412279,2.75094316301967,-0.33415423952941836,4.178698263549966
-127.0,-11.34593379062943,-12.771764199340724,-1.4258304087113354,12.065733491111775,-4.951120017138605,-7.079461373519775,-7.6131712033008725,-8.133890286031736,-8.645269724982887,-7.333854335679863,-0.37536792155411414,-0.35711234372199296
-126.0,-15.979036366299928,-17.947196995452547,-1.9681606291527132,16.9721061723612,-6.991828160588431,-9.93432043454241,8.727548419987155,-3.484309607465536,-2.8273522386890613,-11.16578612920416,-2.0755609961624617,-5.467877257337207
-125.0,-13.284365585217335,-9.768857986878647,3.515507598338642,11.540948617748047,-8.378434702052846,-3.096600385670273,4.3119016833172905,3.3432034949628475,-2.5025779454777592,-11.008456807342586,-2.5631923076859913,-0.6424876467505873
-124.0,18.559251228886136,30.31329826189534,11.75404703300921,-24.494041134039037,3.4347565703002587,20.99166870217754,-7.2106536744038285,9.989960738015794,6.332102256799873,6.214895959383305,8.139085499152378,10.237788725961618
-123.0,13.976854193099188,17.49673356680021,3.5198793737010425,-15.709905794951563,5.1937858651196835,10.470498817546444,-3.863051642906444,6.350278598562438,9.245790723959223,11.531395301953712,2.337120853620261,0.812486620477586
-122.0,11.76658776906304,-0.5400552605790763,-12.306643029642093,-5.582548557554422,12.012984671478568,-6.460500262983317,3.2345895504721422,-3.013526866081225,7.226100190678391,14.142713781194939,-1.9123265240434655,-6.327563982096345
-121.0,-19.393875657166063,-20.65927640515914,-1.2654007479930716,19.980178045065802,-9.079452054965412,-10.922948442544572,5.884304999334303,-7.788411542753876,-6.536093881384643,-0.7413750137023705,0.5395095372590779,-2.1274066430575007
-120.0,-11.040716352112335,-18.983634018891006,-7.9429176667786425,14.966336006587095,-1.5593916315818173,-13.427055581938488,-0.0934362877086361,-6.812378338239224,-16.72726268526618,-14.880917272483744,-13.494125551864595,-4.054489764990401
-119.0,23.692336772330535,11.501567873644525,-12.190768898685961,-17.562717308942677,18.010662021976763,-0.31040163884697947,7.960967950629544,7.8064897047062285,6.801531616602427,-4.802138905239838,3.6669991658732766,1.7508961862522656
-118.0,9.16669949919165,13.903315744221654,4.736616245030061,-11.497084803376179,2.202763396318661,9.275958298145705,1.158639759495745,4.19747138898965,6.75169456929695,-2.789665255317747,5.994956020070894,10.197705901638457
-117.0,-10.624794268386374,-2.0582934974716602,8.56650077091478,6.385876224328177,-9.613440574799863,3.21355741486859,-8.37969088959052,3.3017720074497645,-1.9384374372741924,-1.9681373504803104,-1.323782649751239,-3.327827448391841
-116.0,-8.629620631141009,-2.9683055859478418,5.661315045193167,5.772358745447081,-7.170928666319167,1.3904736768795107,-12.192089126130364,-3.655526097764027,-12.08018564896409,1.6437335841535,-1.9706252656012149,-8.268121559836954
-115.0,-20.092806531009476,-4.040577103256596,16.052229427752785,12.046790877879776,-18.028156835542642,5.977791573683287,-0.4210249935273538,-3.1362218677399216,-0.027217800124819114,10.981755981103184,3.0516753515889814,2.396074555836301
-114.0,3.355471304896522,0.5061127584853422,-2.8493585464113105,-1.9476175187417573,3.0589389953842456,-1.1149537812829542,6.679503694007751,-1.2860318223184435,24.80331695423761,15.423624079507023,5.424386430426993,5.557444425014795
-113.0,2.75542235680879,2.1465175971718127,-0.6089047596370738,-2.4696175596600582,1.709414431720297,0.7499834028461958,9.570960650683901,-3.0208084242715447,10.155746903000832,-1.735447713422329,0.6725139877171431,6.727032850513583
-112.0,8.07656558974763,-18.284358049218394,-26.360923638966067,5.079154800472275,17.240188212990446,-22.342442202067723,6.456262931168918,-3.875263968233646,-29.483178576612346,-29.770728585554306,-18.118087555752986,-17.955552867893303
-111.0,9.400328927832266,0.7047127206071528,-8.695616207225092,-5.006621047317164,8.987929550012746,-4.021069304160702,-5.710315327383444,7.418435897078931,-10.296300097955243,-3.371988529674921,4.912006272634161,0.5940547978304824
-110.0,-6.961588771690785,7.301303629121221,14.262892400812028,-0.13118036481672135,-10.59286009656036,10.825304191597496,-10.905988976937977,-1.8083963765685303,2.434490648115993,4.228615374240613,0.2822968418520061,3.630822731013453
-109.0,16.407472404587555,20.276056760111253,3.8685843555237476,-18.3858004460866,6.292541351877852,12.024751468117156,-10.724671486765999,5.985435504633108,12.43777852483215,13.790552300985494,10.713595859529509,5.691109030483666
-108.0,-14.130043966357938,5.241532665223306,19.3715766315813,4.479306410911056,-16.72211331203957,12.326372090826816,3.5471906947431844,0.48277272471910804,6.681031734773508,15.880856130596545,9.261692548295837,7.169065894525922
-107.0,8.529339601430317,4.092786317260295,-4.436553284170003,-6.350600951751465,6.438591983356909,-0.16011150718945721,8.581844074204367,0.3009675007521014,5.139967543063861,2.689282565867998,-6.326268013575704,-1.6496369321301936
-106.0,10.632212800126485,-5.172932694027948,-15.805145494154472,-2.684056671115517,13.256978791341648,-10.480319435279258,7.368286150861021,-0.2712192702027698,-14.687255292536381,-26.54802303959025,-14.066076271868958,-6.462769452328927
-105.0,-13.488489048379533,-7.643720327486559,5.844768720892838,10.539459360970366,-9.706258697339116,-0.888685677419577,10.670137128064239,-0.26990919949812486,4.423802411950626,-0.7282172407018912,5.109329148281934,0.7262131151327376
-104.0,-17.390421075840862,-17.35284632885635,0.037574746984331275,17.34989923231211,-8.75600706666301,-8.6410754039299,-0.2555259720823564,-4.454572662066981,-0.018592486784059226,-2.531197764503122,-2.4115469677130634,-3.9791628049444077
-103.0,-9.805996704521645,-16.19651057723278,-6.390513872711293,12.981897978840308,-1.6754415622648446,-11.348634162195996,-5.347628343612404,-3.7758538276446894,-2.822948608634095,-4.4955011925872475,-7.501300480873571,-8.362688160058417
-102.0,5.789416897759626,-0.12830132649612214,-5.917718224255852,-2.771257266087031,5.881247502300026,-2.9934880806518187,-16.720650762017332,0.7064603125722637,-6.176241333585638,2.900785401090159,-2.0272692931079264,-0.5498150962406383
-101.0,5.702769147151222,15.186654675762307,9.483885528611044,-10.465946545383655,-1.865906472882655,12.289068658744107,0.7572367067457586,0.4923642714251586,6.963233339775489,17.660378297389624,15.409126608448528,10.424946342085844
-100.0,13.75661151112031,26.34445827622821,12.587846765107875,-20.07420521540317,0.5297578165278962,19.498392043899408,-3.555079784419563,2.611182934631516,9.319346711912575,19.238211728395385,16.604092973368044,15.255181439324112
-99.0,18.150450401780105,4.995272295495047,-13.155178106285081,-11.519984768020953,15.67866976611105,-4.050666233875672,-4.22405440259562,-1.8510225922228964,-6.048546020873485,-8.853135749193683,-1.0759001333084823,-2.290932654580434
-98.0,-1.5422017858790174,-5.094850826022271,-3.552649040143265,3.291180486010136,1.0338702260495838,-4.377386484075453,4.331185281803695,0.38124493356807454,-8.766891388883863,-18.68832968034889,-13.67297739165526,-7.04804684921423
-97.0,-23.55461781386078,-18.624124498393865,4.930493315466849,21.061379649284117,-14.29040019999955,-6.825503513853472,16.730078321692428,7.228744561240539,5.405195544829334,-10.085029707316501,-13.296706110508868,-10.61444442406923
-96.0,-1.8488194937429192,-2.1699272091550768,-0.32110771541229777,2.060138427398954,-0.7325297861469968,-1.2263842371269877,7.44737338733528,4.656285825604458,2.18674359153596,-2.789541877179791,-3.9919447122290306,-3.2787490100705377
-95.0,5.031423887867182,8.565220004826715,3.5337961169594,-6.82591138616435,0.6995426322883533,6.068657908632616,-0.43225545668820864,1.282720537458189,6.958360807760368,8.977228636251107,7.342915521210826,7.149886767729107
-94.0,-8.746513104557586,-5.932560650844544,2.8139524537130063,7.312527120406459,-5.75416243807941,-1.6168709002642605,-8.589729818287479,-13.088352353197017,-5.410970729732394,7.257432475793391,2.985704925474918,3.0721636159668413
-93.0,-4.0983037396044875,-11.199572610078045,-7.1012688704735005,7.701365073183396,1.5242364304680893,-9.125927651635973,-13.042861761594299,-11.411816761638434,-14.552837000234835,0.4095485732262061,-2.8202028055267334,-8.267602378177124
-92.0,9.171992392588836,7.6790541808755375,-1.4929382117131946,-8.451021563917871,5.275252044183434,3.1211704766736967,1.1825702034236594,4.3089671184893135,10.351654028939022,6.6986768953224765,12.230663824111582,7.482581172179307
-91.0,13.33852654882832,11.08820732188773,-2.2503192269404995,-12.237839974065361,7.81840289973636,4.3713697799049,0.20185699035509952,10.998834119569853,8.992930654103109,-1.6370180730782722,9.371936790003085,7.445030703588937
-90.0,-6.072031383887715,-3.058288400787079,3.013742983100655,4.620672511016243,-4.5124438519054895,0.010878085034997653,2.7711079069110145,-0.3074524317660501,-5.064766907076384,-6.224344310453156,-8.443679388668176,-2.927263219125358
-89.0,-1.405445357723469,10.466742482809728,11.872187840533181,-4.55252786326941,-6.599139244101595,11.124643194162864,2.663996873981631,2.9419968983411198,-5.736592847660008,-4.303665141795756,-7.695308273974321,-1.1781330938861698
-88.0,-6.506156744829578,-10.235448608269007,-3.7292918634394354,8.350226633203107,-1.4181322353472274,-6.948632688116857,6.429633423212365,-1.6358144824822833,-3.018493925123654,-2.6063720449038854,-10.776539979794924,-9.620809078584408
-87.0,-4.870121647718285,-6.801846567056888,-1.9317249193386345,5.816421150268955,-1.4924804391166004,-4.33384284025762,1.614527175702038,-2.268928922424671,2.1033359920160652,-0.4932873091667491,-0.6540853829580815,0.25421268265735364
-86.0,11.564532863166608,2.1090301159299925,-9.455502747236626,-6.777180261036828,10.487911368752211,-3.720132175883819,-4.445919559219008,-2.393265712802418,7.1181226200211904,5.321202069355702,5.877330284569639,4.379625542757431
-85.0,10.476675168852285,0.09060597994149688,-10.38606918891079,-5.303424268698752,10.404718429513034,-5.117041423302368,-3.156690035634999,0.0019364743286338637,0.466385021008231,-1.388580815489025,5.525579330547883,-1.9335559434381682
-84.0,-0.2123529326938307,3.9880106302796694,4.200363562973535,-1.9098988499230485,-2.1629770590318493,4.045114271375308,4.928827337898685,9.909863472666089,1.2046469448578314,3.077189210373926,9.30723294735601,7.110409820118999
-83.0,-16.48071423567291,-2.819355824605207,13.66135841106781,9.702187112247467,-15.037547783559056,5.450142963296304,-4.259166238024887,-3.533598027287134,-0.7205533371634704,3.3163789541721616,0.17940775523916086,-0.6086635305714565
-82.0,-1.9716988212847983,1.6092223066229527,3.5809211279078896,0.14761963229973318,-2.8292886786297977,2.6245555089347476,-6.801648506176191,-6.6699486607795775,-3.1049265301767495,7.61790436284198,-3.378334841203454,0.06652029522125008
-81.0,-1.9711457704891515,7.145624982802147,9.11677075329139,-2.6299463460192323,-5.521073368485409,8.083496893849652,-1.695547103882387,-1.959917669598984,4.898885169536009,8.008316745147154,1.8175377146706229,4.6565209900435365
-80.0,4.7474465842489595,3.71321218536397,-1.0342343988850182,-4.204206457824606,2.916899053313143,1.3734834481861562,4.029880825576587,-0.6965342008607445,-8.437641027926308,-13.355582428155975,-7.035499563967437,-3.841200995442118
-79.0,0.5199826785759027,-11.75280199394301,-12.272784672519027,5.633605566515678,6.352445170570755,-12.053341459983647,1.532919109136357,-0.9254391700190743,-8.283569477331545,-22.48857392716719,-12.949300687703696,-11.241079702741514
-78.0,4.45517929585931,-6.8065288213591035,-11.26170811721854,1.1868385595968358,7.9055646725084525,-8.990895627413277,8.231424110673881,6.60611577188196,5.573958982586936,-2.9996087303780037,1.4707976071539655,-3.100635682304387
-77.0,-4.605600900786898,-6.115676533921692,-1.5100756331348668,5.3700861515689375,-1.5665228080216425,-3.843361074613766,2.270968551290632,0.302482619800744,2.7040421440456144,0.6405189072529511,1.5202714222675298,0.006709438218980901
-76.0,-4.4528060905242395,5.597575053538843,10.050381144063014,-0.6385164329203066,-7.260061521874248,7.876266462673444,-3.3990500467899656,-0.9206092644484349,4.618540323183455,14.794237339648284,4.911783442266325,4.609374066621429
-75.0,10.90075669919446,2.5510930506264384,-8.349663648568082,-6.705681189482236,9.622071473854128,-2.923744068895389,-4.516384545819733,3.1349208009496285,-1.6345359187678548,11.202997451302998,5.657219945339515,5.9800983873644515
-74.0,-4.43544097822368,4.07046284250371,8.505903820727406,0.2133467784958034,-6.474403547574563,6.263185661139083,1.8900037062132773,3.885511590830909,10.288373114906529,14.428038547969301,12.716991968189042,8.738130539792948
-73.0,1.5415017830539322,15.373135993153001,13.831634210099239,-8.415249272910286,-6.1546022849253,14.57465835570013,0.6930587232412555,-2.619135482874277,-6.310650794220713,-4.78697943356331,-1.4397485420896228,3.9253936201809996
-72.0,22.411343727428296,7.620511741799872,-14.790831985628127,-15.0436757222023,18.582611402170187,-3.5377726604766377,-7.483640216406414,-4.371637115599484,-7.505685196040206,-16.369566744478224,-9.181004188399971,-4.092172794175936
-71.0,-15.319989752797763,-8.483026375474573,6.836963377323414,11.877903223125667,-11.027593788347296,-0.8571350449491364,-1.5293707507594485,-6.481005809389741,3.1300858303674017,-8.589480355194219,-5.680599024770457,-6.143626558052052
-70.0,-14.860971532256848,-17.076185813350087,-2.215214281093287,15.94318956421085,-6.358252598258162,-9.601319237837702,3.9359472089240435,0.5480477902216858,1.3317402358560895,-1.7096807612369798,-5.33923485708763,-12.05163301186504
-69.0,-6.373191662476737,-9.372564825200874,-2.999373162724255,7.840614132660666,-1.6479565744162183,-6.217484588627156,6.317416284821616,4.326451214504467,2.7526083997437345,3.677938643984126,4.227658442288032,0.30156052582567483
-68.0,1.3974562654480067,3.720372360528887,2.322916095080794,-2.521820770282347,-0.42531965636874436,3.0742076572449193,-1.203568894330167,2.124443117046456,-4.732430375776869,10.59537643639314,7.663195199194567,6.812897022591624
-67.0,4.0214730733170665,-2.57037233557848,-6.591845408895656,-0.6971094250939758,5.265449497865074,-4.601224750836952,-2.1040584554957693,1.612236122364033,-5.678666909340484,1.348620938792437,-0.8887896289515931,-0.5034683876882662
-66.0,12.75844924497559,12.985206223337928,0.22675697836218078,-12.848700089303293,6.225100412115603,6.590560273448418,3.8739672891538035,-1.076486366289274,2.69374772972024,-2.16524788571624,-4.629253388090495,4.0290944315556665
-65.0,1.5299165231328562,1.282068351944032,-0.24784817118893981,-1.3838206520158849,0.8483193429505951,0.5034404102907475,-3.685224178451808,-2.898073716919805,1.1506945099216668,-7.935331597181479,-7.119032913501268,0.35415880789850007
-64.0,-6.468739789195862,2.9470102606510613,9.415750049846919,1.7070473918604367,-7.903780324265725,6.166233670450583,-0.47770272835211114,1.9424278510590025,4.040296422759952,-5.19446371507751,2.417978616550486,-2.323004129281491
-63.0,7.90211530571581,5.4056897923932805,-2.4964255133223574,-6.702887410845234,5.238970761266859,1.435918407195992,-5.834108525112273,1.6686351677825626,-0.8914497442615521,2.426623540359503,4.954722900458185,2.459613758867098
-62.0,-7.221030138266849,-4.318031437295483,2.902998700971626,5.804407578381136,-5.019655281530833,-0.6511282271800725,1.7873258987250615,1.4603492164124585,0.9468341413295152,9.828465408265403,5.929291415399584,4.63714218694927
-61.0,-1.4630725355570693,-10.98447978615005,-9.521407250592748,6.262652721239375,3.9963438665483273,-10.27714090966859,-2.137245711269495,-7.197566187746178,-2.0515794077850793,2.278846318141552,-4.120856200393996,-11.825076682032044
-60.0,4.260710201518879,3.396443806476455,-0.8642663950423617,-3.8664349606491806,2.532794813927928,1.3214762984154858,9.254885128756138,3.166468330920575,4.316758850254898,3.7730265535075223,2.131979482903167,1.6773495287932167
-59.0,-6.365352048442839,0.4958780407858787,6.8612300892286004,2.975219078269943,-6.641742225424412,3.6581449318241184,6.96375150509075,0.7761511172805026,4.962604236910587,-2.421984460544635,4.164029410015879,3.928304721015025
-58.0,-16.55264482764025,-9.918742442991814,6.633902384648179,13.194541750750256,-11.544396855033646,-1.6593669248745941,-3.6294129153401515,-1.7346183774530022,-3.0957815258623067,-3.849021932030743,0.821757849573197,2.515071063799669
-57.0,12.875856336830664,-0.08696554757506902,-12.962821884406036,-6.361797892070188,12.885657008421628,-6.539668023428679,-4.787713316968675,1.3348345711764718,-10.077902065222775,-8.061617974900226,-10.232562639264808,-1.2833310324466294
-56.0,15.16729243429458,16.719909295427996,1.5526168611331608,-15.995810848039477,6.847429315990245,9.121282025302213,-4.852498742702981,3.872222652472051,-2.924863985225084,-0.9987461718205077,-2.685483277277597,-1.5976125593987738
-55.0,2.1533591671613346,11.002323340312238,8.84896417315075,-6.5572724225869825,-3.390883246184999,9.908149071304447,-7.53297814935302,-1.6276780475063888,-3.30434462187708,2.0092855589873717,-1.1818225667687363,-0.03978884673375771
-54.0,0.4438535762023377,-10.095827996192172,-10.539681572394448,4.842061088731487,5.525231294789603,-10.260273762062383,6.245829169165568,-4.637084630633135,5.200468589328859,-0.637115127083089,-3.9765026590677266,-4.068976499281863
-53.0,-7.670512112253007,-5.405157320524414,2.2653547917288237,6.551838716375642,-5.012155407173778,-1.594835279635661,11.770202035196656,4.09863977297802,14.765338095026605,12.145111606860974,9.141421224584658,3.284154468658702
-52.0,-25.914643574493702,-19.648631280655778,6.2660122938382825,22.796251421029748,-16.051458888792236,-6.640042131698386,5.396645471858118,-4.559420825550678,0.9236578407932505,-0.3532501140927158,5.01985732983595,0.2659347300661765
-51.0,24.3909750370835,16.867567361156638,-7.523407675926472,-20.690549290982684,16.00246311657868,4.643478569099863,-9.952960954473799,5.972938238115516,-4.326142621553765,-6.579736818286794,3.3308992560657518,3.417047837635185
-50.0,15.742780755362045,16.126122163848336,0.383341408486662,-15.912718193083853,7.652530025440346,8.226196457713694,-10.902320855304017,-2.2081185217598818,-9.474584950214364,-3.861835284999464,-1.1818364994917199,0.03697985967540052
-49.0,-6.789933436560341,0.8738125436756459,7.6637459802360945,2.984528639109792,-7.250251273684887,4.2410690969575136,-1.6636738243004037,-5.016351442313729,-0.9498981194163054,0.21681680570735384,-2.358084323202309,0.5641570571950416
-48.0,-13.765012611390294,-6.515332244060029,7.249680367329959,10.092285819095412,-10.53114768349332,0.4194616195694043,-1.2746045425046073,0.8309680035259679,2.068625603948724,7.226191293965102,0.1810135587489312,1.8599029646769814
-47.0,-18.76346294209095,-27.991968567524808,-9.228505625434469,23.41200071145881,-4.796076452304187,-18.63530383166598,12.146112697463005,3.6686525932640888,0.9124674590727905,0.8052651487263338,-5.583951068358706,-7.930174880823196
-46.0,3.6878319832698434,-6.123914329063002,-9.811746312333273,1.2543435681670303,6.791908797207789,-7.913007244947064,9.18404834549672,1.4849474076360658,1.880427903411277,-3.110739500745428,-11.593111738080317,-6.483241724749061
-45.0,2.604466447954212,1.0482748050506403,-1.5561916429036753,-1.8683478335048693,2.1130831631753386,-0.2775972591874578,-2.15769095461323,1.6897027434181515,-5.20792254297344,-10.024587100280879,-0.30394877720411406,-2.4544369886252007
-44.0,18.243205318548867,21.97249041581006,3.7292850972614864,-20.15061579393846,7.28074903902197,12.826126749802711,-2.620506651143385,-1.6992286508161132,1.7881338463474021,-0.15767813032582412,9.495165268614985,6.758240544363962
-43.0,11.519866980540927,19.857605851757157,8.337738871216859,-15.65403551413911,1.5285184166017731,14.070253431141914,-4.282624071884435,1.3740584408536962,6.503667090424234,4.8206332969955135,9.654064797612497,7.844868804223712
-42.0,9.61966465875183,7.322856326007484,-2.296808332743753,-8.43726225325836,5.968433033387845,2.5607243597314833,-7.641801475810938,-1.0529907499253977,5.757591654081811,10.50857022251586,4.022613553080475,6.060392093810605
-41.0,-10.150519254133876,-1.079790110953686,9.070729143180584,5.571246234497904,-9.605102228346228,3.960963716724232,0.6461846973074596,-4.451526926559508,2.3704211906078787,7.245116460523775,3.6315737115365763,1.3539140112166401
-40.0,-25.64800316380418,-17.28544817512198,8.36255498868221,21.504427197123615,-17.003393763555525,-4.419174045429417,9.571377285008708,-1.4692996490031047,-4.349348193348096,3.5686571260197475,-3.905031950552433,-0.9912252191238193
-39.0,5.752285596497154,1.5091964608694912,-4.2430891356279545,-3.667127200074903,4.996859397718277,-1.4029434385203725,2.5848171051191944,3.8325859587723787,-3.773728186377202,-7.335021818310522,-6.42628570785421,-3.5355163462293766
-38.0,5.110652702008583,-16.356118733461226,-21.466771435470353,5.670736891851041,13.286221906062565,-18.8654872916943,-5.27675729140983,6.673356681494017,-8.050302891614306,-11.639569178710843,-1.8856727954787793,-4.407868307841754
-37.0,5.071045714986612,-16.73685931759001,-21.807905032577246,5.80762949245366,13.436681535064327,-19.299751198295642,-9.567341029362373,-6.432807639381725,-18.953748520529842,-24.295131367486817,-13.375503330463816,-11.010279475343497
-36.0,-0.8469137023726487,0.8057689398886321,1.652682642260828,-0.0004917273368276742,-1.251202891754719,1.208371242823203,2.730600334835172,-8.089453340938604,-2.1457138353093965,-10.58181939896167,-13.544982671712889,-11.886826485805203
-35.0,-7.657898496743549,5.785195973231433,13.443094469974874,0.9175552125212239,-10.54866707618686,9.59941486951146,0.4384504258778825,-1.9360817731441389,13.363231859457976,14.373665806299472,5.255213660652856,-0.11448335028579648
-34.0,-8.598476221340784,15.943516296202663,24.541992517543683,-3.6124239158550084,-16.563550531462898,20.310913602365837,4.011222782452099,10.253335218386747,25.797021187949507,36.54731187551939,21.704323292697765,18.94169128490847
-33.0,-4.76921246369587,9.915491368605924,14.684703832302393,-2.5935738932834305,-9.714474734805963,12.290174932679923,2.6261944094221827,-1.0820334437085268,13.124471309338174,22.382358246430172,17.916163551572716,13.566062021201047
-32.0,11.13766760850073,4.054750339816433,-7.082917268683588,-7.619977285395512,9.12854022354524,-1.5278670971719013,6.726243845183842,7.241509446477429,-3.39679298373005,-6.711638491063999,2.2785277276282523,3.5146034167445315
-31.0,18.741063552442387,13.629160875569076,-5.111902676872721,-16.134621280982305,11.870791137533978,4.236275717993987,2.400116301198382,1.6334163132441315,-7.968920098638934,-17.228698750607553,-1.8538571978422669,4.667524264144363
-30.0,6.967994980353403,0.1126778855947137,-6.855317094758458,-3.5738301037620364,6.938141988796547,-3.405903073732757,-0.5344105984829728,0.7971508171504829,-16.667944184579163,-19.57194220451542,-13.572665140644842,-6.605908209021166
-29.0,-6.974516382458128,-15.711274981368359,-8.736758598910471,11.303899181278082,0.8311857036451791,-12.1935473975402,-7.1584979603626,-2.0652772344654933,-9.217979668331877,-11.584237819133921,-13.324649284600286,-10.780019837218827
-28.0,-12.661657785801715,-22.357192140077988,-9.69553435427693,17.54393622482417,-1.4522129185929658,-16.00835885554534,-8.773511072474378,-8.57494444121091,-6.341194382705766,-2.6536438944991936,-7.101468146795456,-11.356631089840736
-27.0,-10.033356428864103,-12.058136306442979,-2.024779877579787,11.075752137874236,-3.9709115330413995,-7.032423889068427,-4.155722186225608,-4.738777121737925,-2.1072015098483794,5.390662213442809,-1.9301699110519723,-9.151643333800532
-26.0,-2.889365205392096,1.2300145464304908,4.119379751821879,0.8562460386104593,-3.467746568803845,2.6793098870395435,-0.19867702621911087,-9.21454246465266,-1.5910926583533955,8.81623635412237,-1.811813052692269,1.1796112268886323
-25.0,5.035100771152352,22.139558761054676,17.10445798990229,-13.641585160720881,-6.0733099616321065,19.626371569871452,1.7111289930374758,3.262892658724712,18.77942925603309,19.102552407258692,22.306689264328355,17.222982375039052
-24.0,11.690448857899039,13.313754187360377,1.6233053294619886,-12.556575228019373,4.997877685050419,7.4754079179904025,8.648673578140654,10.069155667110717,27.321079487209467,12.568053564117571,19.52326496362813,16.113895721473142
-23.0,14.282317079689092,-3.5771777941258858,-17.85949487381417,-5.325843714101028,16.03708243352117,-10.786591082265174,11.953491554250437,13.949996352440518,-4.3693611033715865,-16.746112383921616,-11.784488423183422,-8.418170185455175
-22.0,-1.8956103550415886,4.86877935477458,6.764389709816683,-1.4539662105867253,-4.284152325066041,5.830606563924842,-1.9928012126202956,-0.1530635842729433,-3.470440608477115,-9.845585278559575,-11.21242026316918,-4.378331327257074
-21.0,-20.742774806460794,-0.6326969358029442,20.110077870658003,10.729742528033821,-20.380026088453313,9.755724761772992,-8.236938806445194,-7.628551886093303,-9.982263171135877,-3.773969161394022,-6.256814061538447,-3.9912631063111643
-20.0,-12.709756618471394,-23.42547967082585,-10.715723052354496,18.04256021229961,-1.0286011579506606,-17.050940257601543,-1.8012996653772664,-1.0160666702628651,-20.480709025132604,-4.3744844674519605,-6.191549271271226,-5.205804194188242
-19.0,6.612244769015368,-15.345619216848302,-21.95786398586381,4.353238696201593,14.25467306050507,-18.629625953839845,-0.9418999616581232,-3.1126857271554007,-11.86916016904522,-0.08759676168980324,1.7200717978430258,-4.088835976555292
-18.0,13.53541328770009,13.900764515442638,0.3653512277423179,-13.722831167141342,6.63486223824377,7.078660800017921,3.298086159859563,0.2968715421237249,10.910954027038542,9.788533594130067,15.497898071646626,8.909078391629992
-17.0,0.30131801780731315,21.12646667627919,20.82514865847152,-10.715116257319508,-10.289506947718376,21.00186447447745,-3.0725332610143217,-4.3904227193960885,18.089305821428805,11.06976358079509,6.658055658638541,8.200668177549975
-16.0,-5.544491355315759,4.671096657281803,10.215588012597223,0.43287320383407835,-7.9068109003882,7.470236088725121,-7.159514196680233,-0.15650291765106672,2.4609186356898096,-5.562803744348464,-5.355894618170369,-0.7125627548703077
-15.0,1.6255760877326535,-1.3530210090951567,-2.97859709682794,-0.14807943550534897,2.3541960816072187,-2.2177146594975286,1.8732376598456868,2.7674410078619283,-3.9804511786901307,-8.301073332608826,-5.83122786946499,-1.0215673464272577
-14.0,1.2743240690309068,-1.88461328386107,-3.1589373528919467,0.2821271950155526,2.1894707481532167,-2.4953457912820802,2.1284117309355857,2.0743294259590406,5.707357962012903,4.471521178414647,-0.9255762249532227,0.9794925862296675
-13.0,8.218254453143224,-5.9209189833309726,-14.139173436474016,-1.1046154126331627,11.150553673627154,-10.082121983727568,10.753441133921203,-3.776993115152119,0.6786786501856019,3.6513870714943026,-2.310535978883362,-5.812470662847091
-12.0,6.03095653228462,-10.300014934368049,-16.33097146665238,2.1688723317037693,11.23019557933727,-13.286772600859894,-2.2128985328851094,-0.23285709628027507,-9.454335947785044,-6.56648186785449,-1.2580494723590268,-4.095242750134694
-11.0,1.6214592097855414,-7.745398208251175,-9.366857418036238,3.0111538681570633,5.462809993596668,-8.522938423089746,-3.123973438231946,2.8133343554834194,-11.239956246411534,-9.82079825279767,-5.490151115677168,-6.329494759426489
-10.0,-20.257223539073056,-3.1682770995954987,17.088946439478082,11.73755626025507,-18.628434058015277,6.9999682693660645,0.7270193115699959,0.6773099281957388,-1.37511852537774,-4.054528451228221,-6.332273498651603,-6.405669869958469
-9.0,-18.35231721456319,5.975013485580565,24.327330700144095,6.212580841867257,-21.37826825346948,15.118918374370896,1.616538246703351,4.819688039697983,13.02339184558937,11.576689557750328,11.303736332364831,8.721906754789954
-8.0,5.54801160224653,15.480672491381704,9.932660889135272,-10.569107073927967,-2.158510134712996,12.679636832372356,-4.409554767072688,6.141113695950255,13.569009326814705,17.959914476805842,18.3241415810251,14.819717438003
-7.0,5.931166538792917,14.043638202285763,8.112471663492625,-9.963274483246586,-1.1442000244043458,11.053000883854823,-0.2788559202801193,0.5918352953598939,2.552338862615187,8.007274292088981,6.706995745156338,10.685631926183191
-6.0,5.2124341874976485,-13.65598738843378,-18.8684215759319,4.167464534101638,12.055824838878403,-16.288998050363162,-7.580792982461826,-9.269698533207672,-21.175432609490752,-18.827829224319167,-16.17289262421902,-11.761778507618864
-5.0,19.730183938912884,-4.501535863820344,-24.23171980273382,-7.588503936643429,21.987159953670737,-14.319442349597926,8.442331305750805,-3.8404399595509418,-2.3752918677243313,-7.521732819955488,-4.443368573807126,-2.9200340129603193
-4.0,14.662745601545769,14.247691105360463,-0.4150544961857321,-14.42585642547253,7.538807547255685,6.95693145082377,0.057328693543767795,-2.1770990261735954,6.6090248418288455,3.8649603085113737,6.590982937344414,9.709820430954137
-3.0,-11.708656100161003,0.188517954263573,11.897174054424493,5.795558142849583,-11.80437570303658,6.076165069689612,2.4335058124473288,-5.269807580412957,3.980366625732648,-2.0504945036752247,-5.3912865527867435,-7.432839171577897
-2.0,-23.082912971044273,-18.92022093642939,4.1626920346150165,20.966229585302486,-13.619589396215,-7.431514882052805,-0.8239503502454266,-8.110352133085417,-6.445563647373722,-6.822722075722293,-13.516193656178187,-13.124291794118655
-1.0,-21.257383006569565,-20.600595437377315,0.6567875691925318,20.90143313792177,-10.943462729800785,-10.031344992473178,2.1341982230046277,6.0996603412101615,-3.0140422628685366,-4.733986374373882,-8.80802143682894,-12.466837513911555
0.0,8.018928226009047,-5.305205963312182,-13.32413418932088,-1.3004756910179704,10.699503440691839,-9.300335560405054,-2.2689606936970184,14.478888791581031,3.198519857352828,5.173448365698486,2.146490656335655,-4.945530925790088
1.0,22.659363096449837,13.867118644112931,-8.792244452336574,-18.285047141724377,15.69043445540424,2.5500535449535273,-8.065011092198313,4.446511212946422,-5.534389922032874,4.2008612134320895,10.484420349871487,12.034829435046333
2.0,10.47237837151076,22.7876693477926,12.315290976282016,-16.656704556668704,-0.9435545874814304,17.5669944919961,3.881167725752096,3.2216713421690777,10.324767972571454,15.213866032582297,22.348504466043607,20.739381074798175
3.0,-4.770608152439077,17.002284412449235,21.772892564888316,-6.151914615877105,-13.285380649506479,19.410871061547105,7.005106503599491,0.8834943391699057,11.463038154269572,5.088295112972451,12.365381102087841,18.932328427043224
4.0,4.112442769607508,4.614984491098436,0.5025417214908146,-4.332479930207968,1.872206154012722,2.5932446928812656,2.7568361453948578,-2.4117896744171308,4.855789506896661,1.9948071942518415,-2.3899374618560767,-0.9271902403987227
5.0,-4.1804169505580395,-3.410626716766945,0.7697902337908187,3.816521373512062,-2.490934300346471,-1.3529900579600802,-3.023802562930002,-5.079423502321064,-5.7525700785285325,-4.808086019532883,-13.726793134873917,-10.32855593746017
6.0,-21.985911224624015,-29.336781730720645,-7.350870506097042,25.676198911023683,-7.342920272906247,-18.367640910779873,-11.917901103661421,-11.081407671120228,-18.42719218341509,-21.8841816582025,-23.922644370988685,-21.996824098022394
7.0,1.8406220448678408,-7.602790392605092,-9.443412437473338,2.8954196087225146,5.604238587268778,-8.543722538198345,-2.8908781090681566,-4.636670965754966,-13.21578298222969,-13.155061265305429,-7.47062360105112,-8.739444877795863
8.0,7.134298040190065,1.4012522470294693,-5.733045793160724,-4.327271644158466,6.462606372251049,-2.1897116536396366,5.3391638255857465,4.283552806566565,5.632690982033858,9.337996065440473,12.857218598517937,7.435587454951256
9.0,1.1390399562292268,-7.0317986335633655,-8.170838589792387,2.9742804430883902,4.675288468372459,-7.554791752569218,6.330076022843879,0.4828409114475578,6.999261944870825,7.844373938687637,8.547124333284586,1.3399638632044892
10.0,-17.905521987019544,-6.018746045599037,11.886775941421025,11.999838419698111,-14.878749020743363,2.9695034664163096,7.702682090380778,2.1473062339027633,11.599000296166464,8.605494282105399,1.067822672618556,-3.8774760955937833
11.0,22.90749308211607,17.07764052127059,-5.829852560844897,-20.025295870758494,14.389423372962305,5.5699943738250886,-1.4091235541133873,6.694964695317751,4.419414436258464,5.24524258556981,-1.246874833575041,6.288007688101421
12.0,26.423089141673035,18.32992717460279,-8.093161967069918,-22.404366309973906,17.208906606501202,5.135593937220761,-1.3794542718893927,2.2164219852498395,-2.876113824864583,-6.183006470572944,-4.572209897274055,2.4267958803488483
13.0,3.9513425240494886,7.25701142517342,3.305668901123798,-5.63139860037451,0.28592682288298743,5.29554057789009,-4.69108566444439,4.2018802229279135,-6.066684992015824,-2.246968095786924,1.4604926338703286,1.8704591059175204
14.0,-16.994540406626015,4.451651858178048,21.446192264803624,6.319772844552402,-19.164966163065053,12.96522333658796,-5.166913933344869,5.496876718322693,5.087579528456838,7.58238270490814,12.956185026177941,13.489669859954018
15.0,-33.986389691736946,-11.45700693855929,22.529382753176964,22.764136747163988,-28.26861045502981,5.480408491793856,4.256277416567665,-10.76100914703423,6.648730870800029,0.6883645881270286,-0.5566132123845997,-2.414133761040239
16.0,-12.872159837801005,-26.876641538345254,-14.004481700544725,19.830824886448724,0.5652449434293985,-20.407625057357347,6.5138568147779345,-2.768885640443938,-9.556814334897139,-17.146227138108888,-10.551789869019183,-11.039219945539035
17.0,-12.273581713141485,-4.880882398723063,7.392699314418438,8.604914307919113,-9.828533603182493,1.2216772550091726,-1.1845338946707464,-9.489936880502746,-5.638140850532507,2.945410909110568,0.6504579499197076,3.3392210101232624
18.0,7.036349149947731,1.946554378358666,-5.089794771588743,-4.549258908568553,6.068027479819614,-1.5157602604253038,-10.145022518380049,-6.70259647828812,-8.73700919693206,-3.180570714324234,-1.843525193909774,-1.5094536520150728
19.0,50.477661311852465,17.034138172327236,-33.443523139524736,-33.73999224594858,41.96064904564433,-8.218334724019343,-17.75207206798473,-0.4789566024631823,-12.436060315905832,-6.6259747298022305,-8.195748353486058,-5.885891140425354
20.0,38.07986440750661,4.730707884242602,-33.349156523263574,-21.391789418537947,35.70537828127715,-14.317301076542064,-2.9883323987829233,13.182173675455475,0.5831665627200611,5.248499233035936,0.12098104712963487,-2.774102196326308
21.0,6.8561320664865075,9.019403897666361,2.163271831180131,-7.923380810623581,2.325831673610846,5.584190426699862,14.922795379088065,11.416650583095173,16.85056516426504,16.059642420906716,17.046480876776833,4.661755603771958
22.0,-28.43376231359071,7.851135291924724,36.284897605515525,10.310069109437155,-32.39094256195328,22.057190129714286,24.61516874876298,7.26908382083079,30.974393984074137,21.910768203047063,18.080462865794424,11.98104416969937
23.0,-31.93044364167086,0.6051548928848708,32.53559853455571,15.610091890428702,-32.19377031422282,16.55237221307454,12.756670484726547,-3.184956275364414,18.26704373766392,3.4530761898811555,-7.24319455801996,-3.934861252628483
24.0,-24.012595439415964,-16.06006225517597,7.952533184239893,20.072199941878864,-15.946449501895206,-4.001777409889424,8.352404097879836,-2.3401567581297575,-8.589050036465881,-23.711159523048515,-20.470703965056334,-9.780479136898027
25.0,-32.784778194707755,-24.43958482211228,8.345193372595404,28.580149097044966,-20.527429864881363,-8.08212575222931,-19.359014776278844,-11.904808026427265,-32.738396693442326,-25.574600660659375,-11.764285962407822,-4.005882175750172
26.0,18.792060798182746,-0.04607858781219676,-18.838139385995046,-9.394175170824175,18.77796350220519,-9.40405061843034,-27.58309563724716,-6.729191210299511,-25.632023300944496,-11.001867256181427,-3.2145478352758907,-2.0062687661504253
27.0,34.920418805835865,-2.188810303772595,-37.109229109608606,-16.298739365213564,35.981495600461194,-19.69204151122471,-8.211796436270507,-2.4303670543335922,-3.274274684895783,10.501443673752696,2.4559011652686698,-0.10248162588176246
28.0,21.385579429684498,8.568606745762493,-12.816972683922277,-14.982254077902969,17.06905880963189,-2.087272167683735,-1.9437242391811989,2.8827921729554533,8.66565117149911,13.887617681852833,11.085576311962285,12.291370780149407
29.0,3.7403269924837694,15.856098579346725,12.11577158686274,-9.801586908487002,-4.143753843809632,13.948013791070153,10.067772668562545,2.0348708267055633,16.649465628375452,14.96684075103556,12.605514715346075,6.339918477136821
30.0,-1.3990130324203882,8.178371388401597,9.5773844208219,-3.3973894946759984,-5.528453138763716,8.923970859598414,11.395813627167533,5.1584720592742155,9.845760410788658,3.2499205380385927,5.642548159765044,3.5978554877179665
31.0,-0.6670835967534954,1.0694573477967193,1.73654094455026,-0.21962627089566517,-1.169708184397372,1.3752952487645338,5.189963861555837,3.321472387322177,-2.18668638100276,-11.970347371975791,-8.829248465701824,-10.863011777719548
32.0,-6.217340398301175,-0.7420468491819407,5.475293549119579,3.4455450908186673,-5.819252755861649,2.3420165252539458,-0.4321571112703513,2.394537098313978,-2.5610398443832603,-9.562752904664583,-6.7134089287775875,-6.623586966655469
33.0,-1.8174203789625043,10.062419440847227,11.87983981981026,-4.09549088428893,-6.8235617581627,11.025425023706447,0.2511488225560434,3.3501014261398043,8.871178312362554,16.532533777187513,10.009564437912523,10.633458385506483
34.0,-15.99894195704627,-13.770783243035535,2.228158714011259,14.896479958274073,-9.165479950266288,-5.798960305677293,-1.0791166104513747,2.1157068104442205,-0.33675334648360034,6.391222123335512,0.3975427837163652,0.7231858931503778
35.0,-23.50331988278788,-31.541769707613845,-8.038449824825852,27.52488057112218,-7.779082714333387,-19.82392978159373,6.722459122949548,-3.5223028220805137,-8.029977915106102,-10.051774792244396,-7.316718779385676,-9.970965744646746
36.0,-3.750864610873516,-13.285925023791195,-9.535060412918074,8.520102452145855,2.9321340005645196,-11.373663094212993,-0.12003770194869334,-9.723927164201518,-11.050686017201997,-17.198032673289735,-12.754826573731512,-7.42814146893104
37.0,16.519090263493926,28.29441500115731,11.775324737662942,-22.39661664976741,2.4211366860547594,20.063165489574494,-14.047471827426842,-7.363310328635665,-1.8632562061830065,-5.3728356838506155,0.926270027115204,5.86795483373164
38.0,24.098156369978703,32.205796955926644,8.107640585947662,-28.126212224281254,7.974492269709637,20.098911597756107,-8.8454372606263,-5.120702485633703,4.992083137642677,7.51188600068647,6.1224991835699125,10.067905703605076
39.0,16.58846405161748,-6.036670917641908,-22.62513496925937,-5.309611644203475,19.59233331903391,-14.314713410700003,8.09448796558147,10.370935239913475,6.504279811521877,11.610562431241684,4.533699403965275,-3.5650974814457994
40.0,3.922487426227299,-6.686039848872576,-10.608527275099906,1.3667481631905494,7.25327351954871,-8.632294592574585,1.4822845979006902,8.859901863124971,2.093383486801242,8.025311114938564,3.404722266391853,2.130336475004718
41.0,-15.648202791510354,-5.516572953019377,10.131629838490694,10.581711491858302,-12.904768855732442,2.3251426836166456,4.440607639391041,5.357009523277216,9.837169531501923,5.94202479389804,1.2239524970292406,3.0351083423078262
42.0,-24.698082023294816,-12.475893544843611,12.222188478450994,18.59390952456404,-18.40331204734845,-0.18206125273322182,1.5791853970209067,-3.9741574060741325,-10.94717424250674,-6.590040961101021,-4.075595243288999,-3.367811990810498
43.0,4.5113921489095645,0.2962243651863581,-4.215167783723183,-2.396758771710614,4.331376574595563,-1.9279813147270244,-3.805349079854156,-8.21289839000152,-10.577845914114878,-11.298676356430427,1.1318709226472796,-3.88141983147933
44.0,2.7238172496986284,-5.028876278873845,-7.752693528572253,1.1531232189200968,5.195848418461418,-6.351139261456684,5.117759015639661,-1.5783272779618844,-4.850592289295841,-13.77980042587998,-2.8197988878233398,-5.128704682659698
45.0,-7.491445644455359,-4.558427114172769,2.9330185302828777,6.0145743722099745,-5.18430227707555,-0.8454036176877391,-10.580624621252863,-1.7982185816795635,0.16617436168334643,-1.6755318400480403,-3.312366812485967,-7.789627314704083
46.0,9.181755223763576,14.006937033934328,4.825181810171035,-11.617454418232402,2.202004718371274,9.386464784857974,1.7813643235937837,7.314895138450608,10.551592972872418,15.423801698890221,5.554938364562114,10.49133429713159
47.0,8.34735754699723,17.584066033383394,9.236708486386316,-12.921900168054307,-0.42008394395655735,13.458768213919617,10.608294048042502,9.374177108775838,17.14527279239212,14.040389275257244,5.678867889170763,12.07774468880868
48.0,-5.996273277015327,-12.726773974530783,-6.730500697515387,9.396575281982809,0.31818696129335633,-9.762920419615858,3.8041517277507624,-0.7221091429702766,-4.24777837382665,-6.631604716682963,-9.269702242433656,-0.16220199295201976
49.0,-1.3056724334041152,-8.667300439335492,-7.3616280059314505,4.938396880522611,3.0652177263773157,-8.05382331668772,-0.08728069975306701,-3.8236778510658835,-2.355686727844025,-3.69539443123424,-9.413165231702157,-9.432421248022834
50.0,3.383357587867333,18.380109597033552,14.996752009166096,-10.929397183568723,-5.8415618304487715,16.72422390741113,-6.459480248341432,-10.894715528109879,0.24897083230761918,3.0639135560896835,12.749083459345197,8.821039058476721
51.0,14.759662676898145,8.460857396460732,-6.298805280437503,-11.57417918844021,10.576175310287397,1.117053189052305,-16.51889505365678,-5.158493120841094,-10.272422249898009,1.298116922831452,8.156975167605237,-1.4457493085599458
52.0,-12.04685821324185,-23.815244008274203,-11.768385795032387,17.975830496551527,-0.1733513698603013,-17.82939493898376,1.4730703558661329,0.2274027938688412,-8.78814878653561,-4.4519696140723,-3.733521952940401,-12.23134150121904
53.0,-11.955231956504168,-6.698964461894123,5.256267494609873,9.304051005650868,-8.647616868500247,-0.6709224806588416,4.751461727516497,4.981727153831109,-3.7804942644523583,-5.837449030828639,-2.7345274245667723,-4.76384459905297
54.0,7.507610639726875,2.7877044106341877,-4.719906229092884,-5.159535266686557,6.139201024917681,-0.983620909178494,6.934228078956911,4.730809603228759,0.6993815499822796,-4.542605837343311,-10.286656029672953,3.486871939270485
55.0,1.5590568919680012,1.6664209578777518,0.1073640659095107,-1.615329242904339,0.7392887575638514,0.8782032232930446,7.659543262081019,3.112053464404248,16.888084327841636,8.94349521857319,3.140787187647825,5.745729954715911
56.0,-3.722245656365688,0.45121963592831005,4.1734652922940585,1.638529453440856,-3.943438518029231,2.307284128322939,7.523286339527939,9.36421600319614,8.626077692108945,4.830512760607766,6.579066832508109,6.880886739910313
57.0,2.5127555416157503,2.985733211037249,0.4729776694217538,-2.745365620780371,1.021100674939605,1.7210359043938985,-11.86758924169845,-3.1918159021567925,-7.2103284796996725,-11.729848249617937,-4.122538103546908,-3.2145372597526563
58.0,-6.710016632880212,1.179282504007921,7.889299136888599,2.7652465847637826,-7.294503390105715,4.516419477827418,-8.222961781837366,-9.717986895451508,-1.2038600444363006,-1.7541956765722135,-4.118230127688674,-1.610859451683478
59.0,10.122137755084628,14.742711365085814,4.620573610001552,-12.44057506943953,2.7665150269321765,9.65077727302993,-0.8694471360458778,-2.9694026051732267,1.4942251669705082,11.023475145297729,7.3149574689162895,1.3556540609576033
60.0,5.464571519835324,7.5187899699583145,2.054218450123253,-6.510305867599367,1.6572309165581014,4.822133697524022,-0.02623051354088446,0.5872129941555104,-0.9998086408721063,9.524954661392192,6.945818320975196,6.037375001385856
61.0,-12.265127893610039,-23.31638607348092,-11.051258179870894,17.83994606071432,-0.5597276664781541,-17.155698940500173,1.5410493979196223,-5.026386697568827,-10.701182209084557,-8.415329298107714,-6.301697952391073,-8.857978354195573
62.0,-14.447719649702542,-18.399924461102852,-3.95220481140049,16.38479332981677,-5.264935601715866,-11.14836665578975,6.646941058766933,3.7214634689646777,-0.6612270894411614,0.13940642694456962,-1.8021187924728528,-3.920832972856448
63.0,10.89915322652378,4.53105944462709,-6.368093781896872,-7.681932986359815,8.626006020422983,-0.9631317047802375,3.6023066493643445,2.177162924757994,1.7837148948509687,-3.135432352695816,-0.9707149470195962,-0.090010483634968
64.0,28.468756969665932,15.367240198844211,-13.101516770821867,-21.966520581593734,20.780755858261102,1.1776566437806448,1.2745547920671014,8.437277391685136,1.9637717270751947,-6.322212623486451,2.6769857041462273,4.289537113251884
65.0,4.057265130430308,9.965215510558252,5.907950380127874,-6.980568963300069,-0.9327715400464989,7.9134939603816905,-5.305825501123163,1.589763554152119,3.2624973255358394,-3.2734448658787256,-1.4611035452494237,-0.5910120953667595
66.0,-26.175064218473924,0.8804765933997265,27.055540811873776,12.680730564149108,-26.63058371867813,13.95214047605021,-0.6934122666988629,-4.5721139734313,9.053129999738006,10.693247678047182,1.7535091162218093,4.667171545348285
67.0,-23.430088069773813,-3.3719070777953846,20.05818099197855,13.35910832937473,-21.690932665833586,8.328607270798681,-3.8886920638819773,-3.2556020697603976,-0.5788356260264171,4.524846670369928,-3.1341111341854924,0.18337142586402422
68.0,11.178691090884643,-6.513149746739497,-17.691840837624063,-2.2935908077020732,14.399585604690202,-12.121377431281104,0.35274374946269593,2.1598312865843114,-4.01928889502146,-7.452381273191665,-8.211212571430607,-4.788266242999261
69.0,27.21855023685038,0.22149285584535594,-26.997057381005092,-13.759608006897121,27.142890736620497,-13.414269862835184,-2.57174964218235,0.44400646946214684,-1.815875657288414,1.8883364640731788,5.016408354161511,-1.6924180790870593
70.0,8.484546528155587,2.6106387834017815,-5.873907744753879,-5.5897271630925935,7.130783365940539,-1.5867062298551815,2.7186752415952453,-3.085827330421753,-2.205478105459425,3.5656192110828187,9.26187949586873,5.129041746096153
71.0,-14.015843783276283,-4.029418656756981,9.986425126519206,9.055078377053803,-11.972422102528233,3.019307002830646,-2.523871838804562,-12.460332449762747,-8.335639565004824,-3.771004933535207,-2.4096465075389926,-3.09439092389466
72.0,-40.51302174490648,-21.850993978461936,18.66202776644443,31.210231291965357,-29.558135936784947,-1.553638548476394,1.04102948635289,-5.776628724531988,-5.890950815321732,-9.182193695312844,-3.6313842364171234,-7.445093249907079
73.0,-8.334491426182138,-5.386110140638321,2.9483812855437677,6.885710946914119,-5.689292791753093,-1.253984649440234,6.703273368686081,11.976074899925571,1.2684807427513427,-0.8909081873413189,-1.8397917879040275,0.10667054336309123
74.0,21.566539335413417,15.04952266925945,-6.517016666154065,-18.362027597968464,14.07355134755128,4.233690770547988,4.021091056262198,13.4956146633072,8.020820285470286,11.032221210535543,0.7397291702606279,6.230111954933007
75.0,38.7073002010221,36.398353404895744,-2.3089467961264734,-37.52672578061053,20.460450298415896,17.01153039767542,2.003508672942524,12.34523974151221,16.542646575608565,7.746367795734805,5.10788548506306,12.611318928781726
76.0,23.83633801747694,15.061493532666411,-8.774844484810659,-19.420246999431342,16.334266279597536,3.1837025003190567,2.623419001892911,4.332057134851452,8.906957615723876,-2.9498739279034853,4.168163992031295,5.584919872132877
77.0,-5.117341358849074,-14.323538912465159,-9.206197553616185,9.673221866057169,2.0696955274010076,-11.812223478782009,-10.047149582637857,-13.738127939209189,-2.357481093563111,4.122270772201407,3.6607940768803013,-7.9657895260593055
78.0,-34.47692361818134,-27.37092614334017,7.105997474841149,30.87923559907691,-20.848114419668416,-10.111120386567372,-15.474688096853587,-19.590927821165266,-10.473908013729195,-3.6766060135558822,-6.720420428134225,-12.037886335672859
79.0,-21.09404522340552,-5.6909001656626685,15.403145057742924,13.42852914957529,-18.22810914456319,4.869877410345969,-0.13224692220622902,-6.68494925829876,-16.181932224285205,-12.526864900205563,-10.055878632714958,-5.171288677200037
80.0,-1.4970527887369407,0.3062790836032008,1.8033318723402996,0.6328924104185703,-1.628851091391109,1.0663787348376865,7.2201043593047665,3.6793866030439846,-9.921285870401906,-4.7747123162350755,-3.1663242863349907,-0.5160723510799192
81.0,-8.602737951236552,-9.769170957804267,-1.1664330065674964,9.224151486277085,-3.6934034687690405,-5.451773029700769,10.364830194787677,6.4120709262932065,2.223847839949846,0.8337353852518641,-3.6823769965841864,2.7361927733627773
82.0,9.700116420035188,-4.333960932287955,-14.034077352322873,-2.724205952505696,11.818212748094458,-9.157799908512228,3.9442861544340104,4.413770991821964,6.486866552198853,0.7019907672158721,3.0350785104305036,2.3800298511089464
83.0,17.008199997786022,7.903461353347232,-9.104738644438724,-12.499220544533747,13.091647457346701,-0.6398327262619761,2.289079211082768,5.524512830536566,8.923673756218108,7.577425612474913,10.743345235125108,6.428219108703138
84.0,7.677525470260466,16.386343974884664,8.708818504624114,-12.000234310880602,-0.5553613309862264,12.521671874102433,-3.9528562298641465,6.195713226931389,7.018267875120402,2.2254545729297615,7.032626395932981,2.567228111792855
85.0,8.517206853847007,18.29764772632248,9.780440872475323,-13.458201417998264,-0.5913918151337212,14.023722781311184,-11.882520713524752,-3.4170872257389435,5.119657762694856,6.872308312587954,4.493634646217528,-0.5460651425039331
86.0,1.3914951570165952,7.4465390362154364,6.055043879198706,-4.392740665198322,-2.372137560264436,6.741965601040738,-0.8622259552447451,-2.1689632270268975,3.7012426718330964,11.756397825425838,-1.272704842280103,0.5521953205688885
87.0,0.8825261580839796,0.8179174236665481,-0.0646087344175621,-0.8216142206352733,0.507713955545007,0.4488314846620882,9.455596403145421,2.64574851623768,-3.489670527177365,-1.484986374707233,-2.5295653348725935,1.6902715672461053
88.0,6.022933780928942,-8.17367910722091,-14.196612888149879,1.111296588098324,10.059971344378297,-11.193097076020198,0.8275278863911,0.5910824791650575,-13.824492244080853,-11.814895208758767,-7.686911095689726,-2.0823824771059076
89.0,-25.28581523378675,-25.872832247927818,-0.5870170141408426,25.548132888318737,-12.324801438891559,-13.242008683707201,-5.78122673335889,-11.929960358343854,-8.145360310978457,-12.748810088594201,-6.768732663897421,-1.8910719155087943
90.0,-27.67569475414378,-25.903890762730068,1.7718039914141759,26.77238822281136,-14.70111009429144,-12.084071513780803,2.6361874191114225,-8.37019547124406,-1.455027192709677,-13.158714301916989,-8.049633306513659,-10.482093217740008
91.0,-9.538311159358267,-11.143576916095308,-1.6052657567365616,10.336505774175265,-3.942737111549973,-6.399143380792595,-3.958867603970226,-0.28389497855352075,5.995794626846592,-2.719238809441527,-1.450980494896832,-5.637101493615184
92.0,1.082916399162464,12.108301750509817,11.025385351347522,-6.590785196247799,-5.022316487369887,11.61463594727777,1.9831385931864105,2.2324718754877804,5.2248218227835235,6.387963697430152,5.285063423252358,1.6436993764983967
93.0,23.98663614537905,29.97642123270918,5.9897850873299205,-26.973214493544805,9.031446397968788,17.947550781049202,2.8674069602960546,9.966418836584317,0.7558223227965541,17.293643735497323,9.789232714622365,8.425773089859762
94.0,32.637312272606394,20.09722698426777,-12.540085288339245,-26.36205657539935,22.548126910399514,3.8196492512892277,2.0618515180740866,15.538300111898923,-1.6950452950938515,14.978080546624252,8.612079878340456,8.376986341141702
95.0,19.461658867022056,4.343481037867242,-15.118177829155515,-11.906461915122295,17.331548537904162,-5.424458388675214,-4.296705238937442,2.3064534876813623,-0.9608743224980346,2.933925052799215,1.7526555670293753,1.9880376061699208
96.0,-27.40566543126978,-18.257811964257993,9.147853467011423,22.81465047194288,-18.313063261027025,-4.510605790372312,-3.2957425979816284,-18.122724028626894,9.485310200441031,-2.0490111124794597,1.604795841979203,2.2387671546496257
97.0,-9.349159878468374,-0.40688462996786257,8.942275248500557,4.84652075663071,-9.1052230954718,4.237155459570776,3.8633193960534986,-6.254857892329747,0.8290666180358678,-11.137473664176316,-4.360697396413411,-2.7764773839795613
98.0,14.451474971611116,9.159061763099963,-5.292413208510817,-11.77049874923117,9.8296645155783,1.9064204553711317,6.167609835479126,8.46083875251416,-6.307839062109253,-18.310816378384995,-8.32353287582114,-2.737534993391808
99.0,10.265639353356153,13.334203643276922,3.0685642899211443,-11.773158105874735,3.630281308117059,8.255484494355406,5.762694265126156,7.553172631495063,2.1679256830932987,-0.08288084416725461,0.2938527025777251,1.439021887723177
100.0,-25.473566363266684,-19.200694462210084,6.272871901056896,22.36152172941417,-15.92395099273501,-6.488475905835239,-8.127136070726959,-3.8747181453958306,-2.496494230587638,8.884275750235364,-4.455186643526501,-7.646462150169723
101.0,-35.22220236484003,-27.678249524431884,7.543952840408392,31.398656799083376,-21.356259137496746,-10.094055310839499,-12.624100791946157,-12.376799586855176,-3.808323583913247,3.5635471582067404,-5.066451725452712,-8.174391788318925
102.0,6.989060551599049,-0.7876453934123919,-7.7767059450113205,-3.0672976682086475,7.411806366511309,-4.23481780554001,-6.112165470488804,0.5911374203341775,1.7693417913309717,4.528707255628761,5.0096779450912425,5.268953213087659
103.0,13.660388838419497,2.160642776090323,-11.499746062329143,-7.948363855126147,12.614059685446176,-4.706844643075887,11.653181077870771,4.364249292507384,-1.775762653286391,1.0311549190314553,6.039417887748718,4.32475880480515
104.0,9.68608342736902,-0.6614992929017216,-10.347582720270747,-4.543243157202724,9.978742483746434,-5.4694165384270255,12.490211726352197,3.476645435301081,-11.158585859791103,-8.574139687583308,0.926911803619463,-0.050358597534305716
105.0,7.560562418181725,8.670985750337657,1.1104233321556531,-8.06281664954665,3.193441935088657,4.841326660790699,9.084017401589147,0.5052343934055825,9.326490599589665,-0.7595002298760369,1.5976501273376273,-0.23238806935992873
106.0,2.753647519776221,15.311620785165147,12.557973265388535,-9.055496468715807,-4.929001517138467,13.959801329114587,-14.363964356011149,-2.6767252828941395,8.97935902784774,-1.447364564447016,-5.142365993094019,0.8696820620995434
107.0,5.563811218571516,17.276963728094763,11.713152509522711,-11.36393831038896,-3.02030603531658,14.517477272104223,-13.511322659872112,2.252832010159494,2.471580014194509,9.625642035792003,4.009198139410689,6.035892418251127
108.0,-7.706603154214777,-4.706565863938309,3.0000372902762313,6.182475102901538,-5.377492451547405,-0.8317243109643178,0.8389065846513306,2.9986609361834407,1.6067545570301807,3.518885845199931,4.289750544575032,-0.19424127249449064
109.0,-0.794139245127008,-9.64545013398435,-8.851310888857405,5.191715278048217,4.08158297318221,-9.305155509731465,4.683861432646679,0.6609445671182947,-1.6428752528584891,-0.6064517180364843,-2.043190812438654,-2.3478204890322787
110.0,4.248772266145604,-6.44242002179238,-10.691192287937575,1.0632645516405645,7.441265723491798,-8.543444713156324,5.264814425774357,-0.7115892686239337,-7.955612596195863,-9.290852452836166,-8.708229598077923,-1.563160493507593
111.0,-5.675994631372408,-5.612012768843474,0.06398186252943017,5.683389189596123,-2.9027924435904606,-2.827112040095381,3.1924730855604153,-4.970213533590463,-8.93882958884561,-6.321638455318628,-3.705094767987462,-3.6965420513373637
112.0,-9.695838037096362,-5.232786209087355,4.463051828009625,7.499043410936642,-7.038478308522154,-0.355776579569981,2.3383417668767184,-4.318466409365,2.037071600291025,-2.307347125700011,-0.33670192312968084,-2.429611746451712
113.0,-5.030298215068524,0.09411766959573686,5.124415884664723,2.4218735111476835,-5.120642266306508,2.6430876019799157,1.61019012014206,2.9866206812477993,8.710918620399713,12.794867471069407,12.109631151214444,3.644706617569743
114.0,1.4138009189660192,3.884952837534792,2.4711519185688875,-2.615860105415069,-0.49869112752666567,3.21752295227546,-5.860112193333928,1.7422521463158143,1.7935750040642597,8.539088616310778,2.938436253427473,0.4149144064792769
115.0,6.006786285704573,4.198177263339762,-1.808609022365042,-5.143587038424764,3.932844326397056,1.161109694358644,-6.983144400357214,1.7247938361867128,-7.480321577189771,-7.425968097611958,-5.485438291978204,-0.7985814211014874
116.0,10.938007379758126,1.2989942111331994,-9.639013168625327,-6.074356762508799,10.231264486916135,-4.199223318213055,-3.8186349519007097,-0.9072297764357331,3.710408250810161,-6.7252050114461,-6.3241329824926495,-1.5547196594414003
117.0,7.107335959229298,6.047566235263592,-1.0597697239661685,-6.604546206885359,4.102974475408864,2.4674579887656525,2.980712331534105,-0.28389055457743234,9.919784793977367,5.1813301738007205,8.002422639924502,6.05881714909064
118.0,-6.20860231135912,-5.896518106060812,0.3120842052980456,6.0322622009032525,-3.241348586938077,-2.817179265034124,6.764646991798266,2.7300342507220763,-4.931520068093388,-0.6058145497304883,2.3125508253910754,1.6872315200551538
119.0,-2.016483288040786,2.879023578802796,4.895506866843544,-0.3685382465482543,-3.4359805276813087,3.942260994268617,5.493396827008214,2.9186221874321507,-2.5271253438200914,-2.7209925766686043,-5.893430596466452,-2.6394133588190103
120.0,-3.704643965586827,4.087898058582207,7.792542024169268,-0.20739005180104897,-5.805315449012169,5.996999718843002,-5.422143338978643,-4.616890935414059,-2.199846611180995,0.17305458355544,-1.2426621534722897,2.1840944944884684
121.0,-22.162192282910876,-14.112812146489624,8.049380136421517,18.117223538353606,-15.081277691238936,-3.051393207558619,-0.14619277667038166,-2.1011064982408847,-0.8008101254886038,0.9428422634509748,-1.550892953478993,-7.071624343896411
122.0,10.554169016779227,2.9147287691344026,-7.6394402476446315,-6.7635448880477345,9.123872295028239,-2.3802896454550186,1.8739783445515337,-0.5999214321767754,-0.048806201345590106,3.692906769409783,0.6617585267107879,-2.6112040819895586
123.0,15.77843785527899,3.722047335388334,-12.05639051989062,-9.711831152018878,13.86824252886955,-4.1853075390133,-0.4623394851588686,0.8551060676689227,-0.13623872325897812,2.189710037113981,5.694484716877621,5.683561388856647
124.0,9.311602203247517,6.0278458020083185,-3.2837564012392155,-7.720761296203955,6.3298491174526825,1.3509657666420476,-1.8368278086589362,-1.9086278532472452,1.6586859187256886,-5.338493350802688,0.1223678090784448,4.929942123364988
125.0,-4.132456231452143,-3.4248875480818115,0.7075686833702446,3.79943260751254,-2.463686992186724,-1.3850318953279634,-2.61549750666015,4.2293421962591236,1.0826434857925435,-8.50942872390476,-7.389961936079921,-8.371918700752243
126.0,-10.331027947140086,-5.746323166356544,4.584704780783511,8.058503775910005,-7.419501291710105,-0.5346304207633455,-0.5469969877729459,-0.2166504718575062,-1.931523373467983,3.0016102545212213,2.018572391123176,-1.8295745018614884
127.0,-10.054689596112953,0.6976588687372931,10.752348464850344,4.703749613475001,-10.361836560776293,5.765838413273691,0.8985084653319884,-0.20915818862187974,-6.298486586375949,5.747875371430608,4.2648515847709705,4.192430335193219
128.0,-12.29680313807854,-11.898071690084066,0.39873144799460913,12.132401399041491,-6.382323299076922,-5.790869555263021,-3.3126284677321394,-3.4432967411918116,4.0455603140283305,3.566484465631518,0.4739006447801226,2.1063027030928265
129.0,5.039739052610671,0.47226359334634527,-4.567475459264287,-2.7895004944638817,4.769734170933159,-2.0111160504250067,6.680825017986395,5.613623003271043,11.012835176177749,1.7395490901393675,-0.8313700501814875,-0.3396562632421145
130.0,22.282807579963055,15.261831941369184,-7.020975638593919,-18.799064535517473,14.694931004435668,4.07856532552568,4.129771004408633,-1.0342127733588242,1.2218903927763787,-1.0722476145894262,-3.8584276652720826,1.6267784787076707
131.0,23.770530583875676,22.314168818683584,-1.4563617651923009,-23.068605541028038,12.573476804800807,10.466513525937206,-1.410053244265026,1.0788997456548466,-3.6493241983901745,-2.7876603288993094,4.444835540213692,7.192262740510287
132.0,0.6716405679971604,5.009917623713309,4.338277055715876,-2.873060454119565,-1.8001803896319428,4.633171557055369,-5.322575402884681,-3.9358173083051313,-7.237871873726821,-4.775843287690721,-2.5563879457498717,-7.51266179932632
133.0,-27.564138909933078,-25.70360807123633,1.8605308386963795,26.670052927209206,-14.763247718189515,-11.962882597727146,-1.2062889934977985,-2.117818274462796,-2.898794881686854,-1.5588899582907505,-2.1517125612095303,-9.035061806475257
134.0,-20.524011475236144,-20.76010346496546,-0.23609198972960233,20.667351092758974,-10.119248981225885,-10.461228728808344,1.6248399272613603,1.917404341212728,-0.5615138521150862,2.0014609736190305,-1.3438376388214608,-3.7794558695579363
135.0,1.6339470244209178,2.7204763296758685,1.0865293052548397,-2.15992271658685,0.29866633481250204,1.9403377535536306,2.506626880900823,3.2764883943823397,0.10062972624222699,2.2381346068999126,3.1275999234752154,7.207850755479367
136.0,11.983433986160627,13.29205444614783,1.3086204599873776,-12.623614389997314,5.36594777049313,7.3377412075885236,-0.5959261794491986,-1.0298011610456332,6.239350470059979,6.262585641738034,4.7428522146947,8.728762218045466
137.0,2.6586942667996425,-4.111002064402391,-6.769696331201635,0.7419622708754838,4.669497339510779,-5.481187279722824,-3.041150411335746,-3.3163755701178164,2.0008541043185577,1.8684238308762047,1.366878378050346,1.6306225533564014
138.0,-1.3950597164568954,0.091900494844527,1.4869602113018008,0.5936563266173538,-1.401824996345816,0.747985438669968,-2.194634754548782,-0.7160745715750108,-1.4378442136092513,-7.935266351440765,-2.490728820209143,-5.84081416888899
139.0,1.5653401108188714,4.443977186828988,2.878637076010274,-3.056218800882641,-0.6937354640792357,3.6961796927605883,5.0338031155829634,4.60563578610534,2.0497775281857495,-4.218003134030736,-4.384195096116358,-2.787798284928708
140.0,4.406876434264234,6.237675860455559,1.8307994261912377,-5.2890216524603275,1.249489015752834,3.9863147061062225,2.1034369114585294,2.726254931291195,-0.46629925329873684,-1.2323717497579096,-4.2962070437555955,-0.47519250005351
141.0,5.850687422798937,8.867855198851828,3.0171677760527356,-7.321273144019526,1.4518262405571671,5.968871469368367,-2.1990718432617133,-3.1030347017560014,-2.759606427374145,3.4344126952171234,0.5860608203333637,2.408325185486475
142.0,5.047720776513197,-1.651898679180568,-6.6996194556939175,-1.657114003642727,5.9016803502005875,-4.152588529578545,-3.119357524884699,-1.6305390987453738,-3.7413462814685507,2.6667662878790765,4.120399846687165,0.7475140783323546
143.0,-11.249360743275357,-12.910268931517402,-1.6609081882421677,12.042246943674039,-4.851365717877913,-7.26282013235427,0.6549176486008769,-0.9619762138581216,0.9549552486032973,1.439922236912274,2.517902589822587,-0.4497964439217429
144.0,-4.28461930766801,-9.391958656875675,-5.107339349207709,6.7984714210055746,0.429677680536122,-7.302475229185488,0.3500899604670887,-2.7002971766744968,-2.003968473849319,0.6624873852234987,2.0169922417852346,-3.079156712077912
145.0,-3.7689060755935984,1.6728434748330683,5.441749550426657,1.0824513463415046,-4.585824340853167,3.58977188956609,-0.07979101340243813,1.8182176052769528,1.2647577368976053,-5.502186148186935,-2.506810578886614,0.8789858218173887
146.0,1.292612234590659,5.9919443699087855,4.699332135318141,-3.692212360470629,-1.678537599974037,5.308346560954652,6.911694800496125,4.850179695955688,3.0130870163591,-2.746998754854163,-2.5098660821958063,0.8059770831855748
147.0,-3.620511196578455,5.3777905079128505,8.998301704491372,-0.8547843241777189,-6.277221565904004,7.239435633002915,-1.9756513438395373,0.14456584898309144,5.214224124389978,9.901604430230863,4.313742215068418,2.3665512811177827
148.0,3.9870399474100258,3.1369171884734066,-0.8501227589365099,-3.5407872038644395,2.378340205917725,1.125252519962768,-2.804371955201219,0.5777331899363922,1.2606999810216355,6.887443775352393,1.601128682496285,0.8781177404059326
149.0,13.25129958033905,-0.46286841510167065,-13.714167995440597,-6.372544905189391,13.445024721914038,-7.099644260689823,-1.881238618523418,0.42222226318472156,-1.6964470519977932,1.032262451876863,-2.638047991197841,0.09760343863383455
150.0,1.2507163900289413,-3.525604313952604,-4.77632070398149,1.1624091528645426,2.9734079613020397,-4.15823108077487,-0.012881295532513493,-4.8470123345501435,-3.2617577225675154,-5.775074015150414,-3.078491425544005,0.831438321783798
151.0,-10.917533928327638,-11.84469039135055,-0.9271564630230191,11.332179676553979,-4.962865165603402,-6.392763496304717,-2.202460279401393,-3.1691000995650445,-0.8004379287164145,-11.233200700886222,-2.309870580399023,-0.9690108236738901
152.0,-13.742428401764549,-7.956687893206439,5.7857405085578835,10.805576210363684,-9.739304386527971,-1.0949796471195075,1.6745578875350249,-3.3585204950399863,-3.8189834826961175,-12.800235615409951,-1.8579376412170698,-8.888149465468809
153.0,15.178880594630202,14.325902923058283,-0.8529776715720763,-14.713497941223249,8.035054347929044,6.800555305040349,-1.560380101048761,5.278508805956375,-6.623596290069695,-5.556916561087146,-2.8042316078118414,-3.4888451205065456
154.0,10.8747718679575,20.355378067968495,9.480606200011051,-15.651735934694436,0.7146883114630027,14.896233650844637,0.8394016150031779,5.826380567660662,4.146498248163995,19.97810275451404,10.174692893369393,9.716065954816628
155.0,0.597516192792412,6.297928266451587,5.700412073659399,-3.402950219118897,-2.609363097756704,5.968700095940395,2.4262816610298548,5.70776274092402,7.451933448953273,17.552323040185545,6.785347061518772,7.158676457670525
156.0,-15.341955843160786,-14.812508091042758,0.5294477521182359,15.124552581038177,-7.90793295502105,-7.103259785432561,5.584387046669876,-4.991261185522024,2.551468093441108,2.748402621528987,-0.08022522324088222,0.08931308294546358
157.0,-21.322266033803015,-27.271610046465113,-5.9493440126620225,24.267893529059293,-7.650205522432677,-16.66168167136202,0.2270952438999836,-9.709884336694369,-4.144063155952708,-10.228281519181877,-8.697511131651735,-8.386584335809502
158.0,9.407897906940375,-3.750730697809077,-13.15862860474953,-2.8557407368759584,11.248391697370161,-8.437551358858075,-3.804257223244323,-2.645727954839752,-6.090651354793751,-9.738842487588606,-4.4405959447474395,-0.9629418405852159
159.0,14.291283728156825,3.5427516870504165,-10.748532041106618,-8.942996590222963,12.4899707209946,-3.594517319923364,-3.7590009754560665,4.86264837651679,5.686396688216579,-6.808372874670818,-3.5584379198955416,-6.112306807310315
160.0,18.63454615161163,25.27473101966557,6.640184868053743,-21.979936550632683,5.96882524502075,15.960052892708667,-3.715302323299765,6.718663298311326,12.154603367700394,8.639114952891436,2.5192404973521887,5.713957249857142
161.0,6.803492612903023,24.81410762713604,18.010615014232904,-15.754705276386101,-5.554415119332964,21.41298099312848,2.6329203054874144,6.015267312750274,5.160762710337863,13.494903019517244,12.06162798246865,10.867488101778278
162.0,-10.236376618700342,-7.56246390652961,2.673912712170795,8.954262919688892,-6.408881868906255,-2.441821118681256,4.98402488755935,-0.6252343010871422,-16.046132221103047,-10.797859118330875,1.5174567157145464,-1.4976784430770715
163.0,-21.334870410543953,-25.21864247884182,-3.8837720682976977,23.253067157864066,-8.761391691916932,-14.543979293780373,4.946443147347724,-9.300696166948438,-15.156589566249089,-10.821862398820079,-4.342141503271398,-4.744994730639389
164.0,-6.509287322594586,-12.39676695481081,-5.887479632216038,9.427720581442175,-0.34992214311719394,-9.128705278068079,-5.882996375031089,-4.16478140802806,4.10364086256778,4.715518594846711,-1.2325591959849223,0.10738489247215632
165.0,1.6460680723290535,4.426281985737084,2.7802139134081383,-3.06621127445859,-0.5302861785832331,3.543779093546858,-3.5977681650045876,-3.2514219131474205,9.568310405554914,6.699816428223024,-1.1765422463973243,-0.8550506746244184
166.0,-3.1808097184370014,-0.38759548239726327,2.793214236039747,1.824682131354304,-2.9532938626487573,1.2261192444998348,-6.888962180320002,-1.3449644194507706,0.09102523007827124,-0.9736479973697678,-7.904682036306261,-6.368359917166174
167.0,6.274368954203808,-2.4469640481411155,-8.721333002345025,-1.962729052601743,7.44920602256553,-5.5596030439321,1.9795577883212991,7.854788347663658,-2.1426268503727552,-0.8037365104833987,-5.183975931526458,-5.314793589905958
168.0,5.860944632462031,7.941820537278023,2.0808759048159096,-6.882722694941641,1.9158948333093972,5.034051629899734,1.1030579056720469,2.0289502224088354,0.6540830491996743,-0.1285140809877744,3.443388791526018,1.9985952348332598
169.0,5.4676979305838875,9.948172245731325,4.480474315147376,-7.697913480099441,0.4364091732528239,7.153774722762874,10.490672519611088,5.457458207733434,4.479863067202833,0.4137619060275142,11.287971381860604,10.280721335442554
170.0,18.598291277374774,8.585835388780573,-10.012455888594275,-13.58600007604261,14.323760242083733,-0.7011631671957694,5.997331434830364,1.404456901879781,-2.805981625387173,-7.1956621774212515,1.3277166417905875,4.645044155395781
171.0,9.524686817766588,9.937471442725332,0.41278462495868906,-9.723401217030844,4.573785397923292,5.181325062109867,2.987692491200397,-2.7793862673943788,7.193233648992392,10.770884069678566,5.799946454668778,4.178554543699228
172.0,-18.78877126212664,-7.842720657937152,10.946050604189471,13.32973679277577,-14.846527667399053,1.5538475380583614,-2.5346931275511606,-1.989382077107345,8.83613679667926,9.186334476392984,4.011884563017487,3.241624803983681
173.0,-14.039701063765023,-19.228862352706038,-5.189161288940927,16.656909223603062,-4.397789123827948,-12.207458204782622,-10.986474658197698,-1.1535181774200258,-8.770263790666503,-8.873367247388408,-9.459905051151575,-13.895048225463324
174.0,-25.60430693694317,-21.07787616499374,4.526430771949684,23.29293207824258,-15.10769437733751,-8.270872010831859,-14.527169930251748,-6.826861989256552,-16.062661509749027,-13.390965716843164,-14.062354643277668,-11.68055084904543
175.0,2.2217463221129012,8.10731519365184,5.885568871539235,-5.207880218442623,-1.8648580628792422,7.0078757385654304,-2.553154955266484,-2.094854273254021,-5.153303552308109,-0.369391135606274,-3.0245584514909494,1.5889017957768212
176.0,2.74668766944046,2.6038078758739474,-0.14287979356629288,-2.639250463276518,1.4984972478637348,1.2500723732435377,9.56491908871416,1.588048578420608,4.121977844472593,3.249682331122003,3.7149458277039975,4.381483104431668
177.0,16.254842332549575,8.879064330631738,-7.37577800191779,-12.533939132795748,11.795444667113244,0.7000420049187519,12.013630567376325,4.634513573772061,8.497165871895588,6.298773561958161,11.154218313349139,9.906731065355888
178.0,27.896567140873174,16.830220350007547,-11.066346790865783,-22.413749800714964,19.463698591847354,2.9139848746920167,3.409546901965099,2.103960205053445,1.669515459285864,-0.4934390248896907,1.124321430267945,2.59784534545397
179.0,10.947695093493737,7.417412364660555,-3.5302827288334067,-9.15794017452848,7.220856890789814,1.898015237439767,-1.012393670032163,1.614471801611276,5.515998337196866,9.560464044566439,2.609369193645517,-0.9462045782200166
180.0,-21.976989117919324,-15.965153336166889,6.01183578175226,18.994907316070297,-13.935500844581899,-4.945915353177233,-1.0834530029741303,0.9079086448537037,1.3036023420594889,3.730425341246124,-3.4836113077034625,-7.585459682197303
181.0,-17.660824242605145,-15.469448206512457,2.1913760360926484,16.513599060189254,-9.947779542300443,-6.61308202080791,-2.454831339510553,2.148087652762242,-7.781865543952129,-13.446563859005938,-5.488759457501252,-8.15988732377477
182.0,-2.926021769173339,3.4870127355056457,6.413034504679059,-0.24601123965469895,-4.692401115680573,4.892059292338972,-8.752099561342904,-2.417459866388006,-2.0270940300642666,-10.11531527088312,-2.0240251377706757,3.6130718141742433
183.0,5.511516743160877,17.50055681015282,11.989040066992134,-11.462044025642943,-3.183278470043242,14.762014173593851,-1.905232385436836,-4.038637929797677,13.079475188646187,5.936546471911286,7.1098274795906296,13.823319541148983
184.0,13.295247920683082,11.611053523782193,-1.6841943969007187,-12.478722679139402,7.466491796248461,4.979992571929317,5.118605186514505,-2.5217838601772034,-4.5305982832926155,2.7202292483460244,2.010651781362773,4.484793316182685
185.0,-4.049554632054215,-14.849381148604403,-10.799826516550084,9.430220723368567,3.3518420275673386,-12.805653313457459,3.009441178464833,-0.49130069467533777,-8.300693155269883,1.3891614811153266,-2.198409519204014,-5.497735002684303
186.0,-6.2667690700441,-11.34758764524224,-5.0808185751982196,8.789947338777417,-0.616720507565935,-8.191053336841229,3.7130049340199207,0.9570802568616726,-5.490725103218739,1.5224673938921884,-3.36839138663325,-8.198958247123635
187.0,-10.288219012926435,-4.411867914875992,5.876351098050282,7.3308716469528274,-8.027918695453042,0.6804737297717347,1.0226161314818363,3.166180109676904,7.502497713814561,8.353689550130515,3.1721064627146083,-2.0306101969703096
188.0,-0.8528849057195963,-3.514578296129168,-2.661693390409733,2.1607334384481174,0.879807357483409,-3.059938680632921,-3.868915313962404,0.6732133554209851,0.4664242557959075,1.5270990253447647,-0.5407610683315779,-3.7259310686463207
189.0,9.016138029838267,2.4998099612136837,-6.516328068624661,-5.705082079393665,7.742561308037113,-2.0615493359481643,-5.579244706140885,3.6236143912906287,-1.4738172167809838,-8.621090255485797,-1.737187172867075,1.6779093435999135
190.0,9.05286561616893,9.051375054344813,-0.001490561824038783,-8.998876816330414,4.584773500893362,4.543932073068314,1.4609907058221405,-0.23988317217373,-0.8252012723530635,-12.80706050235876,-2.3972522410191597,6.837687143383128
191.0,6.131825667239085,6.050076386037361,-0.08174928120159741,-6.112381985163915,3.0897036971452803,2.9947362307455707,2.23443886875866,-3.5142330876834325,0.2821049865889609,-5.228504814557989,-0.9104998244044862,3.0861025423394617
192.0,2.33518931347014,11.041477123305507,8.706287809835525,-6.7034537115591055,-3.1975379537589648,9.876846092109613,2.627100481446134,-3.673779776366119,-0.24622266440950114,8.23254685793248,-0.005034681485584391,-0.3368654671411031
193.0,-13.454719073116358,-3.9837283703272384,9.470990702789239,8.709848933805127,-11.469519784122562,2.7425943919248024,-5.714813615261583,-4.978263761922694,8.630822659250967,13.207813751432568,1.7639564918596655,-1.3910247831510032
194.0,-14.538960225319517,-14.230814335674571,0.3081458896450293,14.377817243428925,-7.425421693439594,-6.960823660225916,-1.6714528607813535,1.2450745428236227,1.766477137268664,5.8528073841235715,5.892305238881639,-4.887695305621565
195.0,4.848374622613415,-1.9534827545342033,-6.801857377147586,-1.457439473245918,5.826997391391482,-4.369605762248893,1.4745677405349351,7.38577572415472,-10.874222507169929,-6.768819515511939,-0.855943985992691,-1.2964164221394205
196.0,5.294740611185431,-7.299986316175575,-12.594726927361101,0.9844109283032956,8.949041620846128,-9.926936715159542,6.0573268021127245,5.977071389436514,-3.0474760167431008,-7.791104746486438,-3.9421873084285117,-1.6248195452415302
197.0,7.115708056837063,1.8300810843603932,-5.285626972476892,-4.424284560264762,6.205911769569918,-1.7715186293829674,-0.8222114912070109,-3.557323255484088,2.9957287764466916,-2.618016392795643,-1.7236257129104078,3.276571663109847
198.0,0.8866513353881897,11.550468201545774,10.663816866157337,-6.261753013246597,-4.884071893093125,11.155721907060427,4.859932125306189,-3.7298464482827467,3.555748694125162,0.4562808101951328,2.825036914734369,8.137688065436436
199.0,5.864690875646486,10.356335528282775,4.49164465263613,-8.086486525462119,0.6884417742411868,7.4034153626174355,4.27137958282708,2.1277842656333465,7.759043573303846,11.223643595850497,6.2342117659294125,3.3574503083933362
