Time(ms),I,II,III,aVR,aVL,aVF,V1,V2,V3,V4,V5,V6
-200.0,-1.1013207883474627,-0.28477852692430283,0.8165422614231875,0.6661716703741221,-0.9176009872003497,0.23504933756087779,3.531663474649009,1.1882928737575926,3.1516766393934064,3.537292234035286,-0.04672396422877992,0.7083785707695696
-199.0,13.19881210663147,8.280456072580481,-4.918356034050954,-10.76809327637679,9.092615275232307,1.6543043186404576,-3.2206128621785117,-4.91376756490311,-6.023190400093844,-2.95520671386566,-1.350559653453734,1.9127469533629557
-198.0,6.926900242649599,-3.5008698493863952,-10.427770092035953,-1.6655867955017163,8.62580319594923,-6.9907814689803,-4.168328745456183,-3.8251229314071145,-4.355489069663033,-1.8734026855396233,-2.6790822861465275,-5.41626642288281
-197.0,-0.9229452291899154,-1.6012411082364293,-0.6782958790465257,1.3072006848788573,-0.09935461577717053,-1.091221974861062,-1.9227269342326199,0.7113337206519097,0.8285789121802112,1.770405064022185,-0.05347658331853311,-0.5204086770310923
-196.0,-3.6795662869202843,1.9887118652670726,5.668278152187335,0.8111878381090398,-4.651863471706873,3.791510612304033,3.5921681504885328,4.440242716866835,5.690977541545759,1.0454340031167737,3.4027054146288567,3.463717312745481
-195.0,-3.624791792062604,-4.9043944052465775,-1.2796026131839593,4.3101722488050935,-1.148834954871886,-3.058326266381301,1.2812994082231606,2.9519028856931726,0.3831712588944063,1.4435869615679864,-0.9501574336347198,2.6494053129451447
-194.0,-9.287317787240324,-6.864388399661493,2.4229293875789297,8.044272690221767,-5.907639923534147,-2.1946351807883326,0.34372571730511403,0.09557259324314149,1.2814600938598208,-2.266691298841502,0.2890120137416023,0.36561244540963567
-193.0,2.2142226251616286,1.5094236795835767,-0.7047989455779287,-1.8927734104619582,1.4868599115366496,0.34401766720910465,0.7903667812751733,1.360471097296888,-0.519620869002474,2.641355293111695,1.6100063314300592,0.6075627421484648
-192.0,5.867090810282109,1.5972531228822944,-4.269837687399724,-3.764425946121576,5.015314959948039,-1.3187566250527865,1.6393421800283985,-1.7730138095492294,-0.5653173606719305,-1.4767916561392298,-1.3979911171117994,-1.4537644669368912
-191.0,7.3567324353152355,2.7886220802613195,-4.568110355053852,-5.02942851178085,5.983131032183546,-0.8722801974479604,-3.13987747893305,-2.6873273514010396,-5.061210529344762,-4.037338492055079,-2.4324759514025325,-5.644403104105794
-190.0,0.8761832480366474,7.908333046086838,7.032149798050153,-4.353370805896846,-3.064323890621378,7.490088178809039,-3.9518468895700005,-1.997294865206093,-1.3805372991598817,1.4562051024478326,0.06887732417398562,-2.314308557720643
-189.0,-7.433869413696345,4.3356920977194,11.769561511415631,1.504925926941919,-9.595490449576152,7.997867389609877,2.847649585526175,-1.5064611149287983,3.933429393297189,3.1568316022179608,1.918398879341315,3.6658827923904047
-188.0,0.13975674769004032,-4.897430140971008,-5.0371868886612265,2.410225498520986,2.588756287966563,-4.9381466580551745,-0.8745365873357269,-2.7193559482674687,0.30569561723667693,-3.4245193709377175,-3.78837685785858,-1.1395748304622604
-187.0,5.155164149657489,0.6823909040181935,-4.47277324563944,-2.9675801307760072,4.811196143535006,-1.9391816719947679,-1.4772963830554515,1.4308472178330605,-1.7114272268167654,-0.2910621670481992,-0.20791606776161198,-0.25304910566426875
-186.0,-0.8908531252353984,3.496031813524353,4.386884938759705,-1.272103298699251,-2.6412315718747523,3.9817503231047704,-0.5272565114994023,4.05619203240928,-0.2482265244256186,1.0863237286281735,2.0681154569725315,5.685263340345306
-185.0,-12.820999127635048,-11.788897487548054,1.0321016400869902,12.33778428467837,-6.925289445396465,-5.333175610095716,3.4299841941928157,5.27841917871577,2.1463720540084017,2.2073914933669996,5.86135258671434,4.761615443771905
-184.0,-14.392257741110317,-13.70795529511323,0.6843024459971538,14.007874678464274,-7.531084946471078,-6.541667604208159,6.55359254646985,3.724859762942578,6.332654566481198,6.045602843433526,5.211353009314294,2.9737849365348508
-183.0,12.702393089348647,2.4233369286888617,-10.27905616065961,-7.600760912824814,11.50493892613372,-3.955798236020345,4.285964617079103,1.0076659458747566,1.7032139493067986,1.259479419214316,-0.5948926783663133,-1.8187061690530486
-182.0,26.73947665268777,14.427681790029881,-12.311794862657635,-20.538530056034773,19.4680291189504,1.0300552874033155,-10.358397395273723,-4.438344813398758,-4.771148923126999,-7.33482594294121,-7.502450697523022,-10.68728263122105
-181.0,7.223370454523655,6.927931225959384,-0.2954392285640668,-7.027437752601994,3.7865623103818455,3.365924879698837,-4.118104894475158,-9.688962656392885,-7.288765500096403,-6.987802367191572,-11.072280082087676,-8.93250161054862
-180.0,-20.14308456284691,-1.51325195522696,18.629832607620067,10.79884033718088,-19.354563477666364,8.527939952079528,2.0289067494891295,-4.4279022197418385,-1.7139972599032158,-2.787711832519066,-1.538440354745644,1.4923344733678316
-179.0,-15.96345484384726,-7.504792645771919,8.458662198075368,11.70333778665731,-12.254430817153143,0.5251379292243641,1.9263273802463758,1.8379151591287952,2.454064126719153,6.491973586266898,5.770322717169168,5.968344340520402
-178.0,6.503596648644846,1.5175243181394755,-4.986072330505525,-4.0456184047740615,5.782677467152308,-1.7632153820939203,-2.615148075056897,6.646723115785595,0.955969322669376,4.332360365565664,5.762202210452811,4.108031040092229
-177.0,4.707454393119223,2.83241308964213,-1.8750413034773543,-3.732743779718174,3.252101283485718,0.45312435428442654,-3.470000333310315,3.3026854821267424,2.627930617199029,1.140671369511573,6.99092654786393,7.592193406522654
-176.0,-6.555689939688172,-7.484299077107771,-0.9286091374197358,7.049549080125693,-2.7725760198118325,-4.148886252802209,4.483429924179035,3.4131233828293674,0.9721581542560487,-0.43939157658631345,-0.4580443604436155,-1.5759460203906457
-175.0,4.705299050029241,2.8750435757410537,-1.8302554742881991,-3.768224648116809,3.231216122165902,0.5053113142161152,3.9223510695158574,-1.1219385101554251,0.41284098063878494,-1.2205235931113745,-3.962481871686025,-5.810190139232513
-174.0,9.541029183039146,4.628582638606554,-4.912446544432521,-7.14830247695451,7.270237445956756,-0.1565649812556713,4.028428205399875,-5.412601187203134,4.0574368717407845,0.03702421959482893,-1.966587977272833,-0.9613553226367948
-173.0,2.4249414544630055,4.1153996709413745,1.6904582164784618,-3.260133587660302,0.33359560562370527,2.8881069561015327,-2.28329582156474,-3.4962650625693623,-6.31144145197506,-4.98015809648833,-5.182984698901212,1.7364215813162995
-172.0,-1.2702246664724892,-0.07431329458216918,1.195911371890429,0.678909599271918,-1.2646254219690802,0.5428732773901636,-1.9466562032045585,3.8764563735189004,-0.8661472624838185,1.0280476860605492,2.0450195682177355,2.421996249129771
-171.0,-2.7029633789568104,-5.75803512201823,-3.0550717430613252,4.235736763140078,0.22589151281858033,-4.351289069172292,-4.787409517246087,1.2686827910299832,1.0199812663652104,1.9138946465974114,1.8507296315179496,-0.36137003289685715
-170.0,-7.2678788289352125,-7.483755918731122,-0.21587708979588383,7.381588443714675,-3.5519691406188683,-3.880394526693417,-4.840299084880689,-1.1102196761210288,-2.5512307574056465,0.8015194516798422,-0.13851134896814443,-8.224935260439104
-169.0,-9.840964617075887,-6.73656395469421,3.104400662381635,8.296674163608966,-6.41742113379071,-1.7754961980213135,-0.04170405273214106,-2.068214347206128,-1.0498429980191277,-0.2849254581919407,-2.126353380421015,-3.5012397785862728
-168.0,5.576452768061053,11.199213819178983,5.622761051117883,-8.37669157563684,-0.04583039547736112,8.365683939863153,5.439416366312812,3.787336495898717,3.858228755263505,1.9182719525754228,2.408519040323438,3.416643215249038
-167.0,13.155798818785922,14.819348820648141,1.6635500018621614,-14.051329557326234,5.721366042533051,8.269021246895097,8.895501775848539,2.2747553083077956,8.493126478470709,4.864914300989972,4.778309912054381,8.188134608710168
-166.0,-6.593309712435715,-7.275131060103924,-0.6818213476681664,6.953445781169737,-2.986132843530979,-4.033559163352317,2.8236237627593175,-2.9982489757468684,-3.236127369251966,-6.787608450792228,-3.200351699501825,3.278151763461705
-165.0,-12.487397292882836,-18.299838339058958,-5.81244104617602,15.417431124066631,-3.2979289954203144,-12.033938937746845,-2.653548061455223,-1.9139610774713054,-7.777600153206614,-5.132919232019401,-1.453498696637364,-1.926185481421276
-164.0,1.548863518776578,-0.11969932233668423,-1.6685628411131317,-0.6858341778689319,1.6377124713493316,-0.8710341880386512,-5.5391211922199215,-0.3062035768167075,-1.4991045813157662,1.0833023957205707,1.5831018783579975,-3.0666722334081937
-163.0,22.90358142536061,20.58800913487418,-2.3155722904862692,-21.790716685987015,12.54974320452082,9.161658994001737,-9.286667810629652,1.17155827349688,2.883131491917177,6.504982343043264,0.4172219478468358,-2.6342893331275734
-162.0,4.099934452797511,6.37848152369683,2.2785470708993802,-5.200531655680293,0.9224243636664173,4.356052296894246,-3.671497576116298,-2.2750801057912016,-1.4659138312002462,-1.2690068241738395,-4.892739231743434,-2.290838689922679
-161.0,-9.62820451200545,-9.542743988494696,0.08546052351076283,9.549684042244884,-4.847362964234715,-4.779857034245424,7.828813036562161,0.18379259565841644,3.6504632171554428,-0.968072800812205,-1.3071679114607175,0.6785379895594477
-160.0,-7.610835861622596,-5.358898585411462,2.251937276211029,6.452748662861317,-4.918260743487105,-1.607834855243036,8.007851507012681,4.81661169640405,2.925246833763756,1.0158753853835152,3.5984306626506406,2.347868610127319
-159.0,-3.0238041183896884,-2.305338818972719,0.7184652994168079,2.71451942152646,-1.8489344522950448,-0.7747541032744119,-0.016562686299748997,0.6450161859920962,-1.3487397845607383,0.3543209757294644,2.6224418594450385,2.65387855821038
-158.0,0.6363565205099309,4.613158043181735,3.976801522671654,-2.650293954748868,-1.7143289987621269,4.307552993516622,-2.8003638171213927,-3.0303051051412764,-4.276465191857195,-4.774342781995833,-1.5985933711435085,-0.3260364515156431
-157.0,-2.957022625918115,-5.357767878033934,-2.4007452521159074,4.213813356137803,-0.2308353420625191,-3.8702439102456663,-0.13522047562031236,-0.068940906027402,-0.4051791496755621,1.3967913310173519,-1.1204128636840507,0.016777568257155186
-156.0,0.6561122918401741,-6.480041023352414,-7.136153315192633,2.8922850674619713,3.8741554702691845,-6.7976951776041386,-2.1711004421974107,-0.4867917969490919,0.8472125898059764,0.34422306798130076,1.4938329184365515,-0.015406244731278051
-155.0,2.257333330138101,-0.46924143090602266,-2.7265747610441182,-0.9123951602052758,2.473582549463499,-1.580444069566986,1.8903728944759197,0.3487761878525145,-0.09452989341448043,0.9175570568397362,-0.8435940606497458,-2.8174957606600857
-154.0,5.205534259646258,9.150800479929861,3.945266220283585,-7.197089071809058,0.6083774545640179,6.576837115801684,-1.5823357355279297,0.5392154245686691,3.0726527770813847,3.055340224695555,2.67657520930082,-1.3267564543279227
-153.0,9.313628861288038,15.484231927385773,6.170603066097789,-12.420316880536388,1.6189000397056912,10.790020156166468,0.3389043882918592,0.8537330969518497,2.8368121799332413,1.5657438266906394,-0.23746834804686417,3.4326931530438465
-152.0,1.6843586209532102,7.232734933818795,5.548376312865681,-4.40491318641698,-1.9767691609768407,6.363301922620377,0.28259953257488213,1.1513154299248884,-0.1890301591674981,0.5468932616355653,0.8466748053471201,2.2423720670397125
-151.0,-11.91204287480709,-12.308759810330894,-0.39671693552371323,12.081157901117045,-5.737507256849144,-6.375114008210543,-1.045631153987102,-4.953449678940073,-5.668490090240936,-5.3479623441307735,-4.37866466937394,-2.3023910475698917
-150.0,-4.029284425701237,-8.013539608429516,-3.984255182728229,6.066989282381903,-0.013339006803837705,-5.944104063669859,-0.39900328854568495,-1.9148011665989728,-0.978779561571804,-0.007671391230107183,0.2612331506710901,-3.545144889594028
-149.0,-6.834774621432527,-16.43215828492478,-9.597383663492193,11.596578030128633,1.3846350164177754,-13.046059038739166,-0.5636152253260158,3.2592886364185785,-2.0860257203633523,-3.6833372237718454,-5.058785817615425,-4.242749854247925
-148.0,-1.297959392553,-5.7425931150410205,-4.4446337224879535,3.5581671392744525,1.5766054186019605,-5.056984118333883,-0.8526039232495943,2.9384054413230465,1.0890266017451453,-1.9280566421090275,0.9404035259030632,4.228629027747927
-147.0,7.8161428243962225,15.317994282024088,7.501851457627957,-11.612663649027787,0.1650392670551426,11.356559862753794,5.147313217019152,0.7068501346535208,5.502902496494619,7.370084668076622,8.01821754351412,6.38723337769508
-146.0,9.53184403742517,13.007972875975542,3.476128838550411,-11.242256878615489,3.04266939374334,8.258895858959235,1.9332838185711017,-2.7532356208165725,0.9873815404676956,3.098636920570267,1.6040778652099648,0.24461666857214404
-145.0,1.5605056009442375,-2.32561856842014,-3.8861241693644173,0.3260387492951464,2.6657491604804324,-3.092566844944682,-3.358359373718981,-0.8792691751192749,-0.2510798937838885,-3.1905508677536756,-3.198867180751871,-3.604286396550881
-144.0,3.472917798958232,1.6226987381641522,-1.850219060794179,-2.52931204961684,2.686271604212057,-0.09817808261406213,-1.8452551963020232,2.728263090988352,-2.567192145466142,0.15855337469233033,-2.6407079628600876,-1.830846258893098
-143.0,-9.902953684857845,-1.4489865509190822,8.453967133938647,5.694161631810397,-9.154112529363267,3.525214363843065,0.5041628590184042,-0.4352514674493831,-3.056704657904259,-2.842001096696909,0.262053420170401,0.7805652130713243
-142.0,-10.642872664348578,-2.021287363422897,8.621585300925602,6.354443507440731,-9.690295051656415,3.2537079673379266,0.9201095859044833,-1.0131054832285844,3.6282321034472775,2.0142349255900966,1.7895531638407371,3.1477773184580826
-141.0,2.3132415137070224,-2.9548648451131725,-5.2681063588202415,0.3515100967467424,3.8063045493390284,-4.070177343859317,-5.313314091700781,-1.1415725821401272,-2.0702523040243452,1.3921749925139384,1.0867766258061922,1.309809422466643
-140.0,7.193897926591445,0.27096204737482754,-6.922935879216614,-3.7697233274151056,7.07018188782157,-3.357532175073553,1.128547592120391,1.8706489288387456,0.6181648178679808,-0.7764927791698367,1.225639275329668,0.28958727897572545
-139.0,1.2489288995582757,-2.145976744307905,-3.3949056438661014,0.42182927648252655,2.3332847690663683,-2.8002708247845014,6.714838793954622,0.9795041832209597,1.7711077621437514,0.8828349713063364,-1.535481663296671,-6.02321628380053
-138.0,1.436585801403382,-0.8742379025246791,-2.3108237039279054,-0.2999503978676109,1.8892612317489275,-1.624144828617939,4.5550299212333245,-2.26237772592498,1.5788353545484126,-3.1127522704509816,-3.1438107120421876,-2.914473081474907
-137.0,-1.6171670939999165,0.33697755751184516,1.954144651511927,0.7036126644658097,-1.761770989265721,1.1893648481442773,-2.7562924019721144,0.5939303735305954,-2.701389864860852,-0.03564330520155612,-1.4470492587270372,-0.9700629291539089
-136.0,6.685708522214361,1.447887839620281,-5.237820682594043,-4.083358063210401,5.917599519228495,-1.8539211405203524,-10.16101336057986,-1.5756043590098274,-1.1143108236571606,-1.7158703280641538,-2.195826176731339,1.75260973132688
-135.0,-2.955167718951449,2.827420606469251,5.782588325420589,0.041809990591422874,-4.402305488778144,4.345033081651728,-1.0888901399072823,-1.4161358005784068,0.6747319632375308,4.554011235779604,4.306797569750357,6.244876379484227
-134.0,-11.383696186616081,-4.8456770246631775,6.5380191619526355,8.084582488421518,-8.906783522608482,0.80791289202535,2.767976149186512,0.4842750498570829,0.12330978962609163,-0.9218875895664467,1.9149321202174643,-0.8057366935131043
-133.0,1.7778874439891457,5.420133257761615,3.6422458137722087,-3.558824521083849,-0.9511881984729365,4.4936073865844355,0.8694147340925047,2.8400288190207577,-1.7568086205447755,-1.1895934764788916,1.5388735958308655,2.235389579112337
-132.0,1.7835239390232625,9.442387621342528,7.6588636823191685,-5.579680125693625,-2.954087071103533,8.512619347245021,6.385688155261488,1.937627856095246,1.7276416418975429,2.322002753445939,1.8269266024559465,2.1200148575228934
-131.0,-3.2414219843288676,-10.798946488449541,-7.557524504120597,6.970584662702002,2.142060352700788,-9.139569422726309,1.2913011822081422,-0.12261756470836016,-0.13898463074356804,-0.776147467912607,-0.5808141883215492,-0.6767223047628419
-130.0,4.851498632645949,-13.554746499939206,-18.406245132585003,4.37965292260924,11.691225384664406,-15.945167429580621,-1.4906429632598384,-0.6480048179263451,2.7035404170693584,0.25740873928687563,-2.9008402779709077,-7.0394193358443164
-129.0,10.35039651304694,3.1900546982975717,-7.160341814749192,-6.740969911041068,8.73893259666875,-2.0322116375575208,-5.112683316275538,-3.541780230234946,-3.6935631072672495,-3.782354824759632,-5.337344726757452,-6.10223770417536
-128.0,-3.232341948367621,10.494946893367635,13.72728884173538,-3.678283344650679,-8.4952902547447,12.139763563435853,2.2321626116608764,2.0649727977791583,3.186094142855579,0.9854622423461488,0.6979302002863306,2.0095963821820786
-127.0,1.8402223414866354,9.166092445770223,7.325870104283611,-5.547258113636129,-2.7564191029873997,8.272648765259083,-0.8547814459124967,0.6633736067640839,-0.6329260845454905,2.414175134446133,1.2760634093796888,6.599924051465489
-126.0,-5.594940597657356,2.164220833811458,7.759161431468772,1.7528029584378921,-6.688593679073627,4.908535695046021,-2.5260973872203234,-0.3946016653173742,0.30709028648357084,0.9390306451757526,2.4147712660410816,1.5143628516443943
-125.0,-9.109808059434762,-9.984201487589965,-0.8743934281552903,9.587096037796638,-4.049510531858218,-5.404455675471605,-0.4584137148448749,-2.3222030522698223,-2.3055691085364782,1.2664950185636061,3.3583925297949992,0.08258850357966896
-124.0,0.8269416983599429,-3.8575330855396133,-4.6844747838996295,1.4791192425449733,2.7436474115157243,-4.2472655691220735,4.288152527722962,1.5306147223821929,1.1422771942483951,-1.733718145543711,3.279744280667941,2.4229917353924235
-123.0,-4.532005567123525,-7.180859246082411,-2.6488536789589454,5.9010386257716325,-0.9587652910309512,-4.971712576233225,3.1293723224916423,2.863950030430966,0.16512616859496648,-0.25994509067544525,-4.381075698274856,-3.735819265695212
-122.0,7.071204498519207,-1.6666993982308274,-8.737903896750035,-2.735357286429889,7.878461902709968,-5.182859235530452,-4.343163012920268,-2.6673696085058722,-0.8064971596988315,-5.003320393039684,-7.109536671214329,-1.021495675256657
-121.0,8.042208441365455,10.884186270281734,2.8419778289163244,-9.496778434477886,2.562638283020214,6.880155215294673,1.4215565623902222,-0.8153498989942186,-0.5395927264681706,2.907520852147758,1.731532402731287,0.1194612933276682
-120.0,6.386278814599001,1.3379255029791608,-5.048353311619772,-3.8191005761961954,5.747346257143813,-1.8393732241962364,-4.655403715072616,-0.9722000689771987,-1.3669268287971448,-2.8150660727041448,0.4132079570437861,-1.7192225140911461
-119.0,-2.255207061093586,-2.739404055188504,-0.48419699409489403,2.4579983690938505,-0.8634449468138572,-1.673713434228357,-0.6472329021492909,0.011610992492369427,-0.9390116698741194,1.2131178181565723,1.0057380869882389,-1.7984272962348204
-118.0,0.25015175043107174,4.797992777860017,4.547841027428958,-2.488929376631428,-2.129041340744635,4.693736994438161,3.563241571515088,4.695497975016287,4.971595401004765,7.080451329166996,8.652950757683232,7.954160654169787
-117.0,-9.315740800899208,1.903090385419093,11.218831186318372,3.7371884359769183,-10.243247368736313,6.588819244109812,4.309289763502568,1.4478151093788334,3.293896246389032,3.0098783931521464,1.0318077180606444,0.32043933159851123
-116.0,-7.500993405476092,-2.430973074317863,5.070020331158285,4.9145551782472605,-6.330653632576526,1.3566360464613092,0.44665714379235566,-3.611497481258601,-4.282679225685712,-6.679190197733044,-7.54103791800245,-5.2234127818392295
-115.0,-5.488248328723435,-8.35189932855726,-2.863650999833868,6.945281572384493,-1.3451919038260405,-5.639577113826161,-2.880259575280542,-4.883710862082892,-1.7855110453518281,-3.090269113403556,-7.321735846938371,-8.765725482070593
-114.0,5.229412360880408,-1.8094200373847888,-7.038832398265327,-1.7634990846289007,6.191689254336363,-4.447404566512161,-6.164849024530987,1.4446939955617795,-2.2282802476711145,-1.4752324868264903,-3.9845316900063605,-1.3067564872625206
-113.0,12.556575087421225,8.905702458053556,-3.6508726293678064,-10.703024607938676,8.090792001747756,2.6099230810725045,1.057602672152941,0.5124515519089615,3.4703908781914334,0.18340726824584896,5.869260190672328,8.699485895785232
-112.0,4.183119326200366,2.2437720565548114,-1.9393472696456238,-3.1793491813925163,3.051202709313295,0.13730224350923814,4.640379044733711,3.4446081851429318,2.4218123091918384,5.592482915885247,10.920076358031668,9.433978487673507
-111.0,-0.28247613139794225,3.643179910482036,3.9256560418799844,-1.7164275458037714,-2.1169809170220923,3.8480774343390967,-0.3292394061520083,1.935428061362593,-2.5663433563390528,1.3841001879226853,6.410158335177787,9.383994301062854
-110.0,-6.888220947806086,-9.028777552112306,-2.140556604306189,8.01082077272684,-2.394316691372541,-5.60184806934399,1.1548448444879544,1.0211010842111727,-1.1485804333168228,-0.8296213139926087,-2.051933505870341,-7.0835680558345935
-109.0,-5.627110030704538,-8.0393446579174,-2.4122346272128294,6.8152385410585055,-1.5591413203539433,-5.24629828341178,1.503950044373297,-0.020571359796573707,0.03448091574120238,-1.0872042440283414,-9.747119114881023,-7.811069162655411
-108.0,4.131429339489229,3.450975027843469,-0.6804543116457535,-3.8042787770548134,2.3658678346618185,1.4391121223519678,-2.781540925968939,-1.8013499232707704,3.5550645836740014,-0.8720054931965263,-4.757577476923332,-10.463188330091004
-107.0,3.160756972141928,2.4925227837159483,-0.6682341884259846,-2.839796122455723,1.9462515971334757,0.8815600974908642,-0.45709621931927136,-3.660618267528538,2.195793890311597,1.909871094845249,-3.874037398592674,-6.558559618561358
-106.0,-0.693572314282974,4.76409798751099,5.457670301793951,-2.053428488329444,-3.046806611277526,5.073073309345317,-0.5608511266697603,-2.890967186252333,-4.461449420173156,-4.457357353382438,0.4249683907566246,3.4424555355208657
-105.0,-5.053492203518973,2.353772753390077,7.407264956909026,1.3234065411041465,-6.279325574282333,4.912912467795644,-1.6584716590131552,-1.6757358155624102,-3.548869539624117,-0.45166341098656293,6.728402918683968,11.071207235279863
-104.0,-5.315932816137787,4.986654200985631,10.302587017123379,0.20795064271520625,-7.775684058893471,7.668135774622698,-0.230946091935847,-0.9807314882393312,-2.6501213194658684,-4.733641744996694,2.751126629395382,9.238721355370009
-103.0,3.343111614434675,-0.14212436758762004,-3.4852359820223384,-1.5644667796120704,3.3738928823376124,-1.8764028048339751,-0.8806889179644234,4.147229020857459,1.5698219543381138,1.8412408135290164,-0.9056016664550324,-1.0171461582811805
-102.0,8.622092604999201,-6.632815400483899,-15.254908005483113,-0.9629609608369585,11.981463649871536,-10.931838886177228,2.855113282234386,7.346612374820478,2.039670715971911,5.189004611597409,0.7266510145093749,-4.495056613104513
-101.0,8.486729560590621,-10.896964827189473,-19.383694387780093,1.1563845436557134,13.902654662620206,-15.127015724512399,-2.087932982181267,0.8931449251935706,2.932869913351162,3.69525688082122,-1.360874336945026,-5.980289996454574
-100.0,-4.332124763712236,-1.0700999268725186,3.262024836839709,2.652149035279934,-3.82768065892592,1.116630217277132,4.636691896247211,0.19710814949818112,5.809852772113203,3.028775365024827,2.1705345576303263,1.96904509547928
-99.0,-3.6812974552820847,8.929831577830639,12.611129033112705,-2.594681984729009,-8.09672554948653,10.803727077376989,4.157663061916389,0.20107006360290436,4.449724806751013,2.844687624529492,5.197193191290554,3.758445929196623
-98.0,-16.167446089809737,0.19081964950663277,16.358265739316344,8.016882828997879,-16.290507746929556,8.24439631091991,1.5231401214788198,-4.23070273319489,-2.455480949002666,-0.9855515918886795,-1.2368615452543865,0.6208871555803476
-97.0,-7.729233142995623,-5.704956418455808,2.024276724539771,6.6650347004271175,-4.823265850804454,-1.8557447375493403,-4.4062437549747075,-1.3047281388611873,-10.882516970886373,-7.366627299148953,-5.665134417138709,-1.220559727339576
-96.0,2.452490709605882,1.2730436664059779,-1.1794470431999753,-1.8382675259639136,1.7936781501701495,0.04226086073052726,-3.2584178212635213,-6.3033465785969565,-5.840764601933297,-10.582578152463377,-6.363992259556211,-6.081406806667431
-95.0,28.82549112187204,11.749935649990267,-17.07555547188184,-20.264943605143387,22.930915265405638,-2.662448545849946,-8.254501175300756,1.3330518241620937,0.6372561328078121,-1.5624147742112169,-1.6615466650173334,-2.245514614339831
-94.0,16.895692519708103,6.301684843159891,-10.59400767654827,-11.5765513554651,13.726503061037027,-2.1472218026067575,-0.9228592895146286,3.351641429466279,3.998586064829236,6.915378385042206,3.607458194083017,3.1838616309737597
-93.0,-14.115916059662204,-15.54246296552586,-1.4265469058636544,14.773404572575853,-6.28532639834785,-8.491951902199961,5.032153280229408,-2.3984021486269445,1.4049761520584374,0.22768160335782728,-1.5097353050816595,-2.0567372726934523
-92.0,-14.648458806758388,5.949963441767272,20.598422248525733,4.374678099430761,-17.646393000480124,13.257873677115455,7.067742117773115,4.307635493412032,5.8266573630264915,8.670649436910017,7.728408320647441,9.510614577880009
-91.0,-11.974584443355527,3.467370369356749,15.441954812712382,4.204520848804044,-13.736609276098676,9.508419643338893,5.236476913648459,2.541829343042943,4.0767321359269175,3.6704039654349403,6.13461389305139,4.158907739050367
-90.0,-2.5681795049975955,-10.155252703320478,-7.587073198322811,6.397428435892106,2.4754276174052796,-8.902680005648868,-4.9093999005330184,-2.364797699604076,-5.650469638752192,-4.081671651643944,-5.958443042295568,-7.110139314530938
-89.0,14.10287387450552,-1.3058816255422032,-15.408755500047715,-6.355204313917507,14.796518109266131,-8.313853005926552,-8.575188269667928,-2.496258664471867,-6.957055195348275,-7.555033398579148,-7.095192383885461,-10.734525845813002
-88.0,11.807764242784248,4.86868605146133,-6.9390781913229675,-8.36544298268081,9.413334128206978,-1.0722736603298122,-4.261945813351005,-1.6162427873299203,-2.096027888222694,-3.617511111280672,-2.2666514874896198,-0.5720589814201036
-87.0,-4.403607250258439,3.4742698680149866,7.87787711827335,0.44488918532327393,-6.17669173965715,5.716288543418244,5.78705343437328,5.480337962189807,7.6014072444535215,7.583302457314819,10.55289423361728,12.433642815224793
-86.0,-13.005328971843518,-5.833281023560178,7.172047948283264,9.40441163518306,-10.040373489782462,0.6281138555293588,10.196127004710183,4.419503273098886,7.300481032061319,5.293049814865813,3.8268265795268994,5.712027242836143
-85.0,-5.154511180072963,-9.696516698992731,-4.542005518919835,7.490142211036395,-0.3307575501363358,-7.1652960944975685,6.299230180659007,1.6375862830271384,1.2346227957291394,2.1871715847636697,-0.928248097690195,0.0643529409818897
-84.0,7.353812414307262,-2.9334645249188274,-10.287276939226128,-2.2285269029440213,8.79990227329581,-6.583968643490703,-4.530999545741263,-4.744081499558594,-5.805246285230411,-7.231241850413545,-7.539939998843579,-7.399154048011296
-83.0,6.885749701326303,9.799963645067884,2.9142139437415695,-8.370237664205789,1.9651839337675572,6.377059642262454,-7.3564823658714,-6.287746265111868,-7.689050750372881,-5.442050395070694,-2.9973217862520753,-4.499988366219597
-82.0,-4.538124835089317,15.843686195753678,20.381811030843007,-5.692447271167689,-12.48463373178474,18.12775255748855,-5.186073722017603,-4.75584322444281,-0.6083270160074346,1.337639925792904,0.5547939680323783,1.4008075947921559
-81.0,-2.4680578251214436,12.516896144685054,14.984953969806561,-4.998174279042286,-8.679609113190724,13.763342534600511,-6.0364557893465705,-1.3402819361364458,0.030999382862265168,-0.4369839799775167,-0.42742330638249704,-1.0623934516696456
-80.0,0.4659452588547919,-8.49062924794952,-8.95657450680418,4.028351529867932,4.7496413279842065,-8.711519532465072,1.5389958061936293,2.1865428001294394,1.083888031504854,-0.4541735195299075,0.7091941273057925,2.5967831820144056
-79.0,24.20604599726578,-11.23585795764706,-35.44190395491272,-6.4741831476782306,29.77547549531234,-23.404587988887517,2.3543887028032464,4.9468320733124,2.552054577524388,0.655676825781639,1.009345972414451,-0.5916389954523473
-78.0,11.739130943118981,-14.719905658905892,-26.459036602024813,1.5022851811302855,19.122700301509308,-20.57535690844105,5.605162716749196,7.43167429382302,-0.8990887675565169,0.5655934112543002,-0.44370344441715925,-2.5729925879239985
-77.0,-11.552985443981367,-2.5753780611325805,8.977607382848854,7.082128767898142,-10.24637665754627,3.215578412647739,4.6535730121351015,2.3386927305045204,4.143334511243742,5.341589644404962,6.336988837103691,2.337915975128843
-76.0,-31.98132342316305,2.7153390854776234,34.69666250864067,14.580670553797486,-33.40154365147168,18.71991275169395,4.07628642760419,-1.0940654551253048,2.4128118272818817,4.732186433228569,0.060330760789900406,0.6766014060516505
-75.0,-38.43249064043594,4.166746251356103,42.599236891791925,17.166923336903345,-40.50042578680851,23.395936335159945,7.800255595593,-0.6568360592875218,8.596115458193713,9.441273451204472,9.17868661613739,7.359755479372415
-74.0,7.918794853732507,7.4799467066749274,-0.4388481470577972,-7.740131540086102,4.195556034682394,3.4543580911567204,-8.814002343540498,-7.048933010636688,-5.475586823554064,-10.886583386212335,-9.599891017390311,-4.65520171622406
-73.0,40.30535994323088,6.782608499532386,-33.52275144369869,-23.50721319196139,36.934271317849976,-13.35609962088871,-15.163369142424148,-4.354931249240004,-10.542941164453772,-12.022388345195086,-9.658939430316233,-5.757027009705354
-72.0,27.324248781702472,-3.3397374855928392,-30.663986267295353,-12.0403376233281,28.941161095327438,-16.9837134170056,-2.8670043434805805,-0.25888195102045675,-3.42939238858167,-4.300718116245711,-2.655313241700557,3.013240239137665
-71.0,2.1692358640647136,-4.799324419042238,-6.968560283106832,1.3365550171386946,4.6018541261584645,-5.858726125439052,6.808013115653168,3.8419474035696592,-1.103961021598861,2.5800807767454623,4.802659536502137,1.7617170477825543
-70.0,-7.427896287992845,3.107767126696668,10.535663414689807,2.172092949957281,-8.941057618791367,6.85579430437757,2.464700544438424,-0.19385939379442085,-0.2210173900750365,1.9654949231892194,3.365525147328838,1.9714021934213504
-69.0,-15.108935915482816,5.447312894552752,20.55624881003587,4.835762834178998,-17.86351140975739,12.965599876576139,3.7295272912048905,1.2882978493004185,7.624169369761685,6.855453048502727,2.7400703275632217,1.276106361072213
-68.0,-14.463609622287457,6.319419866383813,20.78302948867147,4.074290566594031,-17.648925844821022,13.520659933485529,-1.9612871986540243,-1.6556852941011653,3.0041952072645675,3.2450745317677505,-0.5934985874429834,-5.084602942128238
-67.0,-9.781591937572468,-11.066791984746782,-1.2852000471742908,10.428592836616355,-4.270855348059195,-6.2056860469334465,1.5704816918597317,3.249527448106918,1.701509115888093,2.1406278055968375,-0.17289543404171792,-5.460097861233577
-66.0,-0.34591109495309613,-24.551383504768285,-24.205472409815425,12.459572735672534,11.986666314431043,-24.333793179488875,-0.35450536371103636,-1.0927566885385391,-2.7421137811588188,-5.238966018625787,-4.910808220915972,-2.227752488949626
-65.0,29.123210477611643,-0.22810663738842152,-29.35131711500043,-14.506088407543228,29.21487617077649,-14.753945598401549,-4.22429208258766,0.46649819528269054,-2.2393694776035993,-2.728217056826789,0.06713356433689466,1.5770678541412
-64.0,9.312857333208687,17.60327989919279,8.290422565983803,-13.427749207909127,0.4880022229019829,12.89247591378045,6.021799875707989,3.687981430522175,3.7548420882165305,4.5013371984360475,9.670245322257378,10.34026461081521
-63.0,-10.207498382011863,17.93309870292844,28.140597084940126,-3.8234152198041755,-19.118921073255663,23.049774159780743,3.5237596086642586,2.6050529669455242,0.7747633749542278,1.3965786533137723,4.006775454313885,7.272752326101767
-62.0,-8.954532475939168,7.0643117940261195,16.01884426996522,0.9123516063473787,-12.510166351357359,11.545501888785589,-3.3254476085806957,-0.5604146378798353,0.45042060518488247,-1.0817571757388262,-3.8280370192041673,0.15327848203741068
-61.0,-9.72465731987933,-16.760844706594057,-7.036187386714779,13.213411058331719,-1.36748866449929,-11.899090389453933,-3.693385231789331,-6.992200533573765,-4.851686962358972,-3.641212401930412,-10.933484222804305,-9.883082204206652
-60.0,-14.333859083930957,-21.03097481034246,-6.697115726411444,17.73215964416699,-3.763388105727403,-13.863433526985256,-0.9137915476040566,-3.7745302866737176,-4.458776908084309,-5.550972062309222,-5.925826227489905,-7.581601707245338
-59.0,7.736158777369168,-0.9048756474191961,-8.641034424788309,-3.4465319645955486,8.162883940393545,-4.765463563179468,-5.5669400212168005,-5.767186953282325,-6.156396725266608,-3.1780583115524874,-1.6171740820032232,-4.3894618896173
-58.0,19.070501908870984,16.60933175950479,-2.4611701493661595,-17.87358749012158,10.736643207906576,7.092941996209263,0.8872074615364087,2.9201101725447316,7.333662406702066,7.3663296229675925,11.297846406495674,7.19498056916643
-57.0,17.685902102622347,17.36730438848296,-0.3185977141392673,-17.483962408620602,8.968793591028987,8.478163858432538,3.559406375624584,8.784349118933745,6.89546788860447,5.402387299382847,9.753874125450013,9.146243978514468
-56.0,6.222874157166893,7.048607428813554,0.8257332716468128,-6.594592576654799,2.740236434445011,3.983147421345867,5.518820691876404,1.9110431975431004,2.381771489742106,2.5824585797754533,-0.08574962306431466,0.4196052500823333
-55.0,-15.624228669925127,-14.594253037584107,1.0299756323411762,15.07076143885472,-8.286964408121943,-6.804225829234323,3.132778611351271,0.6559882685745024,-1.715505490887994,-1.0649109649044193,-3.2805761844557617,-2.7418736808670476
-54.0,-20.221856203082055,-24.17305267674111,-3.9511964736590186,22.236394580359985,-8.172612562547213,-14.077981495051688,-1.4477447593486872,-0.9866865892940694,-3.0175350455041503,-6.598075609963662,-11.327296602326179,-10.210316727614389
-53.0,-10.872105950959838,-11.923187216955082,-1.05108126599536,11.354928137959588,-4.865230532642517,-6.501868406311294,-0.06749039734968143,2.8742058690266417,0.10135278667092917,-0.14938531473612082,0.5418979098001033,1.050936851062195
-52.0,6.196400599668808,16.4755526566803,10.279152057011254,-11.38355337510363,-2.0699014656318955,13.437858929686591,-5.457900886304856,-4.256951586049451,0.03555735605932564,-0.03441714480113878,2.3152137990179704,3.7837594844181366
-51.0,18.23449390280472,21.30413437624369,3.069640473438745,-19.74411370068819,7.558242471606301,12.161895156723057,-4.700896003055762,-2.855079662114753,-0.9696338037022905,3.6725922370193365,5.322905216026858,8.25972633864603
-50.0,8.648497505247716,1.5148954490016404,-7.133602056246247,-5.061753907998552,7.869222681556496,-2.842372276167773,-0.6569467325129974,-3.1027748735398166,-4.561968554862281,-4.059422327996661,-1.2727621553819968,-1.0563538978166362
-49.0,-9.085769022710766,-4.106622197367979,4.979146825342733,6.613643204962149,-6.975751553768745,0.47483107974759753,5.054223165929244,-1.1124272742773373,-0.8304738225916743,1.340703262560016,0.9717231251263367,-1.4718377925210793
-48.0,-9.860464018129925,-1.4571763811441676,8.403287636985798,5.677909626755303,-9.15649074561314,3.4284699765514204,4.06060559121096,5.323207886821688,5.6248733227984395,1.157230900220608,-1.029092293173868,1.056975109340566
-47.0,2.712473730886269,-7.211199067595127,-9.923672798481308,2.1956325661301266,6.289239691061656,-8.533741988910865,-0.34402809875742957,1.645078217607999,2.6396900248040986,0.7476297075681385,-0.6715296324160795,-4.480103856872137
-46.0,4.203836664610805,-10.867751554762709,-15.07158821937341,3.3660996841180864,9.68253655091022,-12.932442784345431,-0.4162871366303271,1.558445759006407,1.5405533695371532,-0.8912888796897358,-3.4288544999271235,-6.816405747156673
-45.0,-0.5317230293209241,-3.353157120419736,-2.8214340910987135,1.908172077894211,1.1842483504350678,-3.122428227338122,-1.6503936152621073,-2.8819358892306415,-3.230365779735931,0.3646236804137248,1.215765006307604,-3.662617094696702
-44.0,4.53230498734982,17.02352776162145,12.491222774271673,-10.724178499613224,-4.024325783840524,14.729425355783548,-2.1254252301324166,-1.504762697018457,-1.3201095956717563,1.1860157582555866,2.91027718585412,4.789858660914408
-43.0,0.618685786782976,11.701912351132991,11.083226564350005,-6.1791728287843055,-5.2824991297598345,11.44899672858839,-0.9672374765349778,1.0380968577297416,-1.4979135497197793,-1.6120088360200295,0.32651486471794544,9.123216065164598
-42.0,-6.443290267711525,-2.457830990856686,3.9854592768547956,4.433507015356188,-5.190584093331909,0.7436848461342374,1.3643793637979675,0.24613302129190873,-1.8012489026217846,-4.414832634505467,-1.5514672585696432,6.424374973592163
-41.0,-8.104085921103914,-7.287921548961003,0.816164372142897,7.676484362016155,-4.439649769732892,-3.2580150068678124,2.765484371803672,3.14208344136641,3.2636670615336705,3.5325636494419275,0.3694674941900614,-4.199877068094408
-40.0,-0.7447189240895784,-12.237277935693482,-11.492559011603936,6.466008559545453,5.393311878552642,-11.89258404525038,0.9097574954547212,-2.3887044549209158,1.7764801588555963,2.9631015831775533,-0.25587897669217724,-8.287775261138083
-39.0,8.743029203480909,5.370939317491775,-3.372089885989201,-7.009669334635131,6.078617499613012,1.0434353109559122,-0.10080401095732999,-1.0642442875963956,1.8777808802515712,3.340356932132414,1.9226677886637078,-0.9733585359109584
-38.0,1.070726223662755,-5.161827366170181,-6.232553589833014,2.0873701548243133,3.5984673095905957,-5.737950177393902,0.2647870277305947,-0.8438661996278262,-0.8219413895127805,-4.207248594674207,-0.4298357144150968,-0.8763834768873937
-37.0,2.4050639430963736,-8.131322110673645,-10.536386053770109,2.8227026932541275,6.424713943579173,-9.298628043411231,-2.5030803929823966,0.8354530697658594,-4.302535746597923,-4.942687041386694,-3.8440630030635687,4.30755341745176
-36.0,6.174517906840697,11.176778281907247,5.002260375066481,-8.63890694674135,0.628199775390643,8.126089559936077,-5.114967747555028,1.1745706158348947,-1.5126571116229883,-0.018585886985608813,0.7506372849706711,4.887318956139946
-35.0,9.501153116892844,22.375408014208208,12.874254897315351,-15.98083796632772,-1.6338842433624703,17.58714455716048,1.4764501602438151,0.9758983327295798,2.298336475803549,4.047014163026369,2.304357620157731,-2.3451369506758932
-34.0,-12.789412247993141,-2.7558765492119246,10.033535698781268,7.729551902219461,-11.427281403134172,3.685050778684353,0.7953200680323869,-4.218651757935456,-2.9394842105505843,-1.9023266921654276,-4.934764768687847,-7.354579891707692
-33.0,-12.440645394593448,-6.413783999442206,6.0268613951514025,9.46171699226447,-9.241791662423818,-0.22318741730639458,0.7511417362386825,-2.457290832899957,-0.28408480148017723,-3.2033061168333203,0.3470311416072178,-2.914830815104364
-32.0,-2.4027919534167044,-1.9888758636474835,0.4139160897694343,2.22846042054719,-1.4133420520235598,-0.8190116756405512,6.990200134887928,4.9281403140650255,8.078715252806255,7.128497391309603,8.296261530462385,11.475677197075608
-31.0,-8.9409230110728,-17.053159688988156,-8.11223667791524,13.02736360982136,-0.4223564291161004,-12.621081480858368,0.09929757325114474,3.079989467316853,3.4223874475947604,2.4732260978204925,1.3049726421926557,5.848522522271882
-30.0,9.687566243396363,-2.261073374501658,-11.94863961789802,-3.763854087945634,10.801227299009184,-7.074740334264204,0.6670231868067023,2.9432542437353115,0.43524824657549877,2.7856311452718656,0.5257609027368744,-2.9674897468960784
-29.0,12.216246436545543,3.504734945848842,-8.711511490696845,-7.9123276078200035,10.434334832541634,-2.583874539667777,-5.0730146126541955,-2.33257669573998,-7.43478131884093,-5.283350954833068,-5.308448163171003,-6.773719141135634
-28.0,6.916189721911025,13.02569602028758,6.10950629837638,-9.943238069676916,0.43938902881186515,9.579292005748062,-7.084264962921502,-7.83863892983432,-8.392450891210043,-8.014186109941276,-6.424456930472204,-6.435926073180342
-27.0,-1.83655556753635,5.029905051912523,6.86646061944882,-1.5651632385850212,-4.325562558098193,5.956743769611704,0.11756016193997976,-1.039490353798315,-1.7541770585793488,-3.3335369343396244,-0.965122505053706,-4.6893580418019845
-26.0,-5.681099546546324,-5.307368658325413,0.3737308882209449,5.53294000552169,-3.0058980194391176,-2.4566896786666312,4.108487562229225,3.3260979913371407,6.773321554471816,6.822485797323635,3.3316940619567315,6.388697192905061
-25.0,-0.2551395294219727,-1.4179373776452924,-1.1627978482232644,0.8064481231298677,0.39875326379373366,-1.275688454642065,4.235678747248576,2.7525498435148923,5.728099730513176,4.956589545926326,4.011619898479484,8.754081726285456
-24.0,-2.5638960060776816,-3.237214264953883,-0.6733182588762081,2.881663784428268,-0.9138066784597103,-2.0143179535801834,2.822345891380887,0.42513469320720465,4.631277170913227,2.3077168510021617,4.06653877765018,4.406175278778189
-23.0,-2.154196208471715,-5.011979926220846,-2.857783717749181,3.574796178542104,0.315604874401783,-3.9117906440030024,-2.4747676397207834,1.6749381564624164,-0.4498989341870754,-0.7616148679900254,-0.3142976766353702,-2.4490793917009697
-22.0,1.3066028144222965,0.5728051278718689,-0.7337976865504624,-0.9395419833827368,1.0739728167659766,-0.1351430819732291,-1.0069402513141315,-1.3238730793444946,-5.580151872838193,-4.986765793613317,-4.966573340752554,-5.5726979042229905
-21.0,-0.34403024723358544,6.892246530339094,7.236276777572698,-3.2685269822725758,-3.8068956069908566,7.0877808177563715,-1.4761502744144503,0.4075867526330217,-5.229887016416955,-1.0910936441050731,0.5766251509460829,-1.440321513027183
-20.0,3.1851350989969895,8.91619953544258,5.731064436445681,-6.042936633941633,-1.2867416269191532,7.346701255560974,-1.5711260428296718,-3.190951208021648,0.5203076710103409,0.2151146164485629,-0.6911977863414142,-1.034624064717438
-19.0,-10.710488384385197,-4.786271072908919,5.9242173114764185,7.75519231487199,-8.334271886546304,0.5933690425142024,0.9301260467290435,-5.579297291111798,0.5708757543501364,-0.7229205658385485,-2.964467858716574,-3.430892487709982
-18.0,-1.9257978972509164,-2.247525789102191,-0.3217278918511499,2.0899168781864264,-0.8273114802650319,-1.2564597405936546,-3.970052647972174,1.4016623236368906,-1.5600661774846596,-3.7650964069149904,-3.025009165614487,0.26095754898152435
-17.0,5.625983602225805,-2.610362975278749,-8.236346577504563,-1.5101603343674914,6.973406631760626,-5.46829838387259,1.4280190367336743,5.393765862189202,4.4009988290457756,5.051006398903127,3.8858412923592534,8.999266926466321
-16.0,9.275231593367618,-9.345912240374442,-18.62114383374217,0.026170412376190055,13.979340995598406,-14.02237605096118,6.9405321879605655,7.5976260892047325,4.595109155890978,4.84277736817759,6.582820216559575,1.6113579897682855
-15.0,10.470701109330024,4.288232267352684,-6.182468841977499,-7.395525798238732,8.27079355305159,-0.9021710960711173,-1.0659821274172874,0.5346208631232936,-0.18814242293018557,1.8473262436029971,2.079656127979473,-0.5717262318027923
-14.0,-1.736152590355951,5.67388629454787,7.410038884903726,-1.9905441145795635,-4.553713700513198,6.511173225644275,-2.103826684782969,-4.447930237645515,-4.448329775243065,-2.5120751115061344,-2.820820749882918,-3.105228390488913
-13.0,-9.060117929467655,4.32809396994219,13.388211899409853,2.4198794694195054,-11.20340752081244,8.906909766956108,1.9170082434813602,-4.060072574530011,-1.1943473577624935,-0.42362272098536935,2.6581089687849,-2.9893820998973633
-12.0,-5.749668710599578,5.458675738874147,11.2083444494738,0.12022499054595825,-8.452912993570692,8.302673103982755,-1.550551078910148,-9.480734506914638,3.0736311608796503,-0.2665668896912152,-2.526199642059109,0.3229537413363932
-11.0,-7.907247944619058,-6.535213022382463,1.3720349222367183,7.276432280230974,-4.684856891288875,-2.6137769966892455,0.677811548791972,-0.6145855967829217,0.9312883289121524,-3.2220157493410357,-6.235125749128617,3.1384171684527464
-10.0,-1.4610289856676677,-15.416706188907323,-13.955677203239546,8.417458790666425,6.209635551632532,-14.64012461892736,-0.23288780691931055,6.20519494063722,-2.045935365956312,-5.368876889466729,-6.80132896570518,-4.8627359504354
-9.0,5.870960639072544,-6.554744716940145,-12.425705356012614,0.32101776377618263,9.195469141980066,-9.521379240230129,-6.562245468011487,6.122501067203814,-8.889113005656714,-6.600347547051532,-4.627685592766552,-7.398815487585802
-8.0,4.747138400378683,-2.760167427883029,-7.507305828261697,-1.0168366764474395,6.099471614341596,-5.082039326154728,0.10790190686687784,4.519723803208004,-5.70986459154282,1.3401831140678915,4.698121871242238,0.33056145334893405
-7.0,9.093965932551415,23.04800181715438,13.954035884602893,-16.099904220032005,-2.377450226002379,18.480341624310263,0.3155870170153698,1.7706053377673618,10.31892160887819,10.131285387025804,10.834086409073699,10.356383406070599
-6.0,-10.000493036762954,19.62633273604754,29.626825772810374,-4.770434155887628,-19.840155137387654,24.613505958122417,9.257483859536404,1.4102459861821943,14.441264028596178,16.15609956186643,15.639808938906306,11.265838772760278
-5.0,-1.537968382666576,0.16411876057759223,1.7020871432439915,0.7224035374611408,-1.6481887802818624,0.9274511331939994,-1.2444984658387925,-5.394687913663217,0.2780706901597627,-2.5487222665889813,-3.508289798988029,-0.9914762504894163
-4.0,7.680383347570894,1.532230108690753,-6.148153238880298,-4.6542644687027686,6.962562632908253,-2.307702127985849,-3.6578033420001708,-5.502873898294665,-2.3053653882692555,-1.3821695446999156,-0.9683040132649166,1.8945662446597495
-3.0,6.5792042139835765,-18.286578771251097,-24.86578298523476,5.8832108963158465,15.689883464917228,-21.57246538207516,0.05653522813725864,-4.361440247892697,-6.6941331052668644,-7.075550059045073,-7.214551808239232,-5.612318689006073
-2.0,-1.8211798876960676,-18.13019278533782,-16.309012897641708,10.00728382513807,7.209999437242851,-17.215376924230902,4.8907305361681175,-5.1048680229538475,-3.010809572763585,-7.196558373917059,-10.062057786671877,-11.162257459277654
-1.0,-11.112671195103795,-4.529818611525405,6.582852583578523,7.778479630059543,-8.802960971792547,1.0281819617713106,0.3627590402538071,-3.619622669343303,-5.2115151908969075,-5.452028719862936,-6.026200913355058,-7.281889062708165
0.0,-11.887910277378237,-8.632099272763682,3.2558110046148165,10.222500971746527,-7.525890788420529,-2.692002550055325,-0.6655889513724332,6.2846176849202315,-3.611522408843168,-2.997302363535396,-8.198149067387838,-6.650202641445998
1.0,-2.135265720383937,13.361782414485418,15.497048134869598,-5.567161571965835,-8.847175624787877,14.4173367704722,-6.8789918389780205,11.462553146427812,-1.3805431972432687,0.27452542544577074,2.176919785341398,3.7102521484806887
2.0,1.8679851391207165,3.472218466129199,1.6042333270086182,-2.699135297789116,0.10236313992736878,2.594420841599172,0.23290625603403692,7.397656120283717,9.297411028514533,8.149416119646588,14.520877369765943,14.59446641791551
3.0,10.458519593998597,7.866438633853029,-2.592080960145556,-9.110727608288432,6.496449211494521,2.602622651984605,-1.7586369832859194,2.0859489392606134,3.971699586921808,1.8090401744568974,6.803128944054757,5.697949293465882
4.0,18.045356165398676,20.484079202430053,2.4387230370311728,-19.291297921062302,7.853056542210593,11.414495830640089,-4.2426810103209105,-4.494435641398549,3.5253058014963914,5.437051871878099,6.785408283483339,4.461007417226408
5.0,2.2740677048741613,4.521684839418473,2.2476171345441247,-3.425463812217454,-0.016179764651811368,3.4054400164811174,3.7207110821287976,-3.3130413704582784,2.8544549264322754,10.063088392582992,8.255780939608108,4.72350414327918
6.0,-7.3110198493176695,-5.683857141722482,1.6271627075950241,6.546574583366888,-4.419622624812634,-2.0155081922377263,2.790560597085765,-7.650185174454906,-2.3261898358914053,1.797337147044744,0.20443542163684025,-2.0987782059438818
7.0,1.0133942880754052,-10.216654242893364,-11.230048530968828,4.569590758659341,6.093565339936528,-10.713967254808797,6.669764927468015,-6.208929629863676,-5.563166335469626,-10.44452100602598,-13.859408914435623,-11.168007049444086
8.0,-10.597284555119135,-15.475863418071828,-4.878578862952679,13.002452358047963,-2.8854169463460595,-10.166443975354824,6.525729367734763,6.3527089770606135,-0.5390741874740401,-8.361633460079911,-17.94027314100369,-11.84777702897004
9.0,0.13744764539195042,0.3382152916280603,0.2007676462361747,-0.1942917765883987,0.023546470874458603,0.2855481816735317,-3.049342739790591,0.9003917457683754,-2.98633319172268,-6.6559955335398415,-4.976790808249968,-0.6746617496194052
10.0,-9.214310322452882,0.9496040626321383,10.163914385084968,4.176095937629476,-9.710541313596282,5.501193708708073,-8.670846304920948,-3.523146169290487,-2.5091536471226243,2.450095861902414,7.2213860055525645,8.44461610968015
11.0,-5.469744939591027,-4.835271194200161,0.6344737453909053,5.118801278406122,-3.0726597940277225,-2.0706939781157576,-7.355379717950676,-4.546324270115029,-3.617819559299439,-0.9128939878675433,3.8384649356514,2.2665886499546293
12.0,-5.048775520960724,1.554009519931265,6.60278504089202,1.7155018543113467,-5.84722911348689,4.11195965156541,0.3585347031439614,2.35866614966104,3.4239913639015804,5.088292145211215,5.795122484184421,-3.382530785523227
13.0,-1.7584152471769405,6.328575681750163,8.086990928927122,-2.3152841673557676,-4.868182455577982,7.162842229876371,13.547757764351369,14.84981521819093,15.866318261500894,12.302033743958209,9.369338420400263,3.987418133028394
14.0,19.766942882979603,5.996498969924167,-13.770443913055331,-12.832248214754651,16.740099383661246,-3.934746003994513,1.613206734419533,5.419165544590312,1.034573462135091,-3.617087984001202,-2.9168830508059074,-0.32912895324306835
15.0,20.17098339257854,-0.877325084797131,-21.048308477375432,-9.597756971465856,20.654450988112927,-10.935890512442555,-5.23976314807579,-3.1877323630767953,-9.482468441925608,-8.841854372714707,-7.8655245958310935,-0.5342390337147944
16.0,6.13119048044455,-1.2589624377029467,-7.390152918147045,-2.4681392874656183,6.721252618665455,-4.300451537054554,-7.004776911268554,-5.9901680909929365,-6.9505928447140874,-3.5090506886848454,-5.519988201115099,-4.7545919671705885
17.0,7.048295102938948,-3.1367409996783837,-10.185036102616772,-1.9925789272028132,8.572800990101365,-6.636419517725972,-3.675966587308329,0.09618409861989541,-6.259092222811656,-2.4162185660264957,-0.22017140783407285,-3.0337341801657103
18.0,-7.7627944271252565,-3.1223142457596396,4.64048018136591,5.477374090809234,-6.1688258935117535,0.7876781442847967,-2.673248790643496,-7.838155698230427,-1.7316487661224276,2.4415365290468616,3.4906095060607054,5.060940655526784
19.0,-33.13175632584393,7.679539032747549,40.811295358591316,12.673684354077729,-36.93724689447322,24.202168894014925,11.536019080601518,-4.546169827917227,16.299375153800323,18.944589976620513,17.058587030831987,15.658699444635714
20.0,-32.41008709812255,10.56685342584835,42.97694052397053,10.939922534588899,-37.73251429871699,26.73635804741873,7.4196036782749415,-2.840885497722449,12.13224040925889,11.343928339556076,11.727951054232596,11.79481913750124
21.0,-15.833182844893631,4.767884466084465,20.60106731097764,5.545559164429345,-18.168553684906335,12.734185219784353,2.924149267868169,-3.0151026905829794,-0.560641345835089,-5.112176439857317,-9.626919447172558,-6.099359150781108
22.0,42.639645730051086,-6.069968980366646,-48.70961471041803,-18.273057708909953,45.65485507056772,-27.414762236780238,-7.875209310574041,7.52124165216793,-14.452989536324713,-25.82642972468826,-25.980130503675046,-21.23336059259711
23.0,53.06220235685048,-13.952297278957143,-67.0144996358076,-19.539600961596175,60.02812073507647,-40.506785096127494,-14.825640864034833,19.722021710831417,-15.087823011558596,-22.22863220308072,-18.301481682652867,-24.95684240249325
24.0,5.117967436771153,-15.005938479672405,-20.12390591644335,4.96662206174789,12.617011258286436,-17.588320263564714,7.888269568070992,13.472913391797597,7.89481354786029,10.97246249950119,11.809830686844501,5.943311100737315
25.0,-32.77829824782956,10.69271885902111,43.471017106850894,10.995676818362348,-38.12712163624904,27.136784552195692,8.872034527459745,-13.31792648392399,11.888874836332846,26.326491108316365,26.89821856357691,24.56749923212487
26.0,-15.359866421585629,9.780999973702809,25.140866395288555,2.750841687961457,-20.25659905904784,17.51563520691319,-4.233045210887115,-18.19846586559187,0.1474640981659503,7.041452632146173,7.175440720673867,10.298558308117803
27.0,-4.781605330387723,-3.8076504367256394,0.9739548936620572,4.34121677167944,-2.892159900845108,-1.441223518624298,0.9226212272906614,-12.035426884549398,-7.08345044149683,-7.809580292832798,-10.99279259032155,-7.1622702843983586
28.0,-5.871385336888929,-6.588240296667399,-0.716854959778594,6.201321337781888,-2.523683391280956,-3.678421842147637,8.533996079071503,3.007189660143503,0.4335884780098269,-5.787329604119066,-9.677069997548701,-8.099103461583834
29.0,12.826762659627775,6.7918856041222115,-6.034877055505699,-9.75801822368284,9.394300909121863,0.34901548311445385,-4.771301417845704,9.449997542649713,0.019187799784664117,-6.817440728647323,-9.45737716183758,-4.297416074819171
30.0,-2.204203937966911,-3.5595116380716076,-1.3553077001048068,2.8533849067895716,-0.39221602277643575,-2.492631146948501,-9.5191932341324,9.520540020166365,2.602697337962998,-0.6364806595408425,7.5668769781690415,4.950677845184842
31.0,5.4941808888200505,6.379317925066312,0.8851370362462236,-5.96776291379723,2.2507755113720527,3.6690691198128733,-8.640183353522573,4.776426335182738,-1.5970943479036708,5.605206928830532,10.7498359798435,7.290160282079774
32.0,4.043506781612957,0.40178686394081,-3.6417199176721344,-2.1786092513788913,3.8639176236963633,-1.58898739214601,0.1925644671129687,0.9034127891154977,-0.24786221615520543,1.6757976354901527,1.7411404047517376,-2.6907985597435244
33.0,-1.533409664472508,-4.034072994933586,-2.5006633304611103,2.8230355857014215,0.5047921560144006,-3.239981098685688,8.54045752508849,-5.656979691201917,-2.250139115583156,-2.03110188271812,-5.535943556601156,-7.15994683116639
34.0,-7.262879656771347,-6.410160428014761,0.8527192287564542,6.79133971399785,-4.0338713549579275,-2.8310228540516205,8.227679534256989,-7.010363036686803,0.4962979637944488,-1.9705430166953792,-5.196502732654458,-4.245669336964681
35.0,-4.396261353283497,12.830548042165855,17.226809395449166,-4.26867305704963,-10.861809876280342,15.056048900544553,3.3232553410695838,-7.963726302375267,1.8815382762966308,2.021293225395222,5.0445873647387,10.799823564825996
36.0,9.205372487711639,16.0913503812327,6.885977893520917,-12.627211789949149,1.1933638882206221,11.517361915577128,-3.645796829982432,-3.7062099949590928,1.451649472888469,6.368186980291434,6.857499536643951,11.444140371358237
37.0,9.44682065762069,-5.524784761986142,-14.971605419606908,-1.9443397171050536,12.169253924077863,-10.297812917952436,-5.308009878001848,5.7360030225210625,-1.933645758861442,-4.183167057817891,-6.033377370542123,-5.961935745446609
38.0,0.5422767219366,-7.703003850275815,-8.24528057221235,3.5953667805381886,4.358784616727939,-8.02463057431412,5.909251442551852,15.365017765482225,9.05145666455379,6.214574795718408,0.2851524306469009,-5.686078843166501
39.0,2.1611546981472554,-17.347314353848297,-19.508469051995387,7.609665283949287,10.883649652489114,-18.40109418029729,3.8987432765395496,12.41883898774067,2.5674739956609414,0.1547278969813724,-2.0695736429815343,-5.361001141323417
40.0,-17.81513642595959,-17.394368755772362,0.42076767018741634,17.625653650617224,-9.063834512698268,-8.46067649885041,-1.5843529373842373,-6.196571601337107,-9.556138501586554,-8.780054105506157,-4.372461487104941,-4.873686167642843
41.0,-16.411854295018156,5.770974896414492,22.182829191432695,5.268435260446542,-19.31707840715601,14.004282574966588,-12.096525762396979,-15.551849830954712,-7.305817534921136,-7.2852979890866205,-2.780757352031319,-0.7195665444932081
42.0,9.900925377037279,20.597456237597687,10.696530860560388,-15.295056023037407,-0.41423261256957566,15.677644223912134,-3.711411851144055,-8.43412513229583,-0.2669908942344055,1.0181784496795427,2.313504488142887,2.3166427306041606
43.0,10.759929278847624,15.835281137688415,5.075351858840733,-13.259003652223367,2.826351653882665,10.411356673746369,0.20928194228484842,-0.0680548879879117,3.516814449110253,4.497099296411322,4.681830871390305,6.474241371258962
44.0,4.492784988487867,2.220673676136755,-2.272111312351152,-3.3129329304474293,3.3637258296446695,-0.06648517400116738,4.765940135684248,1.0449751432790877,-1.8149074247178403,-0.9046525749911867,-1.5775849753905398,4.736138184315234
45.0,-1.7583296251527187,-12.751757754932942,-10.993428129780327,7.224971205306165,4.5934893972747854,-11.833952639726487,2.938736653215332,5.423816845957784,2.3963973327446726,3.6256649630302147,3.035711968721249,0.7036802153375614
46.0,-0.08730868673035463,-9.94474211785905,-9.857433431128817,4.990632421957345,4.933568025955436,-9.943753472197823,2.0029457575626743,9.366641391166551,5.675459219077998,5.300278294221444,4.200894016503845,0.021286882853219558
47.0,-2.5104954469941325,-3.4354603195849345,-0.9249648725908388,3.0306078793833766,-0.7493218100224426,-2.1494848280228647,4.035738366520948,4.760024580061001,0.494494375957093,-0.09892622037616716,-1.9444127943287768,-3.3114473670940834
48.0,5.4142249276423495,8.371127529634265,2.956902601991995,-6.910411780283871,1.1908655302100035,5.6877990851945075,1.124003944835599,-2.2043957581512355,-2.3515981056517115,-1.0771042515021008,-1.8208737636737184,-2.4943471110512014
49.0,3.316011679569455,0.00990424276981794,-3.3061074367994308,-1.6787072052954142,3.2738362221611834,-1.631292344214323,-0.03309194138532934,-3.8135572167812013,-0.08458117688908029,-3.8799206594212134,-3.116860041742749,-4.923949857108893
50.0,-4.608421261540162,-1.9819870313167431,2.626434230223655,3.2798366640707375,-3.572751968688502,0.2548136341079441,-3.546300432122918,-4.005131042449298,1.8612225757811505,-0.6205627223478785,0.741543930149791,4.863222887868764
51.0,-5.741779302901633,-1.7809265502786549,3.960852752623218,3.745070865583612,-4.880863448641678,1.0986402231807224,-2.7130729169887524,-2.642466237951067,0.13350703703174815,-1.6460530446053938,1.2052496426316595,0.23844525715199516
52.0,0.032986426331203855,10.489086119344748,10.456099693013616,-5.200027658699538,-5.157990174958063,10.482261236003364,-5.9885986339292945,-2.412743072310327,-3.6213977400903694,0.7052096745025338,-2.7279280349258457,-1.0602569914111808
53.0,-2.8084833981599253,7.4176460768469346,10.226129475006783,-2.323454681323196,-6.5397058231388945,8.83627740041003,-3.2592208349775,-2.0795924214141537,-6.0304197796381,0.5228885212078629,-2.097081183254565,-2.6770439589164563
54.0,-0.7940414283352493,1.6416166747061713,2.4356581030412583,-0.44284353301153123,-1.6368056653976157,2.0605112818726705,6.091228894770236,2.625208374278085,-0.4906026176062168,-2.0013679968239986,1.2013644878701109,4.296422402200305
55.0,6.291303875562213,-14.061393782035987,-20.352697657598444,3.8668894915444976,13.298453717309414,-17.176844114292418,4.784746540382425,6.755126587991361,5.457063717256566,3.767495735163897,7.245138769230858,7.246428391442765
56.0,-5.2395905249183725,-22.1659694716234,-16.926378946705146,13.764939285082448,5.8175817300257595,-19.58778727615698,4.00160129845578,0.07248685765582241,4.626951696582559,2.2906363693208096,-0.2701114356778289,-1.6469001657229247
57.0,-4.741767425352886,-8.385703140894272,-3.643935715541277,6.548504379133386,-0.4971036423730464,-6.052445399826816,0.6612814353140113,0.34158041712509757,1.2138693399047207,-2.1982617528277864,-3.197153093251403,-7.8354701367666415
58.0,-0.6773296061032763,9.570363955461179,10.247693561564635,-4.461623968411994,-5.409388084005707,9.87238933387849,-1.8276513260625122,0.46855777406318133,-0.3052537728767655,1.2480122734902404,-0.257367895083753,-1.5231580594898855
59.0,25.61609568985302,32.41561325956057,6.7995175697078105,-29.032832371848613,9.386396275214288,19.64920719123866,-7.169677283725891,2.4358873546210296,-0.7927091092271039,0.9008119525971867,-0.5267830173677299,-0.7393625696460064
60.0,6.553094974001986,27.165108516193634,20.612013542191868,-16.88005991153245,-7.046624198896047,23.930631734823493,-4.45313377207423,-6.758312406584916,-7.8921843762181645,-7.0129346595617985,-5.765324003459696,-3.185527818904137
61.0,-12.225028025259768,-19.512103678188026,-7.287075652928161,15.920876458112586,-2.482604905517896,-13.433048234821404,0.13472270241715645,-3.992101496191038,-4.711753778358194,-5.669419776069491,-2.4234821300121236,5.0921570355291745
62.0,-7.2004240625173255,-23.54268993737767,-16.342265874860384,15.339189957837199,4.55770141523522,-19.890793409091117,11.028583526559757,6.857194037690592,9.596544314566541,11.455094564140666,11.47218217647639,9.001468367146428
63.0,-18.81817721069639,-24.6859161510394,-5.867738940343165,21.793110560562052,-6.492038751985953,-15.295777235889329,5.741585687100456,-2.003669420234127,6.097785326529788,5.378284706084923,3.3518576774395927,-1.5874294624186502
64.0,-7.36748184790817,6.437018341001478,13.804500188909438,0.423530409510942,-10.531241018599786,10.108903000295465,-2.793712638789279,-2.610292717709954,-2.024851664851319,-3.8895470923940243,-2.9273272334791325,-2.8842123475556045
65.0,14.921985130712002,27.687720724865805,12.765735594153643,-21.270312401101474,1.044836463943656,20.21801514682175,-9.4847894543387,-0.6533958650726117,-5.668893795180267,-4.460874926162245,-2.149315264931005,0.28203446164958246
66.0,18.94384444771547,17.808119792465526,-1.135724655250061,-18.421403930062624,10.075827298370628,8.324768735568203,-7.062878560876437,3.417977953667589,-4.392487224663775,-0.8753818515495357,0.9356880168568309,1.0181904734906073
67.0,4.308338344138896,-11.93255961567207,-16.240897959811004,3.845085867865958,10.224302679098162,-14.106820693340527,-0.5420697625207129,0.6781670906150539,-0.6039250638253679,-3.1794033329317686,-7.402038165652737,-8.904391146105825
68.0,-8.496978451755442,-21.2535736576309,-12.756595205875403,14.908320609958956,2.153930802638863,-16.959192556185947,9.376424655825014,2.731091783662339,5.100349655746641,3.166050879461558,-2.489200881871551,-4.870948789198238
69.0,-13.3923951602796,-7.745053138677004,5.64734202160269,10.52330169661796,-9.496029494319448,-1.0953893943398496,12.101213050176783,0.08866665655244466,8.01771833102,5.429918013713449,4.26013575426015,6.634799971713523
70.0,-4.315148788775743,3.185959238552824,7.501108027328685,0.5198618217768471,-5.959489911531044,5.364664123411475,0.5568547222765474,0.8247763832507338,1.1855592968378796,2.632855904879719,6.972391775934992,8.995051387909054
71.0,13.56372845308439,18.55086437307745,4.987135919993142,-16.02161967337988,4.3219308260114015,11.784287546168656,-11.625372495971446,-5.973278508834677,-5.648725000955672,-2.6250735163378955,1.6948204797728343,0.3024523866998008
72.0,8.336291199649544,6.662393200511784,-1.6738979991377372,-7.460439189571725,5.045808467442727,2.509853424266475,-4.729020781132993,-1.0532589889069985,-3.174547704903008,-3.1309393168344135,-2.690193314106242,-2.847908203189712
73.0,-8.482224333080541,-10.445280954835571,-1.9630566217551002,9.428821947636369,-3.2918301081220154,-6.183193243939094,-2.49959160294723,-0.4005902190985813,-6.2602635382063285,-6.476851530260282,-5.278659624143942,-5.558233802417411
74.0,-6.411128144707202,-1.3939325411736747,5.017195603533392,3.9522813275469444,-5.743632141852894,1.76158561460538,4.836001525750051,1.4827523531986166,1.1172400469210166,1.063141851885121,-2.3993649778367097,-1.8263157821627427
75.0,6.030335654189952,10.260256891753423,4.229921237563362,-8.168691245574292,0.8697797422302886,7.280649026575915,0.6784308370027059,3.1583676276496124,2.6587168657441245,2.030431937856042,1.5499606655126572,2.5090854887873797
76.0,-6.10379750670789,-6.570994382952463,-0.46719687624461004,6.31783058564626,-2.7741501455262148,-3.5588566024263537,4.112966472299752,-0.5546659531053302,4.67834761375903,4.803545410845726,4.802618520315205,6.6343362154490775
77.0,0.13107859400355815,-7.15397946924362,-7.285058063247175,3.493085503214691,3.7463097242301715,-7.260278540732197,-1.9227801584359956,-3.7168658211060714,0.12779372255473564,1.2212634117214067,1.1046369557384903,-2.7328836123619524
78.0,8.197934648185543,-3.124359914413891,-11.322294562599366,-2.556423934432768,9.713818975300377,-7.190045571710266,1.240835101377687,5.646178195200655,4.519562656686894,4.453149961380847,4.131562849896229,-1.4157900022501881
79.0,-0.8265164851337015,0.7452941081646798,1.5718105932984412,0.09703499596729714,-1.1706796220201756,1.1852707194753158,4.859881237101664,4.303549818252462,0.9653664800701356,-3.0848153946919057,-2.833246711003203,1.2150315608933304
80.0,-5.323900128940931,-6.215625929045197,-0.8917258001042271,5.744704395793686,-2.267306098069599,-3.533364420570134,-4.74821698166981,-4.664158247547207,-5.490678727109753,-4.517431907903418,-6.59946615238943,-5.759448818953829
81.0,0.1351306301761417,1.7646232739186958,1.629492643742493,-0.8979364376339208,-0.717052870381808,1.7124643699822468,-3.207537263558863,-4.1768754942338315,-4.4986851445537575,-4.697256484844871,-6.6372804455444685,-4.896874509924193
82.0,5.42773956877925,20.856515177045686,15.428775608266317,-13.169405566007581,-4.964492911242304,18.076313433081197,-3.8717543192645083,-2.895746158579851,-4.318483556463306,-1.5748654371518929,3.2007990728153146,7.161779263341437
83.0,-0.759285588751532,15.88088314712131,16.640168735872724,-7.587609946891705,-8.73431287116366,16.271627750314554,-1.7350422256184925,-1.825811709054968,-1.387449364925801,2.1197407617201196,6.038235715945005,8.243324379669957
84.0,-2.85238767581943,-4.35983869774545,-1.5074510219260606,3.580067179775171,-0.6983805693990379,-2.9226244854900214,1.558520065680863,1.9289360008433571,6.619832382983529,3.748254516008584,5.064280294426245,3.5011769160176427
85.0,-0.5575211910596147,-15.776143672090528,-15.218622481030847,8.2199850754545,7.390597163858965,-15.485505410617348,6.147526340625568,3.9004930884407054,5.4126268546848655,5.261493408693487,-0.44481871471629786,-4.445020068207767
86.0,-0.8075842945339196,-22.796302942430852,-21.988718647896818,11.77597556968617,10.57580320724713,-22.378878377196223,8.997725047370476,6.655907072908837,5.737857694720384,2.160757195568563,-1.3362378674092168,-7.439252412197792
87.0,2.36483246444101,-13.262324824747378,-15.6271572891883,5.4999029167375095,8.980808170590834,-14.507024054492206,-1.877813336678832,4.382604331691012,-2.0785437572035987,-2.5167578247782734,-0.8676883096118695,-4.631078264306991
88.0,-3.9282264374484384,5.922583727670497,9.850810165118931,-1.0279711460953125,-6.909449244256694,7.907353470953885,-7.179604772066653,-7.138402919962294,-9.300084742221122,-6.275824263311425,-5.876692146777378,-2.9801167695640602
89.0,-2.7577250744124844,26.20906325845061,28.96678833286301,-11.761202653798222,-15.889960433902376,27.61425238844086,-6.33765481098323,-7.785888794587114,-3.849196575131921,-2.7259201484482527,-1.8888382450890555,3.1485055174527163
90.0,5.826334179308054,12.09204705821011,6.265712878901912,-8.921594764808106,-0.17726548429932087,9.212056991393133,2.121072129670522,1.8369798518410212,4.069965931220088,2.668447108002613,2.2369466997650633,9.216998272252159
91.0,5.591936241379906,-1.546047537469331,-7.137983778849366,-2.069244722096647,6.400189394044566,-4.380387284618419,2.795099861377601,1.5871958350747182,0.5100392328239522,1.1570213424507247,5.007787575613871,3.370970345601852
92.0,2.97349285263545,-1.688402569876312,-4.661895422511842,-0.613025237607021,3.7699280211646107,-3.2071141570587676,1.573919206311878,0.39898128497923,1.3285282519539603,1.4670950107134026,2.4642618501922566,2.004069202377507
93.0,-4.81333052755217,-2.1923329712933306,2.6209975562588097,3.5331836429366748,-3.6872157647020205,0.2656963565279957,1.337787959500942,0.6629740106854087,4.250782350396583,2.174234870756173,-0.5319918646881319,-3.6209254576780783
94.0,-10.186187885731147,-12.426658602135397,-2.2404707164042157,11.263357451757749,-3.941670863845107,-7.358723301374209,-4.426191660330765,-2.360328262099896,-3.1462090749531244,-2.3638505747122727,-5.57029244337636,-9.216013300123699
95.0,4.583841962559309,2.134075787267248,-2.4497661752920146,-3.313871716127018,3.471194134197252,-0.18296906504937382,1.6791777579116083,1.0409605468123146,0.1884362731817536,-0.909988140073533,-3.473311992258153,0.7585217770222599
96.0,2.5127383650350152,0.4434172436900137,-2.069321121344983,-1.499835902751911,2.246690868963649,-0.7607141478498605,1.1859635764514893,2.431039126785982,-2.3799543245954276,2.7106173324737544,4.801393359465045,2.5993985123538916
97.0,-2.50276622639132,-7.072381164262273,-4.5696149378709565,4.777901320190084,1.0678359644392308,-5.849212708940541,-0.1555811952583348,2.6681823954444424,0.5365682973749966,0.995595245439015,2.3408049389529224,0.07545183026031244
98.0,-1.9506171336948612,-3.180935055366445,-1.2303179216715965,2.5658837430870314,-0.326619596030004,-2.234790282108837,-0.8055293728562651,-2.958974003619544,-0.7976101588188005,-7.437920383670292,-1.064517113729417,0.6155018933185814
99.0,3.264020112736689,8.505026338385989,5.241006225649292,-5.879005357972075,-1.034427542796709,6.923035084117677,-2.4019716196772363,-1.5655359515757932,-0.9195260404486861,-0.8528882234089974,0.5065792451485747,2.6103264945333846
100.0,5.557488071884107,9.548299534532408,3.9908114626482942,-7.5475305481888135,0.8167392493063559,6.742521133282755,-0.999470573240265,0.2276310856641679,2.2986279264631473,4.584411829591891,2.9752287378655495,0.02734642148840205
101.0,4.796176609720043,1.1903073578516805,-3.6058692518684214,-2.993671390017825,4.158200549086724,-1.1540401835172398,6.908229483913008,3.945281582582714,2.6431580829061527,4.449985888491886,-3.4517347415149384,-2.2457448026937348
102.0,-6.005301540867576,-8.115574196952288,-2.1102726560848017,7.049680770819068,-1.9073748538271342,-5.137036001057229,2.0311551764543223,-2.869113073302955,-4.466305030235987,-4.782782961087658,-7.332403648486492,-3.9072398530502053
103.0,-9.893794655830913,0.12935269956678885,10.023147355397654,4.8587107242104635,-9.913688852346871,5.050577196780292,-2.3490215224576714,-4.547248631563329,0.016240403266710945,-0.9497958403195701,-1.3951449334948154,2.029933249105242
104.0,-10.518561801467223,-8.87090280843656,1.6476589930306846,9.737475318623092,-6.113919538149574,-3.641780662553057,-2.7336660999242905,-0.2822135753881261,3.3296519777396214,2.203575594485972,4.249707807174504,2.8580755435065353
105.0,3.3523605938459413,-0.8037258409841082,-4.15608643482994,-1.3199815331124523,3.723292418675419,-2.4379300870424756,1.5807157158495042,4.65272550188229,4.76784252859606,5.482856116098423,8.371617749176888,1.8556859704214423
106.0,21.352177614519974,22.426877715832333,1.0747001013125503,-21.861526095098867,10.103644483960904,11.707134319735443,-5.014262370209272,3.4012640603721316,1.0268798100021037,0.4368638913445424,5.542831884212107,1.8778187622446458
107.0,15.512107711037988,5.6393724305256585,-9.872735280512137,-10.547935573301352,12.728716160053581,-2.0865508086006743,-0.6478208654123062,-0.4036933679528214,-7.914047530104083,-7.146229981691321,-4.118692714926244,-0.5920269853706002
108.0,-4.978887402895526,-12.118475691408111,-7.139588288512458,8.579963652773943,1.108410856965227,-9.600401840010267,0.5770658116019256,-0.6695933958362309,-4.7235634953685555,-4.610443998042609,-8.49876030815507,-6.220077273320219
109.0,-23.60601542652937,-16.74194563892773,6.864069787601618,20.13143378399769,-15.29179554170895,-4.908108916487332,0.9970343344765442,-3.271518249874073,-2.6443661997982124,-1.301337191869779,-3.868741410141541,-7.8623678965358295
110.0,-17.368614219897886,-7.539998613337573,9.828615606560131,12.415848360577165,-13.577815730773782,1.101152562629136,-0.09854931615003992,-3.7678413566214424,0.7501336483279116,1.8028768384038256,1.0833550804982877,1.7190432662135695
111.0,12.184520277018729,15.966269449566308,3.7817491725473538,-14.111972744419475,4.227193497811712,9.836281234332077,2.714054244302517,-1.387935618970319,6.161074966419029,6.736428775435437,2.675865672975557,8.659895266055607
112.0,9.170091912474346,6.626380003228918,-2.5437119092455767,-7.856508986267093,5.893298678520111,2.086672583162632,5.8550810798220985,5.170696837349722,9.282003557645037,5.433256036514324,6.617926566345797,11.586879461673925
113.0,1.4921631772953061,-5.962395271622942,-7.45455844891824,2.274814323810724,4.444625347197967,-6.739620615220723,2.0828432169715114,3.619507731017089,2.0131650090661752,-0.8667549926886311,3.0520546018330093,0.03743845027646753
114.0,5.148248703792136,-1.347577374711023,-6.495826078502997,-1.8634287884171736,5.806251014860005,-3.9525316202193572,-2.1691254622121523,4.369193530922139,-1.7173189746898891,-0.026667458112629605,-1.037568706921658,-6.597010603448107
115.0,9.016760528324516,12.962306238982741,3.9455457106584717,-11.03456824620962,2.5285065006397884,8.501007963209545,-7.437518774304866,-4.369794822608211,-11.289825500425698,-9.83531164710507,-10.943687942594364,-8.476933792830767
116.0,-6.053586211330754,-2.0044479718913517,4.049138239439584,3.9803293136772377,-5.05632980777691,1.0683415384956887,-5.952293654890983,-5.948675150870268,-7.957882772750446,-6.6895860028772125,-7.68234035341993,-5.5737151615709015
117.0,-9.948179826248278,-5.191417335503262,4.756762490745071,7.595681906764446,-7.3621639893646105,-0.25091049162523316,-0.9810944588440198,-0.04858559298483378,2.5355596860287406,-0.08857228758043156,5.776819609602439,2.0379159181080926
118.0,-11.432862368081818,-12.93356942133265,-1.5007070532509352,12.204693088466446,-4.98575262101574,-7.251296194357998,1.6456669954846943,-1.5035452818890287,3.2876195989884742,5.149785695713766,6.975777827266348,-1.214184914953837
119.0,1.3200191896567137,1.2616381206735579,-0.05838106898332962,-1.2732574418026195,0.7358149879572133,0.645686069500373,8.273329504182495,2.046834470289208,6.641181907128942,11.28400481444167,6.309029429464048,2.8308868627702344
120.0,14.595836298143832,10.391412583379545,-4.204423714764456,-12.557241713548605,9.434724059048033,3.0582852441,3.8949945426262067,3.4381438509941713,7.153757880476805,6.321026464758737,1.3393894226798304,9.49571915814742
121.0,4.209020672008304,4.268682760953766,0.059662088945346525,-4.223797026996667,2.021110947003298,2.1288310808350435,2.4977275692467646,4.850261849756634,2.9070470541343694,0.7171675259437587,-0.3142624222030952,6.113018769293461
122.0,-12.961577307850298,-11.124738611262934,1.8368386965873327,12.060926330849377,-7.3798147739794855,-4.5996860501913295,-3.361143501314474,-2.7157511377681747,-7.522905774632463,-9.978172432679736,-4.641089462703306,-3.4453788563668697
123.0,2.702506297714847,-0.09580935236788157,-2.7983156500826674,-1.2804812110959962,2.7676041536264826,-1.4005288683504453,-3.489373745375225,-1.7445320651992517,-6.331809748582092,-9.063473336905894,-7.692691030127815,-5.765499172532244
124.0,16.15311266606833,13.367039567019205,-2.7860730990489992,-14.731106078259682,9.40872221112786,5.261820584661645,-5.24803031268613,-3.0489437858093664,-5.44479568091692,-5.194238923890275,-2.169555399382413,-2.6196526725497185
125.0,-3.8134173945017054,-2.7460955723543528,1.0673218221474832,3.235056554525981,-2.4198980754226254,-0.863964480931495,-1.694505828804954,0.508581797374628,-0.8003233953028506,3.3947788352849706,3.043293947050869,1.394115340836814
126.0,-13.64570319352634,-8.514427175041497,5.131276018484936,11.037505877448037,-9.364554781278379,-1.712625044741823,-0.35808242820842595,-3.243572264372203,3.196687690620971,2.6047362484227525,-1.9391480735766455,-4.135450361204471
127.0,-5.527806937226397,-1.2046220140383759,4.323184923188076,3.4006181437101963,-4.89824163207024,1.61893965851229,5.298925596491244,3.0097563944456858,6.967987159990843,7.44955804936043,3.841393696209796,0.48266140250734924
128.0,6.317345148644046,11.10189938863208,4.784554239988086,-8.680532657396697,0.7171690131693698,7.923887878535553,2.8874658604777217,1.3833362395558366,2.5128588487339174,2.0749143049103465,6.149115402618994,2.0327040033497124
129.0,4.510752535153268,5.629603794065447,1.1188512589122033,-5.126966394391756,1.7261160670064368,3.3523236562548533,2.285810747655917,1.1730401586680466,3.7002441726649655,4.163582819384101,2.190607575442366,4.177066729091619
130.0,-2.0468303577519005,-15.078810988490225,-13.031980630738335,8.578344579504822,5.44302822813609,-14.081771822503587,0.7094967078227301,1.7230387853429798,-4.855707389827139,-3.8416877151071174,-1.7314991998556504,-1.7343266115633997
131.0,-3.2965184999577586,-13.80873343458102,-10.51221493462334,8.564917945412217,3.6352150937788505,-12.113693611225692,-6.397244489464739,-3.2164340775969773,-8.030368339806975,-9.903986458353904,-7.821968342370783,-6.482626140968773
132.0,5.327754594601409,3.237651145010532,-2.0901034495909303,-4.268729869784359,3.734825408345251,0.6147387420778445,0.13663465135297992,-0.10612210046579884,-0.8230919476562013,-0.21528112264663068,-0.4903092629428656,2.34623270583322
133.0,9.121459720033425,6.554728702372507,-2.566731017660873,-7.817227353180696,5.7914323437864335,1.950974768688811,2.758012946548891,3.2018053629717445,6.276430004098957,4.31103992796385,3.7517499307083733,7.156306229281408
134.0,6.9534703177449275,14.010518410388944,7.057048092644125,-10.52900653733973,-0.02302883432571437,10.486768202485207,-2.402033499398139,0.4152637351010674,5.017526966453468,7.079835592930652,3.3782901163650387,4.394264401919298
135.0,-18.111387391268014,7.71334895137398,25.82473634264213,5.243242657040935,-21.93420761239702,16.798644632598695,0.25146697018468067,-6.468765132880543,-2.3671786950067437,-3.4844212828436594,-2.3759953155054303,-5.616341609631421
136.0,-15.056271501701426,-0.4594874446737487,14.596784057027802,7.734746911475255,-14.864972926084889,7.098457248929268,-0.4824106217679571,0.16389001706999906,-3.8907513046232136,-4.265975848177932,-2.571355428726902,-3.5180915518479376
137.0,-0.8365373992980967,-9.258632114311132,-8.422094715012918,5.0325666453038735,3.8391002004290824,-8.886675665164951,1.169405149755592,0.490137799577518,-4.208672020336167,-1.350683966741661,-1.7615498734507056,-2.005999335701822
138.0,10.548448377816069,-12.747008352444322,-23.295456730260327,1.0880634298375917,16.89323813480993,-17.984356624532573,-1.4058275934457394,3.039413466032869,-0.17946014802815502,-0.24336323930217302,1.4306786932149227,1.3355183830545556
139.0,11.66179376736814,-4.181273242765238,-15.843067010133371,-3.7516811369059777,13.723965679733938,-9.97040341158879,3.5652671666385105,2.871033755278476,8.066219198107255,4.477057865751197,3.712537743521433,1.6344062270128947
140.0,10.891458942269589,2.7097279849939007,-8.181730957275754,-6.736135190884166,9.505011582650114,-2.7693877660431454,-4.743357348006597,-1.1752851170253118,-0.6154588691829823,0.2294699817801451,0.5028298847056165,-0.8243725768943353
141.0,-3.091297549443323,1.7245581188207966,4.815855668264081,0.6653047971459789,-3.9115512616493024,3.2376862601894025,-0.6478660129156122,-1.4661412718689786,-1.3902116476913895,-3.3682498458780605,-5.647901151870897,-4.002087205626329
142.0,-0.11955269817974834,13.270632840856878,13.390185539036622,-6.596683665429883,-6.718016454588226,13.295612788493822,3.209683477748134,-1.8720153585085773,1.0529665525122849,4.14814759233849,4.012803470661073,4.873783312105281
143.0,-11.479718108803944,8.886408919174336,20.36612702797836,1.2741793240527302,-15.968263301226614,14.665719807507749,4.302246279007556,1.7959234167990377,-1.8339605992339865,0.9728772366213849,-0.02254949329506173,4.248480438449946
144.0,-17.086561975843193,-6.606336059538765,10.480225916304525,11.9034754947058,-13.750839983817219,1.9715639586036442,-2.7057279309234974,-4.508955997599574,-5.909351421089687,-4.436923831308689,-2.1548657238403717,-4.738222715573258
145.0,-10.314716793385207,-14.181170012299054,-3.86645321891379,12.228631622156264,-3.1900374777454017,-9.071029801195241,0.10302361919731107,2.176127686261116,3.131236921342467,-1.045893479078909,2.704898049785922,-1.9708121743854279
146.0,9.1180351327305,-8.392442227220922,-17.510477359951448,-0.3791358384806962,13.27268509210835,-12.919822169533683,0.18057734437192763,1.2662096180776197,4.829255226337216,1.8043119322299526,-1.1067868185035676,3.5690696205642336
147.0,15.043353986448649,0.9374312966215754,-14.105922689827148,-8.004731502616618,14.53686645901497,-6.548948201311913,-1.3674095121976177,2.7332243600188213,-0.011379260498438626,0.40760933725657666,-2.2741986621433554,0.43201989881635366
148.0,17.122006055140382,12.726502713255835,-4.395503341884648,-14.860406279186623,10.725221901277589,4.1285687720581565,-4.2833659684209575,1.0812285521918483,2.325677200499138,3.0057241195139914,2.239027704558211,-2.1011329628415427
149.0,11.89153437971039,17.00564024336138,5.114105863650936,-14.467813724193963,3.438877157535398,11.031008163009608,-1.3768286907682683,1.3771524280897685,-2.881716656445782,-1.8519772919700401,1.7100268339080835,-0.5646378905931662
150.0,-9.528645047764583,4.518562612187819,14.04720765995242,2.477407351339327,-11.731883260686754,9.262229703559285,2.6901577999733837,-3.1512377928165494,-3.380100159174638,-0.8589096657163047,1.3137194861659922,1.9956191984899336
151.0,-17.529088113139743,-13.941989929749006,3.587098183390813,15.696339832736783,-10.574490095507702,-5.112144046726522,5.448404500166417,-4.345512111790292,-0.12402312688738104,-1.741366136057515,-2.857384605014303,1.1607572721730048
152.0,-11.44459477081207,-12.68266740630434,-1.238072635492193,12.090624193324183,-5.114372670178952,-6.968464538273669,1.5833219924361903,-2.4736452866407577,0.6774678934944652,0.3136943024278369,-1.5228597623864835,1.0003036377095251
153.0,-5.504701054680153,-10.279350829109811,-4.774649774429589,7.908320383078574,-0.3737864324252893,-7.53222651083137,-4.263712835760085,0.5461512073066823,-2.6888675726636153,-0.98089052198151,-4.629658253953762,-7.424351122873279
154.0,3.9945372445015925,-0.0456929632229528,-4.040230207724438,-1.9643754074363304,4.006599309321172,-2.048168581339869,-1.4726943919770183,2.444141964369112,1.9079936514915885,1.188285727217568,2.0816367322234153,0.4436223298827793
155.0,9.73194933769948,8.64821094317353,-1.0837383945258623,-9.180394154070672,5.39050570809693,3.774300456008047,-1.3082917779329282,6.707684663261121,4.858262682887886,4.772314779456826,6.415909730547446,4.511143371269178
156.0,11.61926800381077,10.280464840089223,-1.338803163721491,-10.934795936533687,6.451991252854551,4.458140026330183,0.11806217451104883,0.6742582613023687,0.5050230371331863,-0.24620883825858275,1.4117615163629935,0.892022376059018
157.0,3.976953576332745,9.282141311841102,5.305187735508314,-6.683613487977641,-0.6228228905842057,7.275438556538341,2.803414370855342,-2.9591928089619914,-3.008513711742804,-5.08531613144457,-2.930857655742673,-4.530464680542302
158.0,-8.592516083994948,2.232886435697167,10.825402519691979,3.2161061261936483,-9.676218083495854,6.584720197731914,3.968608128693035,-4.038497839342649,-0.5880600358370074,-0.4018861225924528,-1.230294415721436,1.08118886021616
159.0,-6.401774739928722,-12.508694533618147,-6.106919793689603,9.424177412297336,-0.11963966138699389,-9.334395292371791,1.2534432557344584,2.041147761903223,0.10720658265331795,1.5395494274615376,0.25998068392428864,3.550002099710103
160.0,-3.558216967622467,-9.907210303810217,-6.348993336187875,6.711216573143589,1.3435474549346411,-8.077655925787628,-3.725401685735708,0.7102206473456251,0.47600448580337773,1.6887100955049166,-0.027482045822947,3.68447344419803
161.0,-1.3700696337239524,-6.469920697236444,-5.099851063512499,3.984064499408789,1.8156268837959648,-5.813765891304803,-7.941700327299731,-2.2791924988594907,-3.4560372021723924,-5.179348620963332,-4.719719453016648,-6.800304574035184
162.0,5.886222660985348,11.017560161092245,5.1313375001069845,-8.46276984625991,0.4117219001774415,8.04533512517593,-2.965718537044427,-0.005303417403913713,-0.37515660116426863,1.3202380775999991,2.22680168233612,-0.1466810414219637
163.0,16.317901813143475,19.45551316385642,3.1376113507130725,-17.896587858913698,6.629952812542759,11.267112423953689,4.657775442151547,2.8716466452507072,9.393956162367733,9.519736073147623,8.91470481221161,7.25825484836363
164.0,0.2779669653607719,0.7776894161577168,0.4997224507970608,-0.5388758144588266,-0.1451062569101671,0.687773540725197,6.465971157370163,-0.9544755332493295,-1.8549168682505983,0.7672221786908331,-1.0255129109257584,-4.33846104010967
165.0,-20.47017195795904,-23.396280513957624,-2.926108555998471,21.919906881896864,-8.725060074321963,-13.19035613239869,5.739001107035492,-2.4530361414766024,-4.600596234309878,-8.74949393717976,-9.671896686175415,-8.331949277382844
166.0,-15.002166600453599,-5.3929463040508825,9.609220296402805,10.182198486437827,-12.338279950901923,2.1595284477911045,-3.5523936784288903,-1.7109031759254993,-5.440621315963644,-5.366077175108753,-2.743149156066861,1.977511480152287
167.0,4.936779076896746,3.9305500621131335,-1.0062290147835484,-4.370835775052215,2.9347909972058535,1.4377435811379908,-2.6676448413697385,1.7241000650346514,3.656865265921373,1.3547957082664888,4.716872628832768,5.624642448716752
168.0,18.553776168358144,8.538107841207271,-10.015668327150866,-13.560264543189936,14.320506201560349,-0.7601483652918275,-3.652632371454616,5.2794648545210485,2.177222694499271,4.2814704292569,3.8561038296860266,4.268869615512639
169.0,2.5554205344353047,-3.923187955212927,-6.478608489648311,0.6731762458895751,4.467970988194595,-5.1420454545673735,3.6665102973597152,2.993955591284382,4.464610892826407,3.794678450716864,0.4038850858719547,-4.698639185499385
170.0,7.720774424922553,7.151268897989299,-0.5695055269334026,-7.4419951671522515,4.1716645633021106,3.2691400264336012,-2.152871096856981,-1.6849920166486658,1.3800446222381229,1.8084090562839261,4.190385654368892,3.593588045858812
171.0,-2.504318773720098,1.5052951137593422,4.009613887479271,0.4981122584443627,-3.22861812637721,2.7295317235021868,-7.641925423875602,-6.796770306287637,-10.589239589935989,-7.7908058286242525,-8.661719198736929,-6.547279649712992
172.0,-2.6035766103201334,2.059614305863435,4.663190916183449,0.27378267108016674,-3.5976263567286018,3.3232890926908496,2.7391853888904265,-3.357524102034989,-2.2362486106214035,0.9807517648599589,-1.8064890339150996,-1.8857280097776052
173.0,-2.304903935958235,-4.820405269928392,-2.5155013339701737,3.565483591918154,0.07400193523912346,-3.639690499963135,4.505783687202834,2.228141459690871,4.414520824708978,0.7008156684295117,3.281498629579577,1.3150825893983278
174.0,-14.287880845095426,-5.9128759150456425,8.375004930049844,10.101854734958582,-11.349513631661118,1.2475900164016775,4.246890003681242,0.6144416941351614,9.159433127702046,5.881143212640879,1.2338162488147786,6.420461030206055
175.0,-9.739525006463893,-2.133868224729537,7.605656781734457,5.934858198660487,-8.679139312618808,2.7441518235098616,1.0019184831783576,5.258246596043286,0.21294734677006266,-0.5008065033699978,2.9802014871887046,2.549507977958377
176.0,1.4973456352008985,5.813850165115216,4.316504529914414,-3.6617760858675954,-1.4089634478049535,5.07050035626772,2.1218834297828417,2.857523471363688,-2.5753395785507993,-1.3571203517868062,0.19121985202795977,-0.260266037984874
177.0,2.8841245801065374,0.3033801941241747,-2.5807443859823107,-1.6040845257586982,2.734487411253105,-1.1306014181898105,-1.9612189192085558,-2.286251656860478,-5.375568918568027,-5.190465488712682,-3.1619261684629247,-7.318806298874867
178.0,12.752236581784029,-2.9142884646199336,-15.666525046403903,-4.932170835584904,14.207242446627768,-9.274927021062991,-5.832306622792772,-4.14578607504308,-5.089921355691198,-0.7732217615384194,-4.130870082303947,-2.593737354679213
179.0,16.751999703367215,0.38741770497417694,-16.36458199839295,-8.505168073432564,16.547640435480854,-8.041675887180915,-4.4361332685432195,-1.503525398590896,0.9613159716073798,-0.12274747840361863,-0.139015634685989,2.7244672068974607
180.0,5.127103899351047,0.35223414049920443,-4.774869758851753,-2.7533061996830437,5.0082660262751455,-2.2534053809005696,2.3325562047142783,2.425824311764634,6.146901293334116,3.2867077302565306,4.340628932539904,2.8172807135317086
181.0,-3.076546646637985,1.9988694238591762,5.075416070497191,0.5263326501100821,-4.108385688872563,3.584060127355536,-2.8650056215430144,-3.0054390904353783,-2.3774866861958577,-4.279113517901099,-2.205376386409382,-4.145879583810082
182.0,-16.297876408393137,0.8422527122048139,17.140129120597912,7.715682800001124,-16.76046994476704,9.046402311150231,1.6596880896113577,0.7284224603830303,-0.3095484356980691,2.299855060561667,0.8507755429324244,0.6446110324211778
183.0,-11.743319049793708,1.607817339356913,13.351136389150541,5.054277447254878,-12.515631867886311,7.46121844404362,4.323535323975347,0.5422420532705858,2.848505742072172,4.705994893321198,-0.05265726110692642,0.3460698475848325
184.0,2.3235559102294197,2.4155427072150246,0.09198679698553036,-2.386277124836453,1.145870418765984,1.2368466495448835,7.863687764702157,4.664825713935572,4.610277208656979,3.578803297070093,3.4424977471463354,5.271144902729795
185.0,8.81726755551998,3.802830936417767,-5.014436619102266,-6.252603306986185,6.869759595212599,-0.6258106711626409,2.5865206106814713,1.2727034284165206,-0.24777469971410526,1.9996656256138963,3.9511019119274366,1.747357391788564
186.0,-2.8879375240888647,-10.701719457912823,-7.813781933824003,6.76860188359351,2.501187695823562,-9.284930118669363,-6.77156900375546,-2.4554093801385677,-2.680034360294482,-6.295575039531667,-2.823345470353511,-1.880894420232756
187.0,-7.634963916327516,-11.986678702024161,-4.351714785696666,9.780152168215057,-1.6752810308473212,-8.127573549314048,-6.913870099853831,-2.1323283531858856,-6.686943286866931,-10.020563166207264,-9.249541233448843,-3.463971208235158
188.0,-0.84969774901883,1.788983879858022,2.6386816288768618,-0.42527742027466375,-1.6932276010450291,2.244686105067001,-1.947407526383115,-0.40301144063038663,-0.8694197230993703,1.9664843312230857,1.597998626826051,-1.6295543045099388
189.0,1.763138478927326,12.931284111086736,11.168145632159465,-7.30631737427307,-4.727362413482778,11.992253701478361,4.676313468352086,3.9503712668257407,6.780023804159866,7.099835169967606,5.850825672412895,5.23449054410989
190.0,18.67441830016162,10.228243877414858,-8.446174422746662,-14.493408808313017,13.534232883157769,0.9055037813854412,-0.761632347599082,-1.9504598699344569,-1.7713020926583827,2.187686870491641,-0.28470053484595503,-1.947182080458474
191.0,-2.555357830221622,-5.494982662546135,-2.9396248323244105,3.977173804598433,0.16071565282203792,-4.2062540851197046,-0.4052564078808978,-3.4065700886330035,-0.766039490025779,-0.7578739095963236,-0.6736604720380797,-6.618020095892759
192.0,4.350652515587575,-4.169990216854281,-8.520642732441818,-0.06747318580309725,6.474609521309703,-6.334688789486286,0.5344107848444684,-3.4895593351215854,-0.43609568821090006,-2.7920969103421873,-2.7384395643116535,-0.2255381480181391
193.0,-12.864218392769912,-10.377266886656113,2.486951506113756,11.634429864634106,-7.6462072153411755,-3.933298550027062,3.375177779882436,2.2330804120868644,0.14611031226915416,-2.968672591301834,-1.4191230885297414,1.4489915057584137
194.0,-0.41659055679758517,5.784586407415239,6.201176964212737,-2.6792374764164375,-3.288499253880202,6.005823942191155,0.3880344501565063,2.0651299919332895,0.6819255681269161,1.1488686306900775,3.6150970111589764,10.725149396610915
195.0,6.688442462530372,9.283313823837581,2.5948713613071295,-7.987961270869366,1.9813556489082416,5.872729619634574,-1.022193632028984,5.475352123708435,1.924927354400633,3.6741639502293184,2.869107270397426,-0.9612648384368487
196.0,0.42380705194241686,-4.948811744209604,-5.37261879615205,2.257259307880868,2.907150363319681,-5.150952592075239,-2.729109414242891,2.80271026550347,0.5930132064982875,1.0571493446326434,-1.2916629381308304,-5.156671623888077
197.0,-8.56146333510705,-2.4962448454382065,6.065218489668865,5.525052866071081,-7.305858423284924,1.7905090701964888,0.7078407349968354,-2.7771348007242027,-2.2828429865503126,0.879417551166301,-1.90562872951316,-0.12187135672855876
198.0,-6.056510289841165,2.1039074648017415,8.160417754642976,1.978500958037156,-7.099718818240773,5.1353426262447766,3.850775720067256,-4.261558841293561,0.5771666408318947,-3.008976125052909,-2.3715313324557212,0.48610420373224383
199.0,2.933697344072065,0.7194476019696904,-2.214249742102293,-1.8149133479700765,2.586025805644092,-0.7439421504664265,-3.7147872145533896,-3.8604242928108996,-0.5408749827515065,-3.0298323993198344,1.0372287722394873,-2.640125346629744
