Time(ms),I,II,III,aVR,aVL,aVF,V1,V2,V3,V4,V5,V6
-200.0,-0.5495421721023528,1.7752224181061023,2.324764590208427,-0.6345157079320594,-1.4007436204677437,2.0098626729617926,-0.736727768635867,-1.7671045933984575,3.478823194654918,4.148108929147502,7.745515047839499,5.282351017153621
-199.0,2.072125135604119,4.303795960967409,2.231670825363213,-3.1335716126768314,-0.04569920462631344,3.310637599136717,3.859811296385897,-0.2384149922553882,2.0790857446814757,2.809424479533961,2.850765503833111,5.575903162718186
-198.0,5.115766937499946,1.6074068810199875,-3.5083600564800363,-3.3881228636470153,4.26735706540792,-0.902760702269803,0.7558810969495195,6.5665318854230765,0.34575459159342725,-1.1968015903874154,0.5518639042528515,2.5541979718938865
-197.0,4.175349086710836,-0.8513836619932171,-5.026732748704115,-1.6099060536660492,4.558407613705827,-2.9654489691877197,-4.727849958756775,-2.381343220191339,-2.7785695192631303,-4.517130294373858,-7.376633912516182,-5.262904301965969
-196.0,-1.2614865717888968,0.9909909011229402,2.252477472911816,0.11090139680582733,-1.7178054396103155,1.5988157816863569,-1.7394591449247652,2.231843104128393,-1.115332141708982,2.0814316127762567,-2.744160962247405,-4.682641336044192
-195.0,-8.540341565134984,-4.883754677271435,3.6565868878635612,6.691664058801844,-6.05672738820431,-0.6351445335554605,1.9741023830834263,-5.167689869759688,-4.137422495085402,-0.862139652722332,-3.7468821269897563,-3.069029468364553
-194.0,-2.10874174242358,-1.396626311408161,0.7121154310154487,1.736135144293792,-1.4466751897140275,-0.2862751375319739,4.112786379270639,-0.7651451576799084,-0.057950666509273274,-0.010431884059894592,3.332506851952623,2.0533317575103456
-193.0,4.38500367355851,0.06749781878376404,-4.317505854774735,-2.162458441492178,4.313398566635557,-2.151257982086907,0.37367250805855834,4.7191829140058985,6.3491145646942115,2.7787198335744208,7.555649419027893,4.297012139310321
-192.0,4.048372384176783,1.2369898642465242,-2.811382519930265,-2.660115581804657,3.467271066409258,-0.8181825343566209,-1.537392042002115,1.1780985232100005,-0.18350951766105483,-2.594472657733566,-5.68007290966205,-2.83571975388203
-191.0,-1.8489644938998437,1.2794219790616645,3.128386472961506,0.2598831882780903,-2.5338901310306445,2.247214069542549,0.6659111037759644,-1.1590983189831292,0.9705314665756073,0.5016279327009205,2.8774981457346485,1.8053305201084373
-190.0,1.137468764628782,3.6162214998326934,2.4787527352039316,-2.413683908558492,-0.6392457750114063,3.009479362526087,-2.983096280276857,-1.1239030753560835,-1.8970646154421713,0.29679873066253987,-0.6950965429089018,1.858270103657346
-189.0,-5.695537990163819,-2.757659731830617,2.937878258333212,4.254021873901533,-4.283932957618218,0.13134736192707908,0.671885306309812,-2.1374255851319552,-1.148979073526036,-3.408908157591558,-0.36580039399622005,0.7077727467013696
-188.0,1.856826928402215,-0.790531054497372,-2.647357982899609,-0.519775191595687,2.21174826712816,-1.752598309385124,-1.019916299473807,-0.6804482439184344,-2.521427030810154,-0.25276270236781784,-3.8558738831576544,-6.25838561195972
-187.0,2.667643478059702,0.7734812242226066,-1.8941622538371123,-1.7177205003465152,2.3284614006646693,-0.5087991200362587,-1.4864982873442578,-0.9690140981371076,1.8300496751982696,4.146828280529341,1.7898959151741844,0.8049581562124599
-186.0,-3.0124343090337193,-1.0614527006975916,1.950981608336107,2.034967681436169,-2.5022510364841164,0.4249186889254555,1.9909560098567254,1.8047832000065314,0.7098819336415993,3.863989226000357,4.231711228079883,4.006923695089584
-185.0,-1.357848864536693,0.6022804257195823,1.9601292902562726,0.3773080305284235,-1.6700474517531507,1.267620382444441,0.5973921046699395,3.2317243684644876,-0.09921614763781494,-1.6930012329959658,2.563395049138858,2.0773957560778498
-184.0,4.249773438664922,-0.5563830687205435,-4.80615650738544,-1.8405410153960675,4.522836085115076,-2.691341093140182,3.3185693779145944,0.7568799692692638,1.9527244244542235,-2.539746593343297,-4.5977806684164815,-2.045228361979305
-183.0,4.698845131736571,-0.8993034834930383,-5.598148615229554,-1.8844886464381174,5.144410066038324,-3.258721128728778,-1.4022757002542137,-0.5363342292746183,0.4900038793928322,-2.584490029493489,-4.064404320285973,-3.3677978929596355
-182.0,1.7445536498846836,3.8905558978078743,2.1460022479232626,-2.7939013821142353,-0.20854161981635122,3.0053605719482364,-0.4596495260937805,1.8815499324996434,-0.0814566292865046,0.323766707625597,-0.4528379587518583,0.8061808787008985
-181.0,-6.809135317111643,-1.6611280331097016,5.148007284001986,4.184893638090628,-5.993471595225779,1.8045990323597794,-2.162193289074802,-5.445014392394445,-3.104617933470713,1.384399247625265,2.8869351045275002,-0.7435363018899944
-180.0,-5.6626511254321645,-1.631262398035964,4.031388727396195,3.596855866396975,-4.791462425492424,1.1775196463091824,1.8354046021061503,-0.7954543510621872,-0.5528604981264174,0.6548962065115781,2.2380302112156425,1.9592912350896565
-179.0,-2.837622539111983,-3.0437800704103077,-0.2061575312983539,2.965599482478308,-1.346315102361277,-1.6516257199224857,1.052126723445737,-1.050508263396651,-2.1345518759183575,-2.1987305163003583,-2.01243116786074,-2.0116238360158194
-178.0,4.5001417266848165,3.321686314597528,-1.178455412087339,-3.8911556393167634,2.8824606679432137,1.1208987084910493,-2.3840973554464115,1.6362975801620727,3.4380935774941026,2.5793706770928275,4.150641646181952,4.913830694767093
-177.0,2.175147136944262,0.5154393135164461,-1.659707823427859,-1.3290108242120076,1.8798519135311602,-0.6033208221534432,-0.7695881471987749,2.769834364314479,2.5685659765661386,2.01255689142696,-0.9624451006803816,0.09702844783084585
-176.0,4.93448928121606,0.653400095218223,-4.281089185997867,-2.7771545959819095,4.571155216872875,-1.846378240046745,0.277747817594989,2.598657748782995,1.1478795503099413,-2.315307083897441,-5.587558266693009,-3.706907239281701
-175.0,2.887019486719695,3.6399169706980983,0.7528974839783904,-3.2414301001835186,1.112491441063777,2.2406873823437055,-2.015751590333412,-2.445655647308822,-2.062991698313989,-1.8201923890913632,1.988943197499264,-1.6293651648481127
-174.0,0.3726520243577198,-0.2655357481231403,-0.6381877724808719,-0.10114402168415138,0.47692384790820364,-0.41102087706283535,1.6047234889809734,0.409921202588172,-0.4190026061156952,0.5221913442812371,0.39257825456869433,0.8246891251183412
-173.0,-7.550113371879888,-4.835020028621557,2.7150933432583235,6.156089134040898,-5.077141009938181,-1.1033362505093987,2.0516023332505515,-3.7799251722834173,-3.886993665818836,1.2363673285664933,0.22236844850946066,0.06703531743480506
-172.0,-5.308767153412967,-3.3586782827446333,1.950088870668343,4.386947095676968,-3.6484091686727225,-0.7549091699353849,3.128994529943825,0.32371599350951197,0.06358499133804618,2.999879030680025,2.9435625326685178,1.4875344658854226
-171.0,-1.7182363377483907,0.538342640163602,2.256578977912002,0.573411328110605,-2.00414427181808,1.4177936958771897,0.7006735778842271,-1.498304445871222,2.0369702557148264,0.19854082677944762,0.7403323923434214,3.3547266005201086
-170.0,6.574696559429759,0.24913148291476883,-6.325565076514986,-3.4226793288266415,6.432955872000781,-3.024306345144296,-5.926459994592943,4.112568471878742,2.146741709117592,-6.6882484412756025,-3.1321945318287976,-2.093426739723379
-169.0,2.68928507233324,2.8953628493826216,0.20607777704938113,-2.801293865311489,1.2215012869137096,1.5615302418322954,1.8549031763916153,2.9109116294838273,0.3234045029581871,-0.4953822393083933,-1.7028393837399622,-2.1644198442627465
-168.0,1.633920975036136,2.0615253746109206,0.42760439957477625,-1.7804879155718076,0.6573040528493992,1.256660930255218,-2.189004858515078,0.26255623063534417,-0.7555449467851251,1.7488840421876062,-2.8419871946205113,-0.6754761278366168
-167.0,-2.261682365143184,2.708419237328556,4.97010160247171,-0.24175149964026166,-3.6453865089770403,3.856643849905509,-1.485074592613666,-6.088322453108452,-0.5642152889920831,2.9361271423678135,3.4740916397891213,0.19887438504818267
-166.0,2.594382602666011,2.409120203036011,-0.18526239963003066,-2.5307365795350107,1.434721192773095,1.058027845800936,3.9840154969511374,0.02181022136137578,0.4000217143666327,1.8359372647686187,2.245296664000292,1.1935890132702447
-165.0,-4.159606258954918,-7.766928264844886,-3.6073220058899813,5.92138165961855,-0.31346076575082493,-5.65531535235773,1.5819864744507475,1.7259091750899376,-0.9125656799713806,-1.795160566660764,0.1282205340384912,-0.21746950169633816
-164.0,-2.2567011579819396,-4.6565097166643366,-2.399808558682383,3.48058363732693,0.11027780841922902,-3.492523507707106,-1.43028825813927,0.33070890769622985,-0.7691249237507549,-2.214612546625538,0.9563596949160389,0.37059042589036206
-163.0,4.907137961849233,5.099241172646419,0.19210321079721515,-4.989369786063672,2.3152947251879215,2.6016303396177682,-1.085921454320758,-0.7711638173243833,0.34401011962889416,0.5011210624002931,-1.1971305743725291,0.39279707812164155
-162.0,-2.2457229673081227,0.7275431790243176,2.9732661463324828,0.7676939311375797,-2.653400906026066,1.8007937458092127,-0.35321164429750374,1.3374218946028105,0.3981960844460531,1.9088827482528727,-1.9682898390144916,1.3173545529806523
-161.0,-3.0735828882941534,-0.7106673076579113,2.362915580636277,1.9012722832524613,-2.6842387706590687,0.8470588940636372,-1.272698682350787,0.8737966366737181,2.2621702211597556,-0.9296785738764097,-0.015781579152376324,-2.536542236663885
-160.0,2.130388851758315,0.9598972130380499,-1.1704916387202429,-1.5306967306452388,1.6848342844743316,-0.09190847052683926,1.9532574218934962,0.03975378231830606,-2.5421915654276366,0.36488777843717174,0.3656626400750983,-0.5159769333932224
-159.0,1.0230096797379038,-0.8162171314715562,-1.8392268112094625,-0.08139690588289983,1.4670486631381459,-1.3179038481159857,1.6715575802334781,-1.0422526986383376,-0.7801035088560196,-0.6036038594401366,-0.7995244045712809,-0.5827301843257404
-158.0,-1.9279721947239452,-0.025283700545403687,1.902688494178514,0.9266660631601792,-1.9561454616900353,0.9508466122056296,-1.0326518518194776,-1.4617414307421288,1.696706351819359,0.2426695342984569,1.9359579279347505,3.927710649606827
-157.0,3.8912718362503935,1.861210988920123,-2.030060847330318,-2.922473183538725,2.9213215127181242,-0.06447128001539869,-0.7416051236533208,0.3500614059064421,1.5264320214585319,0.16756937032928312,0.9994637970433864,-0.024990292062812225
-156.0,-1.3699115167979763,-2.7226402757212123,-1.3527287589233001,2.0788141323148377,0.03103273766022363,-2.007193082116781,0.03938198550261829,-1.408074481900091,-2.3149270100851886,-1.2305155170858963,0.03925696615835239,-2.335511067785337
-155.0,3.0016134690095013,2.6459294202138395,-0.35568404879572624,-2.793774624877175,1.6385314373097597,1.1060344084975102,0.6895998200243667,1.488977962917726,0.32016307032466984,0.01078950160570774,-3.563246465331398,-2.3354412110615037
-154.0,-0.7152065585504292,0.44538717154972673,1.1605937301001255,0.08336403712913146,-0.9006277465539552,0.7679156379655966,-1.108674995731195,3.3787938869004077,-0.7308340793937473,-1.2224554855766008,-0.42791187322685387,2.405720660296498
-153.0,-5.557651782207869,-2.3094676897425943,3.2481840924653014,3.9600989119766816,-4.444876849712069,0.43124556643529344,0.2656285566966775,0.9115349119178424,1.8742244842630615,-0.6177706598382295,1.352579317465592,-0.30144603621728094
-152.0,-0.700653224054212,-2.3594508040550672,-1.6587975800007906,1.5594208064977118,0.5172952446010122,-1.9777816444523295,0.2701135356375723,-4.73305079991107,-1.8191695565667911,2.2410632565974895,0.5877503989046278,-0.27372214466216244
-151.0,5.47807536518013,5.3644931842572205,-0.11358218092283243,-5.3858754267908235,2.8376736521027337,2.644381499475818,-0.5332021715790638,0.38623965046213304,1.5720786674039389,5.222955284324161,3.267254644459985,2.2645925164004646
-150.0,-2.29270823085255,-0.8863820103495803,1.4063262205030247,1.5535995566290577,-1.8812771698002084,0.26758525488574025,-0.7582338330123305,-1.7157501704495082,-0.532582974870589,1.1254407639268673,1.7652729799487306,1.722577316085923
-149.0,-1.1640565552467272,-0.831053404624245,0.3330031506224905,0.9677315645547842,-0.7749393635797188,-0.2478336672878927,0.34695856621439336,1.7452333847701307,-0.8500924454294226,-5.391205277662991,-4.1682917773072194,-2.272646013580915
-148.0,2.2016064712818864,-1.6154783404207675,-3.817084811702689,-0.32031986653288447,2.987120829206935,-2.714460900110214,2.384137412067682,0.2712444789612286,-0.2768973657465772,-3.4882408653113357,-3.235820211519865,-2.932679125009945
-147.0,-1.3587112588190906,-4.297505267588718,-2.9387940087696913,2.877557638756782,0.8487102651055258,-3.6086227746930586,-1.1092385170934107,2.5578186657998585,1.7060171440290346,-0.580862349634522,0.2238922850151699,-0.12372441922491029
-146.0,-3.1182043276151603,2.054965433718446,5.173169761333549,0.49608512705807756,-4.1658096073237765,3.6365015912057093,0.17210666570173544,-1.5014560189685264,-1.0142642743515593,0.8759675550179257,-1.1627891165814777,0.10708341485044912
-145.0,4.087262280297038,3.6935321395444674,-0.3937301407526175,-3.8560258292106084,2.218638525124585,1.6087193627719674,-0.5350477907556123,0.130820822667974,1.0137725739845687,1.9293890654567183,2.911651229328629,1.0693532809402153
-144.0,1.8615312370211339,0.7968683560697443,-1.0646628809514291,-1.3041571640665277,1.43862158538316,-0.1607495037646649,-0.5516422841958364,-0.5433520444036546,-2.6328816695759127,0.8742536197112718,1.5745642428970275,0.5330453550075475
-143.0,-0.841567302124115,1.405243045651357,2.2468103477754346,-0.3432612110122417,-1.4927142675059821,1.8104502040548318,3.9579495229772306,-0.16571983478108887,2.6461081584512387,2.5833205514086717,2.20932007978822,3.399407488466894
-142.0,1.9440590568762393,1.7619033016874588,-0.1821557551888041,-1.8400990533285149,1.1118069172656477,0.8601341553091949,-0.85537456108374,-0.35691018148011255,2.3167589487879225,1.584939201288557,3.189203836939833,0.5550716578032144
-141.0,-2.425192668457891,-2.04044791229328,0.38474475616460685,2.2454763113225082,-1.4381319080617145,-0.8336234433265567,-6.48228607609589,-1.39372705882223,-2.210005246810355,-3.441815869183092,-3.836370638057433,-3.6993991946335125
-140.0,-1.2535777803670296,0.34593448005865857,1.599512260425731,0.47052690843640477,-1.46371178995374,0.965754644666118,-2.223989815409862,1.8785480582256113,-1.886146789062813,-1.8874784705521903,-3.0782129942338425,-0.39653632188437404
-139.0,0.4862888697137775,-6.401780898814329,-6.888069768528011,2.9819334031687963,3.6449876683260625,-6.656090003515328,2.2042938789401223,-0.6200228602046,-1.2640566193748068,-4.061144003909246,-6.277826885213098,-3.2268627039228273
-138.0,-4.176208792953351,-3.113692787737384,1.0625160052160618,3.599829528896263,-2.5882054202540674,-1.042584019854318,7.397487253070491,1.029390626652161,-1.6609547511963492,2.6162058757959787,1.8485255526487046,2.062196677044522
-137.0,-0.13711752283268908,3.2446017675095846,3.381719290342337,-1.5890801551542864,-1.7328541927270031,3.2904295134357,-0.1482499524611134,0.47710708411795727,3.81032397076672,3.63876888495199,4.955049855216664,2.5321908677521745
-136.0,1.3012474013454387,1.1598275355448666,-0.14141986580054544,-1.1783152963197092,0.7451821820948132,0.5613258173462852,0.7068462242228432,-0.5082064063612156,2.5740107945774997,0.013341196417030243,2.315822335196454,-0.25029790393740425
-135.0,6.493964612045766,5.194503881257221,-1.2994607307885984,-5.863781967000033,3.920111608886132,1.9200073669468845,-3.3604039536250787,-2.2841724244019965,-2.379889640704877,1.1020670897348173,0.7841673611477544,1.7200785342001783
-134.0,-0.2709529849762551,0.2985829064760597,0.5695358914522322,-0.02875921868554565,-0.4741283599512329,0.4874991027433724,-0.4626801474912421,0.5444289785355436,0.06279718424203051,-0.9030559410978732,0.6861374416860211,0.05487254682832865
-133.0,-2.5587151887227955,-1.3388777749990408,1.2198374137236183,2.014361334016262,-1.9404554174014463,-0.08067999780702728,-1.3622437238566683,3.22602338722149,2.55712247847929,-1.3137696503676926,-2.267588646723407,-0.8444625562023448
-132.0,-3.316625518784559,-2.3846935950072385,0.9319319237771946,2.8359497310298254,-2.0933179483351765,-0.7434087779393109,-2.6266561805781428,-2.6671792381959847,-1.0725401042265161,-1.1179380720354757,-4.746489465840406,-6.721402496925074
-131.0,2.7411022412782224,0.8018467845031627,-1.9392554567751326,-1.7911435068497261,2.3749035417470123,-0.5836412815384602,3.837539463264604,2.131264415173547,-0.5757321996868038,2.0983597956797055,3.546903113752764,4.525006807969961
-130.0,1.979025893879957,-0.14798476583874476,-2.1270106597186693,-0.9430007404904065,2.0915976642743734,-1.1537101857960461,0.8572106752672342,-0.573385361336497,-1.4240872458204614,-1.05461939220631,2.340902946440266,-0.5056131862263084
-129.0,1.0073158999382867,0.8078561265362525,-0.19945977340187437,-0.9441554503000079,0.5667188160416594,0.3618717429546623,-1.1395798636208643,0.40914248819126303,-1.8740155649715506,-0.8726938555931256,-2.2967872360198642,0.07725690984501432
-128.0,-5.812347339002786,-2.0822810273402226,3.7300663116627724,3.981396031590498,-4.805227974536393,0.7952071316804812,0.8449506132700559,-2.3173509940408543,-2.236504434236784,-3.3869690787893756,-5.686771827384638,0.4959668534640677
-127.0,2.471874245111684,2.3660808140667715,-0.1057934310447699,-2.3899177818925494,1.2563209915217164,1.0926469844762678,-0.04189869248163125,1.2167858613373825,4.660235767452315,5.478225177374636,5.320698453934893,2.6475456401376167
-126.0,-2.619017936142001,-2.2760214790587567,0.3429964570832462,2.4755214950974436,-1.4343851579851927,-0.9335536004408773,-0.8601785977516041,-2.6073544905493495,0.09329146343468864,-0.673378686184491,0.09994584006374918,1.7337018091160705
-125.0,0.37555726416494156,-5.4231858722365835,-5.798743136401642,2.5539125798049622,3.1331059117349125,-5.584424694263502,0.05973943439937762,0.4407816456574186,-1.3508786371654866,-0.6098755460107119,-2.6485226750249264,-2.8344289878230966
-124.0,3.2466173878421802,5.0975106174029525,1.850893229560604,-4.217545851426087,0.6631515294495454,3.4968309933781896,-2.9086564492985123,-1.5438085448138201,1.1396777377334129,0.9068186597391157,4.659365656632826,-2.294793166340829
-123.0,0.3027202330411751,4.683192935764924,4.3804727027236,-2.5363717353371884,-1.9984789164329722,4.474213946096251,2.464549830919739,4.279320883583063,3.0216449137348604,0.5040297202149983,2.2124029560714256,0.803988905746976
-122.0,-2.267753950165734,0.24617067484252608,2.5139246250081952,0.9672922345528949,-2.434859883145423,1.4016280016547813,3.2231061841551796,2.129373574355175,-1.5134271950409275,-0.6277040940055363,-0.9314455287671036,0.2722566758024338
-121.0,3.6374596428959403,0.6196574564716291,-3.0178021864242774,-2.094971459601062,3.276422911841575,-1.2542406513636557,0.2641173133209982,0.6196910613817814,-1.1947589999219632,-2.3491405848888185,-1.6794689668395082,-0.7446580941513172
-120.0,-0.4617906825874466,-0.33862279803747347,0.12316788455005079,0.43218881660207065,-0.2720302344493801,-0.08075163635813176,-2.6610054901720694,-2.009064538655738,0.4872686985594321,1.7397626014749132,-1.2995424999875935,0.1613027867560356
-119.0,-3.029649783412093,-6.722342459314182,-3.692692675901991,4.907935325185561,0.3473108376210883,-5.175912705531557,-0.9209920388726474,-1.2150805268385219,-1.3363250037282057,0.10584735984669327,-4.2974385331490526,1.635275062667844
-118.0,-0.7103460471485237,-2.6322926462538154,-1.921946599105219,1.7051220911421459,0.6214429437592666,-2.240205686687838,2.4266439994003393,0.9576639771639417,0.7649504139215156,1.6019300327623538,1.2147518339642764,1.0233454802369923
-117.0,2.0534871395313994,0.6132705660921258,-1.4402165734392314,-1.3755589709138754,1.7676033103567337,-0.45042622328880566,-3.1292458945901496,-2.373297837801999,-1.2727005082281386,-2.7730786982202877,1.4566438516386118,-2.3842604923442074
-116.0,-2.69222299971152,2.0188987284478057,4.711121728159325,0.2965108761110111,-3.6717082373233074,3.331176435300469,-1.3422713597088551,-1.403004477403938,-1.2210397435451417,-1.4259315030331117,0.6566745261938647,-4.90052521142599
-115.0,3.983383330110607,5.191941837605988,1.208558507495352,-4.627754234317981,1.3492067202057203,3.2455945410154854,0.685772580178625,-2.2321693628928023,0.1298240905950313,3.0222499913029837,2.941819353138645,5.895321410241882
-114.0,-0.009856232196797876,0.16507372772840512,0.17492995992515858,-0.04102896700673231,-0.12191796380540332,0.1343714153117621,3.623564962959965,4.859803351445702,1.9576330677800295,0.8005942084329538,-1.348614775123346,0.8414490467574267
-113.0,-3.3152156431986386,-1.1513356400430916,2.1638800031555054,2.2664062195841392,-2.764812489082629,0.4668911305637342,1.4938945019563488,1.47612974585275,1.8649552799470253,-0.4784684037384358,0.9506065461241476,1.4390694554662056
-112.0,0.8840603423446405,3.048440987315421,2.1643806449707537,-1.936911684800849,-0.5877264345846847,2.6422884124306325,-5.634049208149074,-2.0457288211595346,-1.7126360329500598,-4.367105934652935,-2.0648273489793865,0.6389304792053018
-111.0,-0.13174029345373836,-1.0865325451618646,-0.9547922517081396,0.5562256603782813,0.3797436761613654,-0.9864037003735537,3.4516785870048103,1.9058396478789001,-0.12394366047162314,1.781569318888723,-0.3973982316222824,-2.7437357440460595
-110.0,-1.649687849921476,-4.9112916508475495,-3.2616038009260766,3.303154534510862,0.845245463551706,-4.051313584613253,0.7209842704570151,-0.25187780978248975,0.2862096544503919,2.669664314861017,-0.36023488563173267,-2.8014068679843236
-109.0,3.7836857047749337,-1.1847330549521038,-4.968418759727043,-1.2799633812133362,4.329387849214811,-3.1175185703674413,-0.9616864120357369,0.05371849242803994,0.7379256148075173,0.3779559075213972,1.3143553078756287,-0.11751257770680512
-108.0,1.6117323670786932,-2.5269651127226536,-4.138697479801364,0.39508104113385195,2.9029305311689657,-3.3709413802324297,0.09302537638922592,0.4153079402979716,2.0606238792699516,0.6574625415778259,3.0409548199181793,0.8204713943731664
-107.0,1.75368177233954,5.374558989308317,3.620877216968764,-3.551033457775427,-0.9060624480159418,4.539611997997786,-0.9678603731432975,-0.6132370229121447,-0.24528626728036707,0.8447074447481114,-0.46218208190209964,3.2757884569509526
-106.0,-4.945091627181418,4.460852553456917,9.405944180638347,0.2530639488533222,-7.222715254354943,6.895204693499677,0.4161955843616936,-1.6601998668328903,-5.03732451034517,-3.4391268255208653,-4.578411189424122,-0.37031901777259213
-105.0,-2.1919619247497,-4.487251653291923,-2.295289728542187,3.3503547478140474,0.09011407559463525,-3.3544927659124664,-3.3465683820867502,-2.3919432877294775,-4.0452963169139124,-3.5497614198447343,-4.850322904352307,-3.166260417806238
-104.0,-0.6133618454575929,-4.500996287141005,-3.8876344416833843,2.570282682959322,1.6043595741575856,-4.241242015661677,1.0391236338190528,0.11813536479606168,3.7906293828294455,2.2312655231754746,2.8249388810729497,2.1773269215138957
-103.0,-0.26206503216407717,2.6585667593767,2.920631791540777,-1.1803156462635138,-1.53976319965018,2.817215135889135,2.4767923452472154,0.44912492939739257,3.569704018132712,2.858793727979011,4.448872826340319,-2.5938305699927557
-102.0,2.220010883574232,2.0802818356708817,-0.13972904790334206,-2.204365628078199,1.1543723671107395,0.9963217402664726,2.2435723622637647,4.389579184748346,3.5183722223316733,0.4458742739846049,5.5870298393156945,2.9329194988511103
-101.0,5.2915368076870335,2.6549314404500155,-2.6366053672370007,-3.9413303254354597,3.9354995277328775,-0.04132437977536718,-0.40638778359545613,-0.6516676093607066,-2.4418852354628178,-1.7932599247828938,-2.4250929080942645,-0.3255940209143159
-100.0,0.519214367944854,1.3232904206245795,0.8040760526797313,-0.9607856029462025,-0.1779623383847726,1.0978772637332486,-1.952265603355761,2.6194051008537707,-2.1262491568155197,-0.09340001048003205,-3.4147676468624404,1.6367772967658791
-99.0,-4.936783514943999,-0.7723565860162517,4.164426928927739,2.9005846106107893,-4.51590243522799,1.738492865107777,-2.7542466167408164,-4.303765926393889,-3.9590921430398676,-2.6397216710942173,-4.003355816266114,-2.664941906816048
-98.0,-2.625025132034195,-4.272080379444195,-1.6470552474100129,3.4219829850867676,-0.4613583550769331,-2.987550705074784,3.095240149195757,-0.38141567775890506,2.9253540640700577,2.991702410999168,0.6824459401361302,1.3358541600515943
-97.0,1.9754218290202643,-2.2901650496877894,-4.265586878708054,0.13631302521843436,3.145039161715328,-3.2998668496755093,2.0090514343940344,0.7262855964057602,3.8331455297867176,3.0334940468595573,1.7219413186322714,-1.5991256381858157
-96.0,-0.5903334528761732,-3.4539258863138285,-2.8635924334376313,2.0844613683409934,1.0845019397856386,-3.17855985443306,-1.7125386124378088,0.1979818787044031,-2.093923858745334,-0.5629484237622139,2.8701260668023956,-0.5478743340371918
-95.0,-1.3975258971195632,4.642964278808751,6.04049017592835,-1.635943644467658,-3.685601498877085,5.320328775613593,-2.22190177274377,-2.909574883188653,-0.12339529993679604,-0.2957148631991426,2.2685368449544443,3.9662856534049755
-94.0,5.722733936390274,4.477889159347857,-1.2448447770423932,-5.112628857786506,3.4480196546777586,1.6699327202096597,0.3326964208145715,4.729654781475035,-0.8462324149653337,-2.684449433677264,-3.7806796714726376,-4.258436966031232
-93.0,0.7053789483371811,1.5541025339730377,0.8487235856358641,-1.144183094278291,-0.019023858738095367,1.1719325683062154,0.09904202705332457,-2.2264904957781972,0.18240436214050942,-1.5290633197490824,-0.3165760690121586,2.439097009926262
-92.0,1.083560979918901,-0.5633199991394366,-1.6468809790583452,-0.2799327217945863,1.3462120486987008,-1.0583423868197566,-3.525742785396307,-0.56550614628779,-1.3176259956272176,-0.5064409554585894,-3.3005045339187467,-1.2829107691580863
-91.0,-4.21381905439039,-4.183668196128977,0.030150858261399377,4.2496414523344646,-2.138290111158474,-2.1089124080757444,4.549862237007101,0.17471679674392857,-0.2490764078018734,1.8035768017836245,1.8121725653851348,0.24463422091247722
-90.0,-4.335202951288195,-3.415387597653275,0.9198153536349056,3.838034366289187,-2.6458175415023333,-1.1996284628320604,3.3443300604999138,1.3019886402833372,0.1812380939937575,0.20620192264885318,-0.13684352001333477,-2.3149794770772676
-89.0,-0.7602859246824172,2.1860584213560834,2.9463443460384853,-0.6804636579684231,-1.8769881467433267,2.537311023426243,0.4751727019093128,-0.17299080496888714,3.998390278284807,1.6994860909952045,5.4501774483949434,5.6483092083804145
-88.0,0.7123442092039538,1.3232602247563992,0.6109160155524321,-1.071175043523174,0.09958794911846397,0.9383098680344797,-2.1546567353417005,-0.20464481586334068,-0.42289391913588936,0.5048968507272331,-1.8744133599732393,-1.1210007335551442
-87.0,3.858682480191576,0.9929559855654336,-2.86572649462614,-2.404300073796533,3.327947204993809,-0.9676959464770529,-2.9016148852247223,-0.14443923734306752,-1.9371927668290059,0.22918137462708676,-1.2428998377329887,-3.490352273256981
-86.0,6.108788329752695,3.5861566739942012,-2.5226316557584836,-4.826411347024523,4.359265430764334,0.574072874984737,-0.7196875063216994,0.21517202464858232,0.01263602463877167,-2.358222613937225,-0.6960048008564167,0.8002838733248827
-85.0,-3.3191090235664107,-3.860764242797276,-0.5416552192308564,3.6129686586174685,-1.3428458626321111,-2.165607529903098,1.9570294171690463,0.3110076850598765,-0.1435242195819466,-0.2866924111993172,-0.7567185114090976,1.714496620094081
-84.0,-2.6649987508593767,-2.102972634243764,0.5620261166156155,2.4094866994789377,-1.6427131267882515,-0.8204283046819517,-0.8958367513501556,-1.476660264792545,-1.1476588296859256,-1.240918486502419,-1.6451351971392845,-2.6108846924647637
-83.0,-1.0457938421136082,-0.3069434933254309,0.7388503487881581,0.6239742769803576,-0.9192341229422474,0.23925100872415894,-1.5873445991874042,0.3820150077829366,-2.78185963705137,1.268161215276883,0.9685086338529271,0.2537098608050372
-82.0,0.8589670913427537,1.9168215609935224,1.0578544696507381,-1.4422762660178252,-0.1275863273696649,1.5074425298881042,2.6372536534332474,-0.337470710890629,4.967290135931124,3.158646677949594,0.806143084353449,0.9313181536978755
-81.0,-0.2915673568635883,1.9051892130513028,2.1967565699148546,-0.786842107104147,-1.2775051962742763,1.991875315949745,0.061838910183072304,-0.06162162961079623,0.7461176428923679,-2.213917590170615,2.989404192310094,2.234962422015773
-80.0,-1.3238889000320062,-1.6597374689832924,-0.3358485689513113,1.5070208114857715,-0.45631856829347306,-0.9760082768898555,2.3843612022368412,1.154542176634011,-0.8046724974537591,-0.5999501341161378,2.137967733297414,2.163623193968769
-79.0,1.3035678820704328,1.652106005327747,0.34853812325730005,-1.4649878022723257,0.5076443144763069,1.0260774657943754,-1.3098048509933795,0.06153801405818382,-1.6704291290849211,-0.0012487404670995517,-2.617063281402041,-3.055052740738705
-78.0,-1.1320933143177108,-2.797890308607218,-1.6657969942895023,1.9800588447414875,0.29209521311724707,-2.201538195041884,-2.1750565974946894,0.7458154956887637,0.50864946452495,0.537418235442676,-1.8580458545800145,-1.8679243909919432
-77.0,4.994731516011607,3.4621602670938336,-1.532571248917757,-4.206055137755976,3.209319616761788,0.9199632858721554,-0.23983877282502308,-0.6436576521238849,2.4067821058007053,0.7190694487297498,-2.5391384411080913,-0.8548994537490526
-76.0,-0.5848118114386844,-1.9425956586097528,-1.3577838471710442,1.2183215169353692,0.4138668672362986,-1.6936765426192333,-1.0711242828772782,0.9860919054654127,-2.0959826014850895,-0.8178070584908895,-1.2988720045882391,-0.7411764355576487
-75.0,-4.444515759181639,-1.2239204799940613,3.2205952791876014,2.879252606889916,-3.800124804623875,1.0319523222666689,1.399292903624734,-3.596904082667832,-1.3903408612111452,1.8803571503440057,1.6641803381198033,3.1125870630804497
-74.0,0.8994431983871005,0.12024047993814319,-0.7792027184489361,-0.5346290565989856,0.7977223608537021,-0.3004536052156854,2.970563432268323,-0.11546321666037129,-0.9192478260389826,-1.8283148439343584,3.1252610421308527,-1.728767134914973
-73.0,2.396745515397323,-1.6759090035052866,-4.072654518902607,-0.38169398771006935,3.1952488018182645,-2.8520451424441613,-1.0688624746240538,3.5542327932522415,2.17078724021915,-2.1542557519027996,2.0584369963460567,2.3781195824091266
-72.0,-2.164168583333274,-0.21747484210288262,1.9466937412303804,1.1666541663486178,-2.017851969929105,0.8003575279093952,1.2481339765505792,0.05385897616387103,-0.5439630815855645,-1.811137060104278,-2.042099834233674,-1.5025288905480036
-71.0,-3.2202953646036896,1.7221656566597145,4.942461021263386,0.7953828379233017,-4.049386586401262,3.3397875941866806,-2.0133475343243195,-1.249803648759257,1.2566649634246183,3.9292143342590355,0.564326928177159,3.1114890024338635
-70.0,2.8768818004921517,4.3709801584423795,1.494098357950205,-3.66736175664448,0.6364002263350566,2.9355890907656708,-2.84042485312269,-0.10231222074183782,0.8301910176059217,2.582445900624738,-0.9790742552872708,-1.1270684579582615
-69.0,1.498764896677954,-0.6091943463038456,-2.107959242981823,-0.419924527924761,1.8182993477776597,-1.3556641981566018,1.8816694626091321,-0.32129965119126674,-1.5596872417149599,-1.6041644082297233,-2.3140166309398302,-3.926037025014513
-68.0,2.0263755913748076,0.6000467495165249,-1.4263288418582973,-1.295511652985619,1.7342219770571146,-0.40519777792962364,-2.5608697305801975,-0.9804543870464566,-1.3213596694272085,0.661977528221717,-0.03342188833899895,0.7326959707051415
-67.0,-1.418294091793398,-6.021923312133435,-4.60362922034003,3.735281765209327,1.5972361293337474,-5.29508763949885,1.4581945068555704,1.366635106609233,1.6615465558700802,-1.614833599080641,2.0465938494071114,3.300663991657717
-66.0,-1.3095430524392095,2.2106483443845835,3.52019139682382,-0.43365657263648805,-2.4086936220869477,2.895662072157604,2.3730926052110495,-1.3650156921249619,0.21699209795617816,-1.8592800206552291,0.9179915447350319,-2.572504094846906
-65.0,0.16756254331513487,0.8519158357311567,0.6843532924160475,-0.5673214582396795,-0.2457525950401771,0.732087569733675,1.3831060920897051,1.0944236783766392,-0.5643607581326198,1.2995621139755205,0.9831183844601119,1.6971885845881354
-64.0,-2.8480811036178304,-3.0329676998379025,-0.1848865962200632,2.966397412768364,-1.3875827886773946,-1.6355828688422647,2.0193813901986664,1.5901832053399212,0.15456749290012303,0.4469832138798275,-2.6452574720581956,-1.6481668787777013
-63.0,1.2460082834408341,-0.9701657669865965,-2.216174050427451,-0.18725108332006257,1.7655391680484471,-1.615574583958727,-0.5219489396757998,1.3747661206806963,0.08138165820364357,0.03192327125157307,-1.6150871316175774,-0.5720574913809763
-62.0,2.6256400378785916,4.24832640985998,1.622686371981367,-3.4057041388407936,0.5466714478521223,2.990387901310987,-4.150287215887906,-1.1927301587743424,0.26987442598484007,2.983497297659686,2.517714971783391,2.6380972422828304
-61.0,4.065282704449573,2.4057729917894513,-1.659509712660124,-3.20357664026601,2.8363468153104616,0.3429950117759579,-5.428413786822802,-4.279075255647081,-2.4312934721023978,-4.089902538711525,-0.7741248711722521,-1.0894892872750956
-60.0,-5.027441739384343,-2.0088005793171675,3.0186411600671974,3.4718812549261235,-4.046242938066187,0.5443848506894304,2.2277856682783854,1.4278518353715923,2.0980584019833937,0.29239721202260305,1.1202132795492914,0.7230147703728398
-59.0,-3.364149529078314,-2.5848713525067737,0.7792781765715705,3.008505151250147,-2.0966803162690777,-0.9518049239596834,3.953835355525081,0.9385491905112274,-0.09902809745534813,-0.915982176289822,-1.2719715302123036,-3.8941482488957813
-58.0,1.1597878539570086,1.7907078774478755,0.6309200234908866,-1.5171136213469678,0.23469567586472173,1.2323847142389122,0.821064260747467,-0.47809620889717414,-0.4670437418274401,1.10304473045438,1.7539875675678007,3.136608962286588
-57.0,3.4508153127572077,1.9521342778267319,-1.4986810349304858,-2.6606941517615597,2.5185234849879725,0.2432137909926264,1.2195127378587394,0.13529508504902632,0.8484382587940236,2.2414514156886387,0.6667348119831289,2.850214333075471
-56.0,-1.1759263563596343,-1.3179389202509704,-0.14201256389136674,1.2913376079765118,-0.4765700808234876,-0.7147621528668515,-0.30545752526518255,2.738952198963576,-0.13324599196528178,-1.6670520241273659,-1.294493813700653,-1.5266618601589532
-55.0,-0.9886503225394468,-1.9540469935523026,-0.9653966710128935,1.4386116891494958,0.0282080511109275,-1.5208201058162099,0.28084827587567956,-1.570640724130423,-1.1471033545841047,0.40309623983259274,-1.6258407952127436,-2.6597690022896283
-54.0,0.9172511733013998,-3.2213149962879473,-4.13856616958937,1.1174690730858645,2.4905842917598124,-3.6568988102554076,-0.5740424145005798,0.7720628431984865,2.0835120536970706,1.1246558563101066,-1.0557034641466558,-0.729200399606825
-53.0,-2.0876551756682,3.223700199204903,5.3113553748730915,-0.6081068324309669,-3.7348685975375004,4.29769364313551,-4.131573126579702,-2.849271373858414,1.0757799028157138,-0.5834854868314998,0.22275145391738038,1.625973195366786
-52.0,4.530848142075557,2.000858964518642,-2.529989177556905,-3.2351502619398422,3.4956962262383353,-0.3058017763865106,-1.24764154800416,0.1386448979069297,-2.2165247865064934,-2.6653089900641764,1.7123937904637272,-3.2309436398530194
-51.0,-1.1814696141583672,2.6034071219691195,3.784876736127513,-0.6882952094398256,-2.4404578654098112,3.2375908406076395,0.7060114960869897,2.4724562708226614,-2.450296049427585,1.3673975191017929,1.9115840581203138,7.299686599996314
-50.0,-0.15664717035048986,-2.863098881464987,-2.706451711114465,1.5269833529499577,1.2362727139865806,-2.8170535163454584,3.292038272369056,-0.10558251299864152,-0.011990720529329701,-1.175885637598041,-0.48012989712448373,-2.66554920602643
-49.0,-5.184279864730752,-3.939470926371391,1.2448089383593977,4.577603083332454,-3.1768461407266897,-1.3017423469281078,5.090791815649958,-0.6602907413359935,1.63496438604215,1.2956497671555498,-0.2707641432549449,0.5342313574182487
-48.0,2.1344274714201554,2.6901807613062285,0.5557532898861056,-2.4721632183226103,0.8261355776061061,1.584937680952642,-4.213900225638758,-2.6433390596784587,0.6134541679085196,2.108315702779276,0.2503301787955049,-5.093401052726637
-47.0,2.9062552130389285,0.6216623118621699,-2.2845929011767416,-1.7382974259910164,2.55460200043091,-0.8772530618831076,-1.4983891161351708,2.1549893575244683,0.8155902737885147,-0.2180310473409418,-1.6782133847748746,1.435036671803822
-46.0,4.913087531688962,2.8890455601165557,-2.024041971572406,-3.8668289134271556,3.509100108195529,0.45695844672386315,-1.5282790886049447,3.0469023739540613,3.0430396286927612,-0.06153209117684964,0.40320604283869865,5.675760341906777
-45.0,-3.5029364770956364,-0.932760424565201,2.570176052530421,2.181651392928787,-3.071937446735938,0.8364723896254627,-0.22821382903233878,-3.4102032183638498,-1.593425866481231,-2.136607585743813,-0.28407931728082403,-1.8980482025919279
-44.0,-6.297613089404844,-5.318778931193926,0.978834158210897,5.77830156797717,-3.671820908846596,-2.1550688079218543,0.5999555525353901,1.3973782168932796,-2.7866354286468313,-0.8139551756927822,-0.7394313128226201,-1.929383674710272
-43.0,0.304861502377614,4.309361632312312,4.004500129934676,-2.2549818092202325,-1.8046185698922084,4.173449578807597,2.872201748467229,-1.6977374854043263,-1.0339175161295613,0.527574963995416,0.7683644117275851,-0.3258108822792083
-42.0,0.6934107877073254,-0.7004503068964341,-1.3938610946037735,-0.02299494220826004,1.008560829812887,-1.0255093587884159,2.9238177285566502,-0.967834570434412,-0.971092837577591,0.5002568226940993,1.3291954224130573,-1.3099041802867903
-41.0,-0.7178140673469633,-5.016197669384084,-4.298383602037125,2.8380012572451223,1.8317176357095903,-4.707816302734478,-0.2675086471430861,3.1997077116871493,0.11100514500695988,-1.1505724940772286,-3.865904582049932,-0.04064079523446629
-40.0,2.3766401913276036,0.6636612503864321,-1.7129789409411658,-1.4745603505940093,2.005670663077641,-0.5693304741360465,-5.002493423534335,-2.5176668419980466,1.1622105324779726,0.29490584421997346,0.10464301017040134,-0.9582278178251638
-39.0,4.30732327791463,2.4873427772866035,-1.8199805006280072,-3.3566404258068876,3.1028045261789456,0.37153348794121965,-2.8311172776498683,-1.264292251173699,1.516453508809856,0.8924207546282,1.330025485534788,1.0072765577972227
-38.0,4.058716646488718,7.456481586988259,3.3977649404995693,-5.80055930843604,0.2921667857545067,5.466561875359872,-0.7146489192883552,4.032098231950637,5.218049630000361,3.880630737212557,5.100481477799947,4.426801026378944
-37.0,-0.3155277117810399,3.725571030853618,4.041098742634684,-1.7522481218576555,-2.135180038997857,3.8444081742247316,3.028977923939762,1.6767742468441615,0.0647628075932738,0.3085296161706039,4.7772877528192375,4.321790380416287
-36.0,-3.273049504528511,-5.261146189966446,-1.988096685437914,4.295726421430213,-0.6749837393735725,-3.662820282892395,0.3331346196594014,-1.5117162168307832,-6.560020859096242,-4.2756716110458655,-6.440797180418434,-3.8433296396662318
-35.0,-9.445977974313307,-9.997580594285822,-0.5516026199725019,9.749719393184145,-4.398708761633708,-5.23154969928837,5.843481320301644,0.029619998318175744,-2.9888700079391763,-0.8831796504987288,-4.762589355374612,-4.953509878531718
-34.0,-3.8083570217822396,-1.9325564502315329,1.8758005715507178,2.821813467636246,-2.872045350764643,0.019563349555445697,-0.4981326475035217,-4.416659143353492,0.7017966882660018,0.36639694825616953,-0.3203420921520337,0.5081818758153278
-33.0,0.7972756004963437,1.6031442222469157,0.8058686217505759,-1.1650386912731012,-0.03616766870970767,1.1805014638418785,-0.8305086994329365,-0.6725390558766937,3.1315678601544525,0.26236808855559446,-0.33026467287940864,-2.6082603769322943
-32.0,10.738023662684444,6.643223338685536,-4.094800323998905,-8.648324865980783,7.381195872813576,1.2573886387826934,-4.6274015220344795,0.25125359482933984,1.3395854967353082,0.29842452836322736,3.0488467661198775,1.4348006078836875
-31.0,2.629010902029573,3.3582699687253905,0.7292590666958141,-3.022521811247059,0.990160421362392,2.0325692428128916,-2.4098590099896726,4.605420303042513,0.9440190807327797,1.394032246995562,0.6400469488500429,2.1707086096301813
-30.0,4.0240443787006,4.785934577825827,0.7618901991252252,-4.427769585763912,1.6697251740717192,2.765222878180573,-1.0881705679630922,-1.8581660108308053,-0.618303878046802,-1.5099711855378413,0.8908133022774916,0.8945875714235165
-29.0,-5.450853746283055,-5.86219574441469,-0.41134199813163486,5.636853594000241,-2.480481971168098,-3.146741952388942,3.9208272513228453,3.1795116012539557,-0.10256384065972238,1.5910223231261276,-1.3228658857355262,1.055560145791607
-28.0,-5.999966624178068,-10.152622037501374,-4.152655413323298,8.056076384290348,-0.9607938338795867,-7.0885827633720115,4.680810388188218,-0.039743549692218605,-4.523206900898728,-3.5201818023142906,-1.2086580997029506,0.11077116208279181
-27.0,-2.246044307993834,-1.8243767080474331,0.42166759994641234,2.0897322280573256,-1.3682602602509495,-0.7230282690796099,-0.772704497969221,-4.195231963059467,-0.7635877521926411,-1.1751514204262885,-1.6364868853455685,-1.8575727447614316
-26.0,-0.4260716831843032,5.588370242202112,6.014441925386425,-2.5334357321330447,-3.2527315614776797,5.772198174744222,-1.2437847644122721,-0.8182291306046732,3.1239763703686556,5.440335498218879,6.4955458780562685,0.8652325450019687
-25.0,4.882251349495938,5.217269102909125,0.33501775341319284,-5.08963193852809,2.32063704699555,2.7407398742176103,-4.5088000831703425,1.3423220558211444,4.480365282520573,3.6831220073241058,0.947145879293255,-0.9575044766920083
-24.0,6.176349135738114,2.6720319769761844,-3.5043171587619355,-4.474096193447094,4.808696670389414,-0.3760321629959018,-1.2283637784419217,2.976866422808651,3.7972672255603834,-2.4081315608960585,-3.760633079496605,-2.00845724772951
-23.0,5.872479521358256,4.788112926457757,-1.0843665949005392,-5.311602152144021,3.525934813876977,1.8924515850981334,1.033400881048628,-0.7322640683404378,-7.077770466879789,-2.7706082014213163,-1.424439342631,0.453878137612967
-22.0,-5.812580697098285,-6.253446800703798,-0.4408661036055843,6.042869345679735,-2.7157060637386707,-3.3817928908311026,5.496744614867372,-1.0505351263605875,-3.137257896607854,-4.863243920418796,0.790208095819027,3.3071647150484056
-21.0,-11.175534113734537,-4.307855272733376,6.867678841001064,7.745557273974112,-8.970384604654381,1.3285813788550804,0.9330823326765934,-3.416644647950934,-3.645807978613055,0.7113699658424344,-1.6272272552874691,1.046109681880453
-20.0,-7.444220663592563,-4.001607687352394,3.442612976240123,5.724792520718402,-5.468508460340128,-0.30682614600605285,-0.67564587119239,-1.323168317709194,-1.1257932843423273,-0.9425511334562477,-2.4519066595674226,-1.898182413046758
-19.0,-0.8654092241008633,2.6661884803141622,3.531597704415037,-0.8961230876798694,-2.2221690177317086,3.0700034981913173,0.04687713357651646,3.782983654892466,9.551877693401853,6.61894320102997,3.9084493600870758,0.39959467970577467
-18.0,10.162447527720198,3.729784881888175,-6.432662645831927,-6.9356735960525375,8.27350541176519,-1.3873146640136986,-2.263377335554824,3.6924934102309477,4.56554456770718,1.7396741562050826,2.015016625329877,0.6299515430029925
-17.0,14.822465659535569,-2.255214022562959,-17.077679682098324,-6.264538652350989,16.002572457763655,-9.635164202171374,-5.9177913162282305,-0.0635343646353308,-3.562852231454322,-3.4331316015247513,-2.484574349400869,-4.687244724920878
-16.0,1.6813846101733416,-1.3447959820736874,-3.0261805922467095,-0.21841051990592142,2.324358663654632,-2.1679058943508682,0.2446853262949824,0.6812851672828777,1.8297694465306942,1.9785687475884588,1.174035692091261,-2.135541140829035
-15.0,-5.116839032290807,-0.022391772052221315,5.094447260238864,2.5286492784390986,-5.13787405233324,2.5410937189548584,3.5617908290762643,-5.282032988816264,-5.149115359096794,5.0843424303578475,3.9776226996804356,2.6023040786951155
-14.0,-6.9633017392732555,3.4008630033850227,10.364164742658199,1.8269649627459248,-8.618398866088723,6.87928040216266,0.771131848720902,-1.1008751959849574,-0.8082373021079037,0.052652654317632275,0.013761127590318112,6.482932379396096
-13.0,-2.374165892676504,-0.14007704332731952,2.2340888493487085,1.3091990630274024,-2.257736240064969,1.0416473422820722,2.691647727421927,4.2968234578309445,3.0566321012160476,-11.441243616468212,-10.3149237073511,-3.985561761475632
-12.0,3.152692163775546,1.2477201631190937,-1.9049720006569988,-2.2225992252626967,2.499514704620575,-0.3294499695473114,0.36948723704308906,1.2163135191255312,2.0342040758755493,-4.259996268073355,-2.2956518368459222,-3.1040817928051903
-11.0,-6.916319610360102,1.6779157073096371,8.594235317669508,2.598495937997312,-7.780461395873839,5.145468179647751,0.9518668685709863,-3.890094824199746,-5.435990037056282,3.427566040434413,8.33087498004501,7.189879389531927
-10.0,-3.377934241199016,3.592846574352726,6.970780815552103,-0.12950913325373425,-5.195267800929647,5.304999605928024,-3.2492447664023043,-7.330552898155991,-12.861874265565467,-1.267233482734781,4.952197212549432,2.2490002080587255
-9.0,0.12739326351335634,-6.924473441933419,-7.051866705446062,3.4508916355653785,3.5726251497633577,-7.029035024195709,1.1847615240331013,2.143461244369835,-1.6478220992199724,3.209660027862956,-1.8575090450421539,-2.7908554634399234
-8.0,5.566760134611242,-8.605674400477831,-14.172434535088396,1.4864791057899396,9.934896987688738,-11.416906920067781,-0.2845459783406925,13.122309820499929,13.485789262718708,3.658582113493384,-4.8287215632951925,-8.91608052746007
-7.0,5.238853267609581,2.035182505998973,-3.2036707616102653,-3.677360405444111,4.211237162708993,-0.5240153807960004,-0.3182790303502105,0.7023530996979908,11.024487489615634,6.020096977899375,0.7592157062831881,2.6548295456192657
-6.0,2.88808973657711,6.876394787968108,3.9883050513909435,-4.850216354110322,-0.5568081330256569,5.418340009427913,1.4837428356941536,-3.943263808183748,7.329935081292959,1.2859343932427552,0.8537913486094815,0.7331569711130972
-5.0,0.4174402139543072,-5.6516545774736535,-6.0690947914282845,2.6452277612271593,3.2394652586907866,-5.874954317511453,-4.338915158542532,-4.524660537501576,-5.858068521798819,-10.508219976864726,-8.092334920514935,-5.225396108446146
-4.0,1.157904183460738,0.9216363151808078,-0.23626786828058144,-1.012425015719173,0.6952257197798275,0.3229620727924263,1.4276489371963206,5.551757356736763,2.385556301964459,-1.54904470603927,0.5192933935586295,0.9591520405655362
-3.0,0.5393365843806954,-0.43446676795591643,-0.9738033523375402,-0.10187166080495835,0.7552588494613679,-0.6537244304038683,0.008311847317121757,-2.2364805658000275,-6.480850347780015,5.635836256849878,5.111540504657782,3.050857274195099
-2.0,2.801381616148564,11.56114811757574,8.75976650142649,-7.14834561582821,-2.9814407116200354,10.121482031369492,-4.130173254617924,-11.262404532303435,-15.042015043373258,1.4227532112659866,10.159940274798442,10.53713324562623
-1.0,-13.122806972636036,10.694709050867983,23.81751602350412,1.1722936472894396,-18.47451306620414,17.28482652573629,-2.5108269492375217,-10.761559560769918,-14.575398796997032,5.610131691316545,11.483677466578095,10.06338397988265
0.0,-13.052629183800677,2.617054217816921,15.669683401618371,5.179921339480907,-14.368189429198111,9.162204045669888,0.23477341560934856,4.715263875851193,6.492226009573139,5.384897529840437,0.7361096115095469,2.2471196672112645
1.0,4.464900279705869,-6.69896975860208,-11.16387003830681,1.1616251075879052,7.804630422355806,-8.998441226473856,1.8441530532934804,13.15756345277241,12.956480675478453,-6.86294823710161,-13.943827130995286,-11.611991424299148
2.0,17.121592898553683,-22.42403694102725,-39.5456298395802,2.699668359275138,28.399986683763224,-30.97592616827929,9.367789291313589,21.60483461614789,14.004755184782056,-20.591964822558552,-23.636416007713137,-22.101805401948194
3.0,3.7183686094703603,-6.475573009136487,-10.19394161860668,1.3524477291271668,6.940851601120276,-8.323209800545412,3.883216116602385,-2.0311670981959153,1.9630333705197955,-4.422013284598652,-3.954716254142956,-5.299636224088517
4.0,-2.600399345280568,-7.2635769452363785,-4.663177599956022,4.909920736546635,1.0120969617149784,-5.9433662553827595,8.025285075944035,1.101535582896819,3.8570781138266734,2.3292625734880463,5.316280931100108,-0.07787349815823794
5.0,-8.376902214243977,-3.0014004086228807,5.375501805620582,5.670314445590031,-6.901113517241945,1.2204327399946493,2.496690832588587,-4.840089711959764,-6.403783069577977,9.734279816320454,9.070286110252882,10.360747629600173
6.0,-10.691721496919591,5.864143372878156,16.55586486979702,2.4751458753325375,-13.65585301502096,11.180633500950673,-8.340600782711547,-19.662559471682172,-14.82154133745659,2.658227117853496,5.7471184169614435,8.291913648464835
7.0,-14.865078928695391,11.756826867844719,26.621905796539348,1.5356801100688915,-20.70461677800663,19.175438809428414,-11.524947860712949,-20.538126143596553,-10.239587370190414,6.3507176017430735,6.883930533843536,11.397817727940264
8.0,4.121473103858922,45.5258800402228,41.40440693636331,-24.84583489588637,-18.609843895541964,43.46288946312346,-16.203712794646716,-15.678678858571848,-0.5077685104688952,18.523166743943758,16.857535816439395,13.566595794687291
9.0,30.935478271895573,13.924463813363122,-17.011014458532266,-22.45789166314405,23.999205905814833,-1.5399844250759127,-6.152198258987626,17.795813062829726,23.033164127953373,10.994169824487674,5.019442009331086,3.123736235763394
10.0,43.06862818809285,-36.1080977229315,-79.17672591102391,-3.43588289121736,61.06633947338504,-57.640618831058056,7.897381570895444,48.980214468959865,21.467072653261432,-24.283346199988713,-30.397239215615844,-36.18739823974065
11.0,11.255874032556243,-53.05489857899427,-64.3107726115501,20.859762018088603,37.804477407808704,-58.68890573213671,22.206727509710557,36.67220757406339,-7.129419174842923,-39.69929669982275,-35.35864890839534,-35.445772171228796
12.0,-57.585102914208505,6.661027851535422,64.24613076574423,25.498221935824127,-60.97200647409492,35.43528020413195,8.280754176712986,-35.39488029509443,-35.97123944083729,2.531120569109902,20.555810517959276,26.068799492056446
13.0,-60.92603513137993,50.02837928785849,110.95441441923808,5.48541732949321,-85.91384760282413,80.5379920460497,-7.631139703435464,-65.87116047410173,-33.49948315454224,35.181007392676406,47.62233227211651,50.640829251199214
14.0,23.30789436791398,11.270227482238587,-12.037666885676437,-17.328067801826705,17.706254367162977,-0.42861451770076187,-17.643865067930655,-2.7489586156861137,22.4479287718489,23.290777704315687,8.389770146771411,6.20326758549626
15.0,41.381213626806755,-25.799029548007248,-67.18024317481536,-7.825615737686904,54.24529224287686,-46.465353486436655,-5.282016366865045,38.94078549853356,41.07746942549714,-22.754082330478152,-37.32322694551397,-35.16430805517194
16.0,12.301607266266466,-28.784822683368755,-41.08642994963627,8.289780171096073,26.748532839466748,-34.91684276576934,14.818691359775098,29.543558336120164,17.372905001740403,-33.351786516240125,-36.6795962739404,-32.879638498164205
17.0,-19.61204012088177,-0.9092140760775393,18.70282604480439,10.23171474683622,-19.17154341885031,8.913845801333942,20.297731174885335,-3.4378579092768042,-8.948377877835815,-3.261841568986018,-3.673514956365789,-2.1808136020017486
18.0,-23.186059006058944,13.6059347493143,36.791993755374556,4.838135914014252,-29.99701308993847,25.138065189977517,11.398401062815735,-20.932209949769703,-22.38100372908936,18.015447976285337,24.202958472420985,22.760805705637033
19.0,1.9967736158688183,10.21172393324996,8.21495031738287,-6.140323455917339,-3.117401362164614,9.233085714203838,-10.111161994961602,-8.947722281154475,-13.420612392985987,16.811225323528575,22.27067040564251,13.321487812036388
20.0,21.93248659829054,16.994972013805047,-4.9375145844845925,-19.50791917369726,13.418939805058567,6.050329699612849,-26.436247942018667,-6.140597999659818,3.3982140435527803,32.304567819753785,29.043667655731014,17.7170237374875
21.0,27.860977149978513,9.154809788061375,-18.70616736191719,-18.482245308486554,23.253424589126656,-4.8314955081688575,-24.75728986830579,6.23640768275088,23.32408299027629,19.436892843633757,9.35040058664666,2.1952804948685394
22.0,-2.114649965434616,-2.0996642583370413,0.014985707097028289,2.1254897737430767,-1.0336476149668616,-1.018480012758802,1.083137457554951,0.942927771172867,-2.353552122301865,-22.058667161173478,-17.477114688406527,-8.57054277041524
23.0,-23.82463978460833,-28.01892102765436,-4.194281243046865,25.93645395745007,-9.80073139059849,-16.081893673952266,18.636790298565316,5.360630704027615,-23.494100287982807,-57.4533435043415,-40.05451116823807,-21.17969875240883
24.0,-21.71630135459167,-21.645502034537387,0.0707993200529592,21.6965759031581,-10.891226311151673,-10.761781741459508,19.816991430853932,5.627274678717251,-19.353219080389604,-46.55843317210173,-33.546243696597244,-18.97366610581208
25.0,2.0989478571307227,7.04318163096587,4.944233773833688,-4.628832856169302,-1.4252519649714852,5.941011296967033,-0.1751022340367694,-4.188068477742579,13.311055077642152,15.605610107318988,8.120017662006777,5.394088708689587
26.0,17.122774239060583,21.84103162573381,4.718257386673082,-19.45280813573126,6.202542493504228,13.30504928414748,-3.18904500463744,5.638506938462907,28.82881884007004,52.92776121691514,29.644352977547697,17.455233882343027
27.0,8.477555126520379,-2.951802918550456,-11.429358045069543,-2.7249548675307125,9.963089758517572,-7.1676537954145605,9.256509864378604,9.308192607768063,15.01399303768034,27.913543227037753,13.03677051703966,1.0101053192465574
28.0,-4.412377517228775,8.253208748452213,12.665586265682713,-1.9536844443682648,-8.516404448257866,10.399117627147096,-4.448636731401754,-6.799837556326066,-4.484694449315434,4.096065872190298,7.943651597694712,2.7428498882754306
29.0,-10.193818141726906,10.992260846311916,21.18607898803965,-0.4274076472857571,-15.733028899895324,16.10190947924168,-10.217935469857792,-17.710904244356342,-17.43592802711406,-8.164444447166797,8.61176928303307,9.88148309364656
30.0,-0.8824431513520814,-6.465729532465986,-5.583286381114538,3.6484508925445867,2.3175599186106437,-6.017276520302314,-5.153513979257053,-4.377260667724649,-15.579134263273634,-17.55821234339735,-3.811324918697042,-0.5713527030395285
31.0,1.1407025322763231,-12.528099512971298,-13.6688020452491,5.7478256745956084,7.4561653934002985,-13.094685872045625,0.22959117562941778,5.625921782579951,-5.611561531173846,-13.773903483734413,-12.083696133223569,-4.485957566255201
32.0,7.252328146637954,-11.010442201264308,-18.26277034790329,1.855332566794886,12.73072371158107,-14.632832846095377,2.339392708530326,3.828026770536975,3.2373614116133993,-4.834328141928026,-13.235133015996958,-9.678688509335151
33.0,-1.2168427444375824,-8.65036196862195,-7.433519224184312,4.99045793116918,3.1567795171274016,-8.034273321618313,4.807521991656954,9.763149966990328,7.9723371122543245,-0.541351295762829,-10.153898946507564,-9.546492421590099
34.0,-1.4425357880705991,11.544669721362048,12.987205509433164,-5.070068665507336,-7.2507194196873685,12.280498363801726,-0.10810168715894175,-2.2822348688387057,4.000351144138351,5.136947715412891,4.066087704655865,4.5585769902915
35.0,-1.7085388367359258,7.3376607623114865,9.046199599048068,-2.8303719206563387,-5.418465114406613,8.214447468878765,-6.100477624755764,1.853407828464552,11.084143382493647,9.015890900040418,8.399787061899229,1.2354063709147618
36.0,8.218017942286352,12.982503400212666,4.764485457926806,-10.613743947545611,1.761659044845802,8.82400058056595,-6.789550738756974,-3.415765791662912,3.2866398085871564,5.094957896682698,10.949075695762215,7.831533137081738
37.0,5.288156615282516,13.548827809104875,8.260671193822445,-9.431451671546698,-1.450232770786743,10.859024311743886,-6.0665184311034155,-8.868807701703622,-2.554524992044014,3.9461100362058303,8.586744407354114,10.091360677740095
38.0,0.42251477457234976,-2.2073595906333328,-2.629874365205911,0.877806957268148,1.4885834940889673,-2.3854166679138276,0.773381823730948,-2.5087784071677257,-7.579818605882222,-0.08646183373831873,0.1701353955838556,2.7974742560130332
39.0,-13.721531203441742,-20.56514020411567,-6.84360900067415,17.203741106511682,-3.3901090516109527,-13.67405315419895,23.141317986968335,7.987305665154415,-9.68258550205164,-5.797909922735643,-9.733253087624277,-9.635084621935992
40.0,-16.95815598691404,-26.357129607611007,-9.398973620697062,21.63374494597086,-3.8016399216953323,-17.852413684675412,24.528009660830218,7.288851568194812,-3.546644632923467,-7.842534699336753,-15.295671853888757,-12.2749209211534
41.0,-6.158581188472202,-6.65743005285869,-0.4988488643867077,6.45562533383137,-2.8466171222763252,-3.6363333046914716,6.70617563573949,-3.852233528844171,2.902833584704868,-6.55051462035223,-8.275945195049466,-5.934486702317664
42.0,14.116067859234612,14.179040554646091,0.0629726954110979,-14.18745375234105,7.010606683825512,7.137300977243437,-26.28814651556762,2.8519938189067213,7.083882266580692,0.5047877226989961,6.1530983996205055,2.2311811870810274
43.0,22.441996522912092,21.067021350204968,-1.37497517270767,-21.804187484977003,11.888356216718202,9.859799834968888,-26.660862844706983,-0.09234816870959417,5.464462357121385,7.484811084673526,12.929535367648846,7.491918759273208
44.0,11.730174256628333,8.637203983724305,-3.092970272904358,-10.16417648987179,7.461994836190764,2.785748273808437,-12.136923900869308,-0.5155306238634587,3.196625916847095,5.3249307436886735,6.362804415554821,4.444380501086274
45.0,-5.320006345180117,0.009661231892728495,5.329667577072991,2.667161061586903,-5.3634020562813,2.607098834712243,6.067943784984822,-3.7007274211663503,-1.4469363243543027,4.898936381765164,6.981443023878969,7.556305825687559
46.0,-12.262266058637357,-2.8576273705004525,9.404638688137378,7.5682283916288995,-10.803426020826446,3.2949043604677524,15.491346353115977,-3.262186523219672,-4.2500777457799055,2.4090185071600976,-3.814286191728857,2.8118090525710997
47.0,-11.78441010533426,-4.728806876591729,7.0556032287430055,8.265948066495758,-9.398529462894345,1.192142313564261,9.053082731662894,-3.4035184428839145,-4.639794808837854,-4.401800087556783,-5.858837356797458,-3.417306586944062
48.0,-10.739261582160292,-8.045407843813429,2.6938537383471015,9.407077656400634,-6.701409344570437,-2.638680330856324,2.3825134703699664,-2.705623023269365,-3.805890628773563,-5.807859134770327,-9.49070017374239,-6.198494243489968
49.0,5.868487826570025,3.348686750128647,-2.5198010764411563,-4.585823744593268,4.126301421939991,0.3805679790512695,-4.203213537177151,2.111915218237781,1.4283949125709305,-4.245767304239126,1.0477786332689911,-1.9508877679400554
50.0,10.197070853718587,0.04018137863905347,-10.15688947507946,-5.166349463651088,10.18535642651485,-5.086586330573631,-2.904403874454612,5.288107241790222,2.9402108613228934,-1.8753810440660241,-1.9707263099227486,-3.190455022786508
51.0,4.009643668709989,-6.5178164654699655,-10.52746013418014,1.2128073749184107,7.275939070434927,-8.548291338857188,4.741273214231612,2.1577976853800953,-2.7291865427896775,-1.7632062837429707,2.2900823184027694,-3.0781461262387575
52.0,-0.8542718308976536,-8.016383844299984,-7.162112013402728,4.4764337112345665,3.1620135402050957,-7.536562514814872,4.1325172747008905,6.483901395208683,4.177839378410186,3.282546054098949,0.9879639961324163,-3.2583384596058043
53.0,1.3676448810455732,5.021318511361391,3.6536736303154345,-3.231069389058626,-1.1322634215093434,4.308992305299947,-1.5327820366343088,2.9870685321289376,5.83355595696164,8.63799481810323,4.920597743967511,6.223724231815227
54.0,0.5272303391975854,7.28565095012538,6.758420610927555,-3.8648362605080493,-3.100202963716465,7.069196358700017,-5.750020630635257,-4.699717153093234,0.8054399353224695,4.440290535504354,2.3606420594160107,8.090779852970593
55.0,-4.442232945798529,7.841338332836624,12.283571278635026,-1.6591934669849397,-8.420031431884965,10.028395486813976,-4.494579044414688,-6.7938685289869305,-2.271767500979426,-3.8477889322696197,-1.9548985289735952,2.4739671004957593
56.0,-5.3131504664096205,3.7993312891794524,9.112481755589105,0.7169284405731748,-7.184226435760336,6.4207541066505645,-3.048597464531129,-6.968880307264102,-6.937162669988288,-4.131635026920204,-0.7562308492828412,-1.532553318936582
57.0,2.914352230312302,-1.3142882380253422,-4.228640468337504,-0.7634384920332073,3.6066086394614185,-2.72750919566437,0.7513884868406,2.372756454211552,-2.5664569322710036,-1.6559021963596545,-0.7055664060651559,-2.2855601120552955
58.0,3.946783319205802,-8.013222876441874,-11.960006195647502,1.9879899236123226,7.9145188613417154,-9.941468605139542,7.049853180165131,4.945899271706168,4.1297520500363705,-2.284370493314203,-0.3432145695629776,-5.913336239803627
59.0,0.847659588249364,-6.056264655791798,-6.903924244041016,2.555335399623231,3.917565965733023,-6.512751296185776,0.09092625590332482,1.317164960177612,1.3013651381658997,2.4484003910562877,0.17469042416135294,1.6351021617902184
60.0,1.2550550333518204,-1.5207563067177805,-2.775811340069521,0.15925419526721463,1.977040912239029,-2.181276222813322,2.169154911836018,2.6088045718489363,1.0835433850922822,1.0657609088115283,-1.3979515002580114,-0.33536932428247623
61.0,-3.502364500638988,1.6734966515032061,5.175861152142206,0.9392335036165307,-4.381709259363436,3.389630675814134,-1.3638729096282312,-1.777141627903065,0.33914581408010536,2.312208596589109,-2.3738385608959827,0.09390115466730123
62.0,-2.8676979223261303,3.3698184337519717,6.237516356078103,-0.22510165782709424,-4.521954131910073,4.844015209283624,-0.765773340336175,-0.6104276897160649,0.6421334869476296,0.16884422111145647,0.9455935367954585,1.9505354106013177
63.0,3.9057499345695508,7.875876583630518,3.970126649060946,-5.861083966862118,-0.006367287415684153,5.959719997915169,-0.8245499526029033,-0.21861953865390338,-1.155424062981101,-2.371666105558096,2.6605382481503455,0.30029199749712165
64.0,-0.5350013902156525,1.9792586989798049,2.5142600891954414,-0.7661520422254364,-1.5013057384266348,2.201849456285514,-4.157683219258714,-1.4694002741479766,-2.33518589347763,-0.7012598707014712,-0.3852376496041001,-2.0090449418910783
65.0,-1.40148836087329,-5.533243071384376,-4.1317547105111085,3.4275421748984547,1.3102587684860674,-4.800280257196828,0.26955421512501343,-2.5892143696751395,-1.852362154834215,-2.7748595704052144,1.5327476968674865,2.9157047190740295
66.0,-3.0104165718801097,-8.379570014873266,-5.369153442993168,5.735562946496877,1.2063613331685117,-6.842666827476313,3.3823821550070354,1.1374351535906493,1.529128903208734,1.8785044193577434,1.8197557454027322,1.0452616519689655
67.0,1.8218490135756071,-3.9776747284995913,-5.799523742075184,1.0380218215764634,3.841935659423058,-4.935625937900548,3.953930383903577,5.513208033609651,0.8130497641173693,0.656425226142576,-2.761665722096885,-2.0027339314620196
68.0,2.190691322057466,3.530701464417429,1.3400101423599993,-2.8265343226586994,0.3814536548562415,2.3884730959272518,0.2073665601796617,-0.09321001099991433,1.9328167073353146,3.4715659154213117,-3.8773950273512274,-3.956540931552117
69.0,-1.4149670907759329,5.334444472994264,6.749411563770243,-1.9319659705356846,-4.045730835414818,6.074088166329523,-1.0311710253251505,-0.30561237484661363,1.1507573654064578,0.3341411492400592,-1.7578586009773591,-2.117748725196982
70.0,7.228476645775003,8.240163857912512,1.0116872121375544,-7.791605095538379,3.0653933172776884,4.658974181862177,-5.352690040160725,-4.093346537808183,0.47905112465688326,-0.5094124034246931,4.875678429587043,6.290355737421509
71.0,0.5787074045342722,5.291176949812149,4.712469545277903,-2.917901513877629,-2.1118017537967813,4.958014024720923,-1.9967680017873581,-0.6006670404311278,1.4448463786913528,0.4350835557836519,5.076082260042895,5.334599623427997
72.0,-5.113465677230802,-5.846346782579752,-0.732881105348953,5.495842841171827,-2.157460691758638,-3.251937289672051,0.6143329232957506,-3.357939855559259,-6.756370674742942,-5.9456116674533055,-2.9287773493950557,-3.2599612811186853
73.0,-3.9268823095188283,-9.824103846113623,-5.897221536594813,6.894406705422294,1.0201260284138542,-7.8203661318591235,5.420750903708002,4.361409447560779,-0.3517510555903063,0.5584804544783561,-0.3608634257594123,-3.8365950883980915
74.0,-2.437679857554476,-6.495213920620028,-4.0575340630655905,4.413567937418032,0.8512415297131912,-5.313810942622123,1.9434733486823916,5.385091101420924,-0.13007394864504163,1.663010483582286,-3.082674751360278,0.5445459849042553
75.0,0.05396924186404917,-0.14768126483391253,-0.2016505066980021,0.08269298005630832,0.10026693912954587,-0.21399035199357286,-0.8371528908753134,-1.478631280674136,2.903646597766685,0.5773449649312798,-0.22200044241969574,-1.224449734288587
76.0,1.6982814163497326,5.3452198852545845,3.6469384689048336,-3.553390482401591,-0.990804208307489,4.530415653961563,-2.0238733178011894,-1.5916950883255427,1.7957805068573969,0.5013557806998523,0.8548613631360162,0.5901412930366918
77.0,2.8096292685065354,7.53140913588034,4.721779867373816,-5.113001633549805,-0.9634032170445577,6.075045397994196,-1.9543349961532694,-2.8438134934860764,-0.597222600054069,0.11047632530839246,-1.0377662572188777,-0.7700956777536312
78.0,7.257686119851074,2.840559958406338,-4.41712616144471,-5.063053852474959,5.834688050678215,-0.7678858311964536,0.09254811207421176,1.7780263352854933,1.2668643128862689,-0.0753494629496182,1.7180953638255887,2.403049147001312
79.0,-1.257004491038911,-2.8040600140393424,-1.5470555230004108,2.019082610072974,0.14117823079180214,-2.158901492384621,-0.34915435667893113,-2.1113643927801258,-0.2735557102122336,0.5252612702562288,0.41288879991168836,-1.3644505066834536
80.0,-1.991406380732828,-2.5793220373507126,-0.5879156566178693,2.271055661911173,-0.711903498871244,-1.5657057044884768,-0.17750886516561576,-1.1299226915044442,-3.502324013658571,1.2889590430903584,-0.31260000992022596,0.7984647256517913
81.0,-5.832623664038024,-2.2425482643208348,3.5900753997172092,4.016190404707538,-4.731002890130132,0.6981706710723921,2.407134818235416,1.1073228140493405,0.21958020414970925,-0.8383461131423624,0.9317705122352954,0.8341670098760706
82.0,-0.6218667994186196,0.9564475483991912,1.578314347817836,-0.19740830194227188,-1.0510437832549138,1.223090994603441,2.0071372898308666,6.912751684016484,1.4452292344938524,-0.2564769092059961,0.21487599333987836,0.7585459624718135
83.0,-1.9253566336341803,1.71665322567746,3.6420098593116474,0.14582933219164984,-2.742921589920134,2.7243902302639076,-1.7397385906559553,-2.47427108955737,-1.232610110830912,-2.9670372356654933,-0.3581861919561367,0.8743364116925021
84.0,0.632115414700186,-2.98960631982391,-3.6217217345241126,1.2171355005688378,2.08375895511401,-3.331402365192582,-0.5584645440877057,-2.819091957728182,0.6374046296230744,-0.7101003394873159,-1.1046978495804296,-3.153321520193245
85.0,1.6118303775830711,-0.34515482160953537,-1.9569851991926397,-0.5933042489912157,1.7394353677042949,-1.1735959883839444,-2.1046661711761914,-3.280703517331585,-0.8854732269677015,1.6155465665906168,-0.14128343920248188,-0.20849403801846456
86.0,3.619748121408465,-1.0906111044999713,-4.710359225908471,-1.298381899558515,4.1998073252577175,-2.924668115568646,0.11659779726722863,-0.2655763338354715,-0.9565160242032535,1.1701103419752132,-2.790075680692194,-1.1390254420057537
87.0,5.291570070208186,5.141738143656999,-0.14983192655119137,-5.245168605409466,2.758250572427489,2.467120929273964,-2.412979125916013,5.372531908662322,4.090547814634497,3.3993516511116604,6.47636000691868,3.009655781814274
88.0,0.5837206647717177,1.249980122588924,0.6662594578172383,-0.9425478744626266,-0.07888207105963596,1.0033645419315662,5.313104455846195,0.08332830573645178,0.9319152396792143,-0.37686426501997916,-3.0606195475419717,-2.9667163806109462
89.0,-6.344042691732016,-2.87635354256554,3.467689149166534,4.583184969312105,-4.93994637937767,0.338760544564104,4.61066262413251,0.8830420052628294,0.5257317048339489,-3.980910534305698,-0.6442282486482743,0.737003736543771
90.0,-7.23571675691932,-2.7795274908007075,4.456189266118661,5.053970458061356,-5.798349278681789,0.8825645277322841,-2.553554778545522,-2.6101487655587303,-3.226927725355026,-1.9271247271118674,-0.5200054166815935,2.09482465998036
91.0,3.702883766165378,3.313499421616921,-0.3893843445484402,-3.469904232312561,2.017042937527671,1.4305679165086054,-2.3118618256032475,0.22030950786925807,-0.11321024444737704,1.9624874714380098,1.5268399128768742,2.4081669916492205
92.0,5.85754140145484,3.874445648125598,-1.983095753329244,-4.915279734030534,3.9709599370953708,0.9163261639653824,-7.061177557002619,-2.4151473576885643,-2.684780274211538,-0.22200763640197518,-1.7717964417163237,-3.2310769523730665
93.0,-0.4814173288427037,-2.991834693103028,-2.510417364260338,1.7581558357726652,0.9860488300959005,-2.7817729974509846,0.21375361618847855,1.1738398291890468,2.3512284525226796,3.4610554220197565,1.0472826370344617,0.39757064496565375
94.0,-1.0448023526506338,-2.0629293791368633,-1.0181270264862678,1.5693563335874527,-0.043756393774192937,-1.5767997097371265,5.618590846520629,1.60954164327106,0.1445764711219647,1.9692731693151566,2.6687254156682876,0.6675192846314096
95.0,-4.778003051303827,-5.380785622407745,-0.6027825711039746,5.091118265902343,-2.0430770882688076,-2.9579546260627203,5.387178786415961,0.7354354585340792,0.7585012672867841,-1.6767755839790588,-2.3830887459013317,-1.8879701523515755
96.0,0.20508196165721482,-1.2821470837023794,-1.4872290453596355,0.47005117892145964,0.8063447670120567,-1.35965449510062,-2.542957057176202,-0.9850443162898945,-1.043841368562338,-5.610423554918766,-1.2068979097849115,-1.9017324840788927
97.0,2.10186369571878,4.792213498631928,2.690349802913145,-3.435907332513729,-0.2623496798722661,3.7605006509732464,-1.5395778526454753,0.739790035230524,0.44666672148389996,-1.9839317065766189,0.15411581446516942,-1.0170424282430437
98.0,-2.291134233841546,4.2231219338452854,6.514256167686861,-0.9516361965810247,-4.378633913476991,5.387154704079259,1.7256770775835086,-1.383096344752606,1.6779368386447695,1.2825447972394766,0.02251005228029701,3.8419106904516025
99.0,3.5890503223237493,2.93712046262608,-0.6519298596976322,-3.2432973651385875,2.058176834276379,1.0869609482025875,-6.730790298637288,-1.3275105790506465,-2.477774428879629,1.8304628417737439,-1.286152028904881,0.3618910938971862
100.0,3.1819312841607297,-0.7548973652353757,-3.93682864939608,-1.1868033058634209,3.5696877124867963,-2.3140257396583443,-1.219664997821515,0.24898010557991668,2.0499014622601868,8.879899046675131,6.245439383886106,4.545943658935662
101.0,3.3226325087037694,-0.5064043540131193,-3.8290368627168787,-1.4530819596072018,3.582902327441091,-2.2042655143538172,-0.19908040484914735,1.3337001305578287,-2.820018372594445,-0.9536808002237045,-1.9056399837300126,-3.083396348093537
102.0,-3.6058746970497397,-5.042353579933936,-1.436478882884193,4.363444620511604,-1.0768861088045147,-3.187961395516228,8.587796159440032,1.5089667673081792,3.083680758528149,-2.8443646459945247,0.6190593499029844,-0.8666699313869894
103.0,-1.9676769552288822,-2.143087090017023,-0.17541013478815226,2.0186494481868675,-0.8832807591272539,-1.180810604242672,2.7799973186655076,0.8124587399561526,-0.7209486484064678,-6.6483822356605975,-4.453526266684252,-4.320709165245944
104.0,-7.273284071979585,-1.4107316588198422,5.862552413159735,4.304678063978761,-6.546490704410016,2.2050849292043773,-0.9600041216323789,-1.8521659282753236,-2.129572354478941,-4.173361190852409,-2.453047420398952,-1.2926171080543343
105.0,3.4639593892200504,12.020813344017876,8.556853954797827,-7.704116925538254,-2.593382361071949,10.263495145774929,-7.392296921806204,-3.0379556104215566,1.9689705294803939,3.9399203141225776,2.922620465599069,6.204679418415801
106.0,2.630939086658299,-0.7392959321054784,-3.3702350187637373,-0.9116271145378754,3.042445146354859,-2.0101786024089714,-1.6400486745728289,1.947586002133992,0.9638834407143326,6.10955036452023,2.953465809930889,3.409797367285462
107.0,-1.9304610873526578,-11.864724997834589,-9.93426391048187,6.8499663489665625,3.9728298818939702,-10.866279848341605,2.8831753341369843,1.394487272818731,-2.3984280400336866,2.8378042759652993,-2.027835738334358,-4.615463221193938
108.0,-1.9274722031125775,-6.584696253649052,-4.657224050536432,4.286709220807724,1.3403881385036205,-5.678324280305574,-0.5116792760604199,-2.598522682071658,-3.0589111566216105,-4.894288330492307,-2.598344405590066,-5.6217834119525545
109.0,3.1229114743595203,6.092776282420028,2.969864808060549,-4.6531883825764915,0.053420118510737025,4.542426519038809,3.1562865211513333,3.321862575695013,4.908259883350869,-0.3788076813099006,2.6400172272466467,0.7247728951615251
110.0,3.6513987359102513,9.182225164499073,5.530826428588833,-6.377780040313658,-0.8851019994405589,7.360544519671679,1.193341959175486,0.7477268182763745,1.018867965907246,0.6711000940694787,3.3691473416100983,4.974093156453421
111.0,3.2415548303758337,5.009751754048606,1.7681969236727535,-4.079709039748918,0.7887498749912945,3.39016346862106,-2.232210518219829,-2.676186016861922,0.5814031547878397,-1.7609779501914828,-0.09576012217000163,4.021858286167953
112.0,-4.498873266458762,-1.7881390798856507,2.7107341865730707,3.11662058023642,-3.634957243063842,0.46421041487138215,-2.7943337925629304,0.013771548428057612,-3.0747583951831863,-1.0589676349359656,-3.214727643833375,-2.8931886391597086
113.0,-0.03675342671825099,-1.679743731940122,-1.642990305221927,0.8341168337692375,0.7687894416552692,-1.6527363538605973,1.1590047958268954,3.345392102996326,1.3196363215417013,1.419843253018393,-0.584235937026798,-0.4790850339470707
114.0,-0.3807788640787544,-4.397616178995448,-4.016837314916747,2.363548232449832,1.7791119658774732,-4.190181130389328,0.2510239800784818,-5.652262726066748,-0.0933476834264522,3.607113732959124,1.4293365720509519,0.32580194242329963
115.0,-6.432578527624267,-6.962085882471358,-0.529507354847115,6.66645804509255,-2.916011452400794,-3.7980903105131794,0.8254556648525587,1.0957017500843023,-2.9149447300277993,0.3739475798587699,-1.0312417995046554,-3.035165766458567
116.0,0.4292122354484582,3.565833035483392,3.136620800034946,-1.9565160831850612,-1.3211828320376522,3.386422750488588,1.9223239143364284,1.3656224029400323,1.2082050665703108,-2.267792946427233,1.296711231224601,-0.5422754753399541
117.0,1.7860599105097077,-2.2968997331935364,-4.0829596437031785,0.29057293116714766,2.887480632904861,-3.2266851551663276,-0.6359108143103721,3.0982711310669204,-0.6350577792967824,-3.353928987797288,-3.6930647362269866,-0.11621032742493381
118.0,3.318567937736548,1.5539794593011549,-1.7645884784352974,-2.4038276621184362,2.574940167426644,-0.05916796317750764,0.2707848103677252,-1.9337442979635304,3.625333654169453,-1.4463282183314567,0.558158020922361,1.4837849376381187
119.0,3.7705031090631818,7.602968707340915,3.8324655982777864,-5.731726696927114,0.0057929940627365895,5.686391467364141,-1.4583774198909967,-1.4468473821775187,-1.1671192882906298,1.3778409738069999,1.215607044465527,0.14112107695552534
120.0,1.4459193889902442,3.0065166480432817,1.5605972590530302,-2.2662971085446073,-0.09553455290842788,2.3296323196280864,-3.9881652465447752,-1.8721243585567893,-2.020321949166086,1.1401388137750588,0.34180125466189704,1.7565874561249695
121.0,-3.917925346547495,-4.851969083114094,-0.9340437365666714,4.430863903220956,-1.527573749787524,-2.929095393888887,2.6317375046295277,3.7626101867193196,-0.20093039286327818,1.1062191845860245,1.5550096766275956,-0.8291754403986311
122.0,-5.249712773057729,-2.207538672820864,3.042174100236773,3.7037830822679303,-4.102581309028959,0.37664486070061143,1.3207698610428484,-2.6240674672649535,2.6119683547597674,5.060780875060895,4.46169413597004,3.1623967045423353
123.0,0.931336471052032,-1.409042865984842,-2.3403793370369286,0.22114334328125995,1.598235517536272,-1.841281790507397,1.6198353079889904,1.7888182375122799,2.606139828405348,2.490190942328102,-1.9279968169245134,-3.512955430273387
124.0,1.814201758599479,-1.7384544796629156,-3.552656238262406,0.027941760461621445,2.7206593681067734,-2.6157964202373014,-1.9422205589609953,0.8421361862272088,-2.97360020627716,-5.00713885338407,-4.5963261770947135,-2.263996678340038
125.0,0.24825680544162876,1.997088001303852,1.748831195862274,-1.1344811438525177,-0.7959223779295461,1.90069166235595,2.2594059186810127,0.024791603373286952,-0.48420613865593287,-5.418749146964599,-0.7052028685756979,2.039027804631212
126.0,-0.9276675880176509,3.0899947911637953,4.017662379181506,-1.0963204036286478,-2.4423982313291495,3.502603162955727,-0.19130684842804613,-3.278476122744815,-3.9225698603893853,-1.9592666940441474,-0.47101872998059724,0.339845063717864
127.0,2.4413389327672683,-0.24916161804704617,-2.690500550814251,-1.1190295711183533,2.5955178673208916,-1.5196135576580416,-3.5586243666311326,3.240428270042671,1.1672785642859382,2.771333839415104,1.0635367520914318,0.6871578564972797
128.0,2.6945978494392504,-0.8292364824410676,-3.523834331880299,-0.96667176310733,3.061490774663962,-2.1448083756916474,-0.17903322758360174,-0.5582958509086967,2.687862143403305,-0.6649383970387088,-1.0692973354578537,-1.8452662398395465
129.0,-2.6341721629204113,-2.017038546854299,0.6171336160660563,2.3581741102335734,-1.5922347212132077,-0.664684994711513,0.5027146054495188,-1.0837979381810454,-1.8756843523154858,0.9017196643111092,1.430080905682621,0.6583103842379219
130.0,0.7431562237395647,0.38700917999228657,-0.35614704374737344,-0.5434558373734484,0.58464571613771,0.0540945858415372,1.845559078778671,-2.030473771544901,1.6908784903996146,4.304227508966737,2.9113341958404773,-1.3079731539883905
131.0,-0.28781682662502805,5.092268683516163,5.380085510141125,-2.3885430046850002,-2.878660096765052,5.198035710494601,2.0232167804359076,2.55028744242985,5.997741893395364,5.011624884245036,3.37664397282603,4.830592916795398
132.0,-7.878029750389821,-6.801061468617509,1.0769682817723072,7.348791537789838,-4.526510192892775,-2.900948872422557,-2.381138431323005,0.19423160978385678,-4.237095532067815,-4.95085869344215,-4.128183670028074,-3.7876144973144736
133.0,0.8439408679896614,-1.2447850379019851,-2.088725905891591,0.20805003354872875,1.4890168014584617,-1.6309021307070208,0.7894230850682861,1.5786267044475164,-2.4944032742473565,-2.1027124016282848,-2.8932523031107604,0.5137903227353716
134.0,9.956187960265986,5.106268128622547,-4.849919831643373,-7.6023950141334025,7.417846098496259,0.07872302025790734,-0.7213247901994932,-2.016619448651466,-0.6607669083284704,-3.1621341859166447,-0.6402578535603314,-1.0832119447698836
135.0,-1.621125935102917,1.7279894201805546,3.3491153552835295,-0.045308422857015085,-2.4765411606870185,2.5605427819991045,-2.928374851632764,-2.1633368102955814,-2.939185764136697,-0.4690927562889473,-1.4088938757669363,-0.5084622228652653
136.0,0.6176475751673083,-2.2400980327370235,-2.8577456079042376,0.8202260545009059,1.743860417156805,-2.532674974817767,1.7946527103689394,3.2668629318769296,2.2217680030874556,3.297133970856204,3.763226054840583,1.112227329447581
137.0,-2.373887077408325,1.3924370594102067,3.766324136818641,0.5013210190670524,-3.0616172994198423,2.593397475698265,1.2223837570303802,1.778994504471588,4.933573497489458,2.0565408747033946,4.858406556696144,4.1559396325803775
138.0,-6.429172064205683,-4.023529938192626,2.40564212601316,5.239722727323083,-4.402339441670822,-0.7927996065418307,1.8267923522187388,-3.3228948815781436,1.5383032153086456,0.6196991768857876,-0.5084702723148173,-0.5082331639600033
139.0,8.336380918488176,1.342489037933052,-6.993891880555138,-4.8221118407507415,7.610679820672832,-2.8823567322431685,-1.6469696620125869,0.9453349132891047,-2.7422892460029744,-4.106624923023068,-5.169382656213141,-3.747984184070062
140.0,-2.622066263697164,3.4185980682577646,6.040664331954828,-0.37644777434352594,-4.297279597137473,4.759832801458633,-1.449771911142822,-3.0615255624655897,-3.090640243733681,1.560278151026989,-0.8557156764135039,0.4864626341628231
141.0,-5.31040314297935,-7.212578937884828,-1.902175794905603,6.208682124509698,-1.740292767332586,-4.5191032864985505,3.2022639294604165,-0.4805712329902041,-3.7390042456944848,-2.3768126634489963,-3.534651223585736,-2.4190922118121483
142.0,2.618728438338149,-1.5361584321270512,-4.154886870465255,-0.5909403515584963,3.435341239620503,-2.8799202820918888,-1.3831422948425978,3.0827216925277496,1.3803116198863041,-0.6910134179959699,-0.23614261120928126,-1.4344729933768605
143.0,4.502378328186611,6.813484360285495,2.3111060320988965,-5.626530394036845,1.0684521676567198,4.530951492831888,-2.377097282027708,2.900948677287777,5.241381725570606,1.839540956667558,4.333753610877625,3.195200496976759
144.0,-1.2674325714523875,-0.6230079705014817,0.6444246009509544,0.9788003174320052,-0.982705132712096,-0.020323102244252267,0.539551972153373,0.7426627237569603,0.9978393968855808,3.17095149482753,4.61782126197145,0.7868910508164262
145.0,2.9512141280515505,4.450296153109593,1.49908202505808,-3.6643407714911023,0.7765869305650979,3.0213941335835863,-0.8884602100898037,-3.3164145330084764,0.9578388288973817,3.633259694903244,3.529148932268102,4.614828385105015
146.0,-1.2033717868459282,2.934371552187314,4.137743339033262,-0.9040043852404773,-2.7012010447531907,3.582237041275145,2.9341012511355147,-1.3896008217986224,-0.4301965001449131,-0.9510259782212125,-2.5072260597218934,-0.7263053763953067
147.0,-4.198565586631535,-3.4552087825846542,0.743356804046905,3.7930013759205696,-2.425481233117848,-1.3872368956842354,0.4980105469784868,0.08454047250101882,-4.60507293753173,-4.788328104309337,-4.032497782493511,-0.20018243788721168
148.0,1.303148230217606,-7.207831535053319,-8.510979765270852,3.002116327430433,4.871436152902545,-7.887497738067611,-1.6379037764635855,-1.972521503732336,-2.4762305892169976,-4.204054505560042,-5.414112510106273,-8.05473637368885
149.0,1.3656878170512896,-2.8069515589209173,-4.172639375972107,0.6964317569097256,2.7317108142235353,-3.4349564072328906,-0.4441519680647712,1.3806999735312195,2.8335009879369895,0.9457219568805257,2.292203735778952,0.3409425961274697
150.0,-2.4417307003370023,0.47176066472970346,2.9134913650667422,0.9652581823308044,-2.637456013604972,1.6721251499929592,1.0660956578424772,4.2922964669416945,3.745442311871078,4.192184296849447,1.9070259715604412,2.397086965559687
151.0,-2.957572756509108,0.699519555821069,3.6570923123301,1.1134964975882569,-3.2675639042722304,2.158671119293364,1.4215501524120993,1.040942539936416,-0.7556494880746243,-0.023450973018718013,-0.7649706446279063,1.181350098609262
152.0,3.378700093051724,5.590718050761434,2.212017957709558,-4.41763590547696,0.5447211380638717,3.8789505890872977,-2.2663621402859175,-1.840185772299874,-2.3068083155640804,-1.9637658162791316,0.7329787370988998,0.5795885389613202
153.0,2.2476488891046182,1.6704805171854744,-0.577168371919311,-1.9677057961575675,1.374851281807336,0.5965918528559389,-0.5672628604666409,-4.739850915163265,-0.1925597500540578,0.28895653571053326,0.2798228265138971,1.5567533783754715
154.0,1.9752423892395496,2.5723138018637073,0.5970714126240834,-2.2811525661764267,0.7320172739361193,1.547115852584859,0.8860327944794135,0.3604940284205469,-0.8900089421144274,1.5147817004490371,2.1911508524080134,1.4609425356538495
155.0,-1.3457956822994026,1.247772205914721,2.5935678882141855,0.04003780060982254,-2.0031399935026095,1.9528680501477471,-0.17408358716700606,2.0321003146734995,0.953945880711865,2.039572109853434,0.9756925806514208,-0.2973004619560659
156.0,-1.344915162067731,-6.32490791845561,-4.979992756387721,3.8208301091999046,1.8655254000551564,-5.705705506612226,-0.9417296214751476,1.975582750992722,0.10379035682215787,-0.9611684981405212,-1.825559205540824,-3.746940085141614
157.0,-2.762066786676402,-4.432618240885361,-1.6705514542087636,3.574977557735533,-0.5741901416875735,-3.028416541642799,-0.5098356903743156,-4.096110290313722,0.366978160145806,-3.69082730775518,-2.788052210353001,-2.432859574124971
158.0,-2.0413344130069078,-1.2553557148282537,0.7859786981787625,1.6947007672960415,-1.3624198688767777,-0.20845828687960477,3.8635854604724997,4.3513239747073795,2.750123902494973,0.5185444598409463,2.53333936524914,1.8478342851458727
159.0,0.5447995194237369,0.4918164672193024,-0.05298305220443866,-0.5603028585079963,0.2699002400797319,0.25353363897681513,-1.3891190134590294,-2.0172074952003607,0.4351729788344012,-0.34191910701071415,-1.2622077216664596,0.4730929957085806
160.0,8.116525424833984,9.343578249902064,1.2270528250679444,-8.700221899162994,3.411572135084583,5.251273603832104,0.4736831223148047,1.7049853779404234,-1.4629179359791211,4.008507835538444,1.6669485476991455,3.1528605926825555
161.0,5.285981050910841,2.629537137896389,-2.6564439130146447,-3.930568985349391,3.9320414358314957,-0.03726152684575412,-0.3196082639545847,1.9460317770487607,-1.6982592265051806,1.267627344554549,-1.886577568547923,-0.5617273601675359
162.0,-8.080940256531147,-5.8472231026923005,2.233717153838721,6.91465689910617,-5.1236430138315825,-1.8237051578995431,-0.7784924724334602,-0.3418871218906325,-0.9059393421864483,-3.09474385761606,0.794288711027388,-1.3163005484759174
163.0,-6.5013535074459785,-2.1548024104062224,4.346551097039681,4.363562631308013,-5.393751947597015,1.1591095804901475,-2.26358662324759,-6.285695204275845,-4.553206131824842,-2.1565516635440822,-2.8537850173007016,-2.09594346223694
164.0,2.3513234537394334,-1.117713285238763,-3.4690367389781622,-0.6516464691355477,2.9408799781810724,-2.313333582435224,-1.0122626648356439,-2.4969700323440907,1.8996485230168632,-0.07906289902311547,3.152677635301697,0.2085968557318576
165.0,-0.25334123864166025,0.8613591204021815,1.114700359043985,-0.2517054833847248,-0.7275174146946739,0.9590407570086932,2.866409216553012,2.20936213418633,5.940933782029974,2.7367225659226038,0.45444033021804286,3.7854409405748175
166.0,-2.2867452359291507,0.6299676323034453,2.9167128682327625,0.8080924713287345,-2.5593857578720725,1.733525609673645,4.557121680545719,4.4270655815550635,1.7219231359881064,-0.745191447633204,1.519078896411379,-0.6075428243974172
167.0,4.523196255474212,2.270978887395117,-2.2522173680790227,-3.4149769341764733,3.3584678365539262,0.039217829142266236,-3.6171884189544556,2.3865632380186805,-1.2256114048546818,1.1331527884519998,0.33962462615419853,-0.4827052912660802
168.0,5.745173969371039,-1.2332043413632707,-6.978378310734353,-2.275511205806775,6.337402403940905,-4.080278867248806,-2.6025802099121385,0.0928600600602687,-2.728826009194515,-2.580160162149378,-5.011919326905489,-2.6915231808784648
169.0,-0.9305268075578179,-1.137443077725015,-0.2069162701673073,1.0097484081721366,-0.38501098278375956,-0.6448997132022528,1.265299736616989,-1.358953882795313,-0.09074408095125475,0.5029016036439254,0.8911751901050906,1.2671852787780318
170.0,-2.5587558425494836,0.8629466807666939,3.421702523316115,0.8964097818742034,-2.937215464701452,2.1763861128181037,1.4822183981073356,-1.9772172403310542,-1.2152723116440232,1.0234193923853798,-0.16967881168591856,0.14877851464194633
171.0,-1.0721557020491022,-0.16930660863592165,0.9028490934132223,0.663677755132408,-1.0182770597686823,0.3307736841275508,-0.5787345973658015,-2.592429581955247,0.0513342653968939,0.5928084185018314,4.35626647546611,2.3322750611686476
172.0,-1.4508493001676672,-0.6379825279977204,0.8128667721700453,1.0044859249120344,-1.0896557046655808,0.05824908742671919,-1.9619322494142044,-0.02068740462185059,0.814018215932813,-1.4728431928755175,-2.5606108418726086,-4.84742653743187
173.0,-1.1624473437911618,0.06433372743070648,1.226781071221958,0.5851817552423235,-1.2359939360593664,0.6184690329444682,3.2927492894008514,4.33164087174462,0.9478717013591537,-0.6111155157572781,-0.9378475520697389,0.4453117315019308
174.0,-2.037223351930127,2.701875913541737,4.739099265471906,-0.376822232885749,-3.353603102767531,3.6901400048444866,0.06153433705779199,-1.832102686291098,1.9827075120648705,7.164746825217869,4.3014146528614265,4.078764403316984
175.0,1.7067335435566937,0.34676575830522427,-1.3599677852514986,-1.0728675969826469,1.4886118651007696,-0.465245539031788,-1.8583842018673207,-0.15327648805539837,-2.2010070905189645,-6.833792110528095,-7.708813331660655,-2.3748992825919295
176.0,4.8156420863669664,-2.0293816960145,-6.845023782381589,-1.3619910685243302,5.865474161166066,-4.403816728366145,-0.33582692016876214,-0.09296081445963303,-1.592994453549254,-1.5480335201641724,0.3828941478333978,1.625185540749854
177.0,2.891362443390266,-1.4847739609985215,-4.376136404388978,-0.6732500521281553,3.670491914765097,-2.9032083452432484,-1.5326165343108011,1.0355634715787436,-1.7161348723400212,-1.5770010997821333,4.567017960181041,0.38076018303142717
178.0,-2.4525867687784797,1.0926884002768857,3.5452751690551905,0.709527928188667,-3.0402614876699494,2.264711418939197,1.6504586142316213,-0.07590610122004887,4.228560578102156,7.425406733292425,3.54352151792545,0.5917154464637924
179.0,-3.89304182646042,0.577097743251503,4.47013956971182,1.6087785227301183,-4.224186151080324,2.5486934744211225,-0.5603652043998829,-2.044513927906884,-0.1158102610212084,-0.4691104534871964,-1.1210814718110287,-1.7890707657499687
180.0,-6.634668633916813,-0.7182110931198334,5.916457540797079,3.705791078440173,-6.242773516828705,2.626998126502065,1.1924808697423461,0.08130389317654285,0.35015467616476914,-0.42030599098232246,-0.3585168594926076,-0.8203245401355201
181.0,3.8689753155269333,-1.5669112812811845,-5.435886596807865,-1.2015716080254837,4.6805892895395775,-3.548753717487623,0.5427603052599486,1.5749306533162248,-2.332943569227465,-4.044505007358933,-4.723425777200248,-1.118293176994038
182.0,4.661421226193286,0.6311698539198066,-4.030251372273188,-2.6206499908553655,4.290875319748344,-1.7436448138043446,3.271205360301511,2.3551729784908333,0.5115256337574334,-0.47434500511682076,-1.2713460560871912,2.188659070567818
183.0,2.8855069664764823,1.1003145248383968,-1.785192441637862,-1.9712344089207603,2.356672688053899,-0.3048632566365017,-2.8887272803162856,-1.8229521438489245,0.9826902166527605,-0.7718362257033986,-0.11592829660866721,-1.7516402296718971
184.0,0.41481512217683214,-0.2813023892499912,-0.6961175114267336,-0.04986156792260399,0.5773476486830855,-0.44777173070321485,-2.4886713455718463,-1.2179799304424337,-0.9644692474227087,0.2874273557483961,3.0247097610241833,-0.6709438369674787
185.0,-2.044678515324207,2.8252223894053587,4.869900904729442,-0.4565956089447064,-3.43168384635885,3.8145158073128824,-0.6229622102847427,-0.2385483450507997,1.0819859320743088,3.9513256558109426,2.4644005784870897,3.2497254760905294
186.0,-2.3311486853729395,-1.3961674510420918,0.9349812343306088,1.8734495793650665,-1.6802426639394406,-0.25697267740153684,0.4435283524457433,1.1943540763729592,-0.6236554916663715,2.032914676145272,-2.465996076013909,-0.7211844153624642
187.0,-3.297006218331176,-2.595802507252416,0.7012037110784841,2.9569649074923214,-1.9609586965149644,-0.8868173028600215,3.329891670748326,0.11779800713205729,0.5406360038432731,0.011939495309713055,-0.12683798396689075,0.5152140306211679
188.0,1.6371155841270446,0.4371384358737147,-1.1999771482535073,-1.0213604055406424,1.3834219117910775,-0.3916449396323415,-3.086890333462159,-2.8579157570549434,-0.7230263295615957,-4.514094135797393,-0.020521604615619082,-2.443443330915512
189.0,0.3248767412854086,2.3518074331484744,2.0269306918629852,-1.3130566309206015,-0.8829286864288084,2.1848670765522895,-0.10862318613192415,-0.11373288321256791,-0.6792717347140017,2.202786294513858,3.5828196560434264,2.9257422482599207
190.0,-0.03481992313500759,-0.1943508188466022,-0.159530895711545,0.0733684121877044,0.10982700377419774,-0.1802960234703678,2.4457572537172036,2.4505808539428813,0.3580064874255525,-1.804249392455276,-0.4460601422068511,0.3959441862299047
191.0,4.809132384327642,0.6721647046734225,-4.136967679654011,-2.690927364822649,4.440119174036769,-1.7405405407964465,3.0486181342116554,3.312682999507263,-0.27031154869608887,-2.9494684862020986,-3.9530631271266734,-2.8211930856487952
192.0,-1.7148210591025395,-0.7634214555469436,0.9513996035558754,1.2190225350699684,-1.2906511328368577,0.07541232297803213,-5.732225171294736,-1.4834451906904833,-0.20820670818943504,2.2477762837132174,-1.3049186949839435,0.041108025547618166
193.0,-1.9101459717395681,-4.8285425703783,-2.9183965986385254,3.352388270719106,0.5419654134409149,-3.9060580516742123,-0.5335984211591851,-1.1597500735175585,2.2023664932436917,3.1851117641115385,0.2842463586283943,-0.40518703637238995
194.0,0.6043373670597619,3.6632134981052724,3.0588761310455777,-2.154263185438703,-1.273754838849405,3.3929410992901503,1.937141904357007,-3.720930833658088,0.17664390628075088,-2.2132382706688793,2.041628045200184,-0.08287477296316233
195.0,0.15103624765526885,1.7033937394919594,1.5523574918365965,-0.9567079517472773,-0.7532079322634272,1.6486589116105352,-0.28929551463439585,-0.016339957577405473,-1.5085786560980476,0.15904159762917403,1.1859098178819494,1.6795977860366829
196.0,-1.8307721395691872,-0.7693444517846335,1.0614276877842992,1.3377832063154225,-1.425474736670877,0.16107659908864358,0.18959053558617728,1.2902049111660503,0.6032581348684636,3.868077276211397,6.040858517645655,2.74925483114687
197.0,0.7151035367708803,-2.8436007342900127,-3.558704271061358,1.0915703364901572,2.1538708713637478,-3.1862803571369556,2.6636054168753973,4.080475191114083,-0.11845731655303893,-1.3442940082929065,-4.731550627822607,-1.3558629828531568
198.0,-0.9170002634760925,-0.9204575043891503,-0.003457240913348536,0.9398728321983988,-0.4401434435919931,-0.44333893471545416,1.173339440368851,0.962967709977451,-0.17742454147704426,-3.3608651708763806,-5.689942935957481,-3.6026177310164558
199.0,2.38269785445139,2.356460435732437,-0.026237418718852545,-2.4275407746611672,1.2247738253809424,1.1100234593586176,-2.8248823377681562,-1.3639930860763108,-1.5056270151178335,-1.3352267707331564,-3.0140030115128846,-1.1815379212356383
