Time(ms),I,II,III,aVR,aVL,aVF,V1,V2,V3,V4,V5,V6
-200.0,-7.910667857022681,6.9056723933093815,14.816340250333287,0.46700682249992953,-11.360266849829834,10.823278450232795,1.9587101078231113,-2.1666015963674052,10.403984921568501,26.31697757560387,20.822420438345397,9.933187781247222
-199.0,-4.663901829626353,3.476310191750672,8.140212021379043,0.5549468695991076,-6.405455151494964,5.766255371651223,2.4841189238139254,6.88767658515701,16.504164390420026,9.551139527414708,-2.158108212511854,-6.341853378344018
-198.0,8.473383581920341,-38.561599124774595,-47.03498270669318,15.079021125870646,27.75092232936598,-42.76499805007657,15.352089610151895,36.158855641461386,26.874118009528726,0.9594419348390633,-27.67568942753337,-38.05143085744214
-197.0,19.41249937384482,-73.33638884297056,-92.74888821681509,26.992069270639668,56.08379521906437,-83.01082093985785,23.476900904609614,55.23847370484532,42.88817398928731,5.318072258103321,-33.15101386447926,-55.871761251234396
-196.0,10.526899129043457,-46.95294241018999,-57.47984153923436,18.239942373543258,34.01704193510477,-52.18347312510499,12.573011115084688,31.692617551184185,21.73814379186952,-0.01289214999775723,-22.41573110302839,-37.11632442048288
-195.0,-10.099388847141164,23.119532476043748,33.218921323183594,-6.5630392626192915,-21.633498529468913,28.126759603384908,-10.580895756890744,-38.65882066526235,-39.027778568361924,-21.756833601707335,5.831908763626487,17.645193447406758
-194.0,5.579974184391503,42.313513345350856,36.7335391609586,-23.920392697371895,-15.619101885383108,39.48559687507653,-24.670625306364574,-54.16634649105758,-51.73611856838023,-22.212560550314972,25.764408022255783,47.723960715859334
-193.0,14.64152631198111,46.831062000282124,32.18953568830128,-30.787172340373544,-8.808316654058451,39.55546082629373,-30.361359112625376,-41.48110489684784,-33.28669891708091,-2.049179229434616,34.4633584474641,53.54340312017902
-192.0,-16.063249203466544,24.08495209542496,40.14820129889224,-3.9811841930877314,-28.13483298325724,32.08598318357835,-4.478235744275928,-6.224111357237405,-2.8548336682367204,13.898784482552093,20.446137930475537,25.92195998193914
-191.0,-43.512267225138864,-13.331598066459271,30.18066915868031,28.45331973555769,-36.793247917075625,8.473712031816671,21.086728572805615,9.082999157937216,-7.378621246380693,-25.62916603525814,-27.179401730092493,-16.522532354703824
-190.0,-15.105807672236057,-12.74872937957694,2.35707829265934,13.881541087109545,-8.674822781454573,-5.226344189744022,13.414065512108836,16.86259736946691,-1.6689753615187684,-26.5168335063927,-30.69792378561722,-23.410763039844
-189.0,35.62965841837912,-8.29563482641197,-43.92529324479135,-13.632202691016793,39.75927886719422,-26.143249610134873,2.466512211026185,31.4401231522484,40.817758428754516,26.661068289612846,-1.8877023806955222,-20.613283936167065
-188.0,61.683863199963184,-11.481780149932547,-73.16564334989633,-25.14268471644381,67.4105569264791,-42.280195608542016,-3.8101229037465956,38.49686298511188,65.24064438165925,58.15164043031912,11.663355055712513,-20.456286615069523
-187.0,4.142672992048855,-21.33762386968351,-25.48029686173279,8.637734880633104,14.800064331698522,-23.44551460218827,8.688628382695828,13.491350381991472,29.00676199050492,22.15922554789806,-3.3882053710538376,-17.975736150455777
-186.0,-34.58318230796863,-9.875699314084775,24.70748299388368,22.195114037100467,-29.656501451710554,7.458893093764383,7.641707364506603,-14.74761423183454,-14.673721733394078,-5.447851719336343,-4.238246091895196,-7.1787613403822
-185.0,-30.961371384468972,12.226909165193073,43.18828054966211,9.416648316368459,-37.0888302963408,27.675008641140924,-0.25959763082410525,-24.191356168692693,-31.081305520671954,-21.753397687345686,-1.0540110122495143,14.183666509267038
-184.0,-17.25358809302031,12.95484355779447,30.208431650815015,2.1253067129554823,-23.750514268711772,21.632572479400466,-7.109347339397175,-24.098567013235474,-43.693232399948336,-35.52581927479845,-0.9589346214428911,19.433154022969685
-183.0,1.7351435709675895,15.099673842918891,13.364530271951828,-8.43675215236138,-5.762519869951195,14.209106072566641,-9.450444632158248,-17.917284197329565,-25.9040525658894,-17.919785553964786,8.444816913784194,18.53941761900689
-182.0,10.668341642396541,5.257495602296352,-5.410846040099598,-7.978959012614634,8.084271784279526,-0.09665040050670015,-11.419565068287268,-2.829587604229772,-5.53717329544715,2.7252026548189257,13.597808883212124,13.083146192156939
-181.0,14.017294359598301,-4.805836397767064,-18.82313075736477,-4.541880699817506,16.378955975930555,-11.834685558554437,-1.4229560306037614,7.32624024302737,14.777879373418255,12.04326442241733,7.357489285727001,0.02375231380856846
-180.0,11.908164257739303,-4.605307136698364,-16.51347139443749,-3.667844529779094,14.162968597550861,-10.504821816707446,6.137465010769252,14.762665169593289,17.260668635205274,12.255687490642568,-2.9669443566233062,-6.808866499606102
-179.0,6.35337761675863,-7.484980789599506,-13.838358406358322,0.5451260339687067,10.120895221383043,-10.692954769943954,9.806720273885412,15.381230537787502,15.009605799223113,2.9680438836170246,-9.862911259842537,-10.893781705191415
-178.0,1.156057202118876,-7.777078246733615,-8.933135448852958,3.283301085683565,5.064747708576829,-8.39504731778361,5.279327412847378,7.187482206714806,9.517444093197792,2.7464697429812084,-13.516458297387388,-11.175232470937498
-177.0,-4.49792155794442,0.3914637112224133,4.889385269166336,2.0970570656006116,-4.676862432109682,2.6710071295946225,0.7901717484854709,2.9117570710139073,4.531287453390435,1.7993272528303104,-4.77871775729092,-9.297860411765646
-176.0,-13.905443828944367,0.31557695990409695,14.221020788848158,6.7526391293554795,-14.126387001299864,7.292768662939079,-1.816053808256323,-8.209967840296793,-5.870366444251784,-0.14911309336115708,3.1364180167390607,1.5506276901657827
-175.0,-1.3480028893173142,10.555271255646245,11.9032741449635,-4.572726933186466,-6.608503291058099,11.250519896828298,-6.608938991271905,-12.383293587880662,-6.752103015482693,-1.959743989685514,8.784328120055799,6.007980289297891
-174.0,2.1386583033965127,15.497552068199353,13.358893764802982,-8.789993184121004,-5.588499147023594,14.448834416680098,-5.999085509611047,-6.992616351141267,-5.3410841855814475,-0.26570464852802544,12.459346947297144,12.629958708045775
-173.0,3.9698523677320448,-0.9206592131686788,-4.8905115809004975,-1.5752400884114637,4.458775303999317,-2.9627199352797975,-1.9683871628099303,3.5095227568931477,-1.9269933053995434,4.68954932774159,5.521528989990062,9.672596993733556
-172.0,2.290543173385694,-15.581197948107175,-17.87174112149277,6.675366273991124,10.039218453915586,-16.781766046202186,4.359908038456872,6.631493320078355,1.1213183929548869,-5.313973839988067,-13.82513830768563,-12.642198556709829
-171.0,-2.590401799894496,-10.19705766251416,-7.606655862619773,6.426254040074345,2.552667793619227,-8.875826578697215,6.624436392117744,3.1706419258153917,-0.08354375687332105,-5.24914332315401,-12.001281643311922,-9.647547058562093
-170.0,-8.77888114028246,-3.9106477324553657,4.868233407826957,6.3002429612194355,-6.85231212959896,0.5086606196672232,-0.4721383658199638,-1.5102480328561945,-1.82268595369842,-4.524167998840633,-1.9227476822716758,1.0184345330608515
-169.0,-3.343846142192355,-1.3015072996231873,2.042338842568981,2.2783857647305954,-2.7196861156737,0.4058355659264461,1.4514879336533513,0.23458745631287725,0.5144567092324761,-0.8145464861974792,3.005624723384126,-1.4465774717796949
-168.0,2.8202229037966298,9.63502083482223,6.814797931025486,-6.194143036782285,-2.024915398607577,8.18848438665081,2.123201312256894,-1.2411026208098135,0.3159393531041117,2.3313768293357557,7.102616817680754,4.329301719915962
-167.0,6.277022359236439,13.150728034524887,6.87370567528839,-9.681538195346054,-0.2502998925373179,10.061385841219376,-1.793358368192028,-6.917383181331568,-4.3146638059874345,3.9449387188493192,10.804055202139912,12.996992071745664
-166.0,7.504647355679552,1.947019099262799,-5.557628256416729,-4.7723038880780315,6.575706584956908,-1.8300939669253369,-3.102749074959451,0.758856760706478,3.110585234118425,-0.8195922868907335,-2.0658552142576543,-1.0427582588914746
-165.0,7.047267856249022,-0.1827288755945673,-7.229996731843586,-3.398213171523457,7.102058847021393,-3.730016165761985,-2.1783018290723106,5.954386700082557,8.476042086819552,8.677907913225937,-7.520161175980005,-6.896076823148215
-164.0,-4.164496954417515,0.10726407513444647,4.271761029552085,2.066096616527152,-4.255170793359898,2.163068499421979,-3.5534881583052824,3.2729106744119028,4.3578246225460395,6.2354808436345355,2.5052248295532697,-0.1060196430076994
-163.0,-7.5439303210861794,-10.151581334732231,-2.607651013645885,8.810440876102128,-2.424870642578506,-6.411346552497243,1.3571976477724814,1.9400302015933726,-1.9198297731896727,-4.555404645204242,-3.9839729684617176,-8.162382425468213
-162.0,-7.729123280605882,-8.21956427260707,-0.49044099200099067,7.939924221250397,-3.6517720269943332,-4.313145403410229,1.7557530356072941,-1.3999788874764194,-3.312192554044312,-6.8203215501121095,-0.9476445539103029,2.530864810611673
-161.0,-2.813728581585699,-0.4018975688696589,2.41183101271604,1.6525860398770993,-2.562951162224075,1.0443731391588251,1.9244794544619697,-6.462062843882575,-9.203073867647063,-9.47803391663805,-0.5024815662687683,1.7169453688660643
-160.0,9.676097061185256,0.6158640906154601,-9.060232970569906,-5.182597592860772,9.341915434647245,-4.181244227315615,2.09213697889503,-2.5018338769379054,-2.50926554395315,0.7067675614622999,1.648117471567,2.8153625683626884
-159.0,5.974739987191677,3.773353833939184,-2.201386153252645,-4.837260853546781,4.062418480922924,0.7530460742909615,-0.031195986278170107,2.704686364225441,2.252198899762059,3.061443099962234,1.1362879732178666,-2.5858088297216484
-158.0,-4.556870520198338,6.477833596416797,11.034704116614993,-1.0092369096200713,-7.744907217214072,8.729383763799026,-1.0145017652608317,-0.07696876422319654,4.469709571506106,6.561799615549199,0.2640224440140182,4.400971753624984
-157.0,-5.009550483681625,3.636102609396504,8.645653093077986,0.7102302727837335,-6.860507684068276,6.118678584615264,0.41125891190903396,3.294323970056884,4.027955986794801,3.150566921114745,1.274437690976704,-1.1953931357516274
-156.0,1.2737597612420684,3.6116916676544615,2.3379319064123294,-2.423733413827281,-0.5719451210390099,2.954134813781273,-2.5645484714534037,-0.1683110208158043,-0.025186695986698204,-3.3554542147689372,-0.3515898820187524,-0.5325114671813809
-155.0,-3.117392531964074,-4.0888997685961,-0.9715072366320071,3.6206492263329233,-1.0413820999726007,-2.4742462233809537,1.4156651525924893,0.19357787475357402,-2.726289104754292,-2.1422131451914503,-1.6113785271196173,1.1764389526541281
-154.0,4.509330362372887,-6.580943800292401,-11.090274162665215,0.9761922820815199,7.825318786030317,-8.863444325999778,1.5031698309407648,-1.6991127167761881,-1.3103555469882915,-2.8651503662284736,-0.02829660114555388,-2.7567071268542023
-153.0,5.012842224882928,-3.4015309467098365,-8.414373171592743,-0.7826503992642513,6.7355401266956,-5.863672510462703,-1.4142289275506892,-1.7570798254153095,1.3224719979461725,2.298328528084178,1.4661191608899904,-0.11092179617616371
-152.0,-3.364885678193576,-2.3723020051970574,0.992583672996525,2.89608009789775,-2.2363896237480323,-0.7311819703796667,-2.542717334887301,0.567418417884151,-1.464250048498403,2.588402500212434,-1.8445595790047793,-1.9251360583622206
-151.0,1.2259099541039908,2.4807956733918206,1.2548857192878415,-1.8226894935714224,0.007915915381859095,1.8992601092597057,-0.7449674004006409,3.067150473125034,2.3726916356666274,2.3903436185275515,0.07022016561798627,3.014526281791891
-150.0,-1.884234542638862,1.489342430535502,3.3735769731743623,0.14966843720894785,-2.6042144992180685,2.3795972312439737,0.4594008824518319,3.153097437288159,1.5575618555862756,-0.6013306064982682,0.7915908604143687,-2.587241734955584
-149.0,-3.6585781803848225,7.070542898217574,10.729121078602343,-1.7568373178324392,-7.245938719064773,8.923857585209115,2.563307181453229,-4.156768415669144,-2.381874296200458,-5.2081118708445215,-0.03773368637692828,2.4960439407571062
-148.0,2.7833699047839957,3.139699115524081,0.35632921074005885,-2.939173701913547,1.2407984596957533,1.7706113306890652,2.368441351757542,-3.496329739847314,-4.675902657136776,-2.885701222017379,-0.8098939404669665,2.525549852501052
-147.0,2.8890984079534805,0.665827602274156,-2.223270805679341,-1.7609475111562838,2.582214961228859,-0.7567296947692339,1.390307702314876,-0.04285063276678125,0.8126248625937096,2.3325103789269885,4.7465907040311235,2.4500469523588713
-146.0,-0.19242497201334596,-8.030843184757163,-7.838418212743783,4.124497206430385,3.7672728620079594,-7.991937270226531,-0.3994975563200965,2.5532924682358873,3.9172785999114805,3.7454998363033165,-2.148723556439082,-3.519994062851933
-145.0,-4.449797447044115,-8.40858364486171,-3.9587861978176058,6.44238965191971,-0.22657235146634847,-6.1632663121885525,-2.2436845315969696,1.825056217703578,1.8854996801432589,-0.04892851965444711,-2.7213774157367245,-4.072843079994856
-144.0,0.4879255755312599,2.024895997319179,1.5369704217878808,-1.2385418455790207,-0.5097517079611084,1.7999362032124528,-2.1270095467694934,-0.09941749419136614,0.26541661110866066,0.9179807027985648,-0.8794354594853397,-1.0823969568728626
-143.0,1.7127424934987292,10.364054442547383,8.65131194904864,-6.091486640380312,-3.4576674284190134,9.446972023510648,-5.323010290407295,-2.680851710156899,-2.3839349136858514,-1.3429394647367003,0.4696288155921926,0.9858251252313573
-142.0,1.132556485508128,5.795959474283289,4.663402988775171,-3.4299632771650663,-1.7550684086320323,5.248552637305284,-0.28509810919952194,3.731250337093038,-0.12038852018898516,0.3046258137780572,4.624256609677641,1.7929311884436068
-141.0,-2.3792104158374134,-7.20648759464826,-4.827277178810808,4.755294810047236,1.1568189980104475,-5.994146401228166,6.910148859998629,-1.7726017538699437,-0.5032221570222538,-3.352900334365286,-4.468641713892749,2.7955379997220158
-140.0,-0.1371238469812389,-6.871064461498983,-6.733940614517762,3.548361608038684,3.3137221410899422,-6.772487261920681,4.669040336242231,-1.1724682767565437,-2.339817029426595,-2.4374050158908815,-0.7092653862327807,-2.189188490440328
-139.0,0.771711531652461,-5.529800658986778,-6.301512190639318,2.34273148513258,3.5579192958389947,-5.954665333350178,0.9225307561632281,-0.020521938727541267,1.3233942778270382,3.4731676036243635,-0.2093486154268376,0.31445090158546113
-138.0,3.2584737489237616,3.1495147324022454,-0.1089590165215717,-3.168056849690972,1.7121303350938675,1.5699406186672333,-4.025508419356235,-1.1366446882012124,2.050401909537335,4.007394868875625,0.6450874876043456,0.8694486068608859
-137.0,-2.954944600869861,7.516314224415601,10.471258825285446,-2.333131405408898,-6.678259944183275,8.971982410469563,-7.218177914220005,0.0843277005805049,-0.9045174188442618,-1.1277321248817225,3.186569441132859,2.105339272905188
-136.0,0.875009769454733,2.838507105964622,1.9634973365098949,-1.8407079200658358,-0.58436204756338,2.3815131370609244,1.6091535055451116,1.5946592079905195,0.43702912558819085,0.8184851974127618,0.2478324302708398,-5.00402408190834
-135.0,2.227559921652641,4.340783550877876,2.113223629225316,-3.276136479301439,0.017014246912948616,3.2040672904271004,3.075937236467253,1.7154525993694103,1.791582614747039,-2.2754692869313953,0.7322830407640096,0.6812553999497362
-134.0,-3.093599806162501,2.190918005090766,5.284517811253376,0.4559521435717608,-4.2326455701335615,3.706794361588692,2.972913345677826,0.513462273736378,-1.413411161047219,-0.8499530690417303,1.1990128602661567,1.0925277788444472
-133.0,-3.664510819861624,-2.789465261579413,0.8750455582822912,3.233833252649469,-2.2392854450223227,-0.919043781366646,1.8494420124430648,-2.082811821574089,-1.5583864145905744,-0.5801603535953479,-2.317271776441825,1.7014470884085466
-132.0,2.378507451916402,-11.463399745470179,-13.841907197386481,4.55655329300143,8.13781460739256,-12.622427855247263,-4.346130035613043,-0.40297541904336254,0.4360343096967638,-2.469340956577766,-3.726307917059204,-0.4098553587261663
-131.0,1.9592999623593228,-6.774477248087896,-8.733777210447135,2.431834089469782,5.375468497331348,-7.727547032258555,-1.3774688441222898,-0.12434558361177095,0.20584467197362655,4.563821799369391,-2.0233430683794076,-0.771748406075955
-130.0,-1.3355456159163341,-1.4440538804402578,-0.10850826452383444,1.3453884043688846,-0.5784846209790033,-0.8269716585201246,1.136286691247428,2.278723431218487,2.1150169297439767,1.28816469797919,-0.15575011498131597,-3.5834354295878788
-129.0,2.9294045728105362,7.912749872922037,4.983345300111541,-5.458074700905447,-1.0614169727319822,6.481654766958078,-0.6281818348990259,-3.248319338826859,-0.8745451509439043,-0.6113809663087635,1.6592999596784366,-0.0013086693216481926
-128.0,2.2655186851989613,11.164466677857332,8.898947992658371,-6.6699408322059,-3.3418072391589506,9.993824168178207,-0.7674320773437542,1.1065059995379678,-1.9854721532438755,-1.3966283295376074,5.134022366076756,2.8173699486201227
-127.0,-1.3578897059996873,1.9381571716116612,3.296046877611281,-0.3245083497581134,-2.3458178148299678,2.6642584468309343,1.0215786895790055,-1.5155134341584016,-1.8885072115470947,-4.1467152387831385,0.9818568911484036,1.3140984630727748
-126.0,-2.1255979942828964,-0.8578593864988338,1.267738607783925,1.5329014369624503,-1.7144451874108138,0.17665997175677406,0.9470029666898897,2.045661667113879,1.8191346296610655,2.0865400141778503,0.17040487867375653,3.805271096694391
-125.0,-7.451933968062459,-9.078906862464246,-1.6269728944019584,8.224174720000224,-2.855921321536347,-5.381481949336801,2.56051722994521,0.7219934831182581,2.4246647108071335,3.351129721143862,-0.22517903017002416,-1.9768688775399597
-124.0,1.259878899846373,-0.08988958104532152,-1.349768480891746,-0.5497630664477411,1.274020656301533,-0.7512055386507477,-0.11755484331936028,-1.638043132221171,-0.6958639783842087,1.2411100869866285,-4.4488026238142195,-4.258741269562231
-123.0,3.015049915741375,-2.352506500079132,-5.367556415820436,-0.29587280228068247,4.228717411882798,-3.8159327934238814,-2.8874423181313107,-0.8212401073225023,-1.1869663921216387,-0.8137173891315264,-1.2034716775141363,-1.0007913765847483
-122.0,5.575356305710695,2.5514675290510884,-3.0238887766594584,-4.104154331746189,4.248367481574354,-0.19359288468071334,-2.815855657303387,1.0951124668729455,2.7744175661224157,-1.4506627852005847,1.034651025251719,0.7987883796543098
-121.0,2.2963349535895308,1.2057616571188443,-1.090573296470522,-1.7875853092045058,1.7137958914256906,0.023013104125995498,1.0209169594879606,2.976820146801418,-0.9427631999455052,-0.5225744740091515,-1.0661525353066637,1.1749842502585508
-120.0,-6.373230960714893,-4.628043645222582,1.7451873154923694,5.5474033329000285,-4.041954170754023,-1.393033309974554,1.5614751614155806,-1.6398958624844342,-2.7702006386117453,-4.71262389545736,0.3856219132526232,-1.20639973658898
-119.0,1.3338216852010603,4.209410326393593,2.8755886411924827,-2.7999235279086845,-0.7524586804182132,3.517300524149707,3.1086149558334872,1.3552178196050173,1.5375813732514987,3.9750896217960965,3.2717957487127998,3.940002342009258
-118.0,6.290086352457211,6.169959502412555,-0.12012685004479806,-6.177684856776432,3.1493179907846853,3.0035607828589237,0.03995316811978311,0.13847782649280482,0.5630689752387568,2.648268589753525,0.992313647522957,-0.928097705625945
-117.0,-5.801577492519902,-3.137442154685028,2.6641353378347428,4.44283938936085,-4.203630012750055,-0.2571185587141944,-2.5620028347084234,-2.6074009630720094,-1.4052177975759033,-1.0510913005702915,-2.052930209024327,-0.7329973667681177
-116.0,-5.94230907576493,-2.7714215177290034,3.1708875580358677,4.328112168430565,-4.521231656990749,0.1769186348808119,-1.1717851307666136,-5.20318681967079,0.028630973320373926,-2.4182253236389553,-1.7016844323192304,-1.155923698702948
-115.0,-2.0460805984663177,-4.203584745591249,-2.1575041471249046,3.093229047852591,0.016863159516016912,-3.1291023756863687,-1.2021808141009482,1.689600661278033,0.19724131991700702,-0.055695327200461,0.613759094186116,-0.08440464925782998
-114.0,7.516275150870129,4.3657726489620545,-3.1505025019080306,-5.896016381809327,5.296853365858567,0.5754963514391802,-0.6369153982671703,0.475841589384846,-0.8278920270573583,1.4278982219791916,1.998009340806406,-0.6296046751505548
-113.0,0.5587365732440781,2.6454341853689396,2.086697612124923,-1.557226728276327,-0.7212064673094138,2.4090601972038774,0.4629315924989526,5.6750896476991155,0.5941174704031797,4.349738595072855,1.3093900210289204,3.5735575494567637
-112.0,1.4553303389897532,1.472900617288454,0.01757027829878588,-1.4957287605677478,0.6830517781639007,0.7863973983037633,6.497915738747049,2.167613683548652,2.6399592185817906,-0.4087869929598211,-0.11103058669351289,1.3268656977181514
-111.0,-2.1857129858126116,-3.1162685783329236,-0.9305555925202731,2.6234108845734765,-0.5833221493773797,-2.0615521950045967,0.6096366401080799,-1.822358302688651,1.3075715496301878,-1.9400843299446946,0.27002423852348006,-2.6890838557208716
-110.0,-0.24575029347976013,-2.588414498765818,-2.3426642052861095,1.472523322696337,1.0175702150929637,-2.503986129571284,-2.0625715109067766,-2.4268838290407198,-1.6810824239876347,-1.7648737590992591,-3.9311549204663967,-4.095405785093464
-109.0,-1.2398563646450969,-5.511802567702616,-4.27194620305763,3.3553144590942927,1.569782083850174,-4.9311681499076565,-5.316849844923136,-1.4404214726763263,-2.115041128153406,-5.681322108611007,-4.7808494431159385,-2.7529980142857093
-108.0,4.070686603105384,3.0039371132844663,-1.066749489821078,-3.557661057789069,2.5506463283554344,1.0065765352426774,0.5218760002106935,0.9097216670428208,-0.45280509477708497,0.04208967459083457,1.5332418538768082,2.360837396014489
-107.0,-0.2937431277118876,9.641429642022825,9.935172769734583,-4.696682566639706,-5.126474590720726,9.824636737580711,-0.2126940111467548,-1.1683712301186604,-0.9762449164905754,4.625432678161438,6.079034942296076,6.396008895541864
-106.0,-5.730404103563572,-4.80548543973268,0.9249186638308915,5.241121041941941,-3.336398331930734,-1.9053108986276328,1.8865745495642754,0.23724667445466918,0.1811182935453096,2.5111319684425406,-0.4048152867552366,0.21055814012253649
-105.0,-0.2986631602244967,-3.7018911114129267,-3.403227951188258,2.0485035480174147,1.543045450423701,-3.5973478856852843,2.191046690400807,0.11801499284323685,0.489180629673808,0.5627543142709359,-0.9093514273985153,-0.10288353681166162
-104.0,2.1279314889897396,2.8166499814351753,0.6887184924457035,-2.426077925167264,0.7064004231865882,1.7069583181491863,1.650435162708498,1.7586319545509697,3.85295940802055,1.3969613941853738,4.750314280623978,1.9281316481032635
-103.0,0.3998512088759819,4.801599295310882,4.401748086435119,-2.6334303374793375,-2.0201471247888314,4.633539667726174,-3.978132105836809,0.13509226193077395,1.1702897486836392,-0.8801552039018151,-2.418149902545756,-5.209835948112929
-102.0,0.36864771231840965,-0.6176851711809297,-0.9863328834992549,0.17098171618348323,0.7308940770094305,-0.7715674056493352,-2.4348927316036435,-0.5017441759724492,-3.861016022668055,-1.9895873663943793,-4.574652971321502,-2.566735754874785
-101.0,2.9141285671548625,-3.0459193070599277,-5.9600478742149,0.03262305936345555,4.485607307405387,-4.552774430840778,0.356058875922735,-2.0970764523617635,-2.746177100464844,-3.7030089494856786,-1.4064418761469857,-2.018367519914477
-100.0,7.663282490790348,-0.4580682762541728,-8.121350767044724,-3.639767700421781,7.858893964689911,-4.262003449602497,1.8127623473181511,1.366725407710588,3.6897964202379034,1.5844314619292041,2.2745837751260436,1.9652597581124618
-99.0,-4.2787054308201595,-1.1554920656098249,3.1232133652101455,2.673208776979374,-3.7363417175185956,1.0107201026666575,2.795250019411959,1.5034557487864206,0.9493974210777543,2.7577260271419206,4.161082314299965,3.1160305119487908
-98.0,-6.561748874166436,-0.7573542526695491,5.8043946214967495,3.6867306083955604,-6.219962468551363,2.471158965578303,1.122154490884994,-0.2089833176886416,-0.34883476272200986,-0.377117183049813,0.541288111899576,4.35476626602261
-97.0,-4.805049236997267,-3.419961016110291,1.3850882208869866,4.133980361772962,-3.05480676224468,-0.9913535162481799,2.3264756636164043,1.1464522802090722,-0.9790482244154793,-1.0490528238605408,-3.450429560356269,0.21345025283548624
-96.0,-4.812154229379182,2.161804595035981,6.973958824415306,1.3454067383672412,-5.854596640385942,4.593554224151417,-2.74092482753775,-2.0884593478174893,-3.6427757886063294,-2.5808496639230887,-4.854801328047749,-5.706136981089129
-95.0,4.170607039381023,3.005277050400204,-1.16532998898065,-3.5638513812704984,2.6258241739074064,0.8662109397333255,-7.1890573436940635,-2.532538082725574,0.5604204869310054,1.5417760589734155,0.07626239169028004,-1.164411506537304
-94.0,6.9071950942280855,-0.47997874818880826,-7.387173842416738,-3.182301950999988,7.18209914887668,-3.9094922596751527,0.07770249111138261,1.7873946203875983,4.514041003745329,1.9078526890652696,6.188640537069111,0.7492209597463875
-93.0,2.5199477053152934,-0.7435083939197512,-3.263456099234985,-0.9285867884330612,2.846557770479211,-1.9801975669532739,0.5291545561603086,-0.6123122727981598,-0.6665391666427642,-0.29295153156950726,1.8217240295904111,-1.2009378421036991
-92.0,-2.0401989295118956,0.49053819400534127,2.530737123517274,0.7376991243386273,-2.2525172072926245,1.4549773390942276,3.563658816233827,0.07700330806750444,-2.8743346106116485,-1.0536770809414528,-2.9559846423040015,1.0383027522335757
-91.0,4.026448921938215,2.852664208602267,-1.1737847133360009,-3.479503483471711,2.5546471029951032,0.8634151416481464,3.342862608063759,2.4347257331688867,3.0706058359174246,3.126520816309932,-0.6580838581611463,2.839126408780079
-90.0,4.062056123229803,5.172668067556559,1.110611944326643,-4.587140388514035,1.5105796531261777,3.1677908533378623,0.9941652546239603,2.096970852736876,2.986617985781645,1.8982059495077865,1.8214531472278286,3.209877203470752
-89.0,-4.8601928332763,-1.1154057266710327,3.7447871066051213,3.006317878953182,-4.264818931758296,1.3440991372668845,-3.8263177687858567,-2.751085611136965,-4.3295804986525726,-4.117280367916363,-1.2925088051924065,-1.983685412859138
-88.0,-10.017356359898784,-8.711908046969672,1.3054483129290155,9.372214343291622,-5.698848761221074,-3.7487685772236707,-1.750176863658899,-1.8989533904894444,-1.6687133344037872,-2.741118494982169,1.3363752323915106,-2.631051527352118
-87.0,-2.725482021001488,-5.3660286053024,-2.6405465843009006,4.04681037720514,-0.07621962831706242,-4.045031277290725,1.1657010184925531,0.6402100077205972,0.36096553830174627,-0.8612286201795789,-2.7124328167628127,-2.152434873514597
-86.0,0.24322399604385492,-1.1204498465997363,-1.3636738426434794,0.43970378768563867,0.8513224215821497,-1.201545721598506,2.105045489687151,-0.40361955552357687,-1.3481279085434916,-0.15695419011707656,-1.8364482021715822,-1.1883814686688339
-85.0,10.645681392977442,8.057160301302758,-2.5885210916745423,-9.343690227837467,6.587491490235254,2.699289259142465,-1.5838606723992161,1.233249325030527,2.9415943292041167,4.893161968328781,2.1225537207164757,2.5884731048417526
-84.0,3.3942057975323783,5.464356802458253,2.0701510049260126,-4.410283791371054,0.7102670396737398,3.813748023474442,1.0614235502001463,2.7344772118600025,2.224734741331848,1.402281053928513,2.0460577550561725,3.890098351090378
-83.0,0.1759348650143382,1.1892096070936713,1.0132747420793549,-0.7297149694647609,-0.45246835778894323,1.149468887544161,-1.0856944003482987,-1.6341812179595656,-0.002252872576715248,1.1552624964435332,0.9309251489005925,-2.057653400875962
-82.0,-6.2191711547592226,-5.341172374849901,0.8779987799092045,5.822221137052859,-3.5878362903790535,-2.262530133348241,-0.7359455235134781,-1.1248729656603238,-1.4941441972036569,-3.1932620400215543,-1.2180091767490864,-1.7697964572218854
-81.0,-2.5657857218830564,-2.3770909851959283,0.18869473668693504,2.4403875896324645,-1.344673915811266,-1.1287865777173818,-2.2756378917138345,-2.0326375222447393,-3.120211340369456,-4.221547998112364,-2.8322974930898632,-0.22710999861469383
-80.0,-1.9074312599422212,-0.9088619137349758,0.9985693462070935,1.3770099418765531,-1.4278479586474524,0.003162777584945653,1.33188425818335,-2.5045087820431977,0.2980607229769494,0.2997935435943835,-0.4616450489837667,-0.726755317303688
-79.0,5.775037602864836,3.6670219570498093,-2.108015645815003,-4.678279593109334,3.959837310604692,0.80711621087195,-0.051878533774701086,2.2039861927850155,-0.17787589292054184,2.060228600104143,3.0373291022986972,2.8300660368694905
-78.0,-0.8075409745354292,0.2255834609299865,1.033124435465555,0.2477638522471135,-0.9861216368859962,0.6474440567055317,4.120311133491134,6.401974995066213,2.4322583804194036,3.9081467901123723,3.3787341386686833,3.261729597554599
-77.0,-2.8222234992742243,-4.718984453677594,-1.8967609544032042,3.7995205821762617,-0.45290538871751373,-3.2967786176356575,3.2862402407031617,-0.7726178460417521,1.1930133507775407,-0.8294944414150645,-4.047790897956284,-3.1734819022722447
-76.0,3.8071556158364297,0.9698342266734761,-2.8373213891628692,-2.3632276785678035,3.3316029687468713,-0.9251475646455894,-2.866236462528798,-2.3145153200581063,0.24511463132054268,-1.9051633284003784,-1.6337404352021636,-4.601588678617288
-75.0,2.860551360312479,5.073681439710087,2.213130079397538,-3.941545477019603,0.33529422350398985,3.6547030142820036,-4.3084307669097175,-0.8824904778224205,0.4661824171876758,0.7878858609028603,1.6537439219458603,1.945512434068874
-74.0,-2.6138504926412836,-1.7682231549494372,0.8456273376917468,2.1415297063186096,-1.7139206439466124,-0.5215109997448613,-1.658417437854669,-3.1330377665201983,-3.1692707110194664,-0.8353926532316384,-1.3604473912696644,1.56916412570399
-73.0,-1.7107328094382157,1.1981408014268855,2.9088736108650264,0.29093958895698036,-2.289070315337585,2.0821462535713375,-0.5930554508736936,-0.12656589710862098,-3.1064725553343466,-2.2040619828978247,0.46937025438726754,-1.9834489374508122
-72.0,-1.3863041827354459,1.440774548540546,2.827078731276028,-0.0659816106982043,-2.1607409194823006,2.1733822290646696,1.8432216075472054,2.7693075805497496,3.189656231693811,0.08004010501502223,3.190927566584221,2.917725014286645
-71.0,-1.009851230578138,-4.682865012694862,-3.6730137821166267,2.8118899520958585,1.3580314492502932,-4.207762899460889,1.8714224711422707,1.4589083082258845,1.9016835884510819,3.19984959717933,-2.196088067777757,1.4059366653521066
-70.0,2.1589268818692124,-0.29204604226542474,-2.4509729241345877,-0.8858966975353022,2.251842744067573,-1.394682695551446,2.410039177710327,4.605284418303543,1.4348585175779545,1.092755138990753,-0.1453466859266198,-0.3259741451306185
-69.0,2.0768444316023427,0.6167877580586073,-1.4600566735437364,-1.3748503890022492,1.7914813653262942,-0.4415392296748839,2.2954368909687943,-1.9355204267102881,-0.9743698853138837,-0.6052320985185515,-0.8033562757128251,-1.2930493736018478
-68.0,-0.23932833897105676,4.0752801623195705,4.314608501290563,-1.8630668233361125,-2.2568812560624885,4.25403930617296,-0.8676539063388983,-7.004846184876613,-1.2763805702291693,-0.4643627673001087,5.048681418692727,0.9571613483017037
-67.0,-3.0881532461853256,-5.0117613775802115,-1.9236081313949887,4.031921605526197,-0.5639555920880711,-3.489160349364487,-5.099393190289525,-1.0026002610942482,-1.322818079548217,-3.29324231131173,-6.914009499898507,-5.831360547485995
-66.0,0.8816528263987896,-3.6112793011269613,-4.4929321275258065,1.3538865221396668,2.705946424505279,-4.076451215534712,-2.980289601490509,-1.3957120406366519,-2.067832370901718,-1.3967616696432532,-1.1651449562636196,-2.800589062748922
-65.0,-2.025138374854452,-0.6800406151437252,1.3450977597107396,1.3489364728751991,-1.7426081073316788,0.38367435016492457,-0.7929757606885626,2.9448970202715645,0.9804923813374876,1.1266638864808782,2.513485985641979,4.021721199099549
-64.0,0.2990372166947646,3.081937180818887,2.7828999641241925,-1.6882846399004041,-1.2161949474314044,2.9012834748505942,3.6678626110258477,6.539737741385954,2.888295299340994,3.1075972010604462,3.3250569538737365,6.10465643407149
-63.0,5.683375199933362,11.394885491035192,5.711510291101915,-8.534019437954983,-0.061339675802256854,8.596707499336244,5.566988364351961,2.4340691556399063,0.07616177788356526,3.226670296732774,2.5652972669258993,4.5790513348003845
-62.0,3.160276859174417,3.1582960210788293,-0.0019808380955854687,-3.1552284908861163,1.6190033209379278,1.537900745691633,-0.9347003067190198,-2.0984609095604396,1.751643895930247,0.6058191182831185,-2.357791640126635,-2.5385079539655666
-61.0,-4.149418143239116,-7.774875165089803,-3.625457021850719,5.9610528376204845,-0.21768406594473055,-5.746272610394455,-2.4147517768932096,-5.795782270685497,-0.6558570533436797,-4.679734228966274,-3.5284223178153296,-7.001775660719049
-60.0,-4.580933673311234,-8.253166806827107,-3.6722331335158636,6.407650833097808,-0.4830596703606211,-5.9360341855460845,-0.5003160071806114,-1.5992157771764748,-2.4192225069024222,-0.6321442562681079,-0.8576698580967224,-1.0068088826045085
-59.0,-1.5534430591528379,-1.10312918375043,0.4503138754024816,1.3094025616950442,-1.0261851721646258,-0.30474207027427136,-2.033097164699755,0.17805925908927978,-0.0800757503475269,-3.5413094091088024,-0.4368251706053169,-1.270171611301377
-58.0,2.452395391136622,2.5049571867551297,0.05256179561852803,-2.505640928688808,1.1783168704916211,1.2973510008443814,-0.5768964701336254,1.9973473054662028,-1.92661023867088,2.399001688368359,2.015955779807565,0.659976559198314
-57.0,2.4647987949882197,2.178531534611026,-0.2862672603772125,-2.2741652654013738,1.43385764285329,0.9638617225466062,1.5564844062754117,2.6924038562209205,2.7571116721093003,4.131556299644998,3.3232299986489955,5.289424181462794
-56.0,4.217987287079017,2.859844315007511,-1.3581429720715554,-3.4906273266540513,2.767939886594454,0.6906955439180875,2.107462595654013,1.0231470928736672,2.8935195131001357,1.1067867939503946,1.3024007937191597,2.7065330207877256
-55.0,-9.457738279079077,-2.9758175038834263,6.481920775195631,6.191736836210739,-7.989612560594104,1.773305266320692,0.7182111640493165,-3.448095553614804,-4.65674268616119,-1.3851871701218765,-4.4810242000453915,-4.850326075172457
-54.0,-3.1021729193431886,-3.032614633066991,0.06955828627617944,3.0503304927210557,-1.6044202052704484,-1.4597102633001822,-2.0454923930830775,-0.796802535188074,-1.4443076742555923,-6.893783388395424,-3.9088993187238525,-2.9129526212211614
-53.0,7.830799124852373,8.239888725077288,0.40908960022489205,-8.044801624645585,3.773596442536835,4.268547303246789,-2.503580554094493,-2.58655977787235,0.21480305020626222,1.306650153912456,1.7725979741577675,0.3615569942543617
-52.0,6.687560280558242,1.2658240927381441,-5.421736187820132,-3.981631992819246,6.042273316577084,-2.054730589896346,1.5662001834142376,4.556136916144938,3.4715538613094012,3.479125114853651,0.6812481443354893,0.7680834077032623
-51.0,0.9682888363148137,-0.7169812020728561,-1.6852700383876984,-0.13079995784734622,1.3182299587205222,-1.1777737787490106,1.9424147702687633,3.6267197992781814,3.2595082262569703,4.800224988054008,4.235270942140921,7.312293634395528
-50.0,-7.196976001259635,-5.9508811110573046,1.2460948902022997,6.5636602479704615,-4.227294060805486,-2.328956013382601,-0.8365588104027357,-0.46579859745291863,-1.5862899245942645,-2.617828041053654,1.2614788264104309,-1.2553576329393499
-49.0,-5.4590459719393785,-4.721571794859529,0.7374741770798194,5.149866982913571,-3.1032787262740182,-2.0473045199278928,1.5826920484243994,-3.675398176757695,-1.8046651623215717,0.16916172556363174,-1.1938440748850374,-2.8128146028284373
-48.0,-3.8776447584873432,-1.8905076389082072,1.9871371195791574,2.8541330478104205,-2.939058403938994,0.07164668818691489,-0.1218240721383978,-0.031895205805373195,0.5292920354908845,-0.00470122583766075,2.2489047957232944,-1.3422927825063842
-47.0,3.2071968333258263,4.474751739949659,1.2675549066238925,-3.8811893514491453,0.9595968418692338,2.893913578494152,-1.7174671690122256,-2.3197745429599204,-2.179708889459418,-3.5364347968082788,-5.932210097216996,-2.680840534939067
-46.0,8.539331128395558,10.041834985132999,1.502503856737525,-9.25969807652289,3.5037458053063477,5.715221373837609,-3.485212200813647,-0.4390453555196331,-0.8901180408277796,-1.0904271251843036,-0.6110173458484383,0.3816387182805472
-45.0,2.1413060810319404,4.545774876546352,2.4044687955144615,-3.316174701893079,-0.07185202956728709,3.495893186508034,0.03440258131207807,1.5627567024065872,-0.7637254493836444,-2.0810519734115647,-1.3116507075987054,1.0117396940789125
-44.0,1.2354773394424814,-5.727895432540859,-6.963372771983364,2.1959085157710523,4.076495072715044,-6.32545880986887,4.58250617736155,1.155061734332186,1.9298194561395983,2.7275881564697793,0.5471195049310403,1.7034688272206868
-43.0,-9.974637759938544,-14.08826753260344,-4.113629772664936,12.064824004187287,-2.878630109304792,-9.080451611296871,2.120360242589724,1.9398133365042909,-1.258160988879723,-0.6865687248322092,-1.7969209972338573,-1.784969323224126
-42.0,-6.241587399970616,-4.670067562334935,1.571519837635719,5.496099645617942,-3.938340710225443,-1.6060201050103475,-0.1419438871391332,-0.13539022341590035,2.444599020742639,4.382762179240686,4.926913194852941,0.9799394309115962
-41.0,7.280632962707722,9.311635131755128,2.031002169047529,-8.328154238833157,2.5866146207597653,5.695998637310175,-0.9877055274005555,1.3081881485873061,3.440918511833948,5.382935852257312,4.184560719875844,1.5811512348067465
-40.0,9.563099541782453,9.553060420473187,-0.010039121309158405,-9.586255850895878,4.741093314096465,4.799779605817876,-3.871938538980546,-3.977907528843171,-0.6774426612551181,-1.8741204502718891,-0.5876784647431794,-0.8658895973710324
-39.0,1.0682038204476458,6.228069967124087,5.159866146676446,-3.6762073465251026,-2.0187229876955346,5.647571035963256,-3.0041003179547547,-0.5968289601812569,-2.1051908792361664,-5.54166947574269,-4.283523298506822,0.6006776461951373
-38.0,-5.287193189317762,-2.2060277209248644,3.081165468392772,3.793945436334762,-4.159571302471824,0.4740118465447414,0.9031279530934686,-0.2159292339395229,-3.835133163223837,-3.06839222583495,0.7479085812299573,4.016242946033933
-37.0,-8.852587383332954,-13.12213773434203,-4.269550351009257,10.950582924293673,-2.2639185090806655,-8.734527426288672,3.711032401913696,0.027832904334174208,0.920386468123211,-1.1931349076031261,-1.289178268821197,-4.038405919310631
-36.0,0.17286834029679055,-5.006804641260977,-5.179672981557955,2.4533506184049463,2.7123081569927585,-5.050408003814722,3.5695346915167114,3.1710659050413685,2.018454728599028,1.9108938601356278,0.9211093729595508,-1.943097873316827
-35.0,2.0370476750447803,0.6430694512995276,-1.3939782237453273,-1.3081899636563117,1.684473559778179,-0.40975277466078586,2.5641580109183897,1.3614617721888223,-0.9919605182435491,1.2917127925522083,0.5678139992945033,-0.7396359464715465
-34.0,1.8140298801572705,3.8682235622605323,2.0541936821033215,-2.891187598907182,-0.1398276879858089,3.005992223614008,-5.100023372718747,-1.6383680767094468,0.7755947152460723,1.9241703966095665,0.5018369911865062,2.6115212521619013
-33.0,-0.4346141518628377,3.6781939354934243,4.112808087356418,-1.5957075037634696,-2.2861391279839047,3.860625758756594,-2.777735506719336,-1.1466593874489186,0.44831851040810106,1.3931044360534446,-4.706273746288212,-0.7213905424685416
-32.0,4.43130524045286,5.0369789990916445,0.6056737586389802,-4.711356463576269,1.9015463473351395,2.784583938220795,0.21966247288694296,-2.5545315666857213,-0.23758935067156195,0.520071288502565,0.6414597706515768,-2.675562349784883
-31.0,6.4424841911523245,8.147642891256055,1.7051587001038635,-7.3560013873697105,2.3523798511917398,4.966033734761873,-0.7423632170378096,0.7456635534467473,0.5373467466177391,1.961528427574939,4.13129867003316,1.097087956920279
-30.0,-3.1657981614906556,-7.427375647176806,-4.261577485686101,5.307737561725799,0.6012094819887652,-5.807312850663088,1.629390672288815,2.307717822277197,0.7444641908646032,-3.5474533730945055,-2.136377974411417,0.3276317509912583
-29.0,-7.240173813205709,-9.955269480628225,-2.7150956674225886,8.601796495154701,-2.2979955240945333,-6.379178186497859,-0.4349139190090776,-0.07942338605148924,-2.787918470906565,-6.337742968696653,-2.4635442962589025,-4.892252783001344
-28.0,-2.024235249856258,-3.6295654986859454,-1.6053302488298278,2.8257896449400803,-0.17374452914074578,-2.5851844376838184,3.69686295206743,1.8731654655761323,1.2551446369902346,1.992055185915552,7.394365866344711,7.492960347000171
-27.0,-2.0180486101585586,1.6791827525631668,3.6972313627215474,0.16760769428571232,-2.903502466232046,2.6389122242769547,-1.1018764936044345,-2.0339356695631805,0.27790264798287995,3.414309798370455,1.164238928273679,3.718139019151054
-26.0,1.1887308370960032,4.270849015834594,3.082118178738435,-2.7259888166318094,-0.9112254643307283,3.702779202956571,0.6603541150715546,-0.14288965895173333,-0.7844607206289105,1.4691781981003929,-3.5151113090389963,0.6652806588926994
-25.0,6.875791135863798,6.834721959299238,-0.04106917656456588,-6.839200579148243,3.500654438319154,3.4199684250277054,-0.2990907891523247,-1.7328646732749668,0.06413411537413065,-1.0201599273471789,-1.9349625582358274,-0.9052778116814897
-24.0,3.488459412694021,2.717675253643562,-0.7707841590503857,-3.0698484230187577,2.101364905162666,0.9154183633143012,-3.622781104413745,1.7690062986581112,0.14442809047834487,-0.27676110546480537,0.7237623223310643,-0.76180526533813
-23.0,-2.479508470596724,-3.229970258290255,-0.7504617876933958,2.827792566159753,-0.886136728904517,-1.9703046720220627,-0.8181198763937225,1.8507165606251914,2.177429995501678,2.740961422802899,-1.4657399956852408,-4.6584005123277485
-22.0,-3.036307175293231,-8.023053937775972,-4.986746762482602,5.5183976611077865,0.9561906274503214,-6.483542843234352,1.6151795574949843,-1.55880017278729,0.42743588044383773,-1.8937609267691047,-2.980985821710825,-9.392767328695863
-21.0,-3.758080960652462,-0.37660521365576116,3.3814757469967613,2.0649045274576925,-3.591124837100846,1.5275459567616447,2.1559908068758213,-1.8256424289351851,-2.4326360146208774,-2.8017413426580253,-1.3971631523867585,2.966628875734909
-20.0,-1.6837839831168901,-0.6506693510565642,1.0331146320603253,1.1645744860385325,-1.307329204018101,0.14290668556963138,-1.0055333989802564,-0.5948170200598057,-2.0820557868023095,-2.5611555258276395,4.491468365010087,2.415503255306006
-19.0,0.8235685394377885,2.6050985892593967,1.7815300498215723,-1.7261267328311565,-0.5147033059084356,2.2292612657518127,0.5099843805242469,0.9825505192845547,0.3478979255075493,3.5263551914049733,4.204322317248731,6.1319672140182195
-18.0,7.199053153828016,6.434054389307259,-0.7649987645207014,-6.8439533536567145,4.017559753082921,2.795824544551218,-0.2972044571963754,0.9181857544440225,-0.3632249294042563,0.7406353616296453,0.24581000365205385,3.7536429213090554
-17.0,4.720402935756443,3.8247514269247596,-0.8956515088315985,-4.23928357868129,2.8384163987489703,1.5059735944635957,-1.5749601435145262,0.4073264211132186,1.1885577139309857,0.04857576967764565,-4.308392765319338,0.7139679196571933
-16.0,-3.352675044044884,-0.4801416443725852,2.8725333996723927,1.9334931944328733,-3.163147621554436,1.156935591931017,1.7125155556372569,1.2622307993929984,3.1402702161483496,1.8106152286660828,-0.3171571383471048,-5.809467864265002
-15.0,0.13067612201196765,-3.6740989069249097,-3.804775028936877,1.7777068060751446,1.996254483400763,-3.7048220098174456,-0.3044650541060132,0.8787848825922886,1.669125739814041,1.6071356077143557,2.2971934791141573,-2.4197635335744434
-14.0,-7.479635589074411,-13.19216182871399,-5.712526239639721,10.337302940065781,-0.9320210017269606,-9.502983080806143,3.239786121997589,-0.13736304202054198,0.6361546538623295,-0.7059870695438583,-0.2855529292341121,1.4455460432982292
-13.0,-6.924848008923579,-6.141414468943976,0.7834335399794075,6.535799786124091,-3.821811177181761,-2.6570587529659577,-1.6585259544299642,-2.745100881286673,-3.09528590470384,-2.7505022049083996,2.8700823575563557,2.6767540413178024
-12.0,0.7226025398117972,8.677757909385512,7.955155369573573,-4.692482814424641,-3.582411074193954,8.334587316226852,-1.9695271332442095,-1.3231937942391578,-2.1651001200136784,-1.0531069460449647,-1.9200521203627865,-0.39453344227378845
-11.0,7.550389595892606,9.342511308389533,1.7921217124969573,-8.511281993656372,2.8350191393158117,5.585547178308849,-2.6003228426802503,0.02066509468917177,-3.458872089966655,-4.176873540463752,-4.152497849795201,-2.6846417284093147
-10.0,5.732834994346172,7.200575995178282,1.4677410008322989,-6.447503413124581,2.0887337923351508,4.278144955308441,0.09179198799711619,-0.8966110621424277,-0.6564674207345933,2.5634663999288,-3.706767272445362,-1.5798415140664166
-9.0,5.213452543969579,0.33346673527142023,-4.8799858086979,-2.751077444442301,5.082115423750956,-2.2423025325518164,2.033640827362564,2.206625516783764,2.852136623640107,2.198096039025523,1.732030373135982,1.823022296336421
-8.0,-3.54724104792812,-3.707690597537236,-0.16044954960892266,3.6507393076392463,-1.656872871888675,-1.8928972019826449,0.31126572206092185,0.01831889738828485,2.772011563220757,1.7079300378583355,3.941843919952106,1.264052073025771
-7.0,-5.154914653834528,-6.319737663686083,-1.1648230098514767,5.680932366436424,-1.9567693675265243,-3.7699163934964384,1.2398185869200584,-0.1947875354105506,1.2744468562645301,1.333432484031146,1.6120672235240048,-1.6805206901454108
-6.0,0.8921268259040054,-7.481750562194161,-8.373877388098196,3.3151827917079535,4.594269449177031,-7.947898341431027,3.423242727039189,5.029956374910154,2.153427157552272,0.810786565926567,1.4375509874685566,0.5889814748181265
-5.0,0.10883822779991537,3.909598247452477,3.8007600196523996,-1.9912516183976083,-1.8837321882674987,3.839018906449902,-3.2128515166447444,1.3479995791890405,2.642364613819401,-0.7559951466557295,4.983275937869649,4.788015561764489
-4.0,-5.504838290769042,3.5918452680220803,9.096683558790932,0.9719824660610856,-7.338572100672432,6.328441974912017,-1.150753488559529,-5.81205905177648,-4.565337831828211,-3.3791338284428765,-4.792415694255615,0.8338684517841877
-3.0,-3.6588544288719884,-0.23234992223567197,3.426504506636124,1.9585919326343595,-3.5021356200638247,1.6579329954463047,0.15040000571879464,-3.552169186801823,-6.708821651617251,-4.029237836885342,-6.045718239313393,-5.43539831426542
-2.0,1.4994019349706271,-4.123994276299096,-5.62339621126976,1.2440953551157161,3.6023931833210794,-4.894368995107184,-2.750605075187444,-0.21272002259740086,-1.665450343172048,0.4337296501559844,-3.0838706749365525,-4.329644049270179
-1.0,3.8940538431589635,2.105766714196254,-1.7882871289625883,-2.9912902012158766,2.805737195126786,0.13606384314633047,2.366198662008684,2.219128599718066,1.7838547970963932,4.8957529748740996,1.4364252506797697,-0.2349523538861722
0.0,9.15012555874196,5.001096449029597,-4.149029109712094,-7.067437062132859,6.697312860634066,0.4816158091984296,0.05381983074522523,3.786060831867009,7.492580835390557,4.261832508998183,6.303365484485003,4.405452796801021
1.0,-5.13061504702627,-3.5105784505698048,1.6200365964567647,4.330995382124319,-3.4005566543767527,-0.9675948810828162,-1.508263100169283,-3.4953587303003486,0.12187922856015021,-2.9953913231215155,0.10899908533600877,2.3678713032433008
2.0,-2.1585591461547224,0.48589285845910046,2.6444520046140485,0.8524426715029386,-2.4209249779692255,1.5441597510298173,3.2829492256434336,-0.17854915347842457,-2.415553414918224,-1.4727286857008974,1.4128061272869779,4.533688483779358
3.0,-0.0008729968699787705,3.0820380740154194,3.082911070885347,-1.5153460791040998,-1.556838751159618,3.0621125321251315,1.3552234540606982,1.4494638966921434,-1.9644191500718355,-2.4361010466113235,-2.9387075300086885,-1.4184165167245562
4.0,2.275070432124634,-0.8879380602834417,-3.1630084924083746,-0.7356213493303987,2.706270821329494,-1.9680465017891537,-2.014782740894343,0.32539593454782056,-0.9194515766625071,-1.7242340283351925,-3.1773363039741276,-10.174250482125757
5.0,5.017357634004359,5.303912378012828,0.28655474400800507,-5.190701098159248,2.4308192400156443,2.7708445269391873,1.4231614704201947,5.700911086163697,5.069419683398138,4.838926551228344,2.715375923083256,1.6248528266314581
6.0,2.337606830119033,0.29229242232797115,-2.045314407791459,-1.2557421649509322,2.1747290608463326,-0.9059951573330095,-3.6378528331421727,0.5666474304472925,2.9295221087888588,2.225144391496025,5.141506015412368,4.266620600884417
7.0,-7.929069600672811,-5.399295088281825,2.529774512390798,6.652007504038274,-5.252261656552697,-1.3919969875706673,-1.333312959969508,-6.182112176197225,-4.012194993282022,-0.17678455284485972,-2.377367959640211,-0.437901169225708
8.0,-14.181928505573193,-14.903621422959107,-0.7216929173857437,14.533806871679214,-6.682583056275437,-7.855531562633808,0.9073512807023483,-6.478266019584282,-6.296265209626206,-3.983490219104686,-4.355687756001464,0.3450393163049281
9.0,-4.2082373043134425,-6.501421456133162,-2.293184151819315,5.344831571698052,-0.9983649117911186,-4.367539828656744,2.88581421482659,-1.6289239773225344,-2.257514305575073,-3.675164619466828,-1.677914888513511,0.05015072033400114
10.0,9.72644136887379,15.30029095331065,5.57384958443728,-12.527738713067311,2.026364568624427,10.462492222210233,0.379838911943692,2.685338253341546,5.12681912035091,2.232777011497007,3.2600620976010894,3.7506095551211875
11.0,18.164803714717184,14.142069909481496,-4.022733805235447,-16.173961077580106,11.116351151008292,5.004379219881342,-1.7075032167838629,6.772187650660304,4.520075453632591,4.0706761857886615,0.8674574555638526,-3.134423330602079
12.0,2.021901560332946,1.5280808085667985,-0.4938207517662109,-1.7230628720559071,1.279218917527439,0.541152634130428,-0.4343518604914254,3.445887449750086,0.6585487037664519,0.6416283089800072,-0.5128388916213629,-3.2665545442631725
13.0,-6.107225324700016,-4.84912624195937,1.2580990827403902,5.524674090706025,-3.6565371187555353,-1.7686856969304725,1.8378796505996435,0.5192159042944828,-2.133916616915987,-1.2998224199743562,-1.7917897519386994,-1.513461949828403
14.0,-11.234706623967794,-10.049358344146112,1.1853482798212873,10.605270079912238,-6.174076327978661,-4.479463614885795,-1.6233984483622121,-2.864299532474647,-2.1834631783297365,-0.2834266124303694,1.41906721322867,2.4580732796309643
15.0,-2.20240074010571,-0.37033076185795544,1.8320699782474834,1.245346125943132,-2.0479474344323525,0.7675319251136123,-0.02631522753748483,-6.997842145748882,-1.0704684695062383,-3.0804920758347905,0.6221618153943371,1.3633079989721435
16.0,7.010578305070224,2.762317526343466,-4.248260778726813,-4.853432711100616,5.609344224478923,-0.779555245527217,0.47070071172238226,1.9381023688091332,0.34890442838296143,3.380407883067488,2.7460197727319926,1.936708212833331
17.0,1.5811682749287632,-1.2525556680110554,-2.8337239429396908,-0.21533571189417355,2.1933829280182353,-1.996024101921067,3.410062946233114,2.2436378135053068,1.810039000615776,-2.287117709719551,-2.920003410522062,-1.3010448797893155
18.0,1.5378626151728005,0.3141851088506579,-1.2236775063218897,-0.9035184720450491,1.3667108116670377,-0.48251971493920826,-3.1140942692433082,0.7118155983043606,0.6555314782560445,0.6327468817253357,0.6937140051322925,-1.6739633901042923
19.0,-2.926377667977472,4.035566179449159,6.961943847426928,-0.5361241560187577,-4.96334093932291,5.473413035384901,-0.5601639309732953,0.029149401489415472,2.242193478943936,1.562298362697185,1.0423831859565147,1.3876636336594155
20.0,-2.927414594135222,-0.45877078895911216,2.4686438051763147,1.7096276114401312,-2.6460484619951634,1.0592081981880446,-0.20314849791527612,-2.0440355873250637,-2.5478436308494237,1.6236997095741612,-2.5149226856525377,2.552463002731403
21.0,-2.730742526236132,-3.3187554066545726,-0.5880128804183984,3.041677541670846,-1.1049680503583397,-1.978533848988574,-0.4233687958744059,0.03686269954013466,-1.975747578265022,-2.8972218815406587,-1.3273342486281101,-0.6798917950260016
22.0,2.0466942188785775,0.09778906555289646,-1.9489051533258197,-1.1319153361685381,2.0392903430980915,-0.9527634380469927,-1.844891140365179,0.6446476459404042,-1.6758868916873688,-2.2770697640063546,-1.383456022505862,-5.543906887165933
23.0,0.8104698214277448,-2.176749048098506,-2.9872188695264805,0.7050303091130358,1.940550776613689,-2.5336576680236416,2.36487008743575,1.0328066605494497,1.4919341606714245,-0.453078076924571,0.8861306373173805,-0.49545736441928834
24.0,7.8233484178810695,5.008338918822302,-2.815009499059019,-6.391613566630608,5.285097334850792,1.0621257278191518,0.7328859124829132,0.6231740521936603,1.282223830878837,4.6319843556563995,3.3831134003605268,4.385940956254808
25.0,-1.841462930303031,0.7284504668036427,2.5699133971064976,0.5030247294485424,-2.2362459334438802,1.6886990627953584,0.8850782378759379,-2.0702316615066096,0.2562432987789689,-1.6977482867041513,1.69847917611712,-3.4518276919474875
26.0,0.49741571895019643,0.2933013127057353,-0.20411440624448418,-0.37070197895308166,0.3222542213179952,0.0005202800308089506,0.3729247689693372,2.8632778025023957,1.3674548873655548,2.5086784190866944,0.8700257193428999,1.8210532956173269
27.0,1.5379210346239802,2.2641157302689625,0.7261946956451805,-1.8785274110736911,0.45579794926566297,1.525470561819178,1.8225508140290496,1.1964736251905095,3.2165347340783184,1.658107423395337,-1.1232109053295174,3.8562731423461902
28.0,-6.510087891752053,-1.9333131310525238,4.576774760699819,4.240897328501294,-5.574250992201324,1.2702262155172441,-0.6783872146354528,-0.9304298790686423,-1.6404446514056983,-2.2016574512164175,-0.17852145706694977,4.752863894477839
29.0,-7.123033899625548,-6.406871255138256,0.7161626444875819,6.70164582102203,-3.952335141085303,-2.819072526983103,-4.1376017191939765,-2.7438338311049772,-5.032428548577214,-4.89510606498247,-3.886821921907751,-3.0577801696398286
30.0,0.14077193156029866,0.6645129206007219,0.5237409890405758,-0.3905310593065958,-0.14529206429132202,0.6220306732907102,-3.6502562830422933,-4.680147547873732,-3.4173099915017247,-2.9089675582697154,-1.8267589189111055,-5.79631115195688
31.0,6.935048687933062,0.017685383215621298,-6.917363304717498,-3.4661694380515264,6.975868476370537,-3.417877464690106,1.4798819402265604,0.41831515457968216,0.5506154058882733,2.47470300436638,-1.4791005490185443,-5.84017556886291
32.0,-0.6767908305014494,-2.77915983059632,-2.102369000095098,1.7385393439975347,0.6901574802132062,-2.4818418630771166,3.5718506502700875,3.4105820750771185,3.1348374451612777,0.7974561556481845,0.47164491266274206,-4.368438323325106
33.0,3.9231859220423613,3.495974157398323,-0.42721176464434807,-3.695943873967027,2.1602390977257735,1.4995866903499213,1.390994666294143,4.043850417039723,4.733377766824788,5.805504943966463,3.281288413628373,6.693958782307575
34.0,5.451752520258435,5.000025393017456,-0.45172712724117964,-5.2066209560942145,2.943184563115876,2.2452371671755715,0.32598064002303495,1.6638136155829766,4.571068205847874,4.936689843115141,7.765080114022131,11.187010128437084
35.0,-3.743447853518849,2.250070748434654,5.993518601953483,0.6948238978521051,-4.874023897280003,4.176382314514186,1.1329561739903569,0.192175669684714,-2.139494435051267,-1.2856271771186654,1.0706345583178911,2.963197830208072
36.0,-8.004955795763891,-7.796680735913752,0.20827505985040862,7.857838278886739,-4.113425141239778,-3.736689892120128,-1.4632312113013828,-3.1546225294213857,-5.650170985396028,-6.805046476660176,-2.9407017847077412,-1.9135131580632305
37.0,0.16732542894091562,6.745945699123542,6.578620270182953,-3.411437236135423,-3.2173815390186786,6.641319860113448,0.5413891443910053,-4.647824180274155,-6.535825790844022,-6.0902902843947935,-6.157829699667835,-6.456823266158487
38.0,0.4766872323726479,0.14882020823338382,-0.32786702413892943,-0.2584580031963575,0.38374174075763334,-0.11358589571888428,-2.312312242971162,-0.03232216380906516,1.7747660338611682,0.8670361400560553,-2.941539814860192,-5.54145724748625
39.0,11.618250717261304,4.864462353515657,-6.753788363745515,-8.258289829798475,9.239633635875434,-0.975175338112303,-5.182739195517889,1.398651065986527,3.2591402735934127,1.6841524410090802,-0.5312966957288023,-2.784485307034472
40.0,-1.20032533512581,-5.417935556618029,-4.217610221492265,3.2966078564160104,1.5573207770986985,-4.856773761256301,3.2394079079295994,5.96360942148743,4.8894550775897,4.887000602031856,4.9811305587385615,4.574037567027599
41.0,-9.589564189959804,-13.206153628766476,-3.6165894388068316,11.385337248877375,-3.019459112438447,-8.379660211788188,4.472236601292818,-0.817252712931845,1.5380711290283062,2.4091507191682884,2.4511981580881894,4.080142718108774
42.0,-6.936998327276022,-6.479022617693932,0.4579757095818555,6.690703795987497,-3.7318287390191136,-2.9836419074885026,1.5067872500276356,-4.488120080419208,-3.1649898972366177,-1.1162734968472283,-2.012414629328696,1.3259249012113692
43.0,1.9860619480581154,12.256510784650072,10.27044883659171,-7.147223382027693,-4.177056466918518,11.290486374469223,-4.580363409617332,-2.794447796305546,-4.250861879474882,-3.561033153378977,-4.2608894627726155,-1.466271279158322
44.0,7.811664273651005,8.788430770898586,0.9767664972475067,-8.257650315936706,3.461437919571565,4.914507874817905,-0.019288356488679437,1.0494563603222742,0.5252233213754596,0.2058464730435985,5.005174101196277,-0.04066058156751218
45.0,5.146879615515546,4.02873789599121,-1.1181417195242371,-4.5551579266555615,3.098817932471821,1.416042429953266,0.6997609461980241,5.2229141727541615,1.422944530066679,-0.544715705739388,1.7030414939978757,-2.3361252712503235
46.0,-3.5754331428679182,-8.699553508445302,-5.1241203655772,6.084278471695165,0.8219123582116126,-6.943900607655421,0.828518586255815,-0.38708998904519243,2.5512973940956583,1.8160080030742183,-3.0272908907891747,-2.0503754683906372
47.0,-1.6165921335962121,-0.6503494932240188,0.966242640372319,1.1553443054088302,-1.3186696324770621,0.12996890568179564,-0.831207104128634,0.41829025160145056,-0.508363103128914,0.0705782239397707,-1.117357815023321,2.1179028663791564
48.0,2.229909295161395,1.3471744290467158,-0.8827348661146885,-1.767363114259818,1.6122357726333234,0.2826638508421653,2.063974996154992,0.8732296531105592,0.5581351645029236,0.21331574579318027,0.791930491556105,1.3894015973174407
49.0,-1.3569056630728915,-1.814728843586432,-0.4578231805136028,1.607798285653012,-0.46918198497718877,-1.1689244087478223,-1.2953722599679423,-2.681167610187306,-3.7374242680031133,-1.0450844082224924,-0.02204251730396789,1.9141861265974112
50.0,-2.370256678879236,1.7869268852637439,4.157183564142964,0.23547411291551312,-3.283192292619462,3.0114944623057163,1.490880328510443,-3.129441777971418,1.2387674498467904,-0.023200332515558975,3.6823136230000983,2.099759148948289
51.0,-0.4548207890073883,-1.4424183049673969,-0.9875975159599688,0.9704562875581965,0.24308289756820334,-1.261127033435466,-3.541921820609282,0.17069714163750183,-0.07851403384510657,0.41426801448007844,-1.2033504913693736,-3.8556177486925374
52.0,2.1306715859546244,1.9571473779198338,-0.17352420803467658,-2.1026180791383506,1.1215005602009422,0.9192786631816338,-1.9010208833394047,0.9248904731778601,0.8748405434371918,-0.7811018159197978,-0.77959555590397,-3.6408473859843697
53.0,-0.5531215514418835,1.2500059145118945,1.8031274659538976,-0.32970818110181743,-1.1386417941909892,1.551285438126877,0.8209094732212121,1.5897772343600507,-0.5640069487764211,0.3057222325716841,-1.7467268516301093,2.573084932006225
54.0,-2.253827228620975,-3.472785250160849,-1.2189580215398352,2.883395066605556,-0.4850953591888337,-2.3219309421581698,3.4383938388174538,0.9876970546088872,1.3090317542056598,1.5089888265791431,-1.2373894110854127,0.9490015777527467
55.0,1.2040410512577724,-3.968707569276309,-5.172748620534181,1.4080631462898903,3.1389893326628786,-4.625650304410234,1.83648217727739,0.990004615866898,0.3404086720207545,-1.511650106023958,-0.18949671494530695,0.06657886115655576
56.0,-0.5007537410897989,0.804622037299219,1.3053757783888633,-0.11620808213068226,-0.8712204921381312,1.0780029080519018,1.0398889792204553,-0.2956803720665028,-1.001219346413798,-1.4508785603089844,-2.3205669898944716,-1.2431119984246464
57.0,-0.6813854826640373,1.5409638097378304,2.222349292401736,-0.4602289748171007,-1.4124532187322132,1.8237591082803917,-2.4183958784406516,-1.5761975287970635,0.3660782460137397,-0.5094788741591598,1.4654913512833285,-1.6810802749918563
58.0,2.957762192877885,4.998132630491168,2.040370437613273,-3.996196779242805,0.4299737921374954,3.5371697892937863,-3.1021318592788933,0.9019953153262081,-1.2830417733979764,2.7860674801359107,4.851795724245732,1.1715499091685508
59.0,3.989070606908337,-0.3634274595376996,-4.352498066445942,-1.8222637840114997,4.152856353434217,-2.3423248893248956,-1.0721166787211538,-1.6933280139042544,-1.2475469082233777,3.151339514609553,3.2753303748434366,3.987705672723368
60.0,-4.376650028941448,-2.417676976531123,1.958973052410411,3.3913356734960622,-3.1774066755028665,-0.21380342547461212,1.798230336251666,-2.2185203825102793,0.3189840129096596,-2.0070565773919657,-1.407081084931726,-2.381115427215152
61.0,1.5438700105520993,3.80189940160943,2.258029391057362,-2.6802828922683277,-0.3623286303212212,3.0483990135637553,3.096486608584378,2.93175130983638,2.4804104241028777,-2.1473046179205504,-3.2133065116074255,-0.3346611974292718
62.0,1.931978773728943,0.9985394222338949,-0.9334393514950675,-1.4777194518976349,1.4277547437314326,0.056458225739301565,-0.14788301031761386,0.7304045116080385,3.179590506292379,-0.4385447482842515,-3.0538635847846214,0.9486393636419794
63.0,-2.5005474259549696,-0.04040078208596121,2.460146643869048,1.330812944939557,-2.4879698788459854,1.1617756084298323,-1.719658684386985,0.06594488095773932,-2.8082774928218335,1.447850177944841,2.0100196594924995,3.2239688222735836
64.0,-3.2085971541641487,-5.359798316083579,-2.1512011619193476,4.261415274501618,-0.46170267679955457,-3.7971004804591257,0.0727424401706186,0.6835465859558958,-1.6334558980106328,-1.3286573327858386,0.6413724917940871,-4.190948835215163
65.0,-4.634620680886739,-6.270096107696606,-1.6354754268097924,5.428234777967998,-1.5157765549828208,-3.9103765681797107,-3.589061179797186,-1.940439860566264,-2.3746848578042115,-2.432297151128121,-2.4661360532746848,-5.26171864640391
66.0,4.285789593420716,0.5672533023206594,-3.7185362911001127,-2.3701909306243154,3.9815800054299615,-1.6081230589365865,3.231962003288009,0.26639889962136176,1.4187961202136277,3.1787709713213106,1.7464525539882945,3.760781311742359
67.0,3.3433101745358935,4.512701946310438,1.1693917717744138,-3.946964894356701,1.0617826733406084,2.8901860863959787,2.7609603139027143,0.7429556540263205,2.4138592625221107,5.184329008022473,3.1685769440013707,3.6302781000495483
68.0,-1.4067640748962567,2.394648229081025,3.801412303977136,-0.5096877051469586,-2.5558777720147736,3.070759397009935,-2.1933513058395953,-0.906434042660365,-1.8240424913994497,-4.97937931876922,-4.1139653991267,-0.8514351438244172
69.0,-3.138732479535451,0.9867158550833124,4.125448334618581,1.0613259953811414,-3.6691475010156793,2.609457014250762,-0.23850555700878168,-1.2815435862408564,1.0164099350778308,-2.0213271546019502,-3.195063441523273,0.04415047822399487
70.0,1.7056575300786572,-1.1014418170298266,-2.8070993471086356,-0.31896009712459017,2.2904895806229164,-1.9785015540702457,-2.909013068828275,2.2237463143203815,-0.81563452179538,-1.630947123843256,1.8994523541378436,-2.861620780844677
71.0,0.4843171010996459,-2.427264821525278,-2.911581922624945,1.0280380820588255,1.6453475301811789,-2.6935876908407006,2.268669484401486,-0.579555497939404,0.30260530600988256,-0.5070433586734171,2.792045974416281,-1.7830276369312943
72.0,7.299071316468703,6.926436592173187,-0.37263472429530964,-7.142340978814787,3.854832980656394,3.2518762249451387,2.3250277791879506,0.0572630660514239,1.4458271750147897,7.050143869558241,6.8469260884769785,2.318392651360199
73.0,5.617016941324789,5.002204984941263,-0.6148119563832104,-5.347004026689089,3.129868712041106,2.1677045863502005,0.1283109788808685,0.7358090666755022,3.2046811937729207,1.8514376840774744,1.4514759081520325,5.520879460682922
74.0,-3.249458675930374,-6.172269716505711,-2.9228110405750907,4.745633845762937,-0.15118215871897217,-4.4947286744844295,-1.3220317921646905,1.1491335130675888,-3.769732996338866,0.6381071753441339,-5.5044161064852855,-0.8100801791302654
75.0,-13.282050689598204,-7.333854269643048,5.948196419955201,10.338361758583074,-9.601150855543247,-0.6382617925989462,1.179105173675739,-0.7595524763884618,-0.22010861048249497,-3.0282006916015995,-7.437673559977649,-6.530141252961554
76.0,-4.706822039116803,-3.570634198828038,1.1361878402886223,4.167072970822252,-2.981121108485244,-1.2383307298445227,-1.9437309062200554,-2.2845763643842822,-2.5963789276346794,-8.211861846366562,-3.89900448367669,0.653931090438566
77.0,-1.1234104224996888,0.5691642480446433,1.69257467054407,0.22621303745051513,-1.3812703522963734,1.1127319066716344,-1.482679019296706,-0.4783536886187446,-1.1124193355349492,-0.9750235764672515,3.122158349333252,3.4441726035738185
78.0,8.690739501181545,5.765177938204931,-2.925561562976915,-7.2788063267330365,5.843667254502531,1.4027692194927852,-1.7259763740565923,1.4072958336960117,1.1517289240843853,3.094253636694245,5.781859242976734,1.6273970387650123
79.0,3.678823022508718,4.658303875601562,0.9794808530926666,-4.140681902036271,1.3151681588588704,2.7999116631160685,-0.04772133996617014,-0.7490324776343663,0.7260601412709726,3.6344167518412975,1.4931741498768272,-3.1706922861942086
80.0,3.335162296638341,1.2993587915837308,-2.035803505054536,-2.289553891086689,2.6585657552269373,-0.39217381835403864,4.146177971965589,1.076486168341251,3.6680893099875207,4.599734795781997,3.8795306846255597,-2.4330708537975205
81.0,-6.799886818949848,-5.093184804662872,1.706702014287265,5.974230968176127,-4.195716331027022,-1.645346052816461,1.7139856240450566,-1.680009122246068,-2.7700099490373966,-2.2828417127944736,-3.9734366262994896,-0.1349791890718447
82.0,6.307771098900886,-3.9850581090231927,-10.292829207923749,-1.2118948516439838,8.282831862050976,-7.098347990752911,-0.4954887279180594,2.9464842144774037,3.658184568847228,-0.7086819455761,-3.993022659100972,2.6486649315597055
83.0,5.593629335193462,6.474875926781182,0.8812465915879288,-6.004780752668253,2.340690046724611,3.6334420672230023,-0.2950755527274033,2.0714609151953005,2.895458472768541,0.5086402311402345,2.1716573118784863,4.687832856079481
84.0,-11.160087228930616,-0.3548251485573124,10.805262080373367,5.710241373702136,-10.997229638634003,5.254243263405209,0.8555422907345749,-1.5329842654985577,-5.711974701764094,-2.3268712747975906,1.6300763841183845,-2.383851969640758
85.0,-6.645475037543992,-2.864945635367066,3.7805294021768807,4.789556768906631,-5.2267523692103985,0.40420060214380626,-3.125547538403188,-3.070581278157314,-3.086956107772501,-1.6431991576918992,-2.2293237631106684,-1.9514732017673402
86.0,2.169403741766698,-4.236699871960255,-6.4061036137270815,1.0713863785385014,4.354049713981804,-5.29929631080829,-0.9171447201429235,-0.677905633551052,-1.1461366828216064,-2.4212015191486427,-3.5220662088033827,-6.419885743419389
87.0,7.301627819157662,7.7537874304683285,0.45215961131047155,-7.565008946149844,3.414046876958491,4.122437026392408,-0.87611409715361,-0.7235941887869541,2.466848461899278,4.936817551821186,6.010670832137276,6.439475327756023
88.0,3.9015955665381172,2.8019591725066784,-1.099636394031701,-3.3852982738445325,2.491367561328689,0.8682271546900063,-0.6248229273718006,2.511978369206325,1.1906016114060862,1.8925674303078346,2.038269507935176,4.344809362904819
89.0,-7.00285595761329,-8.105709289528589,-1.1028533319154992,7.603271923868423,-2.9594029588569204,-4.667950946514585,3.12761611016078,2.380177925744091,1.487136610648548,-2.231765161275845,-3.7090595329810676,-2.3301778548194267
90.0,-2.5347738736284198,1.3590367448467493,3.8938106184751473,0.5619455136426357,-3.2265633051085487,2.6404316518782083,2.0497524328416006,-2.39874808766135,-1.062608591020788,-2.4648143553912933,-5.21057632812508,-4.813401298768664
91.0,3.049546306426486,-0.3394895325242985,-3.3890358389506043,-1.3769094055048352,3.201014239656086,-1.8497569049380678,0.5202347211867975,-1.324610168887417,2.250862297520621,-0.7823394799132951,1.7262864042906165,0.4601657574963136
92.0,0.49771900644161926,-0.06702541347808977,-0.5647444199194458,-0.15434091912371717,0.5830933685683681,-0.29884922616618653,-0.9384127109153038,2.5045413856971965,-2.206718980967934,4.370596822758387,3.3075086085097136,2.5685964582741176
93.0,3.92208321245487,4.0351051804047415,0.11302196795012182,-3.9926513598281272,1.8677814866094606,2.0955819403337017,-2.7971567107436504,0.2685022169496745,-1.7350447246574263,-1.6768785827243557,0.3958967246389802,-0.5963227029678204
94.0,-1.526185691532892,-0.4877205143838883,1.0384651771491058,0.9951840486171326,-1.2496178080412337,0.22386182354197426,-0.16542595232591073,-1.7693996758114072,0.9984550354850901,2.111674018177129,4.166929163664083,0.010464617294953737
95.0,-3.099539911019795,-2.4758939293198905,0.6236459816998697,2.775784163623326,-1.9145298366160772,-0.8930373013702808,-0.8625492385276654,-0.19323821699204502,0.4408231224235595,-0.11821667765126684,-1.8642935395602254,2.3679296118694353
96.0,-0.24458821093891436,-1.4956871800857099,-1.2510989691469445,0.8548601435997354,0.5259725143377942,-1.4141825590074992,1.5155586806137487,-0.08067491156748768,1.579052353210551,-2.2972655801153343,-3.9629372432917513,-1.867137177873903
97.0,1.6069765123707604,3.036937283177515,1.4299607708065825,-2.2650766649417964,0.1124984035625739,2.274569043689814,1.5722498119885788,0.6043973610790573,1.2408497949091706,1.6267932721172924,1.0178870254067571,2.7756999516494902
98.0,0.2195461502963505,0.3661987832460699,0.1466526329496235,-0.32385415527586636,0.06559229740895978,0.21999624026184617,-0.6135476490646183,1.0938552309913498,-1.9278855903162264,0.32849373604202814,0.4348288491593036,-2.620216770175102
99.0,-2.1714243868600476,-1.0469645874912417,1.124459799368804,1.5680270396142122,-1.689951742750937,0.08049904138864766,1.4260243763199236,0.8085955898224897,-1.5784651876738287,-1.874853968341831,0.146486552489897,-2.6218629014764017
100.0,0.4987745045774701,-2.0343936689678532,-2.5331681735452904,0.7960275891599975,1.4820700168547924,-2.3226661937900435,-1.0290601104444335,-2.686215442523645,-2.3706214528377365,-1.1886457762098135,-0.9498139273704579,-0.1857292860213242
101.0,0.1399671322362509,0.029263876152180957,-0.11070325608404419,-0.06305015689153953,0.17702050742609776,-0.0035319684418115838,-2.248497569965001,-1.867964667506747,-1.2551269572769583,-2.541080781040215,-3.0602398716873376,-0.4832087847237927
102.0,2.8239891282164673,1.916504831061463,-0.9074842971549932,-2.3512611490836024,1.8430762575511146,0.45993269780434765,0.9750579788278935,1.9877494630733128,4.718543809439263,2.696543471049323,2.297534962482911,0.3195526882615005
103.0,1.3614501502497363,1.927104088499405,0.5656539382496636,-1.7020898853251576,0.3768606470318966,1.2774786611790312,-0.7287198292484566,2.239647733730754,2.8403878197203603,3.018463625610787,3.179636246326549,4.509094325238759
104.0,-2.7936719665785072,0.9805950369934292,3.774267003571964,0.9334438671323192,-3.227022553635242,2.4054872892827595,1.2533311749451106,-0.8741814409314459,-1.663665703593876,-1.5599659301475948,-3.3305145830662584,1.6626252162646789
105.0,-1.710084155716918,-4.927838298730299,-3.217754143013325,3.3545782119768077,0.7297995820872558,-4.126528067761139,3.1159859745485057,-0.10416909547070392,-0.6358693562222811,0.05942765236086231,-1.8119996400815295,-2.432571209167487
106.0,-0.46998724054634666,-1.8549792842849187,-1.384992043738501,1.129151037361267,0.4309500135907831,-1.5979509175494122,-1.2835180542319047,0.701049242085857,1.301542883756869,2.128909828261584,5.021570606134831,-0.7004267315200956
107.0,0.6348235801108348,4.005996040309601,3.3711724601988022,-2.344460980860782,-1.3964098692173754,3.708007151370653,-4.19068529934078,-2.6688703624308427,-1.66314825445685,-0.7469887948506505,3.553354914744013,-0.08432583639834723
108.0,-1.341103228070569,1.4566847338857782,2.7977879619563093,-0.07431684790958004,-2.0191373504797205,2.0663116809403466,-0.1661840645340542,0.3678663328917573,-2.4091892594180737,1.766988379523905,-0.5728626017495475,1.1443213483589623
109.0,3.9920746761709673,3.11716580830591,-0.8749088678651524,-3.487402218861167,2.484831557780475,1.1391586695951679,0.9829277294683542,3.081169668207995,-0.4963911902831899,-2.707196465343126,-1.9650380038063568,1.1088193959139574
110.0,-0.5097292790984891,-5.4363058424880295,-4.9265765633896255,2.9635072910468843,2.182055294031957,-5.160877379744175,0.45351360166543925,-2.335832521066055,1.476123173551783,-3.127351991676314,-4.23590421817978,-3.815922454345823
111.0,1.2289908977392665,-2.9693871496176443,-4.198378047356965,0.8594972672341824,2.6865970130372734,-3.558643497143752,3.291300883004538,-1.1396075413896976,0.6681046289070025,-0.8469732901502349,-5.167071250168973,-3.6752283299838475
112.0,-1.8055515896927499,-1.4247381178038698,0.38081347188890713,1.6000449202351004,-1.1241815062264235,-0.49097814016704366,1.0235457089382607,1.119342778986422,1.4922379559917711,-0.47190770550824296,0.5214018995532634,0.12887948995074439
113.0,-1.348559655541918,2.052750920365483,3.4013105759075066,-0.37439715648934,-2.3345359186567127,2.6844846622393814,-0.9199202983684418,2.0547961406646698,-0.1928849036248329,4.237286344281909,3.2795175744104426,1.450900302585639
114.0,1.8792461118853576,5.792086846178788,3.9128407342935656,-3.7883530443062066,-1.064689101858219,4.81328976587141,-2.187752301131994,-1.5024005761840709,1.1678554334390703,1.8957910378518195,4.503640705359917,3.978912254694217
115.0,-3.3246686882748477,1.4503332414169052,4.775001929691831,0.8958299069162767,-4.028343753644325,3.0747102004034446,-2.8366565413690124,-0.5933032062108698,-2.3017281456463365,2.3020430740048656,4.814053371438155,3.8527651992015897
116.0,1.8851786080564523,-0.17569103887047044,-2.0608696469269265,-0.8268504772908921,1.987890858188276,-1.0775834442392898,-0.5757803387703053,-1.5329181883338925,-2.5610990794137902,-2.4831444785538785,-2.375074354287587,-0.05057340653729869
117.0,1.3780366415229597,-1.6582194227506943,-3.0362560642737373,0.15970510934365278,2.219872694585133,-2.3065723282419492,2.004515828546655,1.4999591527952725,2.982339228675215,-2.634380329748132,-2.9596996248858334,-0.5565385812468763
118.0,2.956374533223717,-1.5970931023798611,-4.553467635603685,-0.6665580483312008,3.770218489099766,-3.033612890885398,2.427926476710878,3.631718448759552,2.534118514622099,-0.22276329121779237,-0.7506331313510093,-0.1139465517110545
119.0,-2.1240825976643296,-6.888633501394379,-4.764550903730133,4.436261707156283,1.3415061272898556,-5.8616562837945745,2.9883406979792064,0.1776308597337506,-2.663896504356419,-1.884548626149917,-4.222089074631983,-8.331489437872307
120.0,-7.824385106871901,-0.9819134140858647,6.842471692786009,4.40993577947207,-7.383691300110893,2.8974096572372594,-1.8983022606855449,-3.246159170025008,-0.3782435231046723,1.9888185565332765,0.7083115764354684,-0.02041295734027937
121.0,1.5910614757031354,2.5233106734486666,0.9322491977455813,-2.0491042229571397,0.2856169676407676,1.69631324865197,-3.495330618515565,-4.234982485016974,-2.3663280840852674,-1.078439484770785,1.8875554095390037,-1.7263816124591562
122.0,4.043514778278902,9.96170788777236,5.918193109493541,-6.989678881064154,-0.8976214311739863,7.987404964870343,-2.6765633601528416,-0.2915761629773006,0.14423284862046937,2.4384107494947105,3.0799227794249284,6.1736578963819735
123.0,3.122799172199114,2.852300668495336,-0.2704985037036809,-2.9665766712763615,1.660850124650043,1.2588112605034563,-0.3350302229375697,3.229433240492768,2.028701212055818,-0.6641023308349294,0.3978900974975086,3.620614582214941
124.0,-3.0745442234354883,-8.020369264193029,-4.945825040757489,5.578202321316709,0.9811285815550348,-6.437543593457615,2.867175725794308,1.3436827357866323,0.5317924407257429,-0.17325941408347936,-3.93239899459388,-1.4319004360783272
125.0,2.7256003921438867,-3.6925655122504475,-6.418165904394332,0.44464641230065216,4.619839545428457,-5.0894580933207445,5.9360192804784315,2.3827100386347952,0.9996574299130575,1.427018474990847,0.7307249388612953,0.24285569676266683
126.0,1.9047051776371657,0.8614982370753426,-1.0432069405618858,-1.4158134299234417,1.4454227808078768,-0.046861392080251196,0.5600351303581337,0.6854898800296748,1.2509391116723354,1.2607010313942653,0.9714970882992893,-2.302826433249035
127.0,-2.8758864179440446,1.7073860696282395,4.583272487572217,0.6318067037028403,-3.756929315772516,3.109629937262561,-2.7104588572996073,1.2141978282946804,0.7573502487229256,-0.5504906584993419,1.9947042976131284,-1.7210556441832723
128.0,-0.37074620383325096,2.057337145894173,2.4280833497273586,-0.8775442893984299,-1.4277093051637644,2.2838327851970384,-3.156875485678021,-3.9256728963070833,-2.541863390680219,-1.2315690256577567,0.5536182574860031,0.597965358583554
129.0,-1.085618641722224,1.0967860181321696,2.1824046598543667,-0.04571586783701323,-1.5872274371147628,1.5986768964513631,-1.374492021392037,-3.950799955709668,-1.0501883311366405,-2.144333860318116,-3.3531301584675597,-1.1894915480973158
130.0,-2.631551998822391,-1.2844830898730972,1.3470689089493213,1.9908156851424854,-2.0274869858197717,-0.013878474633655768,-0.8707583132219193,0.6825820760469865,-0.9819283957235647,-0.01640225425374675,-1.3871701142168504,2.6188621948309976
131.0,-2.605567228734425,-2.1110052641389463,0.49456196459552804,2.3882860212554724,-1.51732988833681,-0.7786203719783766,1.428814721153307,2.9252643308704247,1.0489348457657988,-1.0751379720833247,0.018962982848114374,2.1282830216854114
132.0,3.3526282774422134,-1.2885866511745907,-4.641214928616763,-0.9999493555121084,4.021531566811112,-2.9373859416600636,2.2147791993791346,0.13693754419539728,-0.6951603140431937,2.0671396023356925,2.666614790327478,-0.9768177547799584
133.0,1.0245764496762884,0.5918012620756776,-0.4327751876006092,-0.8479370143675405,0.667575292088082,0.10805404088397896,0.03140976758994207,-0.9737947907825126,-0.03437585784756558,1.0196582570417507,1.7682198569928231,-1.915608409318356
134.0,0.3415984496430853,2.834832066176004,2.4932336165328866,-1.6180621233117334,-1.062671323444106,2.618152183556335,0.6694018606604961,-1.496677164529716,-1.2066050991080701,-0.7889932515696809,-1.4732043166086715,0.1502455358813477
135.0,0.8125020827174645,-0.9490861283678125,-1.7615882110852934,0.12694897451232823,1.2990347073650848,-1.3158272285880344,-2.6163568832184616,-0.3834735113883769,-0.7596643269333114,-0.031065921492634596,-2.2275211446774748,-2.5576228839362973
136.0,3.5172404756785385,-0.8712809023026121,-4.388521377981134,-1.3368137937123117,3.9672936827000873,-2.6619828807831674,-0.34322370766247756,3.377754565837945,4.571651191258567,0.6252580080121044,2.627838265080196,2.7328168505073296
137.0,4.503619133983426,0.9899402587469477,-3.5136788752364314,-2.760364913802971,4.028488881985743,-1.288221265180833,1.8292154170041965,3.278701011728566,3.422003537299976,2.1069956040850824,-0.2705784077965053,2.4124151588536806
138.0,-4.424006989165489,3.172284188110027,7.596291177275548,0.6057007810479091,-6.061913796539006,5.439512545488976,1.8435699078394001,0.8795101709979137,-0.14047373923993156,-0.32053628611220947,-1.066363840164852,-0.520460523483985
139.0,-3.9488641736057803,-3.1854053091628227,0.7634588644429772,3.534858483243399,-2.3219341805497584,-1.23518203837952,0.6536497458988211,-3.868737906718663,-3.21848485527884,-1.0688384238180957,-3.229997769522371,-3.4748913528162078
140.0,-7.311005488842894,-4.21984687506715,3.091158613775747,5.797310902551558,-5.239739194649118,-0.5923695617139768,-1.0003873031069332,-3.3387589289397477,-4.548810540226065,-3.3480634168964154,0.9741778700321471,-0.6458801669926661
141.0,-0.7940059001647946,1.5775789307992731,2.371584830964069,-0.37311534480221553,-1.5391520242246255,2.019591730746221,-2.005628055695906,-1.6107296131182645,0.07638650628694865,-1.7714769109917972,2.5460876971302273,2.483859834856094
142.0,4.880697908441237,5.280015511198976,0.3993176027577491,-5.07019695341977,2.206599628253387,2.800069872308333,-0.6101615291651483,1.0367562329730438,1.05397652592593,3.4855365350409366,2.299164654091743,0.29366889260804174
143.0,3.325838695217211,-0.7998209527599178,-4.125659647977123,-1.2549020083004416,3.7693928984174834,-2.4277949625809616,-2.082832272621849,2.115429291200511,1.2665714399701415,1.4468922200280854,1.2202562321394756,-0.5776933926072403
144.0,5.306839699210851,-1.6550471970292127,-6.961886896240059,-1.8135724609052615,6.097306931010586,-4.353543493638645,-1.5705159896861438,0.1349614469701519,0.24607900247874537,1.9266331710345228,0.030471010622077577,0.7750099753607411
145.0,2.0387325525734554,1.8916121061927242,-0.14712044638072452,-2.022884036932976,1.0544211509216481,0.907914969606447,3.8256975827535515,3.1529470495643186,0.5159970246024309,-2.0053242304399572,-4.973998586668549,-0.49321057867156365
146.0,-1.882022388136456,-2.954365660560994,-1.0723432724245303,2.4499091351986015,-0.3641998961755279,-1.9732665710512909,3.404116014023125,1.6197564165345308,2.458198794665785,-1.1143920095788424,-1.9706993176077918,2.668422149060544
147.0,-6.248025674856567,-3.892272030933544,2.3557536439230313,5.033311274213379,-4.258321519966121,-0.80193165111317,0.13901502015949774,-3.101067214783753,-1.2395259462546768,-1.0062275397425173,-1.9857420187979837,-4.006313477284488
148.0,-4.426390582916786,0.8741380152630156,5.300528598179806,1.82597756616153,-4.893606003355469,3.056961019637395,0.23459845407732344,-2.7478210554730227,-2.4111464018851576,-0.6799888455393527,2.0202924549188634,-3.95112719999494
149.0,1.7362330370670382,3.506975061382714,1.770742024315687,-2.6457424228623685,-0.041868641049578326,2.6870356727336775,-2.107600396085372,0.458627646229417,2.491381757845522,2.915272895573274,3.5396509420361646,1.719996903626464
150.0,3.096016860882648,2.797445499099239,-0.2985713617833907,-2.969429660311265,1.7551123490813287,1.2145661582512892,-3.6296683598424826,-1.3897819302322274,-1.0675437744500071,0.2302924955342016,5.862369353250047,7.105234485779851
151.0,-0.947412292861745,1.3856921955117083,2.33310448837347,-0.16455340907828697,-1.661614792286151,1.817088640755383,1.9617800985258564,2.2179607625846254,-1.6972846976241318,0.616218134930115,-0.02323568838592216,2.7639835468604224
152.0,2.269959231099007,-1.9962237393747548,-4.266182970473745,-0.1646872473225982,3.240940018860494,-3.103101469239631,-0.019984550596210654,1.2623390720462884,-0.001982793726541754,-2.6217618656304182,-4.175611388873706,-2.816771915426263
153.0,-2.3013837540953395,-4.303768672526469,-2.002384918431114,3.269691540374492,-0.18730123981738167,-3.1315210441303627,0.2989663327879232,-1.6465890617968035,0.7087134757575011,1.5146666852435016,-3.050639387725899,-3.7375290350636146
154.0,3.0580475752338967,0.6215975794263777,-2.4364499958075143,-1.7997451980258008,2.7748841662929724,-0.8885617527258143,1.4196900956941578,2.051569255620334,1.4676107859994858,-1.8787705866076103,-2.9528485701283005,-3.9480787161909516
155.0,1.016408413631594,-0.747419236846365,-1.7638276504779784,-0.1004112727259443,1.4052221624330725,-1.2349851074085803,-1.2275105676764773,0.37168184957308725,-0.28528887898887234,1.8410981933615644,-1.0565144913537519,-1.1047437455193985
156.0,-2.246457542706185,-1.321939333925962,0.9245182087801793,1.733737987810207,-1.578695124224959,-0.2515893584792497,-0.5248919310531125,-2.051650491471909,-0.999445711257578,-1.274551088997967,1.453684420489409,0.6208648638434183
157.0,-4.254229940746349,2.915176435045592,7.1694063757918896,0.6927210091685672,-5.706849042409511,5.07476575049032,1.0318099568201338,-2.6915247471800354,-1.932491073350062,-3.262513266983738,-0.027550246436144565,1.5436864498461478
158.0,2.8125493809966153,4.1858497552345195,1.3733003742378673,-3.5583602921742727,0.7296300380206717,2.7390213937162438,0.5990573794103722,2.826404740445681,1.9946259604102792,2.0517749767711715,5.913885167496755,4.649671308894913
159.0,1.8057779303630745,1.1883123887046885,-0.6174655416583801,-1.4785390063297843,1.2319863131862177,0.32692124088055174,-0.7748990082797333,0.1019038940061987,0.44332458943895264,2.59787703887677,2.4223552545780898,3.747643452969509
160.0,5.211204192124213,2.826890841068013,-2.3843133510561643,-3.9982750768073663,3.7522521635320123,0.18459349558390942,-1.4546450915000189,2.276847058395407,3.4241872772150965,4.560862517111836,2.767679314308039,2.320004528870301
161.0,2.21395114716381,-2.4510932646209187,-4.665044411784707,0.14493375252969176,3.4063150253723005,-3.5960843251919026,4.1073940016096255,1.5585662315748428,1.5168339728520186,2.810548966962237,1.9877098328014478,-0.360936205715626
162.0,-7.420251530889878,-10.668201807055151,-3.2479502761652763,9.07821362815109,-2.0312484998123326,-6.919026676291945,-0.4311853096854694,-0.15918748946142947,-2.0342269163929667,-6.996818348571311,-10.055732377604519,-10.06349490979768
163.0,-7.680519037276771,-5.16701419852178,2.5135048387549936,6.386326666398858,-5.115798516789379,-1.288461015435122,-2.242603644697836,-6.178747187199565,-4.561362060212144,-5.716564642690614,-8.822594739856113,-4.704080221034362
164.0,-1.407776424544846,3.1662657924321134,4.5740422169769825,-0.9121804179552373,-3.008987410785012,3.9089569155027366,-4.358807027616951,-2.1168694064486235,-4.977860498034942,-0.8262772163407517,0.9936222533835348,1.40132100146237
165.0,-2.4495803895647725,5.689839504903029,8.13941989446784,-1.6530129455438616,-5.236573869229289,6.8756915623319195,-1.2846497007098847,-3.6758423889016343,-2.541449055385338,-1.5494722567826422,2.2721891566765757,0.016181019620604253
166.0,6.93961089108089,3.4407232526188323,-3.498887638462064,-5.148775239346704,5.193789902209309,-0.0677847623898411,3.912428078744359,5.563681813004909,6.278369915101694,3.648799816322219,5.827020486271188,4.17749724064124
167.0,7.253448101134888,1.2021105787643043,-6.051337522370595,-4.193954010112664,6.622331420678691,-2.464703562700156,6.1104061386409025,7.289893122194463,7.051239392738529,5.6760059264174165,4.0421349755589215,6.449032414742456
168.0,7.020665734463357,4.429567894304952,-2.5910978401584224,-5.7783892124373155,4.7731820607790105,0.9550747157236826,0.9002995995086973,1.97517075439251,1.3110400208875537,2.747469819307823,1.5938443619043503,0.7098472776811273
169.0,-0.9372517160007012,-0.2506682808614799,0.686583435139237,0.6126551278873715,-0.7651135861209681,0.2506945429985816,1.7924321833278847,-0.46264395796958135,1.2533334979961777,2.0047349941315327,1.7976721499538377,-0.9238205599721976
170.0,-2.417486121536479,-2.705263484430911,-0.28777736289438793,2.576523336766561,-1.0135864716634515,-1.4656710383360227,-5.616447274709754,-3.1987768177091205,-2.768492779611648,-1.5011869642167,-3.0344850764491236,-1.2169288773613132
171.0,-5.266658099561371,-6.49133043892237,-1.2246723393609462,5.894431368445263,-2.0414731109216135,-3.9053868384534294,-8.937598623195809,-5.0578419392470675,-5.445219926976787,-7.383817084051648,-5.161105313242184,-3.69641265364369
172.0,-9.005485228428205,-1.3021810294456166,7.703304198982631,5.17295215161266,-8.367776383034451,3.156609172814595,-0.022343394385944126,-1.9521554672111163,-5.74088240602264,-2.8275544435383773,-2.974430266998113,-1.015331357248534
173.0,-0.3977321148064723,3.202333002262109,3.600065117068616,-1.4558917870066117,-2.007926691083101,3.4421005677140997,5.35737779606482,1.6601902325806575,4.509980077578138,3.33233806649343,-0.44550830643060246,-0.4024457830415489
174.0,6.146286531543357,-1.0356195228108271,-7.181906054354166,-2.601531629239289,6.654570498950868,-4.060074858592073,2.3298774759014163,-0.09621037901616303,3.6617464594813924,-2.9084798330345256,2.3965877058201253,-2.321742406615549
175.0,2.212033367494591,-3.364943800603048,-5.576977168097644,0.6171842569934918,3.8791131440890183,-4.493143953123493,3.6411122732887664,2.552281191446651,0.20181378877440448,3.9427675239429925,1.0162305209505669,-1.030709326044885
176.0,-5.454927106322028,-3.635214706048539,1.8197124002734695,4.594554542448224,-3.6627001172388995,-0.9237518697334625,1.3720316538989163,1.6160053920521307,-0.930800988126443,-0.44887918754713185,-0.925033602690327,1.657632114467099
177.0,0.08796222379617147,8.105405281372542,8.017443057576331,-4.116864140056549,-3.9230448985893243,8.048575846635131,-3.3429819719954006,-0.3354299410679906,-1.0079001357838946,0.5670529082118874,2.999720564059914,5.078638357406454
178.0,5.886722783724725,10.63682575228492,4.750102968560156,-8.27315694585759,0.5992319225197125,7.680450092591324,-1.9798535203416014,-1.0209844023926609,-0.5482167304147959,1.114616971096809,2.9036173872350823,6.021550171587531
179.0,3.5692505685936813,-3.626932216530429,-7.19618278512413,0.024979199997602564,5.405530404314942,-5.4271355575743625,-4.8022324947765025,-1.0403900567658997,-1.3106752559892973,-0.5602653784719089,0.3902572301789041,-0.8898403529849257
180.0,-1.2317774085479614,-8.385651724259716,-7.153874315711743,4.810035905086652,2.90019554651798,-7.7098340839644095,3.1847493153624717,1.309179101300677,3.546687248523815,2.757307207618315,-2.267831018577192,-3.896346112488733
181.0,-1.3199912192769385,-0.6864452879949807,0.6335459312819807,1.0066214682792807,-0.9610366681330769,-0.04746558382075605,2.2626260074451676,1.0838514372760861,2.01856349643393,-1.2006089623433587,-4.357615218647878,-6.6436966993834785
182.0,0.8984641546705165,2.0800145459264483,1.1815503912559437,-1.4870365511224222,-0.12595955135371661,1.6095785404055802,-0.4451739714465084,0.7701711502685147,1.3878695269404295,-1.060823639688434,-0.42656663253435934,-1.793414248628916
183.0,-3.6294540567454328,-2.239221810642424,1.390232246103005,2.9325956196049443,-2.5715547977534694,-0.36535542086011497,2.202143140011274,-1.6030140602292702,-2.862823538873332,-0.5532706145584123,1.715958949679585,2.832146383188932
184.0,-1.0185128206372536,1.405274669920527,2.4237874905577694,-0.200584036850195,-1.700926289073983,1.8969928151044115,-2.198743225430896,-3.243171784970906,-3.1184690080468833,-3.251511624039797,0.4032547366227074,4.274976822104369
185.0,0.5713447837618635,4.490905918677819,3.9195611349159405,-2.5436064128984377,-1.6485572252683816,4.188454755900707,0.23895753548688725,0.31855347169822523,-0.7453870123060149,0.10205700966198883,0.2336226565608267,0.7383394396814751
186.0,-4.085152928046196,-2.713152072473637,1.372000855572553,3.383307213458701,-2.6954137838500865,-0.6893584071889884,0.41884441085154733,2.4846763854751197,-0.020392311189617263,1.6585937250177847,2.242283329878449,-1.2801826279881412
187.0,0.1612860592181275,-0.26566652965100557,-0.4269525888691215,0.11482309191810039,0.2578218417164817,-0.37027885472826205,-1.4275049360340577,0.36192418573954477,0.3652879367203637,0.629329995797901,0.06911377951872777,-1.408549301456809
188.0,8.047719719624164,2.7276584528535053,-5.320061266770629,-5.400878506147157,6.65707973430203,-1.2489836639142504,-3.7714169636963475,-0.25972439362379385,2.1746838012130505,0.799710319711392,-2.5800301353742303,-0.8823064761064585
189.0,0.15760219918903573,-3.0354021839642793,-3.1930043831532675,1.430701180922683,1.734862633764613,-3.154046369415603,4.529372099083877,-0.7154759718841703,1.984183893396822,2.2322073072827617,0.041230125747234725,2.782859797979622
190.0,-4.1757054322587175,-6.426977125420861,-2.2512716931621317,5.298140807536681,-0.9777478050072361,-4.307598357895836,1.9650314664095478,-0.6844588982108774,-1.2121317072894235,0.11133211785397668,0.9313558797478669,-1.241483666473834
191.0,-0.5219175379423633,0.257895241870576,0.7798127798129184,0.13155758346230573,-0.6681623997875046,0.5449195748400095,-1.1045384838717824,1.4800910250324084,-1.340772916335699,-2.9577758025114553,0.19249154337495575,-2.9416754415762782
192.0,-0.48550083549064693,3.835979288757594,4.321480124248201,-1.6768497582021546,-2.428215860748225,4.101245025960139,0.04587232729607332,2.144850916385838,0.2538798690014271,0.43437530905387844,-2.3844194050942273,3.160981370746157
193.0,3.5987248477849785,6.610276903026193,3.0115520552411725,-5.111614829264761,0.33584689825841174,4.752323434299533,-0.9785253695014273,-0.00796385513793385,0.67113181616315,-2.312411976759015,-0.10470149500092685,0.20313005856943833
194.0,1.2474901320324272,4.84949667182841,3.602006539795946,-3.0645100344650062,-1.2270956084423423,4.244072366254766,0.4184758472952106,-4.237028870200472,1.0236643426707752,0.49346099872899263,2.4780960333768207,1.124304081668721
195.0,-0.3054086191389902,-3.4433523523633047,-3.1379437332243283,1.8480551870941844,1.4337820378821158,-3.352302487641039,-1.6844425224863973,-0.2776089729731295,-1.369306041688716,-0.3659217428163224,1.1852470491395608,0.20521622416715352
196.0,-0.05171835057868135,-0.9860786847307867,-0.9343603341521043,0.5618442467671179,0.4526991783401476,-0.9426775978424367,1.5282630469017318,0.03550084030181078,-0.31280328389771495,5.587713138662835,2.922298128222199,1.189669359625463
197.0,-3.832757773382931,-9.026931648933218,-5.194173875550286,6.465654037995529,0.6932385080568567,-7.089430932846069,-0.3827812962223732,0.39844390048250433,-0.8396278626823448,-0.7967700489024643,-3.2541468434471144,-3.399066012350568
198.0,-5.169561188547533,-7.555685315174454,-2.386124126626939,6.393789939523589,-1.3707650363756534,-4.942251263310993,-0.7281560903456942,3.4518677811246365,0.0329941818822278,-3.7225593435930024,-4.788788656241833,-5.712147259612246
199.0,-1.7977741860874683,1.1318574806881156,2.9296316667755455,0.2821098093504051,-2.4080214266325566,2.070146025822506,1.4526843038635968,1.5941159291061124,1.1680812277137782,0.8149003074020882,-0.8296069332653047,1.0669348294270216
