Time(ms),I,II,III,aVR,aVL,aVF,V1,V2,V3,V4,V5,V6
-200.0,-32.07795822426272,-6.853737136524385,25.224221087738552,19.44533247761288,-28.587755966987324,9.146441601292018,7.7744490668262,-9.559523468582007,-9.700308570530975,-13.695728661301633,-11.679541160645154,-5.48666137868066
-199.0,-31.45484367293494,-13.507339145444728,17.947504527490754,22.4526766685944,-24.717445145262673,2.256101463212312,10.461939676660176,-14.693441437981225,-13.125525195083052,-22.51002266783061,-17.141808469225175,-6.9622558113002295
-198.0,-13.227798214081623,-0.17951174347502796,13.048286470607124,6.744706896412779,-13.158739120043347,6.388420377186124,6.341150139195301,-6.037558425137362,-5.694807884207584,-7.236794064576612,-3.1230665531353914,-5.130045543212852
-197.0,-4.8828596991751745,-2.0931528581196037,2.7897068410560824,3.5219806773236053,-3.864442856765818,0.30060608193823235,0.9409561986391486,-0.5134176290334551,-3.7643218786619776,1.1208916733679555,5.763287090548729,1.8517177185408205
-196.0,2.413613769742103,2.6515056692227947,0.23789189948071154,-2.5011856312132434,1.129289918702952,1.4765441012083755,-0.18521195061328033,-8.874906876351481,-2.3812864325051697,-0.3249420576164581,5.978989528663419,1.0082615449522465
-195.0,0.4946639277265774,16.864179644250235,16.369515716523,-8.724874083875209,-7.983675320353537,16.65252622344608,-4.338943079654066,-1.883736628427239,5.743774162963042,12.536236139664219,8.34149313560254,9.756685853570081
-194.0,10.883716916412606,8.896476423870409,-1.9872404925430907,-9.852370102133104,6.461246917803381,3.4968533501555408,-0.30331318905659455,6.022709180258834,7.29723553492939,4.002092009610335,-2.890170851357846,-3.188382109062487
-193.0,20.738903331488036,2.087524430211231,-18.651378901277987,-11.45032442093298,19.71765823049604,-8.310689904898242,-7.497759822573605,1.0839954620119006,-7.248557928656803,-5.95574954637345,-9.556898827943193,-6.30121834073246
-192.0,7.769146116448923,-5.300962472913385,-13.07010858936345,-1.2704198053365223,10.442451290092098,-9.207626343491281,-4.889430242748883,3.9107057273951087,-0.135619758378412,1.590172932557613,0.17522096047100888,-0.632012898230887
-191.0,-1.9244375119455004,-16.10227319451234,-14.177835682567322,9.052340566375955,6.073440339517889,-15.158618404439768,2.059365811447387,8.058108882474812,1.8730505514742626,3.8920908413504853,7.237830930270199,6.5811193428356765
-190.0,2.3220721584329267,-20.75882906156208,-23.080901219994693,9.171775518959056,12.730018102108586,-21.93896667193569,6.161064970722112,5.628084185129141,6.303704058608295,0.3308945047230102,2.440203270624556,3.094958906462954
-189.0,-17.700423948823932,-2.2765210920523025,15.423902856772484,10.012647653537002,-16.53213687294876,6.629373597872182,2.283998820656052,-5.800528596561,-2.2268268958330006,-3.0436456390664968,-4.593305211691372,-6.067847237746629
-188.0,-12.090505693556672,8.823507603919344,20.91401329747712,1.651235164684656,-16.55197449171448,14.84022225487392,0.9830783274083954,-4.97675866515703,-3.193510257861252,-7.830412824998316,-8.652381974692789,-8.347724555676448
-187.0,4.29652170916512,15.648713553537917,11.352191844373593,-9.957887058967884,-3.580410947036256,13.467387162395633,-0.5078821939415286,-1.4167707507216196,-0.4849844001892185,1.729806380701016,4.144894917137658,3.7283707467373053
-186.0,6.879732774406232,8.409056582399021,1.5293238079931655,-7.628857973402233,2.698743601697444,5.013333250576958,-0.2497757192288919,0.5217542001039828,-1.094552618350089,-1.5707809070313463,-2.1702638476249514,-1.7417155667305695
-185.0,12.37361967783871,10.710097372100917,-1.663522305737608,-11.52284437361221,7.042392629709369,4.569732097227844,-2.466433214613141,2.564897224425084,2.4072856351144063,6.923875986071734,8.147812378713484,13.09755941971573
-184.0,3.82019685094458,1.4984663858880727,-2.3217304650565582,-2.714826284618238,3.099885021146026,-0.43844130399168446,-3.0237377994423644,-4.6336624477037365,-0.07935677289337617,-0.28358723556402055,5.331328430169876,5.304685192192425
-183.0,-18.427853877656112,-20.771188257319647,-2.3433343796637525,19.547436532876016,-8.003518395841482,-11.577213695766527,0.02318733335867673,-4.0032800434207125,-0.9041162342774425,0.8903425584165179,-1.1391870260715566,-6.180588333946191
-182.0,-10.51312704693263,-5.34241239254337,5.1707146543889415,7.95651335610054,-7.869814045872975,-0.09977990224939504,1.6542243021692116,2.257693568936468,-0.9759408356102353,1.8741064777827474,-8.07425886034912,-8.923586766332898
-181.0,5.329964677816664,1.0440010004304199,-4.285963677386814,-3.156855782364352,4.790512762022022,-1.631396946566185,1.9172092994456378,3.070457550707135,3.3056901032464863,-3.4566053548583846,-7.504562731034463,-5.9549030248061605
-180.0,7.444087487411855,-2.582635623734524,-10.026723111146879,-2.3987575548354276,8.72275393133215,-6.3147242337315195,0.48367720768515754,2.3154677802004073,-0.10452545248400102,-0.4424555443511151,2.781290607005035,-4.354509941176298
-179.0,0.19729109289131763,1.0837097622704217,0.8864186693788216,-0.684109960681869,-0.3604379582627866,1.0513578233673488,3.2396586124207096,1.716340559330829,0.33455162805679844,-2.2079839983047456,2.2941597273891583,8.418766513547482
-178.0,1.826970982329696,7.055839652540891,5.2288686702111695,-4.40164007753869,-1.7279275319198693,6.125692414806379,1.103863066229984,-0.13839264899179282,-2.91535915528198,-2.0162153603674566,5.154718082922514,13.401855978028983
-177.0,-4.979879105763318,1.7904675090860591,6.770346614849488,1.5611848685136782,-5.8397256909141,4.258968427314722,0.2948670019547058,-5.045033728836861,-4.977575944629827,3.6121488459065194,8.430074038717436,9.665526240068367
-176.0,4.949711601469916,-2.4782180552933024,-7.427929656763057,-1.2639764383576955,6.206656367201416,-4.978633566672377,-7.039814824703163,1.6707302932702977,0.829910040255589,3.2413575049668855,-0.6481124142405128,-13.766931878660985
-175.0,11.258523387855112,3.0403423920180215,-8.218180995836981,-7.09481710190658,9.74171495084992,-2.53809140261163,-5.4507783841085296,0.012062166392081908,3.822718227803213,2.8116801308874155,-8.144848638609687,-9.700318811998343
-174.0,-0.42909235947620583,-2.5731086964998506,-2.1440163370235834,1.4790857241333475,0.852568588030588,-2.3862825538617245,1.5138312038101494,-1.0081379760266547,4.48582565611738,-5.810297703125528,-11.572051452270063,-6.989118626248711
-173.0,-9.397198834354603,-3.338182039603023,6.05901679475167,6.345386188545882,-7.733732384406592,1.3357290391634555,1.581724029141756,-1.2806493550931097,3.069506247748345,-3.1488698490738445,-0.247106470030392,3.5352738940176325
-172.0,-5.679841039979654,3.597975042692159,9.277816082672011,1.0946226409163584,-7.478295234802248,6.497325792219479,2.295786747252416,5.883411890193921,0.13515936935623601,3.3486994916150823,12.565493380501028,11.119464803402659
-171.0,-1.0969296224838532,0.18038973100181616,1.2773193534859102,0.42831313986216246,-1.1757341967263004,0.7159351885477694,4.527364908716917,0.43756919497558266,-3.694678890954518,1.9283054120781538,9.360483460196171,7.179404071019679
-170.0,-0.9379252799352671,1.1114900690584142,2.0494153489938602,-0.1230756366195207,-1.4697308225062955,1.5730725502908833,3.621423588879157,-1.7523992195125238,-8.063176739605819,0.9885384355765685,-2.798227807624383,-3.6151312870708434
-169.0,4.393146146490373,1.219647358169898,-3.173498788320469,-2.7707205527922576,3.739844878901783,-0.9815926370847021,-1.7344646289286394,-0.5657666240845118,1.8743556405841173,-0.5252550641909848,-4.989362919435227,3.3087506155111246
-168.0,0.6987101392717259,-4.246298502885284,-4.945008642157239,1.803350636036886,2.786543046886021,-4.601822398546541,-4.707079227391292,-4.693913608598311,-2.0807021543540993,-11.271402023338473,-17.220593632088946,-15.459048631190592
-167.0,-0.3440887615771673,-1.399252113723559,-1.0551633521466908,0.8179834002614421,0.40344954880432216,-1.2394092828868715,-1.9186459800503197,-0.35487260566633916,0.8882948155841235,2.3113433378198383,-2.345851135802423,-5.940002000301048
-166.0,-2.144096350993684,-1.6249555737396504,0.5191407772537473,1.9073444412664435,-1.3608040521016402,-0.5748020123826871,2.0771030114669946,2.2378651501733144,6.357815944143132,7.151252223665204,13.269876802779649,2.2695383964476368
-165.0,2.7925069801099767,1.4996061584301952,-1.2929008216798898,-2.1230523744103564,2.0927413151494294,0.148584986207275,-2.012658917796641,-2.7350891067920515,-1.1292269485367812,3.6616680021945482,9.185730977455947,5.409566274984406
-164.0,4.263537003428905,2.5820779132979066,-1.681459090130998,-3.476211314070283,2.944746394812502,0.48398906423428334,-0.549224338478741,3.5881781067431335,2.5805355314842977,0.8647310681490561,6.151211458710706,11.669296417823713
-163.0,-1.3618249842530226,-0.5310986992568161,0.8307262849963267,0.9756173249996736,-1.1215338798392542,0.09499636931174216,1.7904142440771502,5.974023165196375,1.770798343472262,1.7437219802973796,-0.16667088931091323,8.134286176163434
-162.0,0.9625755058495766,1.8549603028845023,0.8923847970351484,-1.3753427639186735,0.09268857276229081,1.3908936002469192,1.6567463158893079,0.6537727326055358,-1.7704908368922687,-2.2591297689223158,-8.150933661668049,-6.685056716859678
-161.0,-2.9915065855318614,-0.044863856181368345,2.946642729350703,1.4764567736893504,-2.985425667733538,1.4652009373139296,-0.04730861161626421,-5.780903523102576,-6.874600613019794,-9.08209341067609,-15.870900886784368,-17.311832936548498
-160.0,-2.87961947320886,-1.683616687190619,1.1960027860183648,2.320620488680083,-2.0502274903967335,-0.3069437577612597,-0.2699301287432587,-1.797204008514817,0.09400079152315222,-1.7021614351751007,0.34489609066860805,1.1559209027528166
-159.0,-1.7796647454059527,1.9983438708508587,3.7780086162568134,-0.14909748882400886,-2.7898965144935532,2.909307383319162,1.1220481355348735,-0.7265596786454307,3.1449229424382694,4.411069303157103,6.950821799971136,8.689280771597975
-158.0,0.7040627545794176,0.7768976400501137,0.07283488547061212,-0.7818179632515059,0.30207576176154616,0.4550811743674405,-2.441743934187304,-0.6927312963728737,1.4157955299600857,-0.033818957675563865,5.796815638707589,2.219301587876638
-157.0,-0.42395223195616616,-6.448582837152229,-6.024630605196156,3.4716156028277227,2.858845909425738,-6.195316123313174,-1.4016945609106959,-0.8616781807111454,-3.1708135320969557,-2.940086749666908,-0.04207611219804619,-7.209549927118603
-156.0,5.777604340246678,1.2648511827343776,-4.512753157512362,-3.487203937699488,5.114634557657879,-1.6507877509234588,0.7666253250404194,1.758051345066474,-0.9686401474167717,3.534279533458671,4.000650815920054,2.9375843960539427
-155.0,8.16641281909202,12.557682654604683,4.391269835512651,-10.327876821597028,1.8447081593335217,8.455073915548697,-2.431650956066343,6.355973318337987,2.1335654588204833,7.141932034186575,2.5846012636398066,3.3810075124460113
-154.0,-5.971738749715875,-5.869469849214166,0.10226890050174786,5.877570814683875,-3.013232616811364,-2.900843647125036,4.12668285292969,2.094226665590269,5.896661489829374,1.4241023119764162,-7.905498365102913,-5.716824606253891
-153.0,-7.299335576785127,-17.656391869569966,-10.357056292784826,12.437111512544575,1.5430402682913735,-14.027705522583275,5.4410807180477025,-1.7899552728569825,1.383202699636717,0.27534826418593306,-3.745821250688049,-1.2326883466448706
-152.0,1.1289948797071059,6.857895867177253,5.7289009874700945,-3.9531542921764187,-2.2911092999416036,6.342628166008964,-3.638847407286313,-6.259734525183167,-3.3027715594868194,-4.6543305626029,-1.241639003941064,3.3659625379569587
-151.0,0.5687903404586703,14.65238729469998,14.083596954241212,-7.647098618836772,-6.749056300721239,14.32752661115931,-5.141670069969859,-6.885484345308113,-10.294368703376751,-12.148655679558576,0.728050227069831,-0.062297781008585296
-150.0,-2.5851346815508993,-1.4455201601470362,1.1396145214037814,2.0592577091747124,-1.8503985089790675,-0.1251944719496354,3.219388862187208,4.3666302425251855,1.5421179010618697,2.1979828158922325,10.022291583616193,10.031244678970843
-149.0,-1.163342336321035,-10.002701865375455,-8.83935952905445,5.549929717818825,3.777296975825897,-9.40104079400129,1.062646671969108,5.4211000066279,6.704577716086331,3.1835520020478385,0.24739013679339017,-1.0176182319731266
-148.0,3.2704246731896625,-4.87513528959896,-8.145559962788523,0.8499736747383589,5.7324527443047355,-6.494132802358729,-3.246676441012556,3.0638486397474356,-0.7145615980518398,4.0484017601285505,-7.540823901602067,-3.1934176045676566
-147.0,6.159427737804813,7.957800724274104,1.7983729864694373,-7.087641440607118,2.2099008164152982,4.81577514129768,-1.7132912133745486,-1.3286959659881674,-0.5446273733102984,1.1660444497532532,-4.86069211282744,-9.50262664600711
-146.0,-0.23103889942534472,12.08193375641013,12.31297265583561,-5.952581870651313,-6.319258174308455,12.217190791895854,3.182488656060073,-4.256571511733973,0.43213791778110405,1.841965695849659,0.07773892849715924,-4.630240310111866
-145.0,4.002043633920443,-5.501449711209276,-9.503493345129653,0.8025504251542057,6.7830813139436845,-7.477726006817073,0.9505461908104114,0.10927260413974249,2.617330034733316,3.732104347112841,7.194163133560679,3.231001339038726
-144.0,-6.118229139183742,-12.588729951754255,-6.470500812570471,9.327814200428291,0.20222458121334075,-9.5782964974943,1.7059385557715396,2.5278210038518276,0.56829381483666,-4.469876843300855,4.45051727824759,4.829063524324045
-143.0,-12.390635952949387,-2.7259206153195423,9.66471533762992,7.5318028425994,-11.086601535497342,3.5039514310432684,1.6671374539706072,-0.13346675625535598,0.283358037796614,-1.741096175931815,4.042443829932333,9.462482027582544
-142.0,-1.0079051643489505,6.085729445152213,7.093634609501255,-2.488187439554749,-4.037688592557373,6.627134150677475,-2.1482370122714265,-5.4890845313357435,-7.890263082341125,-7.900150763025786,-10.125292663864403,-8.994933569323228
-141.0,15.28480367937204,8.030413532955768,-7.254390146416293,-11.687291712940254,11.27725436199973,0.3478291460543481,-5.379672731569843,3.1834614811184956,0.01984651953007699,3.5019012177979785,-3.1902340301314918,0.6441841422874439
-140.0,8.019384515395778,-4.4865778401695335,-12.505962355565467,-1.7970645005919366,10.267757766313363,-8.53662895425056,2.4915048744798183,3.51222703000648,4.340176461549077,8.849531233553428,3.6127681580155713,0.015163111005478513
-139.0,-6.543350273714897,-2.30762973844205,4.235720535272648,4.47393772291238,-5.383441195494531,1.0021200698173813,-1.6912829087818806,0.11799903654359922,0.3064431789911408,-3.5253392732385374,-1.8761883029973763,2.4980256898026636
-138.0,-8.771848476153261,8.56185910154639,17.333707577699467,0.07657615368075632,-13.042485897263173,12.90809637508539,1.0879296571027168,-6.6368461489530866,-1.4121036068528996,-4.6136787412933495,-0.8503143434164099,-1.0486619199110894
-137.0,1.1638612758023976,6.044922945470962,4.88106166966849,-3.551175950479757,-1.8423765102567415,5.505395138595452,-1.189206928041042,1.0278643616298968,-0.8282608317494443,-0.27327563786040754,1.0682226172162725,-2.495623777231526
-136.0,-3.5300642823779813,-9.140234135625134,-5.61016985324712,6.31230513995538,0.9831553236837216,-7.327164229996416,6.09202317973883,4.0762757867738975,4.010940086794592,4.896096577429722,4.049259662560897,2.8763718107977185
-135.0,-1.000607127107243,-21.23843512848132,-20.237828001374034,11.097699082751559,9.643877042996095,-20.76234565730568,4.402901153388475,2.5249393214490445,0.5772421857594103,1.1566513982681732,-0.7736825973345216,-0.22655730985061073
-134.0,9.333875996328173,5.717723012574165,-3.616152983753916,-7.549420646048318,6.500344358298788,1.0315482857545781,-5.787049520557167,-1.2631954777529206,-1.9263389150840657,-1.713632144752407,-0.7252424514550277,-4.5358776901002145
-133.0,4.21671446210021,13.611902615185741,9.395188153085657,-8.864136991329257,-2.645940260027415,11.485405104146217,-6.012499919432438,-2.0636209986623113,-2.767743189757457,-2.802782365526774,-0.5525508109224558,-1.4924132441914908
-132.0,-2.813238087328354,1.741783196999343,4.55502128432783,0.4996804456008501,-3.6675950576431977,3.1261741539874413,1.7369873852320974,-1.4693391643002216,3.2929418721313986,1.4407809982679103,1.9939110729861307,4.817927733444558
-131.0,-9.669369697093678,-2.7240055562375254,6.94536414085618,6.2308583798347925,-8.296750375993293,2.1582539539614594,4.095390719952368,-1.0293047635159298,-2.761989274484685,-1.0335862690442712,-2.0574403914246067,-0.4137987865712818
-130.0,5.043380218087271,0.14036214643085182,-4.903018071656533,-2.6442191658921397,4.979346237633113,-2.4244728646305416,-1.4483746169132783,1.1105024832242776,0.07989351512567322,2.7904638017183148,-0.5411391196167421,1.5644466849344563
-129.0,1.3259990991218935,6.379095867255485,5.053096768133553,-3.8314867548245646,-1.859227907360129,5.739382306179049,-5.180187686484103,0.599018982526649,-0.06715735872778876,0.7981746517204854,-1.0404781199279838,1.084876807503858
-128.0,3.255096518339047,2.73334533202902,-0.521751186309943,-2.975130900209889,1.893672242267621,1.1190103983674193,2.4649368390235287,2.1216431003915823,1.4393327035140597,-0.5621552228989214,1.7541610893465367,0.3778808131665091
-127.0,-0.3003147296595934,-12.343615045477588,-12.043300315817916,6.342287209982581,5.87947784032927,-12.186343045577788,4.028980316440371,-0.7990489461494056,1.8000577654167593,-0.9169294472683436,-1.3515343353106986,-2.2574579400653456
-126.0,-2.814636338797901,-7.013626866821067,-4.198990528023278,4.93763073226861,0.7031883810184767,-5.6008480136604595,3.630372247291496,0.010216495142557958,0.532570941090975,-2.567555878915904,-0.049449363786330636,-1.933444577133254
-125.0,-5.070168758940975,-1.421694730772832,3.648474028167841,3.193995819669822,-4.425106765617111,1.1209863992593574,0.8271353150799858,0.45368342327633454,-1.5987868214876784,0.43683419232820797,4.742249311289604,5.230444899111944
-124.0,-3.3441097017287023,5.20166839311473,8.545778094843016,-0.9787619098920128,-5.931656311726058,6.80724375603139,-4.081520552968589,-2.4173589790328496,-0.9441813919392503,-1.3276042639798824,-2.427109505284615,-6.802403754422057
-123.0,-0.07982152594459202,9.169065424739593,9.248886950683831,-4.515773227304113,-4.651891258531165,9.227211352915642,-5.32454701490357,-0.46121083499995974,-1.4555092351795897,0.5040163083692915,-2.6863249715271498,-7.376222217298306
-122.0,11.012290088921699,10.353469695175813,-0.658820393745986,-10.655239520573083,5.847286791487814,4.871927552004508,-3.177454522167195,-0.44049451416519797,-1.582809621305758,3.781535991769214,0.8236156558727432,5.381189264685366
-121.0,4.717269081393587,0.6838970532260502,-4.033372028167323,-2.6742349584691105,4.387820248475576,-1.643887700366875,0.31640117194134976,0.19253974204920143,0.819992084401411,-0.3299449917409478,0.8005081516997397,6.431719526859122
-120.0,-1.4662633132508835,-13.103586034095134,-11.63732272084373,7.2323133415438505,5.101328108989579,-12.412571590153538,6.435081334256014,3.7900993524099826,3.544755328064401,2.204954939856494,2.044587875084803,9.828264316918641
-119.0,-6.95385030018426,-13.032331397145704,-6.078481096960928,10.02077295840121,-0.49439772016635564,-9.592537405627596,7.622684081348059,3.3373415865900253,4.679542618651455,1.2232562086116425,0.06593791726644238,2.713517248473911
-118.0,2.235417680016071,2.541962922031197,0.3065452420153729,-2.3576444835763994,0.9954701191616078,1.4696253545955296,-3.0625540203010733,-1.3098934837709835,-2.153602840906192,-4.155026079911935,-4.725182793928257,-13.698553718164593
-117.0,-1.3589547987880595,3.071605222577815,4.430560021365782,-0.89920940344856,-2.9313749371108417,3.7983548927253397,-5.859232348148421,-6.663779714365971,-6.362333588116704,-5.733043679930555,-2.2994180371853283,-11.045251890561921
-116.0,-6.087203507783317,-1.2023847438320416,4.884818763950896,3.6076674037936756,-5.431770803777803,1.8090409036643322,-3.080372402876526,-1.586648809049231,-3.0257652362556517,-0.19701288787707583,5.056766155853611,2.6802387280679376
-115.0,-1.10893010671804,10.377567318596467,11.486497425314056,-4.586497593400695,-6.310639202852374,10.895990652171669,3.023386779225242,0.7646124023317351,0.650116650289037,4.5412614313483575,6.1294030331424265,8.732833727138273
-114.0,4.314342990922181,3.0841434090926088,-1.2301995818301332,-3.7240650230393495,2.768545196532522,0.9627506758172375,1.8205309081488652,1.778854590431917,6.529414465221695,1.1785634362980453,-2.6115692652781837,1.8838700160563135
-113.0,5.032164881487427,4.8379451894185195,-0.19421969206942602,-4.875874138261809,2.614438282207863,2.2700268671925254,0.6217303726451425,2.768018245845946,2.2915651357636566,3.329316040340958,-9.360208998220147,-5.779317127956416
-112.0,-0.5408501053932833,-4.486731800928852,-3.94588169553574,2.497556093157217,1.7032135727148163,-4.1981277333446245,-0.2000360145812896,1.0504506427682592,0.741667329445002,-3.7313045002754968,-1.5225947646547704,-1.4047725875533177
-111.0,2.955939207829279,-5.696041932966194,-8.6519811407953,1.3541519983571713,5.798367971481136,-7.162033679929836,-0.8909499886152811,1.8517702568034031,-1.4221875663212915,4.0082341356299676,3.9576670728815686,5.821814716819702
-110.0,-1.1953738931929339,-9.530433776164225,-8.335059882970743,5.343812441703056,3.5533544538683626,-8.922574433101039,0.24170847751804225,-0.5583027633264133,-2.691116841797112,-2.1340071690751965,6.63009806515559,1.8193350774094028
-109.0,-6.442086315505654,-3.7908177675818413,2.6512685479244142,5.091172403854216,-4.576311474609555,-0.5564677487353755,-0.5297032761161081,-3.3617072252781464,-4.931955212468615,-4.328978687154039,1.1864046990364274,-0.46090428263449945
-108.0,-2.539365963967522,8.440281786240998,10.97964775020906,-2.9045047677003386,-6.722819932725171,9.730282578227122,-0.8271934118480354,-4.311153986055162,-1.778841728587386,-1.250981422592579,0.16910111022570729,2.077127758575526
-107.0,0.11189614422027283,8.637015102189775,8.525118957969827,-4.413781977796438,-4.178989877679168,8.531210499408298,-1.144871449115748,2.6687760616467253,2.1593867601404915,2.1072770034736723,-0.9563681991247119,-0.50194527028369
-106.0,5.590147353737203,0.3811572734158126,-5.208990080321349,-2.9496546935839985,5.422968725505452,-2.377575254430086,1.8920009510229414,1.8807595378116284,9.327586008286115,6.773720864343595,0.7846772947633216,0.4181184930928472
-105.0,3.903634198049648,-1.9970125343318141,-5.900646732381876,-0.9165433677398904,4.847371344383535,-3.9869973596856614,1.1429220195246996,0.7353293877397855,2.3459046224973523,-0.8085666618442522,-5.013210757173502,-4.436894149159377
-104.0,1.21517941180649,-5.244565533021761,-6.459744944829033,1.9773197119843524,3.8655446021235935,-5.890066405476251,2.5276836319323825,1.66149194274768,-2.322029176168903,-2.917092431095741,-2.9402566134049435,-1.2832698477768576
-103.0,-1.1934132378572826,3.438449370132794,4.631862607989207,-1.1531143950451985,-2.957514741189009,4.072878302728571,-1.1458983933464004,-1.2699238166111695,-6.134832701181533,-2.018343945950251,-0.9675475791061688,-4.679110102959888
-102.0,-1.8909820471383831,5.1333407257657315,7.024322772903578,-1.5664851608184638,-4.41797697613713,6.111569397910565,-5.93196412826509,-5.727906275509415,-7.284454566186891,-6.132291821347486,-6.034167277674825,-12.191416706400355
-101.0,-11.590196212958194,-0.45695805658672506,11.13323815637145,6.0034458741345,-11.396071320968966,5.365682018921719,-3.9996427846514773,-3.428193519867367,-4.306721385058408,-7.057829506282782,-3.668563068922799,2.057732726836851
-100.0,-2.8615577397275294,-7.39758131249309,-4.536023572764988,5.109075610825117,0.884856314251226,-6.022135515403248,6.0895690447952715,3.345226234016108,9.780137489204472,10.727567802066538,12.93106590105033,19.79293641540951
-99.0,8.7800350036556,-10.048218237934055,-18.828253241588808,0.6084237726973525,13.774886842733224,-14.417054995390915,7.346173277350405,11.981454711473175,12.294180906950336,15.76393578797062,13.99086632247154,14.035599191297562
-98.0,6.648888477759104,-4.599640527137642,-11.248529004896037,-0.9808211374118453,8.920397654541574,-7.981463507675059,1.4859182822724506,2.9186150200358356,2.2199122828049713,3.771260221633951,3.401450385792052,2.04291655245001
-97.0,1.7264498725402921,9.93549615514251,8.209046282602579,-5.798886826183834,-3.190379529693086,9.096611691150988,-2.985076012869355,-4.536326066242353,-6.714040127552246,-12.05879829361912,-7.194744915835717,-6.624013529134781
-96.0,1.1523069242737034,14.196991676040419,13.044684751766601,-7.733284695429054,-5.973782543485292,13.650906542183183,-7.9413119409593715,-8.049300920892577,-8.342561538034307,-10.221469623564168,-8.650685483385441,-20.172547562903137
-95.0,-1.960280034136197,2.9763566361465923,4.93663667028226,-0.49788496180726005,-3.3974355094330333,3.9943477242306455,-0.7287878323474333,-4.478558640813629,-1.0729774520630277,-3.8392731934352016,-7.040286588580936,-7.875266004566969
-94.0,-2.761262104279344,-0.9626328149615035,1.79862928931726,1.8661314616222833,-2.3085328784443178,0.3854729455787602,-0.9932718771171403,1.5272024543951224,-1.18296354284614,3.844989697750329,-0.07135337633383632,4.453640085224678
-93.0,-2.443222578422234,-5.145255594210001,-2.702033015788178,3.7977872423943277,0.09900147388495317,-3.949050181425716,4.024283665047006,2.455267372184738,2.6084795857313714,5.940801575571471,2.754747128061811,11.988612999604094
-92.0,-7.645363163967213,-3.9271392341647298,3.7182239298024804,5.794869843425152,-5.714738371684784,-0.12553696303166095,2.961201219932864,3.0727811317887315,3.6670332046074345,4.493230792747006,1.8540348688318948,2.198439816275587
-91.0,1.956304219833155,-10.07475966714627,-12.031063886979084,4.0778593707205015,7.036936479742498,-10.994330824317071,2.0532126567131166,0.5124968272490666,0.06108584928444394,-4.085991751791882,-4.390236969060538,-7.282114294155536
-90.0,5.537975467817303,1.5713714090523574,-3.9666040587644895,-3.601618716263936,4.793789085733891,-1.219764901184333,-1.2919908078220277,1.2264111291004007,-0.15096326195004295,-3.3697179630782075,1.6743948454619064,1.774225923276492
-89.0,3.6005410568940572,2.1311289428319866,-1.4694121140616798,-2.8200936983498774,2.497164762518863,0.30533359056533227,-2.1470317618987607,0.06858344573382724,0.7608734009520204,6.310575407944126,11.496745443542178,4.1884363022171405
-88.0,0.4006885903454944,7.989683512849046,7.588994922503717,-4.2159401274401995,-3.552860064597412,7.760985426108086,-0.30587817176243126,0.2793393260222651,0.6869620538875778,1.90242263065619,3.8881654570681743,-2.118785406485251
-87.0,1.2618240826816938,7.814429303284852,6.552605220602931,-4.55025232843847,-2.6823108583772703,7.233282841765559,-3.8357064625424537,-2.8259721958822914,-1.196446544610915,-2.263695267251967,-1.654510348057227,-1.8051942309822082
-86.0,-2.751240538801094,-3.649150616845197,-0.8979100780444806,3.1920000315365717,-0.9635535641744877,-2.2215990343211596,0.2683849233826512,-3.951194632731311,-3.4008766391209675,-6.9461812854329334,-10.622761275933012,-1.0606211667332683
-85.0,-8.796973596727025,-14.715448868873583,-5.9184752721469085,11.74712546459841,-1.3980582893036269,-10.339666286604238,6.092811946369019,1.253307174622475,1.1285419937320174,-1.7351525099741623,-7.0588322891717965,7.106783558159262
-84.0,5.695714227686963,-6.9787403127892595,-12.674454540476333,0.7060869511864549,9.14652225621118,-9.845229497076327,3.1400780756338733,7.430737062316717,3.3769204759639706,2.6895768538254217,3.2308470789316095,0.5237146759781376
-83.0,3.8587972121506957,6.682976943335712,2.8241797311851524,-5.293316682758917,0.5567931761641156,4.736772273109235,-1.9049937184682308,-0.4496838216916421,2.756637807297007,4.880640166600632,4.274902685983927,0.4334053725936531
-82.0,0.28791782486452755,11.114401500935788,10.826483676071573,-5.733773372901165,-5.229762725224074,10.951863370146413,-5.2564012578130495,-3.431336252433113,-5.575822177208666,-2.16501463895239,2.4770771073453997,-5.151311708214423
-81.0,-2.722999351298668,10.354637651885827,13.07763700318494,-3.780413983638311,-7.938796058220705,11.692288263089095,-2.3101503450221044,-4.123390852928117,-4.043901720503871,0.5200686704612756,2.220934729853191,4.447122331288886
-80.0,-0.8025335938095617,-1.2415756852992215,-0.4390420914893385,0.9689553440886192,-0.21916084824675464,-0.7927696611290829,0.9027817055865822,0.8876681753167925,2.6355805239860017,4.736309306509311,1.3464249843851248,-11.97739208519331
-79.0,1.222927668428199,-5.348546382500539,-6.571474050928717,2.0811678781836065,3.9394352233919023,-5.919970379533265,0.2633871164824405,1.1612388707265362,3.152992030982359,-0.12163170583391092,-5.41693812823427,-9.88944103048734
-78.0,2.1429256145979827,-3.0764550292051682,-5.219380643803372,0.48133767529439764,3.6450984573710796,-4.192630779807564,0.35072955224122815,0.8117797866172065,-0.18338802888488903,-8.527991316407494,-4.363911924832113,4.364236732682335
-77.0,-3.644894511769418,-11.846630948697113,-8.201736436928009,7.760197123858639,2.3211062035374046,-9.993853108275038,4.972704178371699,1.9977145461499317,-2.123316864137341,0.5202844302576115,3.6890977361696087,17.197850858058064
-76.0,-4.421183695076325,-9.681369900584562,-5.26018620550852,7.068247466280383,0.3830206534532621,-7.5206427324130125,3.0165911828632552,0.7157552077762056,1.4905311047123462,-0.3471172220001273,2.005115016662887,9.165557622351889
-75.0,4.995818633683395,15.738143433018532,10.742324799334954,-10.34657345600174,-2.831823194897573,13.269415835438828,-4.1727526572175835,-1.4352565912584043,0.12966786518272327,1.5004650363983325,-1.4541403880580988,-4.576819633161113
-74.0,2.175103520215293,4.1112877480536145,1.9361842278383437,-3.1989566195271486,0.08068673446869568,3.0543893141376355,-0.02272920284111679,1.0393178357711899,2.7666158648890677,6.201958148192698,2.488361169238567,-2.4584599404093614
-73.0,-6.375494863924963,-2.2054244326811094,4.170070431243912,4.235638367225717,-5.235181837205168,0.9366054760152762,0.18979452896264015,-0.6546498293708394,-0.6451452349298901,-1.165620560092675,-0.6376937220608114,-8.46322218437559
-72.0,5.0629093524338655,0.48620169135898106,-4.576707661074855,-2.7506470623453683,4.775089883657541,-2.087504356701004,-4.648358314993375,-1.7678779148700652,-1.727889382545324,-1.2898203765723335,2.6305648278947222,-4.258322509354169
-71.0,7.665631710932228,1.7382234025740555,-5.927408308358162,-4.677200700339903,6.825756318871276,-2.053058952154907,0.048809455087653,1.9198829936522666,-0.3198585869873314,1.6376250180595795,0.10599675362635552,5.827654465754629
-70.0,-1.5475798914127599,-1.0038299671323199,0.5437499242804069,1.3039458045044012,-1.0220867287576145,-0.18155582029313444,-0.46514671141714264,-0.8008058155745134,-0.11550808989312994,-3.453982321518369,-2.915937400205608,0.8010758896084744
-69.0,-10.251257002996805,4.886270085013974,15.137527088010748,2.7177257022295334,-12.755259731616615,9.990216647811982,2.874421518406681,-5.069493653119611,-6.113607056935527,-7.3802691742709365,-5.778449740207705,-8.097488602473451
-68.0,-0.34834415080490455,3.9714104980855915,4.319754648890459,-1.8454081615483866,-2.3206874113274756,4.133007052687273,2.310277015703475,-2.470158459059889,-0.43518678710620295,-1.5555092006737083,-9.187878410964172,-5.884169916234567
-67.0,2.622996497555193,-9.567695423287669,-12.190691920842891,3.4486597820750484,7.418185406998253,-10.883815729541372,-0.7475297693519256,7.8131650639756005,5.372785144724948,7.639569146748215,12.15809160370214,10.45259840411911
-66.0,6.147901082252306,-6.6629975272795985,-12.810898609531833,0.24209147279782428,9.492193622531218,-9.73644449570792,-0.8616662728256801,6.5700885537345455,3.9848725921298893,4.886618217182285,8.455169976942956,12.433120479966355
-65.0,-1.7019610048611074,0.5423224524041146,2.2442834572652517,0.5686749936148678,-1.95524858898278,1.394996788605952,2.5941976635199477,-0.7815650247098582,5.044276405804393,3.3362965156001287,-2.521938902704086,-0.8623562521953385
-64.0,-9.181355359932633,-0.5817734506722981,8.59958190926031,4.948638675777939,-8.943540542477493,4.007663669234039,-1.2799349290456052,-4.779295809070777,-5.195282131271158,-3.8287378255767752,-7.4384350914498345,-5.991157141042459
-63.0,-0.5358766698549082,10.264289138069907,10.800165807924756,-4.881054781813774,-5.633644763054702,10.524717487482413,-3.619434932685761,-5.614128819293002,-5.954397306269694,-2.0141414766320174,4.962226101635042,2.4430387886803384
-62.0,3.1583080966574197,-4.05808550086466,-7.216393597522061,0.42440065351528755,5.229029252694771,-5.652800527343344,1.8021389276078783,1.3946606070247092,3.3130300456415687,2.3746666358567503,11.600084139288896,2.376810103298002
-61.0,2.489758497869781,-3.770832940254552,-6.260591438124277,0.6048399118372672,4.341963392495604,-4.960458306478218,3.239096940760811,2.77698460996605,1.0860552445044145,-1.8310077643674365,-4.775701961579026,-8.510967965937962
-60.0,10.199224368402717,3.942023636734817,-6.257200731667929,-7.037125056581034,8.194389414953996,-1.1871578257158468,-4.078581576977518,-1.5664443428802584,-2.682292825757085,-7.12800036661412,-17.419662940430506,-7.749768845753762
-59.0,3.848167337426984,10.645179009079696,6.797011671652514,-7.220102729085454,-1.5128175918222326,8.688486154021845,-2.8074305405383426,-1.4291555533577083,-5.097518452654236,-2.4628162553140296,-6.639565932269639,-3.2778994398376824
-58.0,-12.16624893858608,-7.345413985384569,4.820834953201292,9.779213887857397,-8.45975642768131,-1.215828488577011,4.7434560695541075,4.521553613624409,8.383006034940532,10.063856366799044,12.734765644300735,13.102801802647033
-57.0,-7.598012646391098,-7.066531863397419,0.5314807829934631,7.2774180897542635,-4.036913850015919,-3.2967534642843335,1.2672332393953785,0.5871040108555909,2.8940291699324674,3.070891635093518,7.102837426170321,0.6409302678827604
-56.0,2.120738105691719,-1.2093489459803708,-3.330087051672023,-0.42862470583712753,2.7500182720872157,-2.215857533050576,-2.3228287334141235,-0.22208576098391997,-6.903022417114151,-6.408714138646396,-2.8299171649794097,-8.804648531143817
-55.0,-2.212642830686635,10.781483856459847,12.99412668714681,-4.331855715053655,-7.5785317384714945,11.8666063500397,-1.1674939468195515,-3.9525539937875016,-0.8914304677108553,-5.525787591656255,-2.222140449942816,4.789744400480144
-54.0,7.923132543046088,1.2969700070762404,-6.626162535969462,-4.5750942690077565,7.223770623483058,-2.6844867285686203,-2.21807443697069,-0.9051440304418945,-0.5502910179395469,0.9309946908930251,1.4818304753114981,9.232431043723535
-53.0,5.165492234049058,-12.265053889375196,-17.43054612342396,3.5863397877525727,11.251417951109381,-14.869608069453339,2.3083802550930814,3.346494522817167,3.073950216289813,6.725126728646714,1.9800574995955547,1.2107720147811913
-52.0,-2.051466624702352,-1.9882752766897065,0.06319134801267712,1.9762691823499432,-1.021095762382882,-0.989071357116365,4.960012603552768,0.7224557037087058,3.9280303647539188,7.209287559670072,0.9925133223184363,-2.1487122867979163
-51.0,-4.847981574226301,0.5208846099510692,5.368866184177154,2.194016108327774,-5.069052033355539,2.9910439678152283,5.591316075250797,0.9727574289224427,4.096199804696868,4.721932759196718,6.122246983180385,-3.9443916718994374
-50.0,-1.4516374055837502,3.750508240599024,5.20214564618237,-1.2049696770868665,-3.363978814882461,4.516911813824658,-6.008346738637401,0.3809186345908801,-3.7399930602219484,-5.6564693188137145,-6.810250809299426,-4.4143671779077085
-49.0,-0.7886920779665128,2.742827862515483,3.531519940481586,-0.9619861011320611,-2.1950017250214993,3.095207464687776,-5.984906536509953,-3.672039458113274,-7.757499902231277,-13.49401626870766,-16.002747250966088,-9.697208394664727
-48.0,0.6657364837218231,10.347098167367008,9.681361683644926,-5.498026578656929,-4.4608908958393005,10.049390100286592,-2.698710106583244,-1.921803233324212,-0.8737433806707124,-4.101903445919139,3.3162936067771707,10.754385094524437
-47.0,5.605420725785035,-0.012563549461357848,-5.61798427524631,-2.791046560557965,5.584466621373723,-2.8587090802052044,-2.4635857297931483,-0.4284715824406392,0.025535173216560514,1.055340793541503,6.995005982497995,5.918251645445851
-46.0,-2.6067005435667836,-2.4871716937648585,0.11952884980232614,2.554322732150842,-1.305674419611897,-1.1472595315193908,4.8701109610221005,2.243531250351326,4.984084724957655,8.10521389401766,6.587170670061141,-5.229711590879811
-45.0,-5.491771328067776,-9.625026363776874,-4.1332550357087285,7.572668041557901,-0.6945412127190229,-6.919408592205857,7.6076672467975825,2.051760956759196,1.9258820682438884,7.047689288535726,1.2924324465075419,-1.577419325288361
-44.0,11.016137420139959,-5.041294538630505,-16.057431958770206,-2.9630093654471117,13.525665781029787,-10.586917712604283,0.041556923223668996,5.331553299007213,4.768563384527647,1.856114908055333,-1.1831410337728707,4.273935123538869
-43.0,-1.3286144644122282,-2.5718791239289294,-1.2432646595167638,1.9067882069153221,-0.05342821409452192,-1.8623881521779784,1.409747236755623,-2.5412628441653755,-2.675415309984916,-3.2620917437385804,-0.6032824958213864,6.293780165863103
-42.0,-4.136837945674523,-1.453674334869555,2.683163610804722,2.7609268956401376,-3.4252407066170396,0.6654927150171706,-3.110053425544322,-2.5795353889619763,-6.973617683345802,-6.11402805982242,-4.743568104101961,-5.989422853971428
-41.0,-2.040057899398035,7.5016418003255065,9.541699699723331,-2.680550362649678,-5.815101578629268,8.50038501756701,-4.108160284071909,-5.709207687192693,-3.781838321152608,-3.798851658583985,1.4788401148726926,-7.613810028619053
-40.0,-8.90489049845779,10.40050107940399,19.30539157786172,-0.7739832211534807,-14.062384334612895,14.838240225946489,-3.34507457698057,-1.8375728397848006,-1.193399416437026,0.7022798656782292,-2.1386131072361616,-8.296910857795359
-39.0,5.5368031885780695,3.8863356641542603,-1.6504675244236626,-4.737850524876692,3.6243119974354867,1.1079119394005215,-2.6193978400314517,1.6686670397513488,4.5109825402260455,0.8231414068412303,-7.570627312928201,7.587205876470092
-38.0,4.044385876622744,2.0817352792539907,-1.9626505973686605,-3.0114412273840596,2.9455027624894123,0.050749900649004864,4.863287833737715,5.345100280449486,6.416088121061432,2.649740814805787,4.678931992182815,10.50788226641877
-37.0,10.372188547222574,-11.602824694421662,-21.975013241644195,0.5881011814580206,16.188258317911107,-16.800734933962286,5.681170883869013,6.5773540187270765,8.662057653547212,10.9264369174961,14.112974311209745,5.525992422374692
-36.0,-1.8680089184743123,-14.648193347441804,-12.780184428967607,8.310966255730898,5.469121843452651,-13.654349387074106,2.724589959881987,0.11846155548166903,-5.893126908546343,1.1579771717586391,2.840888959760748,-3.1039659623712366
-35.0,-4.41843472819676,8.95314437957385,13.371579107770623,-2.290942914196757,-8.879802106993255,11.133360754948905,-3.64505520927508,-6.293968228832467,-7.493876111651003,-7.634432338143327,-7.99529878895439,-4.892242416496107
-34.0,-7.751368220440905,5.753458101557438,13.50482632199838,0.9773398354643551,-10.608598940967376,9.588772705066022,-1.5636045670767738,-4.553145726450526,-4.752898799453642,-9.810320211103825,-9.858484622763543,-5.338705220092885
-33.0,-5.27967912372116,-1.9124255931414855,3.367253530579811,3.5745929225172803,-4.378387374447085,0.7551824829151794,-1.4322245215132496,-0.1904566049953802,2.0493037808921954,-0.8683811279804283,-1.5593790044828948,0.8727040034118403
-32.0,5.4586192568706595,2.5567866802054136,-2.901832576665183,-3.9531190871295063,4.206721342143628,-0.15265947823843096,-4.319710548683941,0.003826749869252688,3.9114151330120777,2.2074993918286543,-0.32372820792069823,-3.5779793833392355
-31.0,3.9717862884942354,1.1118699220155641,-2.859916366478691,-2.571764964606386,3.363939904286864,-0.8579158133504715,0.11767604402931986,2.7650829766147633,-0.846439664244313,5.296777165385909,9.497258002447628,3.1841924923661136
-30.0,5.683640018733256,0.3888646732684904,-5.294775345464819,-3.0743367987563124,5.514632741148541,-2.5145807784897936,4.603045548039255,3.0516827780135865,4.660606380207184,5.915554529682401,5.218138672391593,5.157806790845063
-29.0,-2.1962803689317556,-4.348743457329436,-2.1524630883975764,3.303956253176129,0.001758196307451776,-3.2279921856014235,4.296229510544579,1.731583115846835,-0.592963918069469,-3.6844827199517862,-5.845366367121981,2.8363161455801644
-28.0,-2.4827308733621303,-2.5732874908889944,-0.09055661752673716,2.5505941553190055,-1.1729876438322573,-1.3005415665083808,-0.2943326167372322,-2.5032666036004616,-2.1840937334606894,-2.300702436196192,-1.8919532238266346,-3.442151000965786
-27.0,-1.6911295314422408,-4.743030299970036,-3.051900768527984,3.2322577353175572,0.6263393955977681,-3.9347022328961794,0.15567863237426907,1.6957754969801906,0.0048880247848142044,2.411509739547471,6.62206225121335,-0.012555641785762017
-26.0,-2.847827227439839,4.534002098491847,7.381829325931394,-0.8333124761330015,-5.086268006144703,6.008572099333767,-4.627677075443316,-5.998789985065581,-5.822363105751767,-3.784970456649442,-6.063371673502216,-11.105575836308912
-25.0,4.697039974874316,10.915567305168981,6.218527330294519,-7.8784616256317355,-0.7268440325444216,8.544830706141012,-3.432736377781776,-1.2785472824305262,0.40369054089314393,-1.458475797131076,-9.092062551547974,1.5742741289694946
-24.0,1.5672200519150326,3.136576557171123,1.5693565052561835,-2.346010620027554,-0.040364444313417236,2.3318178630605866,0.9419389456896923,3.092019201274428,6.141406944016515,3.0247277222639424,7.718678445537312,11.152210430820679
-23.0,1.894293999325256,-4.450594712336331,-6.344888711661338,1.2862732217091504,4.084788806456217,-5.42286831594099,1.6235014399887078,3.0810674338368034,1.586442609608902,3.2117681460718304,4.232889609897288,5.45179836094406
-22.0,-7.111322267948296,-11.41294982945116,-4.301627561502684,9.275813335145576,-1.3583266007859804,-7.811418840166371,2.085558110319127,0.4965178292759489,0.5581574388788406,-1.743430022557973,0.950218792481583,-3.155107384572989
-21.0,-3.391463469856735,-2.531009088602164,0.8604543812546122,2.983532641336496,-2.157815679451477,-0.8772376836970359,2.973362231894824,-0.6789421031099975,-1.0656101920209484,-1.542564891903266,-1.8614199152797135,-7.929075287245405
-20.0,5.2023444062039665,0.9687213089962969,-4.233623097207666,-3.05282333567359,4.763228144712851,-1.6032070197484523,-0.3341862291839637,-1.534458687421524,-2.8922079730476558,-1.6512367731074609,-4.020331277585053,-0.9817463517593978
-19.0,-1.2311015519169954,9.252997825011771,10.484099376928597,-4.046909783421097,-5.894382301561223,9.89413230172965,-4.983924521227559,-3.950889469270519,-5.091890244943895,-1.8791946050271942,-0.04301487299161577,0.7587794668861894
-18.0,5.071084398149356,7.024907219810937,1.9538228216615146,-6.076487956752799,1.596123595460343,4.437507868955638,-1.0905413631325114,3.598421405894025,4.602321157102043,2.943537014586274,2.9453606273637067,1.01524783029658
-17.0,0.5104101662859195,-9.152001713973021,-9.662411880258965,4.295634669488117,5.039908820061216,-9.37458148210475,2.7886095148787717,0.8429033882747923,2.3987226301571223,6.341592517618403,6.191210166546682,6.848660633367322
-16.0,0.6481745940698979,-6.9947027274147855,-7.642877321484603,3.225835935601408,4.172260073048159,-7.27804924235039,1.567262847559791,1.3673429357926956,1.1637154137335286,-7.700221034901652,-8.542861634402273,-6.51623148511995
-15.0,-7.004544861004387,9.526756440059366,16.531301301063838,-1.291554121064049,-11.74632330760414,12.998606544385172,-1.0116692407898258,-2.6968947937954377,-5.250964351720915,-3.866189322528701,-5.255010265096298,-4.7354297251732955
-14.0,-1.9463782101730032,2.129556863512464,4.075935073685552,-0.04890760476241718,-3.0722692457383056,3.076572050427094,0.8552466796663961,-1.1513433240281856,0.1255898059327567,5.369219648827201,4.853101142953479,0.9814302152163681
-13.0,3.7132298564023483,-2.4902169476081433,-6.203446804010465,-0.6524921076786996,4.973987227100451,-4.37380316441809,-2.1193510508611224,2.2987677605589054,0.610368319503446,7.284917847332332,6.950585321208102,8.581389598427752
-12.0,2.929339406902518,-7.240579610695196,-10.169919017597799,2.1908132482569527,6.565787759041448,-8.659317445879026,1.618217002069943,2.1808318358134477,4.072994726512289,-0.031451151182275705,-3.1638497292194336,4.618531909440205
-11.0,-0.6036640809508735,-0.7842135844337772,-0.18054950348307397,0.6510373222999594,-0.1924940104654933,-0.5244715583111006,-1.0441856142665973,-3.8470164517072805,-0.5782241716891161,-9.470779662390536,-3.044786552817455,-7.2350215970806895
-10.0,2.684333841395339,8.62548354629725,5.941149704901753,-5.615224809954974,-1.6049560714745266,7.309841761577872,-2.2249646836706294,1.4090025261467876,0.8721048994312106,-0.4950643444522518,3.644346767289441,-1.2001909062065903
-9.0,-0.6817095339610806,5.415604698683717,6.097314232644725,-2.399971195024018,-3.44043986017859,5.774518599566489,-2.076310070938261,-0.8896542739067004,-1.113852619551298,1.1526655902975045,-1.004510443686017,-0.0969071958130403
-8.0,-6.030406851591667,-6.394931214100259,-0.3645243625085799,6.264924339526549,-2.8022456163275438,-3.36678653581212,6.4225397943773,0.7173673630352406,-1.8974565951425044,-0.4187672450659834,-3.246663853873265,-2.903084387965334
-7.0,0.8517273252315429,-9.657272088097718,-10.508999413328992,4.381217519019989,5.632960169945182,-10.071482744355857,2.750541210216011,1.6959193258721583,-1.4276696326199536,3.8339349183936338,-0.9490690972421769,-2.494772728546179
-6.0,-6.075521363711672,1.7981770448739844,7.873698408586026,2.1186191327605686,-6.94436178621281,4.770887476826397,-2.2670105280098194,-2.7323445137145237,-0.05028805410113657,-1.6499416378603236,-0.899175341638881,1.3834574528728814
-5.0,3.619180642233909,5.457445851563469,1.8382652093297875,-4.561315956598852,0.8406703911369862,3.6660387425181993,-1.0515849660911534,-0.11693357138987748,0.7334311042554028,0.8410343395909613,6.693849620511435,7.811583037473792
-4.0,5.426536439188027,4.500308143083284,-0.9262282961047895,-4.914867180994857,3.2058479257623578,1.8113788089686753,-1.9152125043604018,-0.4897434976409977,2.957298608051278,4.6039126512181605,5.030985321171979,3.215417795988663
-3.0,5.211501672821308,-1.4436881008055238,-6.655189773627056,-1.9241073220526759,5.966502469766299,-4.096441111799189,-1.8543886243924315,3.1344213724133176,-1.2678602250517463,-3.038585449564794,-4.041648496225485,-1.8420479592281227
-2.0,3.843233169499078,2.116521178544487,-1.7267119909548505,-2.9518600347118444,2.825014884287631,0.23508590159968112,-0.9794814002305967,-0.08492743785191847,-0.6921528500377131,-5.40979660013975,-7.347512743398,-7.109574382067894
-1.0,-5.864452206454214,-1.3509519037614623,4.513500302692607,3.627251197455575,-5.219159654100453,1.5517576862868445,0.6123564201062449,-1.3506645120052,-1.5300959640221201,-1.1683235739190283,-1.3906903476251515,-2.851700748329696
0.0,-6.940925460068566,-4.5594182196051865,2.381507240463317,5.686879266240757,-4.683696499153941,-1.0309740210451384,5.423617948776629,0.839677506215796,3.6730470036857987,3.8688121580498382,1.521670706086585,2.6755599290199683
1.0,-9.01926089713904,-2.6723632423951638,6.346897654744074,5.863047777780315,-7.70087746705471,1.8234360186485334,1.436695539292871,-2.4417575395495237,-1.330483830748386,0.8954828618782855,1.6850356909399609,0.5503597906757814
2.0,8.682652939566555,-0.7529123870249221,-9.435565326591291,-3.9397756852991592,9.042053940457734,-5.104678762385843,-2.994837472161793,0.6423831367942119,-1.5624435655269888,0.35741336905669696,1.2438266273905263,3.3075800720692454
3.0,3.9508063862515925,2.758870534082612,-1.1919358521689891,-3.317156976526197,2.5518036278198073,0.7716022925938864,-1.8387605606839177,0.00493050113250032,-1.7263237173798158,-0.447677957035852,0.8171238700253942,-0.5383382992459054
4.0,3.5715697164034053,4.424209689244871,0.8526399728411822,-4.024434398754147,1.4146408750253685,2.6202165151851347,-3.481151540174242,-1.2680212195584113,1.6353779944085378,-1.3643286174256049,0.43839454281814977,-1.0638895174580882
5.0,-2.2057673206339476,-1.8430687710489166,0.36269854958482184,2.0107760241475794,-1.2327263214783708,-0.7682836503466481,4.903090865079818,5.654321879724391,1.525817450513111,4.095990454369609,5.813666694956918,4.53175698114821
6.0,-1.6579615293667544,0.44219968216387556,2.100161211530643,0.6022592365195377,-1.9085945974996548,1.3109131511779788,2.240926995860412,0.6946798271705075,4.585259603654424,3.0036862333427843,1.4888601252484843,-2.0516317281065635
7.0,-3.824141595871735,3.3370323701686857,7.161173966040666,0.23914496144088615,-5.523080492507026,5.279719477433159,-2.645537543733284,-5.244716403904612,-4.45944248673292,-7.874909779154077,-11.606783138224788,-8.008666465196132
8.0,2.775303891449747,-5.5162233076168325,-8.291527199066216,1.360450229662331,5.502889413516591,-6.8783455284285235,-0.6320734613562851,-0.7674769240899397,-0.16413925792138828,-0.027761165849678804,-1.886265143966769,0.39677801766140774
9.0,-0.7176769893774262,-4.876626947198133,-4.15894995782032,2.776572018504134,1.7688833856776784,-4.570987780466175,2.1491773003650967,0.41128504523829146,-1.5951883775749485,-0.9520081016603442,0.1669852204974358,5.248553582280284
10.0,0.9222112035508248,8.810890020697185,7.88867881714641,-4.820915821388958,-3.513913495766034,8.301599118589268,-2.5814324353141327,-0.030691768751110057,0.7183120901051487,4.184431590603084,9.007331599163846,5.936572977646121
11.0,2.359865221669989,-1.380352924316544,-3.7402181459869452,-0.4554331395353022,3.0978045202460622,-2.520799646290885,-0.6633751698740386,1.722973671851443,1.387910240306883,0.8564709443705352,-3.290617980017771,-1.6564802437530535
12.0,1.6808252299566098,-0.8480075563827238,-2.5288327863399385,-0.4684264095054361,2.0737533526248235,-1.6379709807882699,-1.9739040003860855,0.23173421081435697,-4.237617129838811,-7.494575979806571,-4.157566221157877,-7.650071481347509
13.0,-1.0973505915105224,3.6451632680458594,4.742513859555849,-1.2497053871860007,-2.950388912268188,4.176063899555167,2.677876462780986,-0.041505200657839914,-0.6046697654495394,2.1572504424518124,3.5744849757169623,0.4030783501022066
14.0,-3.9096950596949207,-3.8593123117654597,0.05038274792929909,3.8325999676306823,-1.9299461717134083,-1.91487180191212,3.530769635982089,0.12069062506680367,3.9910728563992386,6.782596306116997,3.3002005642000993,3.0886895471702953
15.0,-2.703618278858753,-7.548478968060126,-4.844860689201124,5.159759468341211,1.0451927533811036,-6.2051471022393985,1.2854795217242718,-0.5794909214425519,2.635128868506243,-0.11357963755071587,-2.5030690107285913,0.02360820246048534
16.0,0.39443398509423866,1.2133865509954362,0.8189525659016959,-0.7609519332448798,-0.23324446842651114,1.0031210445526493,-2.4824391908986025,1.2762800973718866,-0.37789590231709647,-3.3274707430620394,-1.730478494210222,-2.928411875304183
17.0,1.8785456280503918,6.27376207622118,4.3952164481712925,-4.102742005669343,-1.195747217594458,5.311003428936636,-1.4597825786086565,0.3271617045032584,-0.5907598127774921,1.0185957493682307,2.0421778239934403,4.563977311568658
18.0,-2.8360382790972034,-1.6693538220868858,1.1666844570106227,2.232738713866429,-2.0136991762112872,-0.21010701107218832,0.23496829167082312,-2.8704042719924625,0.217681301307887,1.1816494273013072,1.2999432866855984,-0.06453435838552246
19.0,7.793762371606013,7.397037002094943,-0.3967253695111516,-7.613284030790301,4.0842012674319665,3.527059055970591,-3.5247603145023936,-0.5541868458748134,-2.0812906196842076,-1.401223885025918,0.439346592048399,0.4817659844585822
20.0,5.222316114397928,1.0486050331966295,-4.173711081201623,-3.0779434400243773,4.684704412936997,-1.6255187640139948,-1.3461017059865887,1.127813143913502,-2.054926128963168,-3.3467054115191868,-2.095679695133213,0.06919515316832524
21.0,-5.578780254704637,-0.5914012851761365,4.98737896952819,3.0556429764169066,-5.302141691528259,2.2086634331108925,1.4116776700937927,-0.7737117278317073,-3.2545776434467077,-2.597841552978979,-5.2600822077176534,-6.25941396208011
22.0,-6.966647871107248,-6.917503732600521,0.04914413850674604,6.901465216371259,-3.5348119254764723,-3.421227750515924,6.735443816954294,-0.11900939645252834,3.9446258354864487,2.3024982267533125,-1.5039103203703172,-2.116556159233854
23.0,1.6233328067555153,-3.7402811829943663,-5.363613989749803,1.085383841040107,3.5376308246661896,-4.52987563496903,-0.45303689396500024,2.9410845434998896,2.0604190128224467,0.7239008020076982,0.40766354154975154,2.9275818962429696
24.0,2.109661031979969,-3.451614559413262,-5.561275591393174,0.6897249882800112,3.874406947330823,-4.470933123585003,-1.0401657004546883,0.00045436147191635357,0.6982864262162791,5.990763610800155,9.193277640805912,7.416147468491936
25.0,2.276907286498699,6.823303873757931,4.546396587259257,-4.533927164047473,-1.1759503128368411,5.655474553540747,-4.234677013666293,-0.5777746050174627,0.8583093899457601,0.43146336921744144,0.7505794548214899,1.3627197960387005
26.0,0.5217023975505981,5.0289860207840436,4.507283623233539,-2.8337422673046553,-1.9528408491640312,4.7490016083714,0.5685098735888583,-0.3846798469790035,-1.1347573030856455,-2.4464826850356687,0.4132507155477031,-4.488557810718294
27.0,-5.9810073427089065,-23.64156272259285,-17.66055537988384,14.841910169897396,5.805911327712753,-20.666310087617468,10.067763347106398,5.684445418319555,6.461335046282321,1.013268113336236,0.47312800838651414,1.5559963875219611
28.0,-3.3867705765819136,23.099687369883632,26.486457946465634,-9.811890860498028,-14.964903262451301,24.774932384526103,-7.6009998821511555,-5.546617453224877,-8.729090121707673,-6.735679884469706,-5.437825009348598,-4.590396918003753
29.0,7.36878110372883,11.167070165614131,3.7982890618852965,-9.288238895710672,1.8401369894543311,7.456895121990974,-9.73024676679746,-6.80677972027175,-6.4848804799587665,-3.350351120504708,-5.221656093649769,-9.13350104203951
30.0,-1.693331658957653,-7.05146033376564,-5.358128674808077,4.361761273409375,1.8107459558980998,-6.160711847574161,5.428710295723952,-0.7867651204620056,2.635746416148411,5.435269405894017,3.10128086042105,6.87231547132333
31.0,4.381953280333129,-18.366681077645524,-22.748634357978734,6.98395300523184,13.543523347248456,-20.520233531370266,8.735944106335003,8.501499194327877,7.224461986882006,5.813899379959008,1.760233118455513,10.931520165706353
32.0,4.3925600608356055,8.44547593026222,4.052915869426599,-6.433947991784716,0.14641279466695245,6.284156873127717,-2.907036835553371,3.0191667311606567,0.9290676307070873,-0.17544138902975215,3.0255984417943877,2.993409267869562
33.0,-0.3179982675266323,7.028779128210487,7.346777395737284,-3.3843385223938403,-3.77892901892163,7.14557547117149,-4.780528053754963,-2.011013933931241,2.0542614530468715,3.4880979097592655,3.64548507732249,-4.689847626562977
34.0,-5.960094373559578,3.3778295380248338,9.337923911584573,1.322914526987569,-7.67534448837423,6.319478096925182,-1.3076713729843517,-0.6935725323150327,-2.8544268724395216,-5.0727513762226435,-6.559176362568373,-5.549461705677183
35.0,-9.688441786378252,-9.417516262522458,0.270925523855845,9.567448051581293,-4.927212462401091,-4.529297612503052,4.09374716342186,0.23848351676748003,-2.44108840004084,-7.557793477349486,-4.142495782941312,-4.684570966828577
36.0,-3.3440150477364017,-5.26316113177289,-1.9191460840365722,4.305952556111519,-0.7383388239337649,-3.6241322844413966,1.6780564076075728,-6.57301783857843,-7.6052964618130945,-9.09137518630201,-5.089761624384207,-7.310412317516903
37.0,4.557732614676469,9.089544097111848,4.531811482435316,-6.825155769987667,-0.013754685655496562,6.7772704172677205,-3.5953136446897824,-3.9146945279714362,-0.6771784953498465,4.788089613785187,3.6361863989496523,1.5702553230985763
38.0,8.22061743473762,-1.5538327364458917,-9.774450171183606,-3.329795726993174,9.046095546279512,-5.620372241621764,-0.28027311064099303,4.245642551813168,6.627577639832848,12.0605967657192,11.061942012526321,12.736478291171215
39.0,6.414552220380378,-17.539099631109522,-23.953651851489976,5.578431017613287,15.147162737361198,-20.78229738122353,7.855469740660258,11.843246231541642,9.066726249980036,8.837884888936054,5.451801752781353,7.6512939083437015
40.0,1.9216305921542833,8.999869788162925,7.078239196008626,-5.506686670560635,-2.624480378723745,8.08305284362071,-1.5326959526554722,0.37684602234343156,1.1043160969763623,0.33572820683307203,-1.0044262800833312,2.6529741380450704
41.0,-0.03296627937467893,8.671211612613487,8.704177891988158,-4.269780371677451,-4.345549994708016,8.735281242604827,-3.216370741250389,-1.6966469235169086,-3.236236489393966,-5.833452461551294,-2.863619467605367,-2.481424566209564
42.0,-11.380726306369871,11.65774084691488,23.038467153284746,-0.15550847812348367,-17.193592724126507,17.321836530631057,-5.0183415364801895,-8.262967900549413,-5.151727853508904,-9.430403657473637,-12.404985956170723,-10.174085783681658
43.0,-5.888717033479923,1.2566412702942316,7.145358303774174,2.3045862027662993,-6.503135766563159,4.1789745595319525,-2.331918038979092,-4.137081159658917,-5.0346856544182135,-5.545938545528588,-4.934147466471348,-8.206357554498718
44.0,0.6404056612072919,-3.412816088761392,-4.053221749968655,1.372702729483092,2.364369571108874,-3.7531657588212486,1.723514566070094,-1.9190706753214335,-3.5063507666074543,-1.3430010768689518,-1.1356848435014704,-6.693014700017159
45.0,3.374815686066889,-9.492505895819233,-12.867321581886095,3.0371418233957694,8.146863747494677,-11.200992319218349,3.1101051670328412,3.687632847367789,4.807510750608064,8.395780183152937,10.815552968169545,10.520024849485555
46.0,4.086376148264409,-18.546622007456254,-22.63299815572071,7.275998977751353,13.316764947356747,-20.613498029247914,5.029271156981281,6.606177862211986,8.215157230295413,8.987151994423561,11.85212315120176,13.553463235133332
47.0,6.054233637615505,-5.805820361294334,-11.860053998909976,-0.16735996813712006,8.922708045733824,-8.780039246900111,3.587692065460081,8.275302950065754,3.186735911406682,1.7136973829786557,-0.5010585998546402,-0.07701078872499156
48.0,-3.440063060956554,17.522929519375943,20.962992580332415,-7.011990911552191,-12.152903488782405,19.296092166855082,-4.692837706512229,-4.167124800856389,-2.739416754257396,-5.423393995788135,-7.163450000372051,-8.040565268927235
49.0,0.5342318384833354,16.9094982143789,16.375266375895546,-8.69295755234767,-7.951526879611806,16.620122779330195,-4.693852504372772,-7.263702478210679,-7.174417037867407,-5.875476471236881,-5.977909252598378,-3.262169238990239
50.0,-2.5436553154328223,3.4716577361801537,6.0153130516130044,-0.4307351438160829,-4.315745293266778,4.7268744782599335,-2.2637228902852815,-2.6621835374190415,-3.0624672624745775,-3.44374234235359,-4.595621641189599,2.1856039158606433
51.0,-4.665969001577257,-6.453651125599129,-1.7876821240217238,5.52102742361289,-1.4040677464776135,-4.131248073709166,0.13228632895183856,-3.438232778745704,-5.137308672917696,-2.1701258598153754,2.6328647817762216,-0.3347302793441345
52.0,-3.2370142690644146,-11.860985747134565,-8.623971478069993,7.516039425786942,2.7216189907061805,-10.248670896984516,5.6261689048523555,1.343596803999201,9.822360483218816,8.22550472307277,6.585865524769902,-1.6862000907328605
53.0,3.7996283647185907,5.864077376490621,2.0644490117721004,-4.862381331201591,0.8913254208163339,3.959560955762867,-1.373231698471069,3.168101266498657,6.4175687286849055,2.5675853329845766,-2.9295138872489126,-3.5212922360469716
54.0,8.733977292460619,-1.5655310780194565,-10.299508370480138,-3.537822594692856,9.460673896463355,-5.93871800624926,-0.2960827084154284,5.186395315486287,-1.1698544382640503,2.297755453474538,0.27633084936049057,4.4670821592772
55.0,0.2814930999728129,-19.951790025380504,-20.233283125353463,9.79759938203091,10.281911758497706,-20.102278065772968,4.434259163444264,9.281255163527542,1.5025565962359553,2.694320232563379,6.990356974499589,14.083643779693256
56.0,-5.434294633698596,30.537726366516875,35.97202100021532,-12.517143803964483,-20.67515094960749,33.319722122728614,-7.59871856596586,-11.833126201948502,-9.29859539089038,-12.330761908353832,-5.826836664041045,-9.37634625844056
57.0,-0.2696969734397281,-28.835492509191212,-28.565795535751597,14.58117172838383,14.101041126526965,-28.718002290102632,9.652756473012126,5.87784620430441,9.6831195560564,12.883546366515368,11.240971115700544,2.9621402752532386
58.0,-2.2243119799066817,0.0830043506901168,2.307316330596701,1.0953103356309932,-2.3098061720416103,1.1758946907192005,0.9273665494954173,-3.2472072162111663,-0.9629030715292066,-1.2277354507893619,-9.025334225710413,-9.937082777832076
59.0,-0.8515756461093391,47.50111662246216,48.352692268571424,-23.380089280080988,-24.56545645036289,47.90761217715084,-18.23940961270706,-16.49103651551333,-20.26284942908536,-21.654057300138813,-14.624899982337226,-7.597966282869917
60.0,4.188497341693501,-10.906585714330092,-15.095083056023636,3.3052589154242753,9.679241996424318,-13.018345288025078,3.8866206860811046,4.89732723298035,4.3346091894305045,1.30644099234323,3.4143332559928705,9.024913071696162
61.0,-0.36386545653528923,-15.67624161345023,-15.312376156914992,8.049135953778489,7.5111707472342815,-15.429918959641993,5.392004972045056,8.657534256190322,8.241356646396431,9.897632544119027,6.730470192078547,-0.6904077529651178
62.0,-4.104077844713763,-2.358973640302583,1.7451042044111063,3.2669009389680075,-2.9687493401242184,-0.31762887165752574,1.4288775446250837,0.7222705461671595,2.785470139782851,6.57564025795981,3.7425401201170243,5.553800458757745
63.0,4.605767463875482,-27.895849853445327,-32.50161731732085,11.68797335907871,18.504907336884376,-30.20646403899053,8.720433777039066,8.863175845097087,9.640097115690882,8.553551366384596,6.208487995033547,4.019679158594343
64.0,0.4761099891751972,12.220107995052821,11.743998005877625,-6.376644270654056,-5.610952590794529,11.9753117622812,-3.7106749383506905,-4.256463287933566,-3.0143655034990946,-3.9494058235665532,-5.3130057927628025,-6.883046168615573
65.0,1.1309329337515428,17.820558950594723,16.689626016843285,-9.499089432401599,-7.764931992207384,17.246513260387864,-4.1265231436644685,-4.035150458252147,-1.2235715418613393,-4.3779822366889025,0.5525853060973254,1.4085727361731764
66.0,-2.0076714179392883,11.123057720604887,13.130729138544375,-4.579314101753452,-7.563540209856406,12.113583221256448,-5.052139651449897,-5.202097253548784,-10.69969288639678,-8.605836787785481,-6.679017181740599,-0.1786694418666892
67.0,-5.238519811773025,-9.835590004350461,-4.597070192577281,7.5133617156723975,-0.32229269130840876,-7.23652665269454,1.4471337793285453,0.3552707315894805,-0.7484511372088596,-2.67735632633556,-0.7641014599103366,-0.5469896815665214
68.0,3.20828213967648,-3.5257824563154276,-6.734064595991944,0.20877473169702765,4.96543915388555,-5.079241217695555,4.009203761873902,3.553614216828924,4.602022395552382,7.455643424722409,5.465832599679382,1.018453725455791
69.0,0.3357349666381465,1.3931743402691916,1.0574393736308352,-0.8208435468819228,-0.3666646857065623,1.268201181060021,-2.6595102101178596,-0.9222053832873416,-4.047513164699254,0.22911616987823802,-1.5756797772232705,-4.866573191275262
70.0,3.473636799850732,-6.191937194289415,-9.665573994140418,1.3179384124104105,6.568101642553417,-7.971694605243432,2.6436789939311103,1.6963982029259377,2.833522509171731,2.979967018920502,3.4605930765319513,4.4357071366600564
71.0,-5.365638850744192,-7.412859796011371,-2.0472209452673917,6.343731323952014,-1.6525627960515443,-4.779125614939137,1.8842764198424804,-0.9220549038688705,0.739214888721101,-1.370912272179195,-4.922055142411552,-2.5664870540114872
72.0,5.225620248607238,15.758024324709105,10.532404076101765,-10.460216238640587,-2.6361190600992903,13.169833478700872,-5.384937293295661,-0.24471974987630218,3.2328748899452813,-0.6333351547666044,0.5794632716672543,-1.7773824201156803
73.0,0.14673806062797823,1.7015307555063774,1.5547926948784538,-0.8912189793795937,-0.6755675498143203,1.649177169564572,0.4936520887448914,-0.13745651058623443,3.8946696204344144,-0.23857174271067694,3.7077053939840394,3.227566299778315
74.0,-1.986537029438586,-10.296432430478532,-8.309895401039718,6.099351560236739,3.121215612561124,-9.283804806371144,4.65115416196862,5.995369674178292,2.8425098391065045,3.3123630513854603,3.276473078671813,4.409999729771173
75.0,-1.379578998910946,0.17177887442990825,1.551357873341181,0.6452566132613407,-1.4987142775679057,0.8029569823542184,0.41382315828140204,-0.6203817330754484,-2.502551930193541,-1.5456395796675542,-5.68276207509315,-1.03108498932927
76.0,-0.9382416814086761,3.4046436216977325,4.342885303106607,-1.2667266374441462,-2.669334044410027,3.8973941772307334,-0.24374738806813961,-3.684274802532745,-7.668359498150857,-4.354976235367583,-3.540285092736042,-1.0538499598794517
77.0,-3.4269609759724386,0.690643720602256,4.11760469657474,1.414434227537492,-3.7197069939658465,2.433866005003004,-3.0116887492004754,-4.934971494729421,-10.021519180562134,-4.44968078120588,-2.4805118594445283,-6.365456098411467
78.0,1.5465166700490418,12.21089813775516,10.664381467706095,-6.91426757120586,-4.504427409990786,11.396803729197716,-7.099989968576304,-8.034668671200755,-5.097454106749359,-3.978872182071257,-3.4715028138316626,-3.743763171934589
79.0,10.025841413155398,-3.662131108930889,-13.687972522086367,-3.224766184021745,11.83475381882892,-8.627931686484171,0.2526317396296527,7.814798341879597,11.448976177220775,9.513329262651526,9.036037842805111,9.80719367012771
80.0,1.0959962595845023,-32.408002848152194,-33.50399910773688,15.681498007176288,17.280247750857836,-32.978705929037226,12.484040655854603,13.02684122225446,17.76320713209316,13.220161422582219,12.714367525175692,11.135719706091125
81.0,-9.595691141267302,19.91288613546874,29.508577276735725,-5.144099589350402,-19.56944586559516,24.695376704495356,-3.3806224263376334,-4.697742072064933,-3.7361969131526402,-6.203575567397759,-2.0169120547083077,-13.783198949699564
82.0,-6.18709464395722,16.39130111064158,22.578395754598446,-5.096627358376023,-14.397806102489797,19.47429736521906,-2.908064754498139,-4.890124208942763,-2.9083637797480484,-1.579878046310922,-10.607286582692552,-13.426511286363164
83.0,6.499149659209008,-14.723925847802523,-21.22307550701175,4.112836237105082,13.848190631928187,-17.982319149822146,4.826573502871253,4.450815326548256,-4.314802963694326,-3.1088496657491484,0.8877581545173561,20.974337868224183
84.0,5.485611862884109,-8.523641830200372,-14.009253693084366,1.5192142334525556,9.815481051468636,-11.198034255135138,0.30923471699139726,0.24489424624093353,-1.5330590371542305,-5.603253537390655,-3.6782642554066207,1.1294356198134148
85.0,-1.0864387735663952,19.76818538761127,20.854624161178087,-9.336740916051156,-10.979031831811914,20.29630155571459,-5.950903813885053,-8.07386823021906,-6.89139871025124,-3.6803709187448495,-2.552442811075622,-10.878985181125469
86.0,-2.9472809181374755,-0.6469168342495539,2.300364083888523,1.8077172194983273,-2.630780095980345,0.8037926318404001,-2.405030173390999,-1.7286383744201634,0.5767755564079882,5.165851164265268,2.2391865858659084,-4.691669743788633
87.0,-1.2062281317319448,-11.17852558912401,-9.972297457391557,6.210090030716771,4.375957205803596,-10.608625651790772,2.063321520050372,1.126658508848912,6.185059114657962,4.870705220414755,4.128969853414106,8.046792325367651
88.0,3.0642792205440212,-0.9316838584371734,-3.995963078980941,-1.12104743023141,3.520409084905244,-2.4297492013169606,0.8385495926323587,3.7538436822544927,0.4162055485105194,-1.6106130453206178,-1.9607104865022307,-2.623533482671335
89.0,2.4534816492949605,-0.4773551077503848,-2.9308367570453195,-1.0376221277555395,2.6771211887673387,-1.6807096819136442,1.170855084613741,5.478997515910556,0.29577067480973085,-0.0755084460831672,-1.4976180091079292,3.735683519060848
90.0,-6.488971200564846,1.3093648797482327,7.798336080312799,2.6239122805218678,-7.166014263191238,4.490857869048078,2.195130284101766,1.0949618613276564,0.8567287921407809,2.187396411066904,5.692545878635777,3.2179129038332803
91.0,-4.177221874404765,-0.3407562030900151,3.8364656713143197,2.298940121849236,-3.9584653943775163,1.7610544044126788,0.3757385881508626,-1.8367010520656348,-0.07698231666518357,0.7802454034627865,1.6438989656108804,1.7711700423747083
92.0,6.448061651707723,4.621141594300663,-1.826920057407429,-5.487385717152028,4.178542025170804,1.413832148787408,-0.4314460230157418,-2.4275974086739405,1.4107194085677661,-1.8033774382030072,-1.737926756142472,-6.730053193365039
93.0,-2.0815524758036013,2.3453920137493007,4.426944489552688,-0.1556635739103185,-3.297652019827636,3.411856909453355,-4.389037529656252,-7.114430599382247,-2.4004098841678747,-2.5165803529153314,-1.629759195714743,-0.2883743437883908
94.0,6.138725013412536,3.2521837053233114,-2.886541308089253,-4.71299062108229,4.465462214520972,0.22043684824008541,-0.650544509887826,-1.5377784526330043,-2.883649002877543,-2.0458736741732695,-3.1501605601301237,-2.3187592456690256
95.0,0.1821378350000633,-5.743706740286587,-5.925844575286535,2.765546715558847,3.083508514916047,-5.864832435537115,0.8870489412300054,2.806212359212242,2.509740818139985,1.2512047290237558,-0.08498404445570085,-3.9251104797144483
96.0,-7.17403074149691,-4.646098195375391,2.527932546121749,5.891888081729854,-4.822458565887054,-1.0827889672749436,1.821684301425622,6.53805299945909,-1.1933439430970485,1.9037737625326612,3.082409651640596,3.7522261107965376
97.0,6.273012302921639,0.4590422856756735,-5.813970017245711,-3.3919462584283386,6.071181069050745,-2.701979951646957,2.726092537094417,5.844984550696685,0.28662491227749737,1.769147540018383,3.0942335760368964,7.790558098415295
98.0,-2.0792022460656656,-1.8273812960998534,0.25182094996607907,1.9957042437321302,-1.2181476246139584,-0.8202050467157814,0.09141822181564963,-2.0944941948300135,-0.5973203396521378,-2.634461868861869,-7.389741553553913,-1.829274759255525
99.0,-6.27655116771463,6.44829143959541,12.724842607310219,-0.05354774021408837,-9.477334525612662,9.620484503014085,-3.7674159856320792,-6.61426049785888,-0.6876312478040765,-0.17722359906371027,0.36174249704938255,-4.018210499909543
100.0,6.381101349626764,-6.3992868675749675,-12.780388217201631,-0.044356435832365704,9.521921531261633,-9.56869813947603,2.3122166655835796,1.169417711638581,6.725239922636661,5.723808321750184,4.145234559600536,3.4461626768989797
101.0,-0.8392305197054026,8.749439792085564,9.588670311790874,-3.932248609472181,-5.19664841804371,9.181123417541478,-2.2403673914224567,-5.955736162635961,-1.044137622215529,-5.406983249425149,-5.671309188860482,-2.9699102413846425
102.0,2.4529858458065297,4.216684948349423,1.7636991025426307,-3.3100401436221594,0.3621377964075443,2.9994945266785447,-2.9047620444549254,0.14760724977835515,-2.1856284415128497,-2.5650752863509125,1.5683402796989605,0.7710767105019105
103.0,-2.0082843754525768,-7.171757083781399,-5.163472708329147,4.619395537310273,1.599722129024695,-6.154367742671231,3.800541630544678,4.65833154727285,-4.671368583081278,3.5196040278959666,7.6675592592023065,2.5914474987441345
104.0,-4.794993965967086,-7.998239481971984,-3.203245516005103,6.351910356986279,-0.7642638108415638,-5.657214404868562,2.440937576776304,4.014555565510417,-1.627436686199117,0.08027049421923171,1.3964025069987822,-5.1306039696237775
105.0,-3.032578731891295,-4.624064238684944,-1.591485506793647,3.786121737486148,-0.7544741838138546,-3.074225250018745,2.9286813798439364,2.0004943032647127,3.1531138166572372,1.7540654875099602,-3.544407867602783,1.9110608861293872
106.0,6.8869286554690685,8.614002356864429,1.7270737013955735,-7.714519545630694,2.560656996676565,5.135810969474361,-4.797222557340018,-4.658918400625932,1.2918316254594517,-3.93098106000133,-4.638378206206584,-0.9761199832754683
107.0,4.753128496569454,7.952690177395906,3.199561680826669,-6.398672887159928,0.7709500831885793,5.627473308385918,-3.7638180208450343,-2.820628278400366,3.9984564868264187,-0.9720640831241125,-1.7349500969927054,0.2309742023514971
108.0,-0.9590668993126275,5.238377771160719,6.1974446704736295,-2.109928968635804,-3.574151881157862,5.693579613275117,0.33261707341889624,-2.2399486090473433,-0.8044260288834875,2.1805169919596823,-0.07673686496527243,2.0023586630411727
109.0,0.60711512380483,-5.8118985793029525,-6.419013703107629,2.630918180336531,3.5221432250023383,-6.140635351328422,3.0835394316182763,5.750193387938734,3.2358458409441613,5.385581288939279,5.0203290220704595,3.3720226926376986
110.0,-5.705399934985037,-6.304713602998663,-0.5993136680137439,6.036033846809492,-2.5445251118872285,-3.480391257330477,0.849599211119944,2.9102045096722877,-3.369582771571751,0.7750124919114516,5.618024732341869,0.7207731596886087
111.0,-0.0990583330647703,-2.306262739866974,-2.207204406802524,1.1611619536619933,1.0566919793508764,-2.2097383447981622,-0.029938902734349737,-1.2313260413108507,-4.269704313779943,-4.6563643581640255,-4.874934608915814,-8.28019684620442
112.0,-2.4791241156674397,-3.174277234669502,-0.6951531190024183,2.7940665749247837,-0.8997648042425779,-1.8894030013590613,-1.273794891066017,-4.93814065804772,-7.638846014836968,-7.238180811353498,-10.16458359020722,-7.816203371247493
113.0,3.380819772304977,6.927615644213359,3.5467958719081247,-5.098758273058565,-0.10426688850383259,5.204554839846056,0.3560079075589185,-0.5276689294273507,-0.8476279328015219,-1.7041242054472363,-0.25245567793145884,7.829639292672659
114.0,3.361862336797599,6.51649920924385,3.154636872446228,-4.954911830032945,0.14634124718804195,4.805552930374644,-1.4687863860353003,-1.9338322982180072,9.490024216520087,6.779421006246667,12.110765467702192,10.233244166025196
115.0,-5.4905753527990395,-3.563959136198478,1.926616216600604,4.515570248943101,-3.7584853419630164,-0.7671640647791023,2.2279705883878873,3.5812974940579534,7.143904030293793,4.832111956275876,4.727456342655424,1.627009416674241
116.0,2.1143556279395512,-5.0685536114531455,-7.18290923939253,1.4651790398083508,4.666543792750225,-6.152159302204048,0.1353358989476392,2.0796090061666526,1.456519252915097,3.157282909094442,0.4225508702997378,-3.0439118746735994
117.0,2.622300375009248,0.7696651588728038,-1.8526352161361948,-1.7119165663538847,2.2489031773996047,-0.5707272381855073,0.8453201732379024,1.3488328945287507,-2.9691478429241034,-1.9444422006911473,-9.097077358224343,-4.165200192250759
118.0,4.070085002993414,-1.920329069086105,-5.990414072079291,-1.0183964905347025,5.0403644058900285,-3.9129149766660305,-0.7964150053682018,2.507423352977273,-3.1406355517468647,-5.5103495888883645,-6.37182792382412,-7.629256987841727
119.0,-14.725609296973403,-2.0051134980496412,12.720495798923864,8.336396017535499,-13.70947635526703,5.310851511759692,0.3251495535626161,-4.9911561077928095,-6.2312534557542065,-3.219242882631651,-0.9692791055118075,-2.3160729676896485
120.0,9.549102889507648,9.216704682583089,-0.33239820692471955,-9.4171207675479,4.882508800307378,4.461959384739997,-3.4852998996476665,-2.611291157165064,-0.5008353996661765,0.23075299351307565,6.43155574546789,5.090668752159692
121.0,-0.8334336321405345,2.4400555404446074,3.273489172584907,-0.7614893041537414,-2.024425853888812,2.865506875187572,-0.5630874954764609,1.9488370685349004,2.7894441505474656,1.2351613185131811,2.476679599474201,6.307880621795597
122.0,2.6292544165895766,-4.666278344394725,-7.2955327609845275,1.0602155086771357,4.999580404983962,-5.979714947893429,2.46085552689338,-0.9074849006958414,2.2787849088858927,2.409248961121628,-0.33269842459929677,-0.13645385400504484
123.0,-4.563020893314273,-3.030889468942039,1.5321314243721211,3.761432628288444,-3.082994175601536,-0.750516730529045,0.5980882803097975,0.803711387631463,-0.7087676547527344,0.02065406207007192,-1.302678085865411,-0.7599208044185792
124.0,2.815485569033299,-2.3234028171709653,-5.138888386204249,-0.2798895965696224,3.944968334533737,-3.7289713960240514,0.4937258230169086,-0.5060450760896935,-0.2810631085211772,3.258149738130315,2.8785008398765637,-0.4299354804684288
125.0,2.13695786270992,3.481882377638969,1.3449245149291165,-2.763993711887027,0.4427422983106233,2.423612425660693,-1.2285929418427322,1.477848608039706,0.9738946744935102,2.0778887779378996,2.9343760151009537,1.6510814753325787
126.0,-0.1283450492367577,2.94142750982836,3.069772559065205,-1.4409463274245795,-1.6331348155134728,3.026616205704045,1.5226698738899784,1.0783197698387823,3.5814632167147415,-3.268622673733911,-1.2296724263549432,0.946684292702942
127.0,-4.704785340333362,-3.2110257401376194,1.4937596001958011,3.9214526066993622,-3.057629920575918,-0.9051722431448848,0.8435211059315876,2.802930990365387,0.18331125236161117,-3.0329078727723946,-0.7304723560477644,-2.8893764850964754
128.0,-1.5031366321663389,3.1624514318946897,4.665588064061069,-0.7889119654061372,-3.124134687106894,3.8769138886652383,-2.599796892119854,-3.056009558342365,0.5347192818916577,-0.18300499195748943,-4.2159466863613515,-5.014792520731901
129.0,-2.247006892938618,-0.3210630177046673,1.9259438752340143,1.3253222669076563,-2.048748899271261,0.8503134990459148,0.18298595468445833,-5.414806588935224,-7.395676926202334,-3.7077254097331007,-10.456461175192436,-1.1060830405778428
130.0,3.1910271708523923,-3.143236022139481,-6.334263192991893,-0.05777558957614159,4.722292233780329,-4.688455210071513,-0.34996056484174476,0.0729463128818022,-3.894928683269201,-2.351827215840851,0.12546803220303415,1.2819187876720308
131.0,3.1278482464524613,-9.462190294437177,-12.59003854088973,3.139694167899005,7.899822837678515,-11.055789403775831,4.808919453147217,4.393387619904435,2.846161435468243,6.097146909813975,7.555345035240411,2.87604444786
132.0,2.939394762156007,7.79604393415374,4.856649171997618,-5.308668201137506,-0.9928536963503753,6.292695358120832,-2.4037302641582947,2.763244476874193,4.845468216223504,8.470569710237752,10.03127691675859,2.999631701997568
133.0,0.540687364608363,7.568108145194866,7.027420780586466,-4.067232946803777,-3.194999825444448,7.258938140542023,-3.4579342731656504,0.248938266046685,1.2504779452061592,-0.14202378619360667,1.9837880307993139,-0.33332557987249967
134.0,-2.408870809847328,-2.3154363258111217,0.09343448403624777,2.352841782405924,-1.2784159140840745,-1.0754986623936178,-1.5094556285296696,-2.1020637802261617,-2.618999190721069,-7.112686682679506,-3.5676009164927858,0.6362810569391144
135.0,-0.5219500546220948,-0.6377112701825964,-0.1157612155603931,0.5689962412500313,-0.22846731854275948,-0.34320244037237546,-0.2048016390492347,-2.8084925903729574,3.2135965114465517,0.8374769398716797,0.5138813014750134,-0.056628079525611
136.0,-3.071517382443437,1.74321856183051,4.814735944274069,0.6464765830881043,-3.9677152411140257,3.3136822275127793,1.0633974933917916,-0.5226070329260597,1.728546855546628,-3.2869597137441717,-5.480934916154309,-1.0444911269780512
137.0,-0.27060077640471625,-1.4025776710679874,-1.131976894663245,0.808161106699016,0.48514417353180184,-1.3077241842410032,3.5163084851357307,1.7570246548221722,-2.643830920757975,-1.0925550059687563,-4.280547287418702,1.348283262736918
138.0,-2.717490228554656,-2.341268943269073,0.3762212852855469,2.5676602285172665,-1.5707097041563298,-1.0187959793192385,4.749232516140213,1.4064210260201548,-0.4215481126410383,0.045221863050285416,-2.6427368581400175,-2.9419247710969167
139.0,4.4177948300762715,-7.099152019050831,-11.516946849127212,1.368532275667061,8.022973022495881,-9.263058756674337,-0.8406632176243369,0.39085561620499754,-5.931420665777225,2.8085963861331176,3.9927267833996978,-3.896631192311946
140.0,-0.6052220420724153,-4.713744100130214,-4.108522058057895,2.680648762960447,1.7288645848092696,-4.445840471668671,-2.123462056265678,-3.2879003047682094,-3.8854783309289163,0.5675012420976964,0.3481846601185681,-4.796648963581428
141.0,0.32000664437899484,7.9360636698503715,7.616057025471353,-4.187860249083822,-3.6718559494052534,7.814920099929266,-5.3868720448209135,-1.4579688642694344,3.4296062110375742,1.7926873446437486,3.0341826388177946,5.068327757305531
142.0,4.104269535342325,11.300399188492905,7.196129653150605,-7.681934469377538,-1.5731208322062802,9.199443810932102,-1.532556561099701,3.4040614972988457,3.9845322961129876,-1.380305726662856,-0.34245287444551087,7.994063314577968
143.0,2.5213299112656213,7.7606944215575835,5.2393645102919955,-5.117137434479032,-1.3133133526398195,6.518924517587523,-0.4370241137763151,3.9969718985693476,8.244500432460118,1.5071674289721537,5.367063102921601,5.564959883459872
144.0,1.6703729592726935,-1.6221207684170915,-3.292493727689738,-0.07558540188037721,2.440797182803949,-2.4491576260354826,7.6582752638482585,4.463822246807512,3.7226807668395225,6.119945022109775,5.532261561985417,-0.13724484292687533
145.0,-12.996707313543453,-14.165758055425886,-1.1690507418824052,13.610079274622546,-5.883534700644786,-7.667185046880375,1.9992042824770184,-3.4354190746952282,0.61965915638368,-1.4334210270933962,-3.9200099407379483,-9.87808207194076
146.0,-4.57428471299653,-3.5043493815813296,1.0699353314152085,4.066760700663558,-2.798063429335356,-1.2201002871232616,-6.716216973673756,-14.345598735222643,-18.58165551390979,-15.242738803837414,-16.710148084272973,-11.30044449401437
147.0,3.6268004874075905,-23.39286007358043,-27.019660560988044,9.827211888188174,15.26547492685041,-25.206485579180658,-3.505342171553833,0.7043896107260696,-2.8371545003339236,-0.6248875835549299,-0.7017415150585897,5.032184777181732
148.0,3.191101455338819,8.148848755425263,4.95774730008638,-5.653833976726581,-0.8611314857294907,6.561193782370468,4.531496085122492,2.9103407826144814,3.733492843412634,3.3362345528872615,1.3469506898372279,6.134213311520795
149.0,6.614484542548351,21.092076683912083,14.47759214136364,-13.84460901809952,-3.903689912430514,17.804753195820034,3.107686138450155,6.930225921724628,5.323095603313252,9.130986270319614,10.524783369793381,5.473731183839733
150.0,0.5844982354570627,5.088568630412107,4.504070394955016,-2.8340664459731437,-2.0012530320285213,4.751020140088736,-1.270104165118538,5.8148077595423375,1.9288761760881101,0.5324487013636006,3.2639405027125727,-0.9645119249541794
151.0,4.947695748773016,6.387950888260653,1.4402551394876975,-5.668547167696179,1.8025518306530635,3.95997608147573,1.9904183099802755,0.9137026593668365,1.3350138520357264,1.657532185463808,3.2219450072979057,-0.1036528629758432
152.0,-1.3482409574403507,11.574370004058332,12.922610961498787,-5.112881569519028,-7.153850922556871,12.224776450477151,-1.6788337139735097,-3.952094541461001,0.27395258657798016,-3.7688576400951,-0.5298785756661044,-1.1101838087211013
153.0,-8.767246266141713,-1.7465076390709091,7.020738627070911,5.2622152614210425,-7.903175333924654,2.6181887809154594,-3.245268480592763,-5.947445945952422,-3.894724672207063,-2.741669045284381,-5.797352797789118,-6.1501228991051216
154.0,-11.3394961610242,-24.047090900940738,-12.707594739916441,17.707234990494314,0.6802912958500378,-18.39569094041238,-0.06386629019227152,-4.572736151437796,3.657461549978815,2.5985965081070628,-7.392073524407115,-5.581403034873902
155.0,6.161734292353779,-21.74835642011793,-27.910090712471625,7.739001402108801,17.03332978816864,-24.77117964426776,-0.0789265371068375,2.588283382938025,0.336408782565871,-3.9354543214988715,-0.35582108830221415,8.01252176051641
156.0,5.865011247449075,-0.31035588171261175,-6.175367129161636,-2.7424586185490227,6.015381222077586,-3.2670330285094185,0.055892167829708295,1.4567842591832196,-2.725157034048303,-2.0762698125047243,-0.9721336620576297,-0.7827869126295495
157.0,1.212487510003995,2.6683272687342066,1.4558397587302183,-1.897163548910755,-0.1302826524539773,2.0350269072352525,1.3712864477843456,2.1430850546674973,-4.654344700960138,4.292246316380845,6.699715351173878,5.212218772333933
158.0,1.1306454944918194,15.924998136811805,14.794352642319945,-8.558574532379426,-6.8437167658963025,15.410018762875307,2.827615993983464,2.8893008746010045,1.2965767388251783,3.021513874880876,7.161747911111864,1.1308333058553568
159.0,3.5646694945264703,10.069957228274015,6.505287733747474,-6.847634175281623,-1.404586212665805,8.259314891031782,4.904905423963136,6.990386562843877,3.4992651845913265,3.2799756045579214,0.39483367979435036,1.63165434133515
160.0,2.0618700896198323,11.672625383766647,9.610755294146738,-6.900984786439275,-3.786222675105514,10.692636031163808,-4.226864480949301,-6.158465412026028,2.6149182642053157,-4.919473442194583,-3.8776828938254573,-5.7679254207510215
161.0,-6.42235014966109,0.33928407877341726,6.7616342284344775,3.080833780630604,-6.601178204362929,3.5220584776059383,-8.469631302485036,-5.015271949478673,-0.2701220684499228,-3.1141030580711258,-8.508204028993848,-4.752308921717097
162.0,-8.955356911337091,-2.0270721785845263,6.928284732752585,5.524567624478782,-7.949030336109057,2.4193234460196744,-3.428558250187957,-5.433904305557565,-1.6109828478190205,-3.5807780988481186,-2.7000705843905113,0.3393670989853592
163.0,-8.863515797934404,-16.092263310941146,-7.228747513006675,12.506868541869952,-0.8252082806086005,-11.697124415134256,3.877111150598295,-1.9209686468021885,-4.665964562185764,-1.808549184604975,1.7836367353003717,-4.248875077016105
164.0,14.484401719106675,-19.955720679143646,-34.440122398250274,2.684134664105704,24.450125401215182,-27.162514352362134,11.273057360675026,11.192411387349033,6.223509053722195,9.674906282372145,8.341343698986957,12.111435100243762
165.0,7.6379506640241015,15.339222305836163,7.701271641812049,-11.539035689928948,-0.051576090341136194,11.549420739605864,-1.237016507061826,-1.5292050689551795,-4.2679002938187125,1.9250070492452362,5.025736078209109,3.1919559611505486
166.0,1.921341678657173,-0.3553389056009353,-2.276680584258166,-0.7512654327492605,2.148062677873383,-1.2906944471610315,-1.2890391765437752,4.950085430327658,-1.8102424501589962,-0.43448334343101713,-1.6218618515372598,-6.29127351628863
167.0,5.511122677988774,1.2703565758003164,-4.240766102188513,-3.3542526443813085,4.836556137912435,-1.5389401985483033,-1.8912417579209635,1.2492175672201564,3.0444129079984164,2.537246016037483,4.894301319733213,-0.8440384710014046
168.0,-6.730506053068925,7.057790027141181,13.788296080210088,-0.12264633040685657,-10.22770266338202,10.451499488065123,-0.7651749001291879,-4.998079668688692,3.015625821100591,-4.446599397605475,-13.920180696498083,-1.6731783394427415
169.0,-9.833739422881878,6.076117485531272,15.909856908413161,1.8435452817327271,-12.844624199029191,10.949146436707014,-3.150897185003087,-4.874959699798358,2.1120892761427505,-7.569488096537303,-6.534402913849324,2.404116781857265
170.0,-2.4802224814252787,-0.5872098939814858,1.8930125874438204,1.497599124874563,-2.2395561130565156,0.6958574547447922,-3.9055483916045453,0.024692343398839522,-0.7091755140215119,4.940094291928328,1.9506138823939678,1.0101349291618387
171.0,-2.6850828798156345,-9.394473054667545,-6.709390174851892,5.999375745125337,2.038884348138397,-8.07995856486341,-3.1359366328285185,-4.219633179982872,-7.2004596662575695,-4.528543026745313,1.6893683126706251,-7.066066877750215
172.0,1.559715126985619,-8.851703290652896,-10.411418417638501,3.6780680817368205,6.014236928021995,-9.575428870264656,9.843252449494635,4.897217832929793,-1.6163774588039304,2.6351606906896707,10.56118465866072,7.980347411698968
173.0,-2.6144753514388674,-0.4733231776664457,2.1411521737724435,1.5702300696611318,-2.4259538815592885,0.8124583041679605,0.9779249451182315,4.218957887284111,0.340656107273563,0.5784263968437122,0.2737057007025552,-6.2076040885106
174.0,6.4807263767409236,7.558201727382885,1.0774753506419978,-6.995799610175496,2.655101254688104,4.292152121278397,4.676134106632269,-1.2587050714092234,5.178299596638677,3.0253888856929247,-0.3960611728333656,-0.6266748901283464
175.0,11.63421260473782,7.758031756193553,-3.876180848544258,-9.74930931259118,7.789124397906994,1.905745206561638,1.076365538044935,1.6314427472380526,2.9227053258938627,4.999062630633622,0.33884628667286676,2.9762016863944396
176.0,9.377133561888668,5.166378120569544,-4.210755441319147,-7.239938854632273,6.830356716296136,0.5082078579987571,-3.469478806539005,6.828943743228171,2.942667251691682,4.37630867057289,-1.4503637737059998,7.95193582337374
177.0,-2.0208138975307386,-2.9170173541078768,-0.8962034565771936,2.5094414404448537,-0.5223060240288082,-1.8903866651768477,-2.8721966384230146,-4.500599503782562,-4.01766634991732,-7.268868513426861,-1.1907757146783737,7.191072513710442
178.0,-9.745222665882268,-2.5370080918545925,7.208214574027624,6.111075227333313,-8.511224617363478,2.3396542052353357,-6.269188503768186,-8.120656048265147,-5.140147353388966,-8.045751375828925,-5.850182909489769,-9.459375492742993
179.0,-12.798407803256685,-3.7251755588894713,9.07323224436719,8.236388727595283,-10.966443142983287,2.6703960005238243,-4.1311495542001655,-1.0601314632615941,-1.0545608186194362,-0.6562928301221023,-3.536295212376526,-11.466767254113885
180.0,-9.561657320009868,-9.166527144181764,0.39513017582808896,9.337820014862322,-5.006493942315767,-4.391105301445523,2.2582826357196373,-1.968637490270045,-2.3720472368432124,-2.4059327218533224,2.462239047353563,-4.734193581733186
181.0,-1.0213276290637086,-4.304578694944054,-3.2832510658803455,2.7088805029855094,1.1823343558515131,-3.795016861537427,8.28256417002672,1.2628229532740802,2.8071210604746377,3.1692213138740493,4.500089837194117,2.4305792443894436
182.0,9.921580326414798,10.857820816624727,0.936240490209951,-10.433109654093883,4.464470653033784,5.90537687839948,3.914184302983278,6.0706639598323004,3.6572504700296076,5.535478347398978,1.1397092794027572,2.849177487499284
183.0,14.050041677533553,7.190711854135306,-6.8593298233982,-10.596823534807417,10.503587474606933,0.1869417846663035,-0.9197269162448602,3.5941254373458786,5.818759972587828,7.33783567017442,2.378710508518716,11.170287584956931
184.0,3.7970816238506533,-3.5192411790949594,-7.316322802945569,-0.1253335494481238,5.525210496307609,-5.4608974597758255,-5.946745603041421,-1.3850462669383359,-0.49212694760617604,0.4488624682293705,1.4549570139784853,7.7483339934660505
185.0,-2.340463685430653,-4.656967519976002,-2.316503834545334,3.5063896997300446,-0.04442012778742033,-3.5158276288738057,4.197503290841587,1.4580187261865074,-1.49133774535506,-4.373953153499729,-0.7238986745893643,-1.477922590537331
186.0,-1.3107074376855579,4.8325517122389705,6.143259149924524,-1.7542610107983543,-3.68053143102799,5.549760879430158,0.268718565008923,-0.8896556604451072,-3.221636944810159,-4.024465199540411,0.18886019084242145,-5.4281180679530445
187.0,-7.288318700991734,-2.899982977063572,4.388335723928113,5.104131303559915,-5.869401036805591,0.7365537860272293,-3.8050758173809505,-7.08593143954388,-4.966512867825238,-6.988718117948381,-6.017503811271248,-9.502066148619372
188.0,-1.2966216259674788,0.7302765226062182,2.0268981485736335,0.22056116850114238,-1.612253499397247,1.376472245987152,0.93752617234182,1.1536145375826545,-1.5529411728051064,1.8602244571177233,-2.1013460370046273,-4.083515194654161
189.0,-0.38419446638738597,2.97464926335972,3.358843729747033,-1.2717994464548101,-1.8991917347069012,3.1658032061880568,-1.8128400631458448,1.2526535094154316,1.4380190140690408,0.8604214387626827,-0.5148238596940977,2.2152498741404743
190.0,-2.687271647461216,0.716939465663085,3.404211113124207,1.015687813308983,-3.0730750375533185,2.056353121146544,1.2709912556444671,-1.823711705396903,0.49116594676121483,4.405744454872714,3.584088066619451,0.06376422732424225
191.0,1.4662100337840904,-6.956898177125895,-8.423108210910044,2.703356445731456,4.994501587495794,-7.701376092530092,2.294012332244185,4.376437411798201,9.71316188313295,9.091877808257337,7.862600124506169,7.543144954112661
192.0,2.3637392438848,-1.6144748314905555,-3.9782140753753454,-0.33246884343232563,3.1385300885065233,-2.817386811531351,-4.137750790629394,-0.16222008877513527,-2.515115350927891,-2.7683811184821945,-1.855476239657217,-1.5447341845409799
193.0,2.987029500313205,6.272853621659638,3.285824121346497,-4.661461587781253,-0.18666339301259116,4.826778557742461,-1.657517461032179,-1.7266070178247062,-0.23780925709228135,-7.242723737741324,-6.320227156452082,3.748514433265963
194.0,0.9919307596414177,4.316319909766578,3.3243891501252927,-2.680212048682807,-1.1296270574509897,3.7802002840125324,4.404663661960515,-1.470983579983068,-3.072084868261706,-8.338244604784286,-9.005540301562807,0.28979470078528724
195.0,-1.8467210650118553,-6.178248392953529,-4.331527327941513,4.0714633673818925,1.2753364670193266,-5.222127814312385,2.4651310140282154,2.803132983171524,-4.690829074764741,2.506164751661208,5.986015049654589,-2.695811755887182
196.0,-0.6521686745869363,-5.166063700963416,-4.5138950263763915,2.896492856930439,1.883369273209813,-4.809284189822331,0.7171894280439404,1.985069896691818,3.009495652550812,9.339426224317506,8.698266843974357,-0.6915890802385412
197.0,1.5336169764391239,0.9188147538728613,-0.6148022225662655,-1.2316776936637333,1.1057079620810792,0.10552399326602968,-4.414584516898633,-0.38303864052480774,-0.14478210703254712,2.1012492500197983,0.9290003681885071,-1.4434980521468461
198.0,-6.995258993317881,7.306868063723568,14.302127057041348,-0.15556414883411837,-10.615924549962871,10.762402677698189,-1.3148573879236778,-4.746278637320329,1.61992766944142,-5.101107730093579,-5.159185792313062,-6.388657437482122
199.0,4.150057927135339,3.4229676257472086,-0.7270903013882881,-3.7837226175316743,2.393589245096888,1.3905812415183734,2.2449884203011323,1.0687641331069304,1.685464042548729,0.2664190957841015,1.788195924384672,4.850165356658274
