Time(ms),I,II,III,aVR,aVL,aVF,V1,V2,V3,V4,V5,V6
-200.0,4.418666930413626,8.558516367507895,4.139849437094112,-6.525605439670979,0.11533882091533129,6.387822230028309,-8.956117499237374,-11.56486962586074,-12.09282349216906,-5.257606182489353,0.03770792232165032,5.050874420953133
-199.0,22.89754585588714,28.30945056750252,5.411904711614609,-25.566719894849076,8.72865415464658,16.82257242054152,-21.527771615708495,-16.33458975809161,-20.60198491637379,3.7577311254887373,9.928844306732378,13.088042183646458
-198.0,1.7336804568566215,25.50147635085382,23.767795893996553,-13.664045793406459,-11.02606799011362,24.682147720259927,-4.582743711372049,-8.410660162033054,-1.4352864406630346,12.548319400861747,17.94767552105597,9.041852287951867
-197.0,-0.514442941990958,13.897780003895955,14.412222945886588,-6.742130680167087,-7.393300001773065,14.133503143814636,-0.8720601915938622,1.6444098596335879,12.918824695743032,16.93575166891103,18.01481928015384,10.203199862503787
-196.0,4.758881659373193,-10.0781580648022,-14.837039724175416,2.6849585298701824,9.785678544930565,-12.46911919753834,-6.607629805943081,3.6186036319710126,11.030661694347137,9.08684792131407,11.876678952138146,8.12127893450602
-195.0,9.416081041639789,-47.61033664692673,-57.02641768856661,19.12140080562882,33.203206692486425,-52.32216363855653,1.3422415925208626,13.409548339439988,3.6545971114351516,-23.09007678066364,-29.940569835610397,-22.858119596941886
-194.0,-6.769098560367423,-56.437331918553106,-49.66823335818578,31.62904809134584,21.425518191975513,-53.05272799254508,21.81630596311831,16.22080840229625,-1.3540328620540043,-32.192159378829984,-40.865848799383045,-30.505732353032386
-193.0,-36.01248327594572,-15.073267822618009,20.939215453327616,25.572809965227933,-28.504259662534,2.932504487337276,18.164380659747472,-7.398227787849455,-25.029049573533143,-29.6328250758048,-26.77336816031877,-13.900768571948817
-192.0,-19.924774469656963,22.018106952481745,41.942881422138754,-1.089721194704154,-30.884851635423892,31.975770714891702,0.9720699624692859,-13.724046026721378,-18.71404645656125,-2.378400241293841,8.063031267218195,14.023936142157659
-191.0,10.25293284276405,40.849501385259856,30.596568542496072,-25.58808636805517,-10.120955304766351,35.711668513781184,-11.02612594228347,-1.7028365246045691,12.499593205217979,23.2298347193342,20.287938457546602,10.435673343266723
-190.0,23.876386010156224,32.00833555241556,8.131949542259797,-27.97360286269744,7.848322547195483,20.129993426356414,-6.250277157661591,10.257604801775988,35.30059042685337,36.73582252684249,24.008649187103554,5.503279410006115
-189.0,37.163563483401006,25.86397286561852,-11.299590617781956,-31.461672823779825,24.21154288725102,7.256061672370411,-14.36565562389779,7.240815753836344,29.569632022920295,43.99588477060901,29.817453654703726,12.329878411644325
-188.0,20.23717365624277,-0.04219946168066535,-20.279373117922976,-10.042050845503086,20.239508367502463,-10.193158341751523,-14.717784397268494,0.5893680671864203,0.26065261545939933,3.157228319312587,5.650310529358446,9.393021157765787
-187.0,-12.602917806533455,-18.154262907720987,-5.551345101187216,15.35707158445717,-3.5475765679090667,-11.811419372732017,6.649681179059114,-3.6012063230724003,-23.529326574400088,-25.973845610126183,-7.835143204815093,5.777770345512616
-186.0,-31.4250216401715,-30.199843257140238,1.2251783830314587,30.79071930880295,-16.275798604864146,-14.528388137279162,12.420715575869426,-13.224775262807348,-30.953331844045962,-33.02712976038396,-19.874892374775673,-9.94629723382555
-185.0,-31.926308603995302,-25.389844247091556,6.5364643569038385,28.633956420402903,-19.272107019674667,-9.391364350419869,11.041874439536707,-16.683464791254654,-26.884915367074257,-28.003402420507783,-21.533484348795085,-10.268990271622554
-184.0,-10.69166878101828,-7.33265902985757,3.359009751160507,8.983860629205722,-7.000307029508312,-2.0312669936157626,2.5917190701636557,0.13660843908178677,-0.8130347969639882,-6.942652589700192,-8.352601138016478,-12.336690967633125
-183.0,12.427211527511755,16.32929206682015,3.902080539307816,-14.332583425799054,4.27495915489828,10.150301350259028,-3.34486404496639,8.238272329382792,17.794854805623935,12.664691354896156,2.382643979449547,-1.9930373487663449
-182.0,16.621032512638443,19.72817068814085,3.107138175501722,-18.1327613736947,6.758780721660484,11.453733587256774,-8.696471377806978,8.488817930445725,21.80781511630037,20.226333800419795,11.003274052631552,3.915724360908933
-181.0,19.75632229424546,10.328619167423627,-9.427703126822268,-15.080936639113558,14.586460113305057,0.4100984303016757,-8.431487588165385,14.552783037976788,18.055231218528778,15.176556627325876,6.194527083594222,3.213030136048582
-180.0,3.974131281381837,-8.831312147637547,-12.805443429019274,2.3914896888218884,8.380551421070374,-10.855896521054751,13.882081475253047,11.248363032970916,3.6496681986757302,1.9663036784658239,2.4499313269838225,2.452392192312816
-179.0,-7.282256564292268,-7.5188298949878005,-0.2365733306948039,7.4462715778676225,-3.531871537065829,-3.8332801636606577,12.91012243324401,-3.3300938403396505,-10.437190292532541,-2.0319030459515774,3.98585290558312,2.1132795580418042
-178.0,-3.1186291452627994,7.307496381425784,10.42612552668956,-2.1217209231597884,-6.777302593394679,8.83595915604452,-16.456908207824522,-10.945122427144877,-7.675996057741333,-0.4117742698730904,3.1231929731323156,3.7105912275480395
-177.0,-3.038097328488191,3.675295997095452,6.713393325584313,-0.26150277159542235,-4.87288242170676,5.245849021006108,-9.709739017091572,-15.367523204470068,-8.46092317285496,-4.320866260981741,-0.13630533944021575,3.5400781818989424
-176.0,-1.860292631709676,-3.7745553510247203,-1.9142627193147579,2.799238797986619,0.04064001052998645,-2.8683992991003247,-0.4052451604412566,-3.671223327493305,-3.055610053839507,-5.5317741767198525,-7.765670762166656,-3.3974171898545427
-175.0,-2.77965776764363,-7.395276159031246,-4.615618391387831,5.068873997887323,0.9440400963761642,-6.0273689121753655,10.011076018774379,3.6616679235345826,6.682340929672539,-3.2173661636975996,-1.6145841513356007,-2.8446890251153656
-174.0,-5.0327265737299225,-5.444930380640673,-0.4122038069110583,5.215348581317846,-2.351050349587191,-2.8718077309752026,10.413989483196321,3.7531631558994762,2.4780514589944187,-1.0346115091995154,-2.335447598216623,-2.4655015764315236
-173.0,0.025357904441160706,10.302351883277879,10.276993978836384,-5.195749730529183,-5.0789407706618945,10.264846534950593,-5.295289298904625,-2.188171766673654,-3.647101713403873,2.3450197669977415,2.3624915483585096,1.3778578219280466
-172.0,3.1711638382734546,8.279650162235122,5.108486323961319,-5.6881884530467115,-0.9967692274236016,6.663788185511938,-3.2635987959500374,6.982200816263635,-0.5313241339121004,3.0752452191567867,4.279419179394237,2.476485628541595
-171.0,7.651210435400018,-3.0368622835180696,-10.688072718918292,-2.277993540399943,9.139068752852353,-6.899662925631866,-4.304984105998361,5.480380071308361,-1.4761592185054522,0.49947851915332064,0.7012199158422368,-1.3344208803351236
-170.0,5.650173251056276,-9.95516545157622,-15.605338702632501,2.177495812574822,10.66780961608737,-12.745149380398042,-2.905222216183329,2.713916316985729,0.5338638724448481,-2.824799877642339,-6.975037091453776,-4.623917883845963
-169.0,-2.4362003176934115,-5.735130093243068,-3.298929775549512,4.032523558300805,0.3811877410883202,-4.485952291325587,0.5959345955743928,-5.874732925223572,-0.43860937863777893,-6.397265760301622,-6.520072619864607,-4.310076517603649
-168.0,-8.242908079232631,4.394892171761571,12.637800250994411,1.9544719355732625,-10.423096237474994,8.546944264188175,4.390462192967258,-5.842145190194352,3.902884451720323,3.674656649078348,6.702562540666982,6.038616809098145
-167.0,-3.9071750872520825,7.842429470667134,11.749604557919437,-2.008445297274096,-7.818538202638981,9.750700246643394,-0.5778099658041893,-6.095922614889533,2.225509575633129,5.6721385890377585,5.551063441799458,5.447857052443709
-166.0,-0.4627627811357957,0.32961241200102886,0.7923751931369907,0.1124719703693029,-0.6184428186770061,0.5991948595477545,3.3066018859775004,8.221545818953164,3.7131043490467275,2.9134451896246616,-0.1768741699005032,0.3115908704154524
-165.0,5.1725936338511245,-3.1629359011540297,-8.335529535005122,-1.0312358414606626,6.769981175614497,-5.784830651140215,2.2198738473364195,8.297943457406443,-1.6070703204618642,1.0491838291809836,1.2602609632924806,1.29926411305068
-164.0,4.985323979713178,0.41194828821156104,-4.573375691501722,-2.721605419497948,4.80814567453614,-2.1123822316008565,1.9442473046704403,-0.7510263436498144,-2.9752646431916734,-2.804892604097705,0.9877814565257478,-2.117985418689794
-163.0,-1.4478781082157601,-1.5208952549299175,-0.07301714671432036,1.5398692530194853,-0.7216691639573116,-0.8258594623566644,-0.297453846003112,-5.89250907077812,-2.1361560949052567,-2.254961645151647,-2.0196888024305832,-5.292474931991388
-162.0,1.8308699801562909,4.117497907529311,2.286627927372872,-3.0013968518483543,-0.24749488754621385,3.2542528274343425,-8.143986902754841,-6.4923038015519285,-2.629546247462865,-1.991940872714462,-5.139930662184313,-1.7696946301905205
-161.0,-8.731797291548343,-4.67260455564595,4.059192735902303,6.668201107325813,-6.404890785535105,-0.2517129073144825,-3.2740842517009394,-0.3411198560754758,0.03467926333046045,0.9038598974075889,-1.7342323916852904,2.335902574206982
-160.0,-3.087034673099807,3.3256169753411378,6.412651648440936,-0.08286517934832327,-4.755157720936736,4.84887804511631,1.0715684735685036,0.898992122652112,0.6446773554579248,-1.589585829949118,1.662814815117346,0.6352426607568525
-159.0,3.4909595492939784,1.307894092279392,-2.1830654570144876,-2.3713728143691317,2.8297275019663037,-0.45431596119038065,-1.1648361734252943,4.145942791438069,-2.251082099526985,-0.005182334446160161,2.0636957884936447,0.4015616279421197
-158.0,5.607909928226233,-3.926046273627966,-9.533956201854076,-0.8987115044944859,7.6358669717925585,-6.744357556850072,3.5670788469627244,3.650012593302297,2.927255849190133,0.4636748300056971,3.275294229426909,2.6089451476333383
-157.0,4.188456056459995,-0.6979972366612868,-4.886453293121173,-1.729147079012533,4.514690956491803,-2.806302870295658,4.536761760222916,3.971784785307814,5.946238167113924,4.290997482426074,-0.2528166674628425,-0.20953597701635696
-156.0,0.9329450698504727,0.5077049901815152,-0.4252400796689173,-0.7066272442454462,0.6470813230567236,0.02519171832194078,2.257051192896217,-1.002251362469392,2.984068253785744,-0.9445908621757835,-3.015347234760802,0.8870270550291282
-155.0,-7.427435290679478,-2.577361584339929,4.85007370633951,5.015868312738886,-6.099872733867732,1.1955905536882234,2.0888758879237654,-4.155911328255238,-2.2627323987387817,-1.1708992367929463,0.5006477812342505,-2.2735664767891457
-154.0,-4.237479703934316,-0.9394051485942994,3.2980745553399435,2.60295592093967,-3.812999334618769,1.1560799747582975,-3.0102070046865808,-4.612827589493803,-5.691959751218223,-0.5959614465699619,-1.0410841134091964,-1.2069021414444427
-153.0,1.565396784002326,9.85383376615366,8.288436982151303,-5.772633687086303,-3.330342328916801,9.045109335656578,-6.615202519084082,-2.6496108708080635,-4.3402327646037415,-1.8816593142837015,-2.1355101395900453,-4.413741265997604
-152.0,-1.0155154640071484,-0.04230402212870166,0.9732114418784796,0.5451541779310913,-0.9626155327871995,0.5171508035132644,-2.6318947051474413,3.073356747004433,-0.34238571245134386,0.454724933748314,3.7762569973454285,5.647375488410327
-151.0,6.728575747639805,0.06432454660881748,-6.664251201030956,-3.3807496668534256,6.652342746177546,-3.3261993864256887,0.658051022763348,1.437740280628484,2.854019890806212,3.0041622025249985,1.7360573231794088,2.62441047455549
-150.0,0.796008588898744,-5.128574625226361,-5.924583214125098,2.180618466534164,3.320668061165371,-5.550713446145636,1.370432359984966,1.46066567042853,3.3555460763166343,0.211158912118672,-0.977726532734531,1.7820377309701174
-149.0,-6.747802673764451,-5.900204013046883,0.8475986607175585,6.336850931309373,-3.7536033533864477,-2.469289911256409,6.242908875154284,1.0713351187019888,-1.0966651764886457,-2.246465630865215,-0.6707796399732278,-4.086530613849107
-148.0,1.2668041010150395,0.14667219811034604,-1.1201319029047005,-0.7732632760942137,1.2420273246772644,-0.5068181215951875,1.3243688483559857,0.9796878629510288,4.830723755846912,2.17237841222071,-0.6462696231837368,-3.3524428150969667
-147.0,4.6985423225736875,5.551521170421994,0.8529788478482712,-5.111498174962456,1.895491462127195,3.182387903475071,-1.5208690245645229,-1.683267545531311,-0.48659575354075213,-0.8098428131283186,-0.895247961919587,-0.012796486260752804
-146.0,0.582168439430417,3.58010302360172,2.997934584171211,-2.0635613229643903,-1.2346559289353465,3.2679705955342913,-3.213169656002818,-1.2055484446647022,-2.646178149693323,-0.07855149803568928,1.967381604619348,-0.33110076608223815
-145.0,-2.35267259894121,-4.862582633943045,-2.5099100350019636,3.632061037268649,0.04974798708554018,-3.7092028572989713,-1.3193996000595014,3.2608095485442545,-3.680161459313706,-3.1761364223073185,-2.5856688109213475,0.2908105872721306
-144.0,-3.461429133241478,-0.19851420836569034,3.2629149248757052,1.8631641805813155,-3.3164358899367947,1.5863040887670898,2.6488616940487772,-0.8297043902103253,0.15256083327307657,0.4136848285670063,-0.4036659236312474,4.255332641005696
-143.0,0.9130011422667783,1.5632491891502458,0.6502480468834702,-1.2747619006685076,0.09336762851636693,1.1599254821621532,-1.5611147155884881,-2.113968159736038,1.4623648598241352,0.8109921124924222,2.9012060017925227,3.1467486922713737
-142.0,0.9488276070659001,2.5342470792586314,1.5854194721927952,-1.7709552125185932,-0.2821103645104996,2.033842613218247,1.911617589466374,-1.44800221294708,-0.4514111912007951,2.489557744651867,-0.13253807552344954,-1.1916997090571209
-141.0,0.7551343945116725,2.87047041401439,2.1153360195028412,-1.8378358245620863,-0.6472140877077966,2.46615742433539,-1.6479143880261389,-1.7990103351411477,0.6625196987304619,1.3800486422548228,-0.7410339524113747,-0.1902091104942496
-140.0,2.127106245299652,0.6232246959338548,-1.503881549365662,-1.3197832396459532,1.7676392594865196,-0.46890170348596427,-0.06327414019437338,-0.7491687443981278,0.7473096851812008,-0.6662099540505075,0.2162053796444253,-3.0977710353639925
-139.0,-0.8321166970265299,-7.726479985918724,-6.894363288892112,4.25614228503554,3.060756257084766,-7.341844686747134,-1.5652093645657392,2.1123857595484252,-0.48467626261149743,-2.1555477346236818,-0.17968609978027864,-3.861620291207493
-138.0,-2.821055335638492,-5.960046742974062,-3.1389914073355287,4.367951055119944,0.10856122068542495,-4.505119280072051,0.4134074250094305,4.220007741231429,1.4737185680991296,-1.4255049932556074,-0.11473041621524396,-0.20002203043989342
-137.0,-0.25825743324196404,3.073401836530222,3.3316592697721674,-1.3489993879852062,-1.7683855839381206,3.2452194794882945,1.4751504303558112,3.984239058659383,0.1316570891089433,1.0444661326085078,2.888059701519298,4.536705882387077
-136.0,1.9288997276093205,3.852064302261544,1.9231645746521497,-2.9057923040394336,0.027297527541445543,2.8518970894552553,0.6689720356776432,-2.2352325684201517,-3.89484806403609,-0.49609508452979645,-4.390662888977445,-0.6085850506590611
-135.0,-0.7592615253559075,2.3171934440370605,3.0764549693928664,-0.7876210120190137,-1.9740690790946722,2.7421307646263435,3.4493186912347578,-3.496591149638707,2.647841777007217,0.712791553859619,-1.2502311026717108,-1.9108894620263333
-134.0,-1.4290174884558002,0.4229747977822438,1.8519922862379632,0.5011024900850449,-1.6187494272205072,1.107249005636393,-0.49128615133585507,-2.441106248036451,0.008358134922778121,2.326474579792992,0.5958767026305754,0.7492946440537855
-133.0,-0.12131295138624815,-1.080504630980847,-0.9591916795946411,0.6036026962514399,0.44170258449862,-1.0472257072183242,-0.8819546983502952,1.752274703281395,3.0394034173800417,-0.05300332315824141,3.106769190201206,2.87451685500226
-132.0,3.5587824790933746,-4.027314495554087,-7.586096974647419,0.23746314163893173,5.5981676699514145,-5.832488606715319,-3.258164947513821,-0.996993361340448,-2.22181721918866,-3.9195404982722186,-0.8420513199893465,-0.9604166018555094
-131.0,3.8494539217508814,4.461126628666113,0.6116727069153556,-4.156799184811024,1.570333026930754,2.5895153592622133,-4.576433876928634,-1.5645368683028738,-1.9506396655523934,1.8630362928988622,2.7254272645458206,1.4621847862608526
-130.0,1.5331343958304293,1.3085359527440517,-0.22459844308627708,-1.4320122225852383,0.9141680146866438,0.5154586304331003,-0.5778388198822451,1.374656830495575,-2.052271179540314,-1.218781339489955,-1.0469424905198732,1.169358690971078
-129.0,-4.2345026502307554,1.1484789021607682,5.3829815523915805,1.5189166024759253,-4.847273530380491,3.316687943645075,2.4752996058255965,1.0539457771803478,0.3526751782842388,1.02341503143486,-2.246627230219348,-2.256102553153031
-128.0,-9.584495451358233,-2.0978219259166218,7.486673525441596,5.882500910556246,-8.569887619247506,2.665399573365988,7.003441303827706,0.7336943591205969,2.5500651332871853,1.5907955458699667,-0.6003536650031907,-2.4016660751251138
-127.0,-2.820290192217364,-4.47039631422896,-1.650106122011624,3.5974828554218536,-0.5372519041678898,-3.0902677861084653,3.781994291688782,3.1878095099534973,1.666488121416925,-0.7824367801873027,0.43593375277588997,-1.1651555651017544
-126.0,3.7294627456495406,2.3751019872885264,-1.3543607583610449,-3.0263258766911503,2.592241734649567,0.5584284779654378,-4.194122592291502,-1.7867973080292565,0.9013347950592123,1.2223390024093315,0.5014958560131596,-1.9200971627826169
-125.0,9.10555000873077,-0.5513011001060043,-9.656851108836808,-4.249441380681464,9.354108932002488,-5.135001876144978,-2.9173540320984346,-1.1120627988364276,-0.09991486413695255,-0.06770211377683538,-0.4914869253521572,4.9415697147069615
-124.0,6.284830611590066,0.2668362497817418,-6.017994361808348,-3.240625756766386,6.124074231270303,-2.906056651203486,-3.7691627192102253,-1.0177239994625862,-2.3724241297110633,-1.5749303216049026,1.0894647828957398,0.00835051573268597
-123.0,-5.885781866193979,-5.800233982417548,0.08554788377642053,5.810174998973724,-3.0150579487298526,-2.8077206963177614,1.029060738746018,0.7913944137715272,-2.836872619283958,-2.6372995980157117,-0.8233102005252537,0.08304998582717804
-122.0,-5.0868156925610295,2.2026640841365626,7.289479776697606,1.4197548838326424,-6.1423792449400425,4.719127856176368,-0.272813487903579,-0.3663518012586502,1.1926322216734204,-0.5684740603732702,-0.2983135160209903,-0.9790635033749855
-121.0,0.39245363313236314,9.203274183450624,8.81082055031829,-4.812706773554822,-4.246486661734398,9.061285291847222,2.115259300167248,-1.774148813566744,3.0487388629072494,4.597531691698921,1.5072494065223232,2.653932755140278
-120.0,1.8825996515243595,4.427341725406558,2.5447420738822517,-3.166638176437419,-0.2936596821641171,3.463137000986269,1.7852601805368713,0.8414860044659132,-0.8733534299928496,0.12550580703158554,1.209998779230692,-0.011073138704017882
-119.0,-4.358621707850005,-9.18380302115117,-4.825181313301107,6.758966376833855,0.2677892234014201,-7.0278018739148385,4.231697869685913,-1.2462445541509666,-1.8743555075910854,-1.2137100076378364,-4.444721598454993,-3.334612865043108
-118.0,4.154476556773892,0.8834619721902279,-3.2710145845836456,-2.45501675211992,3.667193479649446,-1.2202487229011947,-3.4284494025534946,1.0034583603009166,0.6777389838362632,0.06889326584389599,1.4209026183641746,1.182941799845227
-117.0,-0.4350860672857284,-0.5871788435729073,-0.1520927762872013,0.49376262112039326,-0.18667088814679555,-0.32317317617059027,-6.129857012521227,2.4777227929692196,0.2465340606982053,-1.3275983807428966,0.8525680387939817,-2.901732723223323
-116.0,-1.5735063022249625,-3.2813507493204543,-1.7078444470955498,2.4086055456786326,0.10266723807137801,-2.534372176745303,2.1780059197127675,0.848879477021371,0.7352266058627335,1.2062091347461883,2.01933875722173,2.4372485890044873
-115.0,1.629901236797437,-3.2510683833901153,-4.8809696201876065,0.870043774070494,3.294010830032833,-4.034704236295942,0.9227287297538738,1.4550554434267737,1.6745041977885495,-0.7327910726925622,0.79554680187107,1.6434183963370184
-114.0,1.287155193644931,0.18250517547602252,-1.1046500181689605,-0.7547824937305094,1.1592209000665874,-0.4360960049771022,2.1232962741244523,-1.3635727603442154,0.6146260782282276,0.4762006370940338,-3.1450104784623223,-1.7030981451135248
-113.0,0.884628477778902,6.003716759969599,5.119088282190622,-3.4664349850643448,-2.0723290877381055,5.503656354083462,1.0691973110224395,-3.022969862743225,-3.1850362480049714,-0.9633336510187579,-2.1958389743932356,-1.0044758653898977
-112.0,-1.0578505005238268,8.79814034497039,9.85599084549415,-3.8971239020180373,-5.489716940046823,9.346807323055861,-0.0595675559876927,-1.9395889107578979,1.409986628615174,3.3177510303939184,2.3518837574436406,3.3829998912436423
-111.0,-1.9328466627543701,-2.3017126602541413,-0.36886599749979965,2.0837447595812013,-0.8161854216853244,-1.3144899804607135,-2.2400748791152134,0.0888115664669602,-3.3119828317130056,-0.019791970958207616,-2.2271290363950094,-2.348018684408358
-110.0,-0.9422259298910084,-5.470740124636502,-4.528514194745449,3.2450997706172147,1.8340342373077052,-4.976426769823494,-0.41355470964706054,2.771605241183938,-0.09774377608598284,-0.6126005895903779,2.378029975196368,-1.2274156038828177
-109.0,-0.28937430678666964,-4.001802286964086,-3.7124279801773414,2.1797714545840283,1.6688476471271398,-3.910141623327482,0.5010291984728791,-0.4662367608456428,0.7046350519056331,-4.03438128277879,3.5489906940116778,1.080536016986016
-108.0,4.300139152409602,-1.5646862999813091,-5.864825452390809,-1.3342662046839922,5.1142697691044585,-3.6873775556892188,-4.141075946676432,-0.7085001088083389,2.4814248417748823,-3.1135583658407056,-3.2493359286677386,0.05016589527796636
-107.0,1.366548920292706,0.08598397364411037,-1.2805649466485143,-0.7683840085106205,1.3532629750440366,-0.6482226558806858,3.147894587163039,0.8221044684531571,2.2542686732094572,2.962391081767153,0.0161450273706647,3.4836308133634812
-106.0,-5.594704784773871,2.3282582710660926,7.922963055839952,1.5969997695991047,-6.806698820794791,5.1530590383209995,3.0142044642728623,4.02455631971675,-0.7183085897014849,3.4950432635992654,0.4315247517990236,-0.42689150376074536
-105.0,-2.4239630615271333,2.9194379699873623,5.343401031514393,-0.1985629021664638,-3.8482402594974303,4.158588500480735,-0.6412337835429109,-2.38984513902183,-1.9479372715722894,0.5537495715406431,-1.711212784099567,-2.8699144039628224
-104.0,0.19675819783355664,3.4050169705228885,3.208258772689178,-1.8250979688009397,-1.5419596895870131,3.3345655291017993,1.8251773109741114,-1.6473255312733,-0.9551639523532185,1.9564695115119557,0.9896452696006189,-2.2105289246867432
-103.0,5.382823956436792,-0.5691047009828099,-5.951928657419735,-2.4285152397480108,5.718027093125931,-3.30888109185478,-0.3162717569806516,-1.2886968729516863,0.37825373723308964,0.326528830028538,-1.3416621330487284,0.7959276886984916
-102.0,2.6834267213728626,-1.269899386688823,-3.95332610806175,-0.6506104005613033,3.2976126835032753,-2.6555438877051034,-4.707172103167864,0.7675319833053742,-1.0329203448973123,-3.654995601562077,1.9445786823302451,0.4949975621199827
-101.0,-0.33134382925952144,-2.2197475978959935,-1.8884037686364659,1.2487785000919667,0.7628152975379501,-2.012947795722729,-3.8644361945174515,1.785307431176784,0.6217395163836654,-2.043260041195957,1.5356157090066336,1.5691448333299542
-100.0,-3.2529035139113756,-7.490891585470821,-4.2379880715594025,5.338881037170564,0.4788182255082386,-5.815651909297756,5.23136994785667,0.844395734740044,1.4497198538301506,-1.0724769021812526,-3.190013664495708,0.5421564519232032
-99.0,-1.3946077281119873,3.76034758304878,5.154955311160806,-1.1436762694988967,-3.289412300449726,4.435702599806823,1.5574668753079548,-3.2132022259142383,0.5841508519229203,-0.14614607987163641,0.08514652266873812,-0.7355761608732663
-98.0,2.0551132707610553,7.70601432052102,5.650901049759982,-4.924978598353976,-1.736681751408325,6.663577565387118,-0.34853168977640037,-0.6261385200513001,-1.2585955044731028,3.096162709119674,1.0219828555937829,0.7902119904203002
-97.0,-2.4439144078321866,2.1220281495447746,4.56594255737697,0.19363380957191278,-3.526222741425202,3.334083458695327,0.5482326699135052,-0.5292176402606705,0.2577959500206376,2.925907613752039,2.5342960458426114,1.1960722017651848
-96.0,-1.7610580980717003,-6.250992337284467,-4.489934239212762,4.0407734748659685,1.3394508431011782,-5.377981949259688,0.4091731361814519,1.736576897137116,-0.6129859101178678,-1.9722463466955258,-2.3635241425329356,-2.826782868171429
-95.0,0.028167032367312328,-3.7751838824067683,-3.803350914774095,1.8344038901468314,1.966296484870821,-3.796668689825457,-1.109288161388959,3.446910706910225,-1.1153341230443352,-1.794568167605172,-1.7314291322951885,-1.9683507211440445
-94.0,2.662824964806979,-3.9632886024216916,-6.626113567228704,0.6956078315296601,4.613403798487083,-5.3033491429408315,-1.2719878570012988,-0.03062615653902534,1.8088903580022495,-1.0014010017128419,0.6450369392909004,-0.11794451151514507
-93.0,4.086232001731575,5.20347258192283,1.1172405801912126,-4.674101360391465,1.450557827880018,3.228742888515094,-1.132439097117878,1.0157031504959109,0.16278790038616608,3.2609176570027376,0.9886851316402325,3.2536313310870857
-92.0,1.806554365843615,6.804391420379227,4.997837054535591,-4.334130505622656,-1.5541415075680387,5.888909729927379,2.386785391227887,-3.7526169009255788,0.5503013426098038,-1.1937452969424807,0.8522419966136179,0.6084688493933315
-91.0,-4.560020161956963,-0.2569343139160418,4.30308584804094,2.3762081212789656,-4.394015500581615,2.008543003525854,-0.8130480929567531,-2.6998904491755598,-2.289482196390722,-0.7796056671770547,-2.056925559391554,1.5112789458056572
-90.0,-2.16684822919682,1.5510307078089391,3.717878937005792,0.34734528409001675,-2.987991752776356,2.6163793050452417,0.4852697171006197,-0.07036938293020478,0.8285472786437833,1.2100118657354741,0.42329196362114796,-0.5896953967154209
-89.0,0.37485307938861956,-0.6552335291905739,-1.0300866085791665,0.17090993917179165,0.6527121460179488,-0.8659870158737899,0.38239814451026455,1.8420476477217216,1.739687254455275,1.0267900674166295,1.695505553425814,-0.4240347470135057
-88.0,-2.3595993431323365,-8.411847575817253,-6.05224823268492,5.408043525824989,1.872692155616537,-7.183381180209191,2.014991392685341,2.178116180259826,0.15635429816674584,0.3454180945504842,1.833428540355508,-3.499041251259898
-87.0,1.0834134084865499,-4.49594311546174,-5.579356523948315,1.643363016132474,3.3579182291903997,-5.075003162408762,-1.6402819293216595,-0.6212661284290812,-0.70826366532342,-3.142769388665639,-1.3558981433076815,-1.4785442990126576
-86.0,0.6714457965861225,-0.2854779849199045,-0.9569237815060601,-0.18066473972306707,0.8443661890534437,-0.5860791446302289,-3.335514320718352,-0.3969802858445153,-1.823674830600061,-3.5875934935753335,-2.8188470161404853,-1.3399434634941534
-85.0,2.711493381619195,7.125952779882282,4.414459398263038,-4.906503204768531,-0.8933415662036813,5.722857589212062,-1.7157881346848982,1.2351043675855942,-1.2366646819003584,0.6968006725595857,-2.317954532012269,2.24574252311787
-84.0,0.7559709212194958,2.2673447780265223,1.5113738568069883,-1.4960356948233264,-0.33258876058129605,1.92070138107586,3.3589263819382826,-0.4155822868325063,0.3998279961433508,4.4591452213039,4.268514434344713,4.8770108953642435
-83.0,3.1204320408610404,7.324505385030249,4.204073344169181,-5.279000100836869,-0.5678612554660529,5.799476919367354,1.5936580824607944,-2.40731438522669,1.5052438606610672,3.4247819277741667,0.8481817216933178,2.542303356363471
-82.0,-2.6652342844722394,3.031584377929803,5.696818662402046,-0.15188827472451183,-4.201971808207706,4.327591498386321,1.1510536850883004,-3.300120467843581,2.177903511968595,0.5139502551526212,0.859002130471093,2.3110399933729
-81.0,-4.223054078625167,-8.332897343044882,-4.1098432644196965,6.319616185990965,-0.0758524304946353,-6.24962843247406,1.3617313154661597,6.286914677258872,0.20536005069375873,-3.6059814749390156,-4.417307771494013,-7.172139463640908
-80.0,-1.05325410020341,-10.695503329385032,-9.642249229181592,5.847298438154226,4.273857363996204,-10.110851042862594,-1.2607055753796208,1.92887968268708,0.038386274965622746,-4.29451339591409,0.43117288898073913,-4.316852573101358
-79.0,0.10846501590071167,-3.8522102479187916,-3.960675263819467,1.8526955702167047,2.0892891596181427,-3.9226547684795143,-2.8494434620067035,0.06424573801260935,-1.334527156148746,2.4527496268033895,2.6376520128974725,-0.09625354594596791
-78.0,1.1830640475223386,5.44407603636858,4.261011988846285,-3.3285556800489697,-1.4885462877176587,4.836173291174983,-2.473581072751635,-3.213895083693004,-3.1269787068672175,0.09413494880675838,-1.7572629697419153,0.9233795795535032
-77.0,0.36915454190971597,7.303744247842297,6.934589705932618,-3.7731485499982877,-3.3157586216543766,7.0973165295766645,2.1836948544535932,-1.6693319856459943,1.201333040070642,2.618000401389534,2.3057843775588305,3.518576648033988
-76.0,3.9911679676825256,7.04946495250473,3.058296984822207,-5.54087689912687,0.4280477679078065,5.100568232824518,-0.13506806798010695,-2.6281160788142266,0.027075207341355073,0.6907882779819732,-0.08770523406067132,1.0410453844824512
-75.0,1.8401552305840148,0.44509068367607174,-1.3950645469079772,-1.1718415171345407,1.6516262315776458,-0.520255963739277,1.4328223619150169,1.0719192385226664,1.021096828627432,-1.7996413360356556,-0.5765039706086311,2.688070200704796
-74.0,-5.595267743124621,-10.77425008569688,-5.178982342572302,8.14544263954047,-0.26012147007540687,-7.956852667504984,0.41131536879150066,2.6715470221370725,1.1667249254831489,-2.2350472549964664,-1.8259651357164515,-2.7933964237502185
-73.0,2.0630800109307392,-3.087901692572179,-5.1509817035029615,0.5429576383031867,3.626563512924551,-4.11127820273422,-0.15217410200847103,3.279937799739394,-0.22281704188316198,-2.597601096699075,-0.8011519109595006,-1.7358908803260817
-72.0,-1.7596297938126395,0.23072190351887967,1.9903516973315103,0.7896539878809621,-1.8611396122434145,1.1113748080230463,1.2571061595418485,-0.8137201489608024,-0.9039482667059775,2.2753160219495534,1.4794178902942758,-0.5290870927567057
-71.0,-1.5190662790567075,2.6845698140728094,4.203636093129548,-0.5583068696610344,-2.849964810284333,3.443112121893175,-2.294752844393848,-0.842970309051052,0.9931536565143869,1.7440133449577973,1.0300282165509147,2.9681860144767427
-70.0,1.4265471544260209,2.1881718568949156,0.7616247024689364,-1.7798185449199722,0.345756987054995,1.4776681854004325,0.79120827844894,-1.8258169519395313,1.3236355446118626,2.9562805454900025,-0.472777508482696,-1.1448518898313096
-69.0,-0.4835487905248479,0.7165325902836774,1.200081380808566,-0.1629807016555671,-0.9007455844679109,0.969482121638773,1.967320127096166,0.6672654607728794,-3.5749188882402674,1.9590700287904435,0.026230033456676904,-3.2873097076089293
-68.0,2.0961270357740207,4.707142746974805,2.6110157112008086,-3.4444702202296487,-0.2272843899447218,3.6028622643630577,-3.7732797815279393,-1.9347387491854997,-1.5734463026950074,-2.1042655050419885,0.014723372342341376,-0.08668106822344623
-67.0,0.24760719988535307,-1.3662302612288721,-1.613837461114219,0.5958534459005358,0.9733361368542524,-1.4552687036427683,1.045606172756317,0.4907361610169457,2.810051929026973,-3.266913966257837,0.07536668914621156,2.097896481734309
-66.0,2.677520103347029,-3.0330325639882254,-5.71055266733528,0.13266336162839326,4.170212118536956,-4.326041605865712,-0.30856003431938883,0.3659434006933533,1.6170114179884294,-2.935549342221064,0.116115422394968,2.841106692979956
-65.0,-2.5401647363609117,-2.0866110592439027,0.45355367711698147,2.3416102262018272,-1.5107458974645054,-0.8415930454862472,-0.6921182924104613,1.502137239024716,-1.1559560690587922,-0.34175211737367883,-2.034892728342083,-1.719765213970681
-64.0,-4.9282194461297575,-5.854883234576494,-0.9266637884467464,5.41353443334735,-2.0086248361857084,-3.4120157505939783,1.237562819952355,0.6115344306411035,0.016152268067485473,3.539333234040928,0.08819450259979289,0.13378950331304984
-63.0,0.22769881187789975,2.1707654652996213,1.9430666534217234,-1.1826333386112955,-0.863684708277481,2.0354617898960843,-1.4228780489330948,-0.29818739951197903,-0.5815067003974382,1.8412834828953226,1.7451260729247555,-0.8227558407285629
-62.0,2.725365945470772,7.947869860646071,5.222503915175314,-5.3235790511445265,-1.2559167112122718,6.560782915614733,3.5118954117511993,-2.766704822885669,-0.8383192664253778,1.891564580615944,1.168305255099827,1.6871911367570795
-61.0,1.320489637420784,1.3954088817870507,0.07491924436628805,-1.4252084719278377,0.6127255650133343,0.7858861227560681,2.24075897763648,0.7179408320858613,1.3242346906324611,-2.0795211146514587,1.6341078647258618,-0.7110654288037117
-60.0,1.7607188074821223,-3.75660016764713,-5.517318975129248,1.0096097118796437,3.7054705400501113,-4.588548031798776,-2.7855238169446648,2.160183625167725,1.9908624987193855,-0.26468161465843854,0.021824068333760493,0.07694206561102157
-59.0,2.7308000083112436,-3.634665618881088,-6.365465627192365,0.4651207098136072,4.535130263240676,-5.030264395645639,-3.0193253724286357,0.12694637046360524,-0.6834037774910666,-1.7304181340353337,-2.8695252959879847,-1.7049306900114103
-58.0,-6.325171065727107,-5.889467633671107,0.4357034320559401,6.123066343592566,-3.3926965426922164,-2.754487458348047,2.2711725250935517,1.2013336946896147,-2.3386280003652242,-3.9886479841944813,-5.24978511199965,-0.8956009355529737
-57.0,-1.4997503250627737,4.228695741985551,5.728446067048243,-1.3453297186458086,-3.6252089781715786,4.955145411266502,-1.6324073121109857,-0.5938312794813021,0.06444668730480274,1.6315945536592624,-0.5605883354628525,-0.8046904214836512
-56.0,2.1063963279966877,10.068146092427718,7.961749764430988,-6.142755932812375,-2.938653401901421,9.074816566702447,-1.5561998086349136,-4.676788297807615,-2.931796282416976,3.612401750505823,2.7370554017974995,2.1476061063930274
-55.0,2.0889122311509625,6.229428869799774,4.14051663864883,-4.131039376144386,-1.0388441362002059,5.169892977571699,2.744309604466221,-0.8784778323550699,1.9605072061595772,2.290413573354217,3.510717982363997,-0.2703331030860854
-54.0,-3.233955859604416,-4.939356356867228,-1.7054004972627375,4.041756208346124,-0.7033900740849323,-3.3350593848357732,2.134864517613188,2.66015383669394,3.7665499957949597,3.668476747013026,6.366638330830723,2.648000489025433
-53.0,0.5771623833535091,-8.179521889846178,-8.756684273199605,3.8415883351218993,4.641709332620991,-8.479806463206172,-2.612737269090567,1.7747266464836293,0.8793074952903053,-4.9599245368230545,-1.5827149081835374,-2.3785548532434055
-52.0,3.5582440556492614,-2.6926712726261908,-6.250915328275381,-0.3854239712629597,4.870496997803585,-4.483330586629124,-3.105198864293931,-0.9921357895830758,-1.496106353096268,-2.7669897133582575,-3.566597044991137,2.7956507010994907
-51.0,1.0692224101027354,1.4230882486967182,0.35386583859402165,-1.2711976607893947,0.39367144256864073,0.8772067428778065,-1.6569993695250114,1.4806378408010892,-0.6135503245598234,-1.88802494752222,-3.0718549941880755,1.3167049733185994
-50.0,-8.592241886261453,-13.332185203591012,-4.739943317329553,10.941613976230835,-1.975256590297427,-8.967585054481901,17.9752595140783,4.178460011599587,-2.582753470587152,-3.257933414040717,-4.2827019731306155,-6.293641994234057
-49.0,3.991864374731892,10.123060175178205,6.131195800446298,-7.076520443782741,-1.042045696326001,8.11839180212292,-10.501038255363955,-4.168173825308532,-0.732380631989513,4.924554664469724,-0.0010288559359019622,-0.1502892650606742
-48.0,2.963385307148794,7.109720435577641,4.146335128428797,-5.057148861526336,-0.560386946873751,5.620197575143516,-6.5069674181417145,-3.179510449114108,0.6314610857820653,1.401217991279521,4.2429087737642925,0.0046426196386585294
-47.0,-0.9907112728874419,5.909950116844198,6.900661389731567,-2.4053342259370583,-3.9846969691806366,6.396069043404766,2.8606603467777685,-1.5137492427388743,1.9578435417003606,5.750968463835926,4.102424449184504,3.498395971774409
-46.0,1.3402046297626438,3.730334844597721,2.39013021483501,-2.5646299254882456,-0.47340113391290917,3.045910130308261,0.11958089029880864,3.0404481286443104,4.479820720845101,1.4780173552538276,3.229521563432972,2.419365678925452
-45.0,-0.3700808417249487,1.4130794940973792,1.7831603358222947,-0.4767476204539854,-1.092186352888524,1.5747744991494346,0.5928867567299186,-0.8605033584958766,-2.083080535284285,-3.5976616057750412,-1.888765556533813,1.5478720440602496
-44.0,-0.15050613900462745,-9.134341491183488,-8.98383535217885,4.604879426370055,4.408697598583707,-9.015449964551223,0.3965116844055816,2.768051945337948,-2.011175613908969,-7.580338984737023,-4.710582409068175,-3.495421314418219
-43.0,-5.420011933681476,-16.595840269362572,-11.175828335681071,11.046980170889379,2.8704504847254677,-13.933072252433126,0.6129352897983803,1.2462556093458643,-4.247356104853008,-2.847567497879351,-6.01980511701665,-5.556672655885504
-42.0,0.37823026329139364,-2.3324074176708143,-2.710637680962215,0.9366219327670633,1.5291971372070696,-2.499685867783752,-0.8304610337073255,-3.3581714717599755,0.7880310041150245,0.5301231851852404,1.736224481807318,-1.8296588934825622
-41.0,3.2506040543103443,10.078148623845657,6.827544569535287,-6.704274768443453,-1.8185351373238927,8.469733962276585,0.05780524312915107,-0.8695918307401325,0.37447051837178863,6.9774877358660605,7.024017271715962,4.66918497914513
-40.0,-0.019686478044338873,11.159431718613956,11.179118196658267,-5.529081018282046,-5.569149724463418,11.186876628113552,0.8454920605332793,0.5320741467295758,3.3454361004721607,2.92997657144742,0.07815874780230514,1.806262518988841
-39.0,1.315267707428056,3.5953094599469315,2.2800417525188763,-2.4112542889288484,-0.4695223221192393,2.9609588941112666,1.327859596383132,0.6153537360827523,2.5021757712644774,0.2724135905859155,-0.2718026413936534,3.1203445945112023
-38.0,-0.25495557386885337,-6.574007526428644,-6.319051952559751,3.383854403159731,3.0330063225505963,-6.493312474214072,0.08782802892770644,3.0070939813770368,0.0743507872216429,-2.0217360095357497,-2.100001547437671,-1.4446744898252883
-37.0,2.544043405479914,-5.337276598122777,-7.8813200036026165,1.3699772680028706,5.210103449961615,-6.646771650434562,-0.8803588846265955,-0.6932127576873048,-1.8587735542936896,-1.628780042365412,-0.5338845754293131,-0.2068203787416305
-36.0,-2.0559495302967057,1.1565645447399633,3.2125140750367187,0.5044766125117293,-2.6314749832780198,2.2338665035546716,-3.0332048061244987,0.16388619866462834,-1.266013552530151,-1.0943663917555626,0.5503728016042616,-1.0956166045043816
-35.0,-0.5278414568419354,2.8025022357190457,3.330343692560956,-1.1609669200551984,-1.9141484444628178,3.042919922876564,-2.5661028036604745,-4.816773244181412,-2.6518109567218477,0.9808277197753621,-0.24578400816856286,-1.4383265655037945
-34.0,-3.2622673056115388,0.16649964391090835,3.4287669495223465,1.5218532736814905,-3.3154702686946993,1.778040011699893,3.1355543530116634,0.0717086385344814,0.04768732857147895,-0.17300715368830114,-0.5528211076520992,0.20482447299617013
-33.0,-4.048318074155397,-0.2924966223205732,3.7558214518347053,2.1397869359789374,-3.937393155538587,1.7934205301839063,4.595815935216741,0.7323830302924068,2.6975561348243637,0.9556357890957641,2.1603743082205358,-1.219676093454217
-32.0,1.9423637142452812,-6.000150572390398,-7.942514286635733,2.0715388585462513,4.914942887752073,-6.986264483225201,2.7344954123893945,1.5666931319903241,-1.2099020882633145,-2.9795120637922414,-1.689899270432381,-0.21448285454035446
-31.0,9.09379622718027,1.4468919733229928,-7.6469042538572225,-5.232520188194944,8.343396494367049,-3.112946299436693,-3.7296263665841027,2.5557843639789564,-0.015063147660148934,-0.5650824541042597,0.3839083790340829,2.236447471816046
-30.0,3.160523892034138,4.358758529953285,1.1982346379192461,-3.803551517499694,1.0271019521957725,2.7675633217413482,-3.7390282255813547,1.0837121346934497,3.25103868991881,1.1163861648407214,0.26979562257391343,0.5029804615774935
-29.0,-0.13332498261965608,5.282505734883851,5.415830717503601,-2.540505910060748,-2.8164996220068677,5.340013134043314,-6.132716897860876,-2.41038113073693,-1.961600546536255,2.2055705767130447,0.6122172250969142,0.7907165316375071
-28.0,-9.620277995408426,-5.0162004386331756,4.6040775567752705,7.274659244085333,-7.083733855282555,-0.21418731328205087,3.3427539063484404,-3.611954210609098,-0.995101795895476,2.249372339973763,-0.2963299512056776,-1.5700002269442597
-27.0,-3.854729192510813,-3.779335304514804,0.07539388799595326,3.854269406548741,-1.9408130592581028,-1.7818708780670818,4.923838695239388,0.99821195174431,-0.43899396455718853,-0.7906709344893901,-3.313695325863716,-0.38854758416327295
-26.0,-0.760551281891011,-0.35248065793969197,0.40807062395120663,0.5171247381459736,-0.5584572335475002,0.016069875428327163,3.914101795196559,3.0026701104901385,3.093059221572828,0.3581742806975212,2.2515795464317296,0.7747152745095391
-25.0,5.349497629085036,0.6507316603581105,-4.6987659687269945,-2.959242234824817,4.977925410268235,-2.0421739785797057,2.5607724880676583,-0.4551403635822252,0.18651792398630052,-1.7253841185408512,2.387402677793906,0.4457333242459109
-24.0,2.031383402730281,2.112060015064894,0.08067661233461232,-2.108900770879151,1.017027203627456,1.068436981850143,-4.799688022119451,-0.21266025582124082,-0.4260488460707681,-4.00248500540531,-1.6550328723698495,-1.850573076975529
-23.0,-0.4054155602339855,-3.1803018659601885,-2.7748863057261266,1.8346021722677963,1.1557386780317747,-3.017311316027138,-1.9896283738361933,0.5017662843208325,-3.2820121966810585,0.8030513175657878,-2.6885709811881826,0.3927122649172242
-22.0,4.463922268310753,6.435647107971599,1.9717248396609002,-5.486461257412492,1.2210959735777849,4.231470735808771,-5.4612989352277355,-2.5853265443705187,-2.030663823720208,0.9007068798143031,4.039757080498544,-0.30610267336997177
-21.0,-0.4145510265500483,1.6171768177947832,2.031727844344834,-0.636679671317756,-1.2497958249792704,1.8444400380710326,1.3459516470062605,-0.3060504476694319,2.3032065681855123,2.5379927513074056,-1.5255565479831028,0.21231327137786893
-20.0,-4.483038661333152,-0.8889060943931353,3.5941325669399644,2.7321978186184173,-3.9935083902058945,1.3702641727725773,1.7006084920166367,1.258073638346882,1.574590365950808,-2.0735730163895196,-0.2987476416270486,0.37099476295630585
-19.0,-0.6143471695634815,-3.4380326026720462,-2.8236854331086,2.0766251102502307,1.1391862270153674,-3.109995895901231,3.4277610252565713,1.5183819594031283,-0.05725805571449549,3.739378707396911,0.7638511038406124,2.420630907364349
-18.0,-2.1260179847562286,-1.9133285894341774,0.2126893953220259,1.9958413253837168,-1.2250633752652655,-0.8227029407980369,0.1597117733577087,-0.029309562072963202,-1.5171422942421668,-0.5120293421380826,1.7775187202773546,-1.1211977240052418
-17.0,-0.628371588758964,-1.449622299303004,-0.8212507105440328,1.0181729440023273,0.10974702698310518,-1.1795386886765569,0.33762960750409665,-1.4795517820435946,2.66678290627495,-1.1136388828383639,-2.306068308194163,-0.6730822357386586
-16.0,2.494880901652104,-0.4468081736238968,-2.9416890752759985,-1.045020388944702,2.725682697238,-1.7340701031658727,0.5335690230945995,-0.10117115939242449,0.7581710153368216,-1.4307799128128997,-1.9633981547863373,0.22366796112386522
-15.0,5.812162819841132,2.4470735168348474,-3.3650893030062496,-4.15482917996459,4.595028405393711,-0.49870301639980924,-1.9285434318336765,1.224080469908035,-1.6652892890331052,-3.4069192431233204,0.6261322886675189,-0.38283522228531175
-14.0,-1.1823262049519307,-1.119232439347463,0.06309376560452779,1.196262373757127,-0.6124431476095875,-0.4922813231403188,-2.7556089574502525,1.287666148832325,0.09656715742536992,3.5119381569719144,1.1803428083395422,-1.386158981568809
-13.0,-4.538807399010407,1.2970760794506933,5.835883478461178,1.6556712133892626,-5.169400042263684,3.597956923339721,2.6306850230293772,0.4564108354810249,0.36377385271952345,1.1251252430796403,-0.7422669987701651,-1.436646823340443
-12.0,-2.0632292797057614,-0.2659312033924568,1.7972980763133442,1.1090654492332208,-1.9811762776015402,0.7944290866903583,0.7377083489851417,-1.9342265497392244,0.028688895196367747,3.261469527986322,3.7132773059673108,4.66374936627412
-11.0,-0.9467954296210066,5.796346490849263,6.743141920470226,-2.412180787982238,-3.8854242436786643,6.220179934453824,-0.2642873829610304,-4.211191415320281,-3.9329018966502582,-3.291446694055166,-3.2589949715629114,-1.8036786579842965
-10.0,3.3055147871550528,0.19203204271186536,-3.113482744443279,-1.7442634809649105,3.2574060532084923,-1.4280481439134411,-0.13160498492329817,2.3824376775126157,-0.9764070945113713,-3.8152172319995334,-0.3148753294459772,-2.5748087167637306
-9.0,3.80812462068437,-3.5282810020480615,-7.33640562273254,-0.13972129370686315,5.627729144316661,-5.394801446962274,-1.6644855433401584,-0.37346838584011477,2.231896781960359,-1.0211547502243787,0.9029598423461855,2.4310993780127497
-8.0,-0.2906876392670876,2.1701595105489955,2.460847149816005,-0.939430891815247,-1.3947104211229298,2.2781473937165253,-3.0160822793224717,0.6605661638904577,1.3826248366393672,3.503041263154846,-0.7556826901934024,2.339768531030433
-7.0,-0.8355090913619757,-3.9690104447868473,-3.1335013534248755,2.4070321260100385,1.130190384883152,-3.5876827955221833,1.3038678340063408,1.8335085812879073,3.3760423937258244,1.5123539467091918,0.7579529044890638,-0.8778751519685822
-6.0,-4.091097669604023,-7.433064254925021,-3.3419665853209146,5.77495047047527,-0.397819890359345,-5.426387911822546,5.388316672735891,2.470457837560918,-0.3658798453301626,1.670001878547577,0.4419245619388927,-0.5376434463721063
-5.0,0.669024129708693,-0.1641492058476084,-0.833173335556184,-0.3078821432165051,0.7194993298573618,-0.46333292456678543,1.796380898370066,-0.8005802671535178,1.088541182520326,2.2921353787420413,2.2785963650299497,0.04318869694996419
-4.0,0.7370057457954354,2.5480147857403272,1.811009039944979,-1.6080940053501074,-0.5002884448046087,2.2105460037650815,0.7760210441877018,1.6288359607247571,-2.4994175705905395,-1.813767200496654,-1.0372256296341185,0.5560270191605731
-3.0,-1.276612663486702,0.7980658550762083,2.0746785185629246,0.2836479586800127,-1.6490445218741265,1.4656344794074574,-2.875126380344731,-1.9953704586536136,-2.8523890179105966,-5.0591738784955576,-4.269240756029996,-5.37198716048227
-2.0,-0.23186388177882197,11.313185402457513,11.545049284236283,-5.567953977439302,-5.86939084429681,11.381493802133658,-3.3649990179178504,-4.943429994864621,-1.5596252610170644,-4.048159333999668,-2.8493914035896664,0.05667562730472753
-1.0,8.348906602405174,15.1582586522855,6.809352049880259,-11.77790928832564,0.706584803848326,11.019949440445655,-12.62009858448559,-5.537240194648325,-4.21566482326164,-0.7150036602324079,3.1510215045187744,0.28888587166421975
0.0,-5.913410561305095,-20.727646148650724,-14.814235587345689,13.294687915696942,4.4668819046603,-17.807177975460373,14.840617628493465,5.100396623189906,7.693698888477274,5.6050870907633845,3.263302879021983,5.061884872439273
1.0,-0.023017307126207198,-2.0284258685759564,-2.0054085614498254,1.0732994113905807,1.0124068914393205,-1.9690294365557177,-0.1368067061157534,3.352752351965643,1.9802745843685163,5.08419235080655,3.136975219460555,1.4134013744379352
2.0,1.337941644232189,-3.6017581152069855,-4.939699759439275,1.0930171971805942,3.1673004706681294,-4.299134839954773,0.8575378668621902,3.9209610150725474,0.1759204529303453,1.5028324913447464,-0.40096818140927515,0.8242092698707076
3.0,-2.6132866119889044,-1.9693523856811077,0.6439342263077226,2.3226996501174506,-1.6706918541980007,-0.692249086988403,1.0111739968323268,0.8985173797763397,1.2188887803744377,0.08339378039188006,-2.940504531733055,-1.7390310864950516
4.0,-3.6914502755967344,-0.711888173010323,2.979562102586387,2.225056309987912,-3.369893049590592,1.1005332479747978,-0.4159343503211419,-3.305412318754337,-2.9323658937871446,-5.3218019452493355,-3.4246480931188517,-4.429180248837552
5.0,1.6786204930028477,2.9311231487660914,1.2525026557632852,-2.288395173181663,0.26379742305257015,2.1331471504574426,-0.9476792910790218,-0.5675277485399799,-1.5258827648033024,-3.5314893959095315,-2.6384021546459877,-0.2839537116236057
6.0,1.8167011239250408,3.392715652109285,1.576014528184361,-2.67268502719459,0.09724429449318595,2.5238820454200184,-1.2185979751990612,-0.5186081845682762,-1.120670014300887,0.2829652961752651,4.235142977500278,1.774804442009183
7.0,5.742267173996358,8.925477401746086,3.1832102277498384,-7.327481741794758,1.2601674513686025,6.017406243022988,-4.832481412472844,-4.2378530681903435,-2.194974536611982,-0.9838134573766854,2.8620553705732314,1.4106618053828262
8.0,1.9975604694883196,1.7993061738019422,-0.19825429568632025,-1.8946316772767973,1.1601630798961593,0.848899408437481,1.8956589330006257,-0.6853627406834566,3.230415799375735,3.124780726456695,1.9097887855107376,2.481009714316726
9.0,-3.2166593889490915,-9.177621492228587,-5.960962103279476,6.200951629684056,1.357640331911332,-7.590467437325598,3.5074772164350083,5.914013038497316,2.5710077900871964,3.971039852777456,-3.3753619352348423,-2.07422087705515
10.0,-5.7831481778341844,-7.008071915061664,-1.2249237372274928,6.402731392682977,-2.2928997729318272,-4.128614354186832,2.945439226829559,2.961425762292141,3.102166082941696,0.3120378428498718,-2.50180840176494,-2.0246639370605446
11.0,-4.024342215748474,-1.0225320191616518,3.001810196586764,2.537211429468018,-3.527888215440355,0.9835591247878552,-1.1569518761673732,-2.217519152600383,-3.029175280053754,-1.7821905715549056,0.9984630308757386,-0.8655004392027296
12.0,0.23761392534484393,3.595519410743048,3.357905485398141,-1.8937439682896509,-1.5779634756823913,3.471713829869737,-2.669828516690501,-2.716686473404841,-4.608367571716032,-3.1238912757345623,-0.33308425643440126,1.332562877141976
13.0,4.285294737459927,8.950041399775943,4.664746662315966,-6.663968709454241,-0.13353006648751764,6.798174209644452,-3.7089105991587084,-3.709350938538279,-2.193266276433415,-5.096179037322758,0.536518559029484,-1.4307101253490295
14.0,5.617691593080265,1.2475485371556565,-4.370143055924625,-3.392095788751756,4.965609117955638,-1.5787887928161064,0.6271736830620609,0.2130108203851111,2.276109971225997,4.522602774131659,1.9546306351842133,-0.8634433210497987
15.0,3.2456675724300883,0.6051150625070414,-2.6405525099230442,-1.9587761074707555,2.9089979344897,-0.966508278342,0.9254302047198102,5.610450625334078,5.5800167057264725,6.964455427397499,2.5484140846393704,5.20241176198122
16.0,1.946330995095901,-7.632669790836418,-9.57900078593232,2.810783144237191,5.802391865561213,-8.6428176714101,1.8514049438445124,1.0599890012049276,-0.16073199968529872,1.1297374689996218,-2.05956529314628,3.4599126414235055
17.0,-6.6412613146265,-4.503047377419556,2.1382139372069537,5.616342098598382,-4.353383317925269,-1.1478700585723152,5.186374037301997,0.1795704758782758,1.3046380804919249,-2.3449523091228524,-1.3960459055346357,-2.726140082938052
18.0,-9.13054406406253,-5.3372406719409575,3.793303392121611,7.1955950599324945,-6.505960848231075,-0.7420427044178479,-0.7687801193720201,-0.7192291203041619,-5.045658702625647,-5.8471894301806255,-4.408965238458218,-5.192384275136234
19.0,-1.7015993000157845,6.047880156801703,7.749479456817511,-2.136136050050184,-4.7697650120461255,6.8470842260423534,-1.2873125839352328,0.2987814369256869,0.41832280897795515,-2.7551242125215105,1.6650210521740378,0.49723270178745027
20.0,1.414042396982131,7.5558315019895765,6.141789105007454,-4.449780442443122,-2.3287528446917585,6.873776964185134,-1.534921763349362,-4.520252536795571,-2.588612426822646,0.428228340326831,1.175095885450712,0.1996079694491919
21.0,8.715780082957629,3.1524536310600517,-5.563326451897595,-5.977609733452755,7.175055021933617,-1.2618084098902345,-7.663616979174939,-2.2889209257145,2.1590200149664276,2.9298219028308976,2.8820613892641798,0.2881111482965788
22.0,4.706401244363416,-0.1284857649582256,-4.8348870093216565,-2.2521741822393717,4.805097337887357,-2.4624469416317813,0.5378646045758644,-0.7354223786766991,0.5906523804410911,3.1051733186036135,-0.936487307679128,-1.0581540437435284
23.0,-0.08322045382813936,-5.263294249769566,-5.180073795941422,2.633375082806139,2.5005997915881037,-5.205400506652851,5.691244208350874,5.731677777465329,0.24391229726749908,0.7898051437201272,1.9943366102200195,1.79783754738959
24.0,-2.391494495442256,-1.019650454893552,1.3718440405487042,1.6677253650964698,-1.9357474338599476,0.19080441134636583,2.970152622565796,1.552117334290919,0.8943261836002627,-0.45131712875956465,-1.4024549989386959,2.315185041370397
25.0,-5.973997638210686,-5.4351388130061045,0.5388588252045519,5.747403646553559,-3.2396105582960972,-2.4325435933181248,1.5527420060078794,2.979116365418461,2.071482606847545,2.409323493155748,-0.02554532710173929,1.2337477262658152
26.0,-2.216361920604127,-2.1160852839479203,0.10027663665613207,2.132418140071398,-1.1485296505708438,-1.067156768851775,-1.9060258523815992,-1.4785678909916935,0.07234399515262557,-5.85924743195517,-0.5402775918064322,-0.522633731166913
27.0,2.131671366015065,2.5329670692813737,0.40129570326625896,-2.2850619187412833,0.8717151569810047,1.4933982073288752,-1.997709236988994,-2.7814973170421364,-5.059194036584385,0.2797909556030982,-2.8697445231212337,-4.472236558682584
28.0,1.0730528082150779,7.50738090078932,6.434328092574265,-4.241186428002545,-2.6713841368479816,7.005964407290575,-3.8708178945970917,-3.6679444086394066,-0.3328415503225317,-0.8032417502842152,-1.4093292031437081,-0.7937224303421113
29.0,2.0878946297326166,7.451307098771119,5.3634124690385985,-4.7995963006091,-1.6193593153545927,6.373342325404761,-0.34677458550944396,-1.529271505131923,1.6423855914956176,0.8991454248043413,2.346439513732082,2.2832068385824424
30.0,3.547493334798089,-1.690436290759434,-5.237929625557404,-0.9624445016020444,4.4249058928336416,-3.4893540823016016,0.03008537870215333,1.3813350857042899,1.558301905510174,1.6636454589052216,1.2886158377456192,0.859792920360494
31.0,-3.118027573910231,-4.712863324202085,-1.5948357502917787,3.8733105039442686,-0.7932002723000982,-3.093706369313929,6.781301724162064,3.0763458219544804,0.2974053337352196,3.205136996676962,2.109096761299039,0.5427400819393782
32.0,-3.325456621511928,-7.184466462287413,-3.8590098407754985,5.280087276455587,0.2472947679705333,-5.537181636626219,1.7373161938989208,3.282756682802495,-0.6400662951205783,-4.070424872351262,-0.6181677063619413,-1.0772958805658857
33.0,3.0618840739563558,-4.309503742284766,-7.3713878162412145,0.636839814503023,5.203446718491483,-5.85654477429705,-2.083980048686783,-2.971095317646283,-1.845096634583069,-3.9381244490357474,-1.1552147185301693,-2.806674970565571
34.0,-2.325310586581498,0.2745997972815519,2.5999103838629534,1.0291363750189966,-2.4762725519986812,1.4171771278678396,-1.0525766770712326,1.6875455479652877,2.177329892886735,2.767831694728666,1.3711880967810564,5.320887504606906
35.0,-1.3962415652126405,4.2939740095822465,5.690215574794854,-1.448478908497097,-3.562781489315981,4.9660732812951505,-4.11460665724184,-0.7951222680780534,-0.3006052828565608,2.5212464066694986,-1.2054599921051061,-1.6029367307151645
36.0,1.4510380967130918,4.49038737639431,3.039349279681274,-2.966396012250047,-0.7433430197293616,3.811473533490536,-0.7068211223178322,-1.9167519785471603,0.6852831065154356,1.8290136769175749,-3.799209747249013,-2.8869106361326327
37.0,1.310540870591167,3.2128242074274063,1.902283336836334,-2.246757951908542,-0.252691080933906,2.5993622061913313,0.5441738688401802,-0.3831315790811143,-0.670069988198162,1.0915560085920957,2.382223314714121,1.931300345565378
38.0,3.8900785063832712,2.0437247566654855,-1.8463537497178106,-2.9373085723661445,2.8281291835319755,0.05891629683178201,1.2331218391633132,-0.14368206919629195,-1.0244497005138382,-1.39219612333189,2.1400372036615316,0.5079992615561225
39.0,-0.8073044378675276,-2.9655523259393153,-2.1582478880719114,1.8522434587264491,0.6347879588270262,-2.524082731873484,4.257016407467944,1.609076852049333,0.012894004599732556,-4.429516695359892,-0.41351230696581487,2.6918675472615243
40.0,-2.2123307633589313,-3.5087602333744097,-1.2964294700156564,2.838013418363796,-0.41735376044845174,-2.4438017384394026,0.012931938782609453,0.2512499898834112,1.3126880084273145,-1.466841063946727,0.481685007669745,-0.6925071107596564
41.0,-2.8054677955911247,0.12121879082639575,2.9266865864174023,1.3256665094876858,-2.821778948706313,1.4828301119116332,-1.8373498087703646,-2.455783457808062,-2.143560399030145,-1.5010303836666572,-2.2773272598957046,-4.869084656856911
42.0,-1.3389739057920123,-1.0343246847576115,0.30464922103445435,1.1704474046615636,-0.8537736627361471,-0.3265880222746177,-1.3340489151012827,0.1589599510577851,-0.23050493238809494,3.3057923636244126,-1.272397694651979,-1.1466233022923298
43.0,1.521314847311808,-3.0212105193851686,-4.542525366696754,0.8085319713106129,2.999335830256493,-3.820432830083131,-1.3940398860978456,2.6049872258347277,2.993629297858428,3.476553896328443,0.3604540612691738,0.714171256441209
44.0,0.9481717787784885,1.1332565840813833,0.18508480530318772,-1.066490276335311,0.34460995699517394,0.7033226713236242,1.2191318523116546,-0.06256270534372543,0.2867849928186279,2.6431691378636555,2.5856938552305153,3.7841448701431317
45.0,1.4093250803802215,2.266851434775531,0.85752635439555,-1.7898818539464831,0.3106081673422526,1.6122164019389362,0.642573836683163,0.9649540575022177,0.43649611329256954,-1.2575620526459388,0.8626424928098729,1.8274437414831357
46.0,3.036661548565226,0.26430004747909797,-2.7723615010860376,-1.683324467499811,2.931495084072801,-1.2763107107407177,-1.0811784661316375,-1.0270893479910914,-1.7935389365606056,-1.92828519710558,2.039600151366939,0.6550998841252036
47.0,-2.351592591651603,1.3470296503559733,3.6986222420074713,0.47008367893460457,-3.0040601571814993,2.505353775996265,1.4081103914907855,-1.6057952702611593,-1.9915308855854237,-3.6579755752931837,-1.2793773737192575,-2.042482050862369
48.0,-2.4094330458571145,0.7628215917742407,3.1722546376311085,0.8729108648409478,-2.850945778242233,1.9511492454325283,1.336477179289532,1.3299135360994407,0.23648501553282963,-0.09909442508434152,-3.0894567521057037,-2.0012457659778247
49.0,0.20086043074056925,-0.5758928422535886,-0.7767532729944189,0.16259626483232692,0.5091091460614907,-0.6962764850642215,-1.4631658565887937,-2.4805550455998224,0.3231175610278347,0.12334291436144718,-4.374985800771043,-4.704856355009263
50.0,2.5192761170761018,1.7405996838426174,-0.7786764332336674,-2.1510339971962855,1.674144059204038,0.45357365537122796,-0.06308074468042613,0.896047103361938,1.1448819060036894,1.5895752914895276,2.993032318619125,2.9866656501373083
51.0,-2.925935121720401,-2.222488619901631,0.7034465018187217,2.6337311863596935,-1.783362687666929,-0.7172730100118359,-1.3664464277111674,0.8969043950371834,2.7285392524655103,3.42836216645761,2.8316193203312943,3.976762666552347
52.0,-1.339850321497806,0.2614145385409119,1.601264860038839,0.51871282157657,-1.512857879264275,0.965456465292234,-1.0539229972839892,0.05751656041285913,-2.835225026967565,-2.183795711819108,-0.8703628691853851,1.5815631905672276
53.0,0.8408027698354318,-4.576291127974492,-5.417093897809729,1.8423708779096675,3.088872010399845,-4.967643163209533,2.2298186966513627,0.5718806870277128,-1.0123350471544015,-0.15336596320685375,2.2544851798742314,-2.0928988052257598
54.0,2.51934587468514,-2.259117427218043,-4.778463301903004,-0.16344247970220172,3.6862984347270054,-3.5695983736592467,2.27844435979639,0.7919521524518394,2.0291903639091333,-1.3102088646205676,0.24265727799874715,0.002704906538426477
55.0,4.910816696543208,6.952030543738538,2.0412138471954218,-5.895637264677907,1.3895644415167114,4.448411777624287,-2.4224575580484036,0.10264449649976101,0.07647702500241532,0.9186663320280645,-0.3863420477893775,-1.811522581981094
56.0,-2.1548373044750133,7.076109551380664,9.230946855855695,-2.4342865339525295,-5.6638825515781654,8.189369087493835,-1.1513974908264701,-2.477955187111967,-0.18429301611277088,1.3974340105263023,-0.38712638238530184,0.784162703351672
57.0,-4.581215631964371,-4.3345013118952265,0.24671432006911598,4.476721565233332,-2.3879474225941046,-2.001411472934983,1.8039742357153237,-1.1833105716393855,-2.9243279606936823,-2.199896099451251,-4.55372972805086,-2.3740305999144007
58.0,-4.565798572807351,-8.172655543512917,-3.6068569707056226,6.304974587254382,-0.45359508539132465,-5.919546414017783,-0.7127448732766972,2.818407836808407,0.3108205088672482,1.3499405977567602,-2.1418369779997306,1.5021835349000734
59.0,1.483934792466287,-1.2630035454497412,-2.7469383379161325,-0.09677450938757914,2.0652842301073067,-2.02989622962662,0.1896509119611482,-0.9356474267326074,3.8255367759505137,0.46503470054392304,1.765587173188961,0.8730501874113349
60.0,5.580423354501797,3.2722474765744494,-2.3081758779274386,-4.410137367107019,3.977270032230848,0.5380014341386461,0.6468674712387659,2.125930484001435,0.04721837764841608,-2.0502513193475096,6.802406868299302,1.238329924407108
61.0,-1.0823781330130466,-1.2826553885228458,-0.20027725550984954,1.203696457329063,-0.48265021216924,-0.7652686970599573,1.7027450071145567,-0.6797167455935917,-1.8975100295438394,1.552630842158333,0.36386419326014785,-0.9044221039610276
62.0,2.164874016691455,4.268866206844168,2.103992190152736,-3.268300543087191,0.06987075383103719,3.1589393616728993,-4.999017692902438,-1.5499102583508007,-3.270637897629434,-2.820451436289974,-1.9667852381290178,-1.7145504720726725
63.0,-0.09221642743494685,2.8376798173476354,2.929896244782661,-1.3396962123570852,-1.5509319093563172,2.8513450002450487,2.6464951051193886,-0.36328150539553095,3.8121083509568354,1.1500285620152142,-0.953599603616837,0.846128271354955
64.0,1.4925650041613645,8.128628020454657,6.636063016293398,-4.77377470510805,-2.536095297661344,7.424344738174423,-1.240095651786168,-0.09554577697931305,0.46618912213480634,2.5042578287091,0.41650439201277,3.24267779326412
65.0,-3.7448661407631887,-3.873631591751599,-0.12876545098833403,3.768181968231427,-1.8557897889612969,-1.961198126413314,-1.2613719528706098,1.0497541516809457,-1.6472956052787175,0.7593120956514074,-2.472305536184665,-0.9294863915107678
66.0,-3.6657892698300865,-11.139296333543928,-7.473507063713836,7.359339477780096,1.9307411666044332,-9.344197781238623,1.8642501041497517,-1.4121268540397551,0.2879543285831998,-2.2987747587892136,-3.8166033106880874,-3.737748504085994
67.0,0.370228712520829,-4.667192310576579,-5.0374210230974565,2.179928151985021,2.729094427264623,-4.808177518547799,2.741834301515338,1.4017478791545002,-0.3933826118105452,-0.23453586250785097,2.2113931304759245,-0.6694607203054972
68.0,-0.8366126273410648,-0.922705576802139,-0.08609294946117307,0.9069359704835258,-0.426474302582424,-0.5354419628901534,1.8316781779760802,1.7856850089749228,3.1601949603993984,1.7023540481777313,4.849856161307141,3.40431306662504
69.0,5.179082891559981,4.38985637087203,-0.7892265206880205,-4.838096052242259,3.0180153074796703,1.7711407844462028,-2.2274012311543667,-0.9383871915434325,-3.319683844583061,-1.0836639991921744,0.10118619547143703,-0.10972220083446582
70.0,-0.835705278185628,4.378157866564273,5.21386314474986,-1.744810910246458,-2.9817326865619647,4.844274568520695,-2.4397179273114116,-1.1883639567542064,-0.5469401000275157,-2.4072719313428235,-1.329038658577305,-0.24607079693315592
71.0,1.2158300475494253,2.4832774841172798,1.2674474365678625,-1.8183091148931951,-0.051727920864936605,1.840240619408973,0.2851025830107434,0.4767204556252733,1.9740229123900885,2.599916983719236,-0.9977133660408157,-3.366475024747571
72.0,3.490049931447629,6.369544792088132,2.8794948606405426,-4.891623483792071,0.2871214571888967,4.582789613617195,-2.3122741120964325,-1.497191917481873,0.30519250758582195,1.591795243347028,1.6386610130989072,3.8309779975443643
73.0,-0.5945043490778387,-2.548460273174685,-1.9539559240967814,1.5374702097238264,0.6653624179462818,-2.2203644921719645,-0.0030201469735582354,0.7957974322293472,0.9743671286121149,-2.237755284453013,-0.6285644420280248,1.6989778157400413
74.0,-5.347772825363315,-4.06124853771033,1.286524287653036,4.674321127855144,-3.33224649930964,-1.3597443517700387,2.465118829535895,1.477172408427491,-3.1102956566612567,0.6950509608155281,-0.00043759084410560645,-1.0806221787768793
75.0,-3.8367218481178487,-0.7512463862011849,3.0854754619166904,2.2638245628597997,-3.4804995422285385,1.1960138883316782,-0.5880958289930094,-0.5487518739625816,-0.3728045070915743,-1.2249511260347545,-1.9571608000483571,-0.0680247401466007
76.0,-1.81553568937437,-6.79144187780401,-4.975906188429634,4.2704865883802325,1.63355347251124,-5.927848989714629,1.0944151285170431,-3.042701926013537,-1.3881280350329328,-3.0591425384655433,-2.554398578836896,-5.896301047999296
77.0,5.239831972022347,0.7906432920112452,-4.449188680011122,-2.972724779557335,4.892089512860135,-1.7864091882530406,1.160990511758416,1.5799219812996466,3.1109686607428997,2.751054697524801,2.2532293268974577,0.627298835226767
78.0,2.5474097124716786,0.09857944820378639,-2.4488302642679303,-1.2813918182100879,2.4624369631528253,-1.2028671539391418,2.138214033543731,2.8999846210152547,1.2062631190920856,1.7260587476241587,2.198657068353935,3.1212312007284275
79.0,3.7403480016554225,3.298174015093502,-0.44217398656196133,-3.474799101085627,2.052470787884544,1.4055739392531645,-0.421129916281164,-0.44554308472418747,0.6813023141356909,2.954307059940744,0.4789634992617522,4.678897001197598
80.0,-1.6790526138971655,4.408039761088726,6.087092374985858,-1.3928007470217891,-3.845251836019079,5.225959519721933,-3.6420560112011726,-0.6125352313357901,0.024688060668416723,0.33793668028270607,-0.340381814424612,-1.4959535833612794
81.0,-1.398013769874406,1.2791282972860025,2.6771420671604056,0.03783299704478815,-2.080104085552871,2.0314375421106936,-2.698827266303315,-1.3177306894408212,-2.083063888006285,-2.452938669694547,0.7048082518140032,-2.340384636220172
82.0,-4.303807551677457,-2.9653920745619597,1.3384154771155186,3.6174942983724323,-2.785982983292236,-0.8461951091119473,0.6261558421269311,-1.2646641814733506,-2.2905925727527436,-4.2968907463244745,-1.241886175322549,-2.060798636857359
83.0,-1.475483891923818,-2.9356107665918176,-1.4601268746679816,2.188781289248858,-0.05154147426536615,-2.1603737993550767,2.22109604635304,0.5299810817994965,1.0318211239815325,0.9079504516463597,-0.7204759174486216,1.56457379766282
84.0,0.3247191846963364,1.8611440247224111,1.536424840026079,-1.1136712276606657,-0.5699044916542342,1.6500325492372654,0.4764424499702833,4.11426372043141,2.3139349408649847,0.3747547721674986,0.1724554942364528,1.0290917971444449
85.0,3.833716467765203,2.8898384211135046,-0.9438780466517419,-3.3104231563433775,2.4272545341603404,0.9984533225983345,-0.18482296341484328,-3.8496829699852575,-2.078729569496414,0.06202193175094273,-0.7473912274765923,1.0309500030184104
86.0,3.113496585694723,-1.5426656013907334,-4.656162187085518,-0.8195958340703826,3.8480767704500862,-3.074484694220933,1.3115484559225983,-1.2718125553209951,2.047341717695792,1.9244069728207638,0.5844143098624668,-4.347908544477668
87.0,1.1454588380618043,-2.8905760179904836,-4.036034856052347,0.9125015023674351,2.557631460603921,-3.513877952555793,-3.0336519602437075,1.0050865818850638,-0.7043685405062233,0.04654926717673069,-0.31809386566349945,0.16945881893703918
88.0,-3.6986681144745543,-2.811121845981718,0.8875462684928048,3.2934356516285814,-2.244892847818316,-0.9279620917306854,3.874942560065846,5.356826041803191,1.0701994193942999,3.421283383221742,2.3937236334811773,4.254856566843516
89.0,-3.8786586273420167,-2.6630744565405284,1.2155841708014918,3.232027991206592,-2.577142317800406,-0.6841392500505692,0.15961565330107685,-0.7922378938056651,-1.4954360701621896,-2.959700984426852,-1.579249437165785,-0.33905955002972554
90.0,1.4959866662204235,4.857628905286686,3.3616422390662946,-3.2130391169257546,-0.8862004829370977,4.073915239791205,0.3261349183641966,-3.813126305269765,-0.18344869530974195,-1.5201143402055188,-1.2191036619532207,-1.693822541496695
91.0,1.2027778657754913,3.242546613605816,2.039768747830403,-2.178047937270554,-0.45520475579777175,2.6046609590909515,-2.1334595611645577,-1.9260406673686317,-0.7009805576230572,-1.7268758667666422,0.8266926922764755,1.5561595830908206
92.0,-0.3880698978661543,4.155273464282474,4.543343362148733,-1.9172758576594775,-2.508564938297255,4.38617576681727,-3.481570636845939,0.032288352192595404,1.413175128157229,2.0103540551411525,0.35332614058189593,-1.6536431493837822
93.0,-0.2297610040418976,3.314784337175305,3.5445453412172694,-1.5774387537483523,-1.857394864038798,3.379154022406877,-0.7468569303119412,-0.44233987966383,-2.709916268447585,0.5791121930776071,0.3951308591639169,-1.5709433733263691
94.0,5.2102382905634945,0.022824329104853616,-5.187413961458623,-2.574851769482391,5.224243679146454,-2.5631211664064097,-7.238216279579604,0.4766875614246401,3.739381132238986,1.0031793894823893,1.751980973426589,2.288599170208051
95.0,-4.690697183741047,-12.480392794453477,-7.789695610712448,8.625363044609575,1.573710462554919,-10.122086020577886,13.762542296915605,3.9980466961331,-1.6981153033948908,-1.801418794142665,-5.220957788369617,-1.405931307566707
96.0,-4.3588434511879575,-11.622298908290155,-7.263455457102221,7.9509415967305666,1.4001102656885065,-9.43073577856671,12.756272635298517,4.673802131656774,0.6298337160866995,-2.718667203416507,-0.9435048962385228,-1.35511319791026
97.0,3.4407291373695257,6.107017369508562,2.666288232139023,-4.734046232056364,0.41903719124361033,4.404195537382308,-12.011164795314713,-3.6367880171974014,-0.4606456415018176,2.7997236196293525,5.404718722153724,3.4036253942713506
98.0,4.425887833427576,11.969472229892059,7.543584396464474,-8.234805591240384,-1.5990481876282112,9.784462362729988,-7.381195605345374,-4.5422679268315145,1.049333047192992,1.515115440955262,2.639444097272759,2.521597362770241
99.0,-1.5407014778836672,1.8791765149337651,3.4198779928174403,-0.20397174367857218,-2.435420100769538,2.6113407490196128,-0.5484244949527897,1.0041284104343355,-1.675870110995843,1.1201448744584845,-0.2095621803837533,-1.7087029841412966
100.0,-0.09892888066254313,2.121756628911068,2.2206855095736215,-0.9647543167975883,-1.1897001318693465,2.144767950261544,3.0124949766710865,-2.1866977359375834,0.38208353051778254,-0.13576324499251263,-7.542863509360076,-2.482809476695516
101.0,1.798858632917113,-0.37473321249478486,-2.1735918454118837,-0.7413594408422405,2.035191859194093,-1.2920884270331539,-0.39043067849407076,0.9273818063652726,3.486626525330048,0.8116964608404282,3.0650708007723213,0.26483381584270416
102.0,-1.2892326146120179,-5.680463258074183,-4.391230643462163,3.5372262864625044,1.5166976143715485,-5.04926410132611,0.35808212202660306,2.9939700651742136,-0.7580990815107018,-2.524193574089154,1.2541127089310904,-0.37617678946684696
103.0,-5.5966012872517945,-8.726177326116211,-3.1295760388644123,7.137947265631244,-1.2765538909954641,-5.8615103573817,2.7251638713742645,0.19080148201371872,-4.715222185057334,-3.066230540336799,-2.058352264231753,-2.3533997916233296
104.0,-0.4342654652369675,0.8382804629993332,1.2725459282362999,-0.22280087832123074,-0.8290028756888417,1.0417315660996391,1.9320270126026355,0.8277642143439753,-2.6363544552221825,-2.947938314867869,-1.3170871953764824,1.0682956834678272
105.0,-0.6633925803782297,6.692293136836488,7.355685717214722,-3.033226307333561,-3.9964485951584523,7.007579772529492,-0.5790660481075158,-1.2977866621899137,2.8626369327971233,4.413000830731925,2.8233874542486292,2.965154948895101
106.0,4.674040521709328,1.1824434280197202,-3.4915970936895873,-2.867185503772748,4.087314230316973,-1.0961799210970566,-0.42049858686806946,-0.5896572899774521,4.191115861592977,2.0732506252305694,1.375438641026825,2.0474894549832126
107.0,2.0818355601228724,3.141606224445092,1.0597706643222307,-2.629469130486223,0.5116969556166016,2.074853369121345,-4.3582783447164735,-2.3091525052493287,-0.44850608332379593,0.9243600629170814,0.5803576475232435,-2.111577025727342
108.0,2.1152310059877237,0.33258596206088153,-1.782645043926852,-1.2429048893755048,1.9513138646100505,-0.7581440208267987,-2.051831819018711,1.690684078052461,1.5315625738919265,2.4187614893986757,-1.4285960754411366,0.22745692491932568
109.0,0.5698372249331971,1.7920356800932056,1.222198455159989,-1.202201619133588,-0.317182512798716,1.4653908473307615,2.454481180977533,-0.12752380933065677,-1.1737771944598323,-2.554866609975759,-1.0689203347409668,0.8384612882195368
110.0,-4.460093520189822,-6.741436523052368,-2.281343002862587,5.655423725908347,-1.0705599890837927,-4.482876915310484,-0.5169794889583583,1.6089409623102837,-3.392034152252454,-1.9576408772800054,0.6426425522621331,-2.769655517737647
111.0,-3.4820203550957034,-5.155845864914108,-1.6738255098184651,4.2921651822554825,-0.9531805662078,-3.3927510594823183,2.9015429276050497,-1.6051592224962306,-3.2543446893150096,-2.198908155716796,-2.6761568709471373,-3.839578563355864
112.0,-0.36791342027239926,0.3509814452309725,0.7188948655033074,-0.020034012499464016,-0.5825310403260695,0.5543266550076842,2.769215170505886,2.0956924239287527,3.0316890338230866,0.9148957991496944,1.6294900642518313,2.125361926022344
113.0,1.5660129056407284,1.9740930524582272,0.4080801468174642,-1.7199167125114059,0.6263504416583214,1.2120161191660692,1.5294158716340704,-0.7195111654554895,3.0457361076031138,0.14534013818026298,-0.7817409274707642,1.6909697046424594
114.0,4.268874742324116,7.7888959583286645,3.520021216004576,-6.055663219268608,0.42670660744189115,5.6015068062924795,-2.6182913304762767,-0.5437680892257781,-0.08541814533719849,1.6673914313981932,1.2987951278630496,3.541044683880618
115.0,-0.6923380895487152,-3.182005345373529,-2.4896672558247293,1.913978290706182,0.8739844954904716,-2.803790367816957,-3.4462765057373446,0.3223145919408096,0.4579696831160345,1.3818598527913992,3.4786843732560624,0.4261165815510597
116.0,-0.8314343620760092,-1.4336092799208897,-0.6021749178447948,1.1925904307542616,-0.14051709325796452,-1.0591964667805245,-1.1889281132302862,0.9115166985730718,0.07302480264301026,-0.010139754026675218,-0.5291468225228739,-2.0394108906606623
117.0,0.5642892611926369,3.029287659938319,2.464998398745731,-1.811373383422669,-0.9798657357641742,2.7873973743025076,-2.28985747365766,-1.6604809440758994,-3.198567922794088,-0.4748045983897441,-1.9866459156175436,-1.3880687792750988
118.0,0.5463991078678692,0.8990223753916875,0.3526232675238008,-0.735142000753245,0.1412350095919918,0.5867735709604613,1.376014612807674,-2.717244890814245,-1.04392593701651,-1.6445968098209356,-1.898094579397549,-2.131962579833832
119.0,-2.1730044258571617,-2.771557290924595,-0.5985528650675347,2.4588745522706725,-0.8262629354111848,-1.6489570104974052,4.199323334041167,2.5603355579266696,2.8060509594816834,0.8532024066996449,1.56148215297115,3.878675612425379
120.0,-5.29083762837982,-4.644814023660812,0.6460236047189096,4.949976938103229,-2.931668886762384,-2.0475397145367795,2.749096461378109,-1.2459279051552148,-0.004828904051158545,-0.8147337327498341,-0.8738068301512707,1.9479247453430615
121.0,4.322978451920125,1.435850467831397,-2.8871279840887714,-2.825681840637001,3.641361401530598,-0.7009106318454312,-1.6705401536178144,1.6167675761010167,0.20940073145579452,-0.35270322036592217,0.08797347675563374,-4.934432036063916
122.0,1.8947382112751237,4.033350579046085,2.138612367770979,-2.9972928051757144,-0.16238610714894874,3.105694048621001,-2.11689264964652,0.9629925220708458,-1.292659015185119,-0.1747972062423006,-2.0644867194730914,-1.116382780831145
123.0,4.51039619507997,0.41313416415038984,-4.097262030929509,-2.502220149619215,4.267021401344587,-1.8259863154953222,-0.145775200685051,1.0874880400175801,0.8646397614570526,1.952021820845658,2.0865410295573326,0.7341812152137143
124.0,-4.080120307196598,-1.9340362222389829,2.146084084957678,3.040993523194812,-3.0670558784017055,0.11955335192475319,0.5696348865805891,0.6045940384622182,-0.6896653357760766,-0.526244382803626,0.4388962468028972,0.4899354201798859
125.0,-2.9218790577117506,-4.423863482547011,-1.5019844248352283,3.706013795892677,-0.7393030076418583,-3.030333028275182,-1.4260128747022798,-1.9801255177282,0.19965570798730092,0.4696409263679976,-0.44293343751359626,1.9260968216464875
126.0,-1.7189617372160755,-0.7738999656017271,0.9450617716143492,1.2816989681578534,-1.2810451882722012,0.0945558420231915,1.9336494735896208,-1.4024089863407516,-1.0737227250742802,-2.940809739553638,-0.6430948044334368,-0.9621307095876442
127.0,1.0829053345519726,6.040597909463192,4.957692574911197,-3.6022697741691054,-1.9660337229306868,5.505686738731207,-0.8733066424219463,-0.8265049057097871,0.25254937373764247,0.33941754899992715,2.011707958371036,0.5142375928082933
128.0,7.597206562284688,7.3215965212566365,-0.2756100410280835,-7.498710782317572,3.904372451920161,3.527787284616574,-1.8995953781725923,-1.5605471627099143,4.906994464388469,2.8814865141181576,1.3898454315042625,3.887118889263403
129.0,0.8292979084462324,-3.8108851899406644,-4.6401830983868955,1.5277124627995224,2.776082399048197,-4.220842226842809,1.3578139427071652,2.600847557606051,-0.9534982758201809,2.670106543144744,2.8029745272266218,0.7973346045505607
130.0,-6.595022944785788,-6.8214554748579035,-0.22643253007209685,6.659703746079631,-3.2278724398197087,-3.517129702695569,1.1849583965579322,2.6386368341051956,-3.6396264572259938,-0.8012193950763542,-4.1169196878960905,-2.6985172096689607
131.0,-0.6788308593373023,0.7216745679011285,1.4005054272384527,-0.0007748028453402611,-1.0099700711207393,1.0720427697656039,-1.1883977404209363,-0.7146884696764555,0.02882997430913692,-4.097864210616271,-3.5254641127324304,-4.372854511662752
132.0,-0.9263126104215456,1.4096184354297032,2.3359310458512432,-0.23082748972350453,-1.6048653684918381,1.8888619496861923,0.7453803815227258,-0.006465210303453206,-1.785242048262662,-2.4399355428745566,-1.1201262261572227,-3.7884856689401936
133.0,-1.8853346211761934,-3.182705080916041,-1.2973704597398448,2.53770427615481,-0.3471342878372887,-2.2980297023876406,1.7444609593831868,-0.7492771685691859,-0.016193396438202556,1.2114254109444684,-0.16034802285280014,1.5285290028345404
134.0,1.7411508818011014,2.446502472669926,0.7053515908688277,-2.092393624940561,0.5455383550866493,1.5995814961703634,-0.047243497626569986,-3.7530797698313636,2.3397612437188693,2.123978417816169,2.404626745849616,4.357667216038696
135.0,4.248307502502236,1.1722223320854965,-3.0760851704167242,-2.7054694452373407,3.6936770540444073,-0.9277952405214382,-2.8997699510590556,2.61734406953925,2.9028955615242165,1.9141512545029649,3.829344145810439,5.741116693662747
136.0,2.489647167075542,-0.3363798877990023,-2.8260270548745217,-1.0638471576594137,2.6147760119124266,-1.6374866209210164,-0.814094044086574,-0.3948547739928444,-1.26093130071843,-0.6728958818300153,-0.3141253899751977,-3.121073952477597
137.0,-1.3708260853103502,2.1328004964832097,3.503626581793581,-0.3579014322552915,-2.3984463961588767,2.837901056857433,0.9247362936820647,3.0930489779932184,-1.221439900209044,-2.2617701639168875,0.48181175758443107,-2.674262362679585
138.0,-2.5285268106747054,-1.0635087073311866,1.4650181033435465,1.7501577511158435,-2.0357432583307142,0.21795056126029966,1.3506077604200066,-0.5115543852869352,0.21791322300629212,3.4063393192110776,-2.033499361524173,0.03310844185379347
139.0,-3.225348953537252,0.2816438135313206,3.506992767068585,1.4330274980073767,-3.4063166896996266,1.9105287082192057,1.755043998442997,-0.24242116345055897,-0.8712214510190923,-0.9621362587599052,-1.2407731558256487,-0.24380994251620347
140.0,2.9369288650107226,-0.8961212509234988,-3.833050115934262,-0.9772260471667296,3.4210309897856566,-2.347206877101848,-3.3107157689782145,-2.118228423811094,0.27918647041574485,-2.7741616049862565,0.04107412316639536,-0.9066217837710284
141.0,-2.3327932567903864,-2.2445246686265543,0.08826858816376171,2.2529255924436558,-1.1772431879065688,-1.1361549079490745,0.5676771734624823,-1.5416031521059856,-0.4715510318201454,0.8101691230419577,-0.9120012404732971,0.6369586997417607
142.0,1.4676923768862098,1.296940913572331,-0.1707514633139523,-1.3416126984464516,0.8505468674682259,0.5889739173954402,1.0389842482616454,1.1194182682871199,0.6851745910903919,1.3398411458249853,1.9706385142732445,1.614717524509679
143.0,1.317655966463006,0.05416298236321032,-1.2634929840997948,-0.6482578188633443,1.2423594195505823,-0.6510439451182027,-0.23196510951839278,0.026782318723003518,-1.0517699938627367,0.03584284328216758,-1.0244745005572287,-0.4563930834771046
144.0,1.8362040078446118,2.866293387272871,1.0300893794283188,-2.395127349552979,0.3550447014086032,1.9878724734074407,-0.8109906798529158,0.5020465694157855,-0.07582126556944964,-0.717866128348796,-0.46965353789241715,-0.37797835127872986
145.0,2.448798673991737,1.3378532459542778,-1.1109454280373894,-1.8604403523887996,1.8113361395180951,0.16057318639292362,-2.398159661929432,1.1607128526800379,1.1536754457316343,-2.2739664691037365,1.2824774790969746,0.40483572140169577
146.0,-4.145952769868704,-5.587629481596023,-1.4416767117272722,4.8200606458495905,-1.3199737157692084,-3.5396665919021713,4.113652397165861,4.271780038781966,1.5252285972484438,2.0640518113721216,0.920442725283265,0.28682053484303993
147.0,-6.562641975371213,-2.0272565935230396,4.5353853818481875,4.248909225788812,-5.516734434252647,1.2338341500956407,2.4026397636025827,-2.333976983274054,0.47803408534461944,1.6527584758354212,-0.18315348953439048,0.05994602150086695
148.0,-0.06381008920930675,0.22566737429645334,0.28947746350574777,-0.045475213053750796,-0.22402056373718127,0.23965417710991394,-2.175558312549489,-4.397713285852726,-2.601873354406865,0.29961761742942383,-1.4851713335807082,-1.9307425525306718
149.0,6.147770335228581,0.8277870115101287,-5.319983323718488,-3.4474676323821467,5.684546147502417,-2.26406908004099,-1.5998414933863714,-0.2007193046441964,1.5957415308312721,-1.220827643908844,0.21460998748755789,0.4781888915654203
150.0,5.205414753697582,10.30154635792842,5.0961316042307825,-7.707153487716916,0.08167699473044454,7.758039766263,-2.1333053088056233,-1.607340732763078,-2.1263828747033084,0.37125724129852133,2.4580970958207438,1.4310773863707253
151.0,-2.320842099905387,1.14037345843006,3.4612155583353768,0.5629236027537443,-2.8656513875775538,2.279297719478322,-0.9722785507458888,2.6282732119463788,-0.9853196081134983,-1.857672400103789,-2.211744062908555,0.20496976562677793
152.0,-2.7813464721949512,-9.166359834200335,-6.385013362005431,5.948297447245147,1.8275013444265404,-7.798595279623295,3.6704909433324713,3.8072849406363414,1.999940505666709,-1.0862556822695932,-1.507923447955049,-3.7077139275039506
153.0,-0.7353573150076325,-8.90240646887042,-8.167049153862779,4.790120553049842,3.6657482602423404,-8.47953133568557,1.6575018803892243,1.5704670651756572,1.0469202265143194,2.3140375791153667,-0.263895204042088,2.582328287376408
154.0,-0.9038203541982384,5.467159118103084,6.370979472301381,-2.318306039315127,-3.6031070467657047,5.895092724839118,1.5935163292638277,-3.848646203996295,-2.681079638483877,0.27636381774468866,-0.15820459255825572,-0.055615988774726954
155.0,0.5670032740284616,8.714800788042787,8.147797514014385,-4.608967171379814,-3.8273670784375255,8.406040743004388,-4.78813706051684,-2.6286969830503777,2.1755889433794287,-0.4835222519070531,2.894531395690548,0.8029514685766791
156.0,0.53569421049375,0.23443825508153449,-0.3012559554121954,-0.3620202010153388,0.46824048905680105,0.016818087383111635,-1.5065393863625514,0.891935736049982,0.27571006117926505,0.3896679312663642,0.8769752140710081,0.7500526255810243
157.0,-2.028827873065009,-4.472726544370111,-2.44389867130516,3.269586752922881,0.1854935799242417,-3.492695220906528,3.016941606822252,-1.2220598355609857,0.9036505447292544,0.33811296710158867,0.09307497169951273,-0.8223047904902453
158.0,-0.2818600505087204,-1.3240947826838811,-1.0422347321752263,0.8240003307598359,0.3627077116058636,-1.2257115428001109,0.5268154933768355,1.5138250086444949,-2.500460457986346,-0.11862023574058869,-1.966136574342495,0.41864938019352427
159.0,5.784440941068505,1.9417316103013489,-3.8427093307671747,-3.912537346877696,4.797497959131136,-0.9235358330900518,-3.3897417416916067,1.8770739863903574,-0.025090876379907368,-1.1402985214271824,0.9277234094111078,-0.5209223239755165
160.0,2.534442634955278,-1.2671068102912018,-3.8015494452464385,-0.5923356187386226,3.228895137612597,-2.515973821309629,2.6295964499183695,2.7705635729766995,0.41341317438742975,0.08820465710696646,-1.840970752747942,-1.0375526485760767
161.0,-4.684601465638305,-5.692943178270323,-1.0083417126319179,5.16383834970426,-1.8601799246529376,-3.338658028955774,1.6769712617492174,0.5344210902929188,1.6108039822748983,1.5127398553997595,1.254410000165065,0.7778625785662832
162.0,-3.4334847592515425,1.9096332832231653,5.343118042474799,0.746752784228955,-4.415610111360885,3.635051839640378,1.0220404122308742,-4.747310368163581,0.09313910185175656,-1.4029631041163335,-0.004873774082162052,-2.9710372149710484
163.0,-0.3918082487714014,7.355395063638451,7.747203312409905,-3.4920360225409803,-4.101440014453678,7.559646686963782,-2.3463649047685817,-1.7416947663638043,-0.6248772284327675,1.035533885668387,-0.8683361675704073,3.547689994102815
164.0,0.8968584190022044,-0.5612860031228095,-1.458144422125017,-0.17854101897015306,1.2218730871679857,-1.078185155546361,-2.4452248496961766,-1.0192679617726663,-2.928214087227076,-0.31071123537223694,-1.6398020360690926,-0.47190218954013674
165.0,-0.4737240745700395,-1.9594925248451622,-1.4857684502751796,1.2793900153382076,0.5509303464019923,-1.7090506502206568,1.9017075274308892,-0.07859537638658759,1.6065216992023592,-2.5430610174064676,1.718164631450607,-0.8662685861422278
166.0,4.391102457590729,2.957985705237835,-1.4331167523529713,-3.6988660254748775,2.881369826118428,0.7799071513522078,-1.0981890901446125,5.5630485634721705,1.6431071846059466,2.3313069982872547,0.8131553254147029,1.3667593126381483
167.0,1.6547260629773284,1.2644907351415093,-0.39023532783590786,-1.49365186090066,0.9957820686469125,0.45842844485988343,0.3169253487795791,-0.25585750454336154,-1.5085463621641666,1.5412953308375525,1.993661046813398,1.8574532536202304
168.0,-1.3538849840888947,-7.957322421144898,-6.603437437056068,4.690749991508248,2.6795284424304158,-7.25598047150276,-0.169000238701616,-0.08713629219902597,-0.7181406300278211,-2.7315317778669117,-2.369476755173264,-3.510911114151016
169.0,-3.5333420070016466,-3.238208704220877,0.29513330278076966,3.412569824793899,-1.938907718212841,-1.5241476574622177,1.4923809962508767,-1.1742344933266873,1.0052257348848024,-1.4190914480264785,-1.4552705496507299,-1.4151322994149642
170.0,-1.9322767165379557,1.5240188904691145,3.4562956070071342,0.14555306423484926,-2.7239030686584065,2.516378508887308,1.2348449896710216,-0.29974030955377173,1.3413542899824842,3.7693041272188452,1.2628971366992683,1.7590651493488854
171.0,1.196515314011738,3.929398072175256,2.7328827581636057,-2.5475594715199366,-0.8062889635439963,3.2773912053478234,0.4071680782261876,-2.787160208218885,-0.41075234403609734,1.28465513169263,1.914609848188663,2.136823946963652
172.0,1.3805948082657298,5.678506927129088,4.29791211886344,-3.5172049136481673,-1.4278464674514015,5.011765356036785,-3.0171718010290283,1.327689358670961,1.5691824064768853,0.15494731064621203,2.1142383164069596,1.1972391593408083
173.0,-0.39553099148871806,-3.800862215945715,-3.405331224456954,2.1090311039034075,1.5273179199601699,-3.5797613666971295,3.421943608295493,1.40429354281526,-0.7983711748837962,-4.458174443498145,-3.5685415412029284,-2.0847006213451165
174.0,2.1175644698192806,-1.122183251907839,-3.2397477217271176,-0.4869536516626158,2.696264905972947,-2.1554037039348506,-1.6086924907799491,1.1565454575259164,-4.692995893682326,-0.48440761451521674,-4.539083339859114,-4.280933106750618
175.0,5.330867229017685,3.3631886460011744,-1.9676785830165624,-4.4136855262555486,3.666235823450212,0.6497216162465005,-4.990011021651946,-0.8862969483560499,1.9356749814027179,0.30679464705594617,3.035065773887644,1.0913833620862627
176.0,0.9495571088939334,-2.357226427716747,-3.3067835366107756,0.7189419417465213,2.14751938826515,-2.793642039873558,-1.0500027210205798,-0.19177077598718642,2.1234526894155388,4.205387768271751,2.364642287442015,3.4012211939196244
177.0,-6.077466536981797,0.4617632300905794,6.539229767072262,2.8277878557721783,-6.364444107132232,3.4690610007838005,1.9117644661768893,-0.22050617327054028,0.7525309169055023,-0.6936724460319363,1.1933659037187934,2.2754170200923562
178.0,-11.907052305040715,-8.184760706006482,3.7222915990341465,10.072197535253121,-7.868473627895833,-2.2540070511444994,9.869561191435288,0.6701476430602409,-1.4724528159645376,-0.7450982414287524,-3.236797725901064,-2.0396852031178243
179.0,-2.7531650900212408,2.6059486717117037,5.35911376173291,0.10678420697676794,-4.030738061512363,4.0452240997555675,0.4658773281658082,-3.2073844476591535,-1.927154966472222,-3.724630252170412,-1.2579402373158752,-1.752898353574833
180.0,8.407337729779702,5.925777997607388,-2.481559732172288,-7.206236357151923,5.468880910958713,1.7093868110135035,-6.267100425530948,0.7826992263158375,-0.5286267417248842,-0.597435413849654,2.7045580955543316,-1.0400987720389834
181.0,8.44816415970179,1.8480969496325859,-6.60006721006917,-5.184304467862691,7.5472292669629635,-2.389670197232049,-2.937756980059955,0.5529379678571604,2.2520648750908645,2.2938043070617695,-0.9441008548520657,0.8241769244806072
182.0,6.455088504417181,-3.459050647717116,-9.914139152134261,-1.533660208640466,8.206946669959112,-6.705651587159171,-2.2319629652093163,2.224251191308552,0.9192737361471084,3.6376489147724738,1.655613685070246,0.7974151261028534
183.0,2.2510446296281468,1.593755257951506,-0.6572893716766384,-1.8812415555253796,1.397690146546279,0.4402294807848439,1.8990681430219378,0.9339876581188293,1.6121099399451249,2.391572189818926,-0.8625329844862759,0.7030496122441817
184.0,-8.098710559987854,-2.03332351805051,6.065387041937334,5.1039158898001,-7.059602395101586,2.0558390884015414,0.8170513665133547,-0.43553237316313126,0.07065331864395225,-1.8712722876990284,1.8732515215168313,-0.04746244218025347
185.0,-6.711023484662085,-2.223166785658822,4.487856699003249,4.501591177230531,-5.577314960166484,1.161038322936609,1.6434840104599502,-0.9842981941125396,-2.696046295379344,-4.286751710403168,-2.0575899659296946,-1.79681445322236
186.0,-3.231369328727263,1.6535865955881055,4.884955924315372,0.7417936498212443,-4.116050058134064,3.288185252777871,2.41200507271433,-1.4056649254273117,0.9636021503174814,-0.3840194419001688,0.4778198257532654,2.1315647210517064
187.0,0.5634595841980912,1.5827033651583078,1.0192437809602475,-1.1221795490501836,-0.2090518153912564,1.233651216836872,1.1371465372586949,0.02781232814157819,-1.7926736073826472,-0.9345416970874924,-0.27401300364235787,1.040910415825577
188.0,-4.344284405934082,-0.6815025633524353,3.662781842581678,2.54158458221201,-3.986630109007728,1.4974005743794678,0.720466104131454,0.10836594188967,-0.4478944609145437,1.6305778578441141,-0.8125193904933705,-1.44780909006621
189.0,6.490253685348211,0.3778067025847735,-6.112446982763411,-3.4049565406874045,6.317632118973366,-2.862083101110948,-4.647320083696613,-1.5902427166314466,-1.2874120658676378,-0.5336176485538366,-1.5241052479709154,-3.1079796392217687
190.0,3.9580965910126924,-1.4046725154746251,-5.362769106487327,-1.3243865518451179,4.599815323184714,-3.376693364109013,-3.206845114056852,1.1799491521288155,1.6716107313824506,2.1297976018781197,0.6890827251293412,1.0146798856580757
191.0,5.9809791932226934,3.221041147940057,-2.759938045282686,-4.5663966236564,4.3935055040579805,0.24253696728916507,-0.6583903411239826,0.7971691118427233,0.8959333692421119,0.8777208114697859,-2.1660933343218507,1.1225749733094446
192.0,1.8655234238804383,-2.0086002698643934,-3.8741236937448877,0.11053556002671017,2.9004862128572877,-2.9219074707589616,1.8914763439147282,2.482467338230296,1.5230437346731625,0.25341405526726946,5.044599409896472,2.5733396422946258
193.0,-2.135863221565435,-0.8838052783695838,1.252057943195815,1.4740611182067556,-1.6544259325967483,0.13363756276442773,3.433011044394299,1.4377426768146502,1.755842603202512,-2.5606865730159347,0.9395854474823517,0.18983569624971364
194.0,-7.924877850907983,0.17364751612492213,8.098525367032915,3.842002313773966,-8.042980024462127,4.17302519344083,0.8800008848474676,-2.9489600295973437,-1.158479460684994,3.242516141332123,1.1182067957689072,-0.1585994499001876
195.0,-4.58048862626204,-0.6433565166694272,3.9371321095926355,2.656388739935917,-4.285189715124037,1.6122048262695206,1.1011460254398955,-1.99039096280291,-1.7311684352077614,-1.778746474653346,-2.927624406665727,-5.000286428163981
196.0,1.2014540358757477,-0.5585614951957223,-1.7600155310714523,-0.35937907809313185,1.455196533894806,-1.1107059002914121,-1.7818050416037314,-1.8784871010086888,-0.6223754059438553,-0.9363127996514815,-1.2012709818671334,-0.48603558568487903
197.0,-1.568391897958245,-0.77384852683024,0.7945433711280355,1.2061707135737474,-1.2095856157340044,-0.018417683770710166,-1.299564776239543,0.922243390815441,-2.031036133351096,-2.4768650124060128,-1.1606203892992561,-0.29505710641896415
198.0,6.854718234822795,2.9192792754219816,-3.9354389594007695,-4.936932261251594,5.441749476642249,-0.5384101264012989,-0.754496399568175,2.957966606066149,1.1517163369946963,-0.5254100972036961,-0.3916386734743358,3.5888589193344425
199.0,4.612072842554725,5.615505986077056,1.0034331435223591,-5.08973194603406,1.8480953450735167,3.354076918093201,-1.9625470637062112,0.654115403922493,0.07460490732939251,3.12161538616367,2.0730636103791715,4.408221560829534
