Time(ms),I,II,III,aVR,aVL,aVF,V1,V2,V3,V4,V5,V6
-200.0,-2.688428479089134,6.631628178527537,9.320056657616608,-2.004509502294806,-6.0220492595165656,8.013069341983453,1.5167453619142761,-0.4568269985161948,1.5500147232251587,4.084654422072785,-1.2966498573388725,0.674802741685891
-199.0,-8.328791803725279,-0.6828452104485736,7.645946593276735,4.4752273099260025,-8.009639480855448,3.5244207972135992,-2.1398868928572234,-2.6198678965111655,1.1099697856376456,-1.2948427336798343,-3.0559523143090055,-5.676659450720126
-198.0,-4.229861164742507,2.959072038455658,7.1889332031982685,0.6043307668960738,-5.658474472602023,5.0427792071094135,-4.180797593305965,-0.9934499362094267,0.9842759898324887,1.1184626653126055,-5.300947070375065,-10.020866894315912
-197.0,5.319902638567571,6.661494945675728,1.3415923071082752,-5.944830441238782,2.0357727030492074,4.05202958005958,-3.614300012538478,0.6057195399490578,2.8255464998127415,7.319625868634265,0.09043113113659995,-1.5024110802083959
-196.0,-0.9547692960744212,-4.709050742523528,-3.7542814464490304,2.876135405072311,1.3655882692562273,-4.259502680486458,-0.16894980078661637,1.2348401834389968,-2.7009055244062647,-0.027277356353144766,3.1506745413601256,4.025451755020878
-195.0,7.2440560452837515,-4.334932702067514,-11.578988747351268,-1.4897740653225346,9.45569175564257,-7.987399737839713,3.654964702268195,-0.47702169974213326,-4.141746006192503,-6.337868793299508,0.43286393868547224,5.895930495736676
-194.0,2.832076328796123,2.9526405458836775,0.12056421708750431,-2.8488781541391384,1.3206922620507067,1.5008578383843378,2.3277968988564313,1.2207314672587573,0.6268703139643019,-4.878686964629939,-2.761034240987164,3.5371697741975527
-193.0,-5.151243167569082,-1.2455665593858716,3.9056766081831475,3.162589119795462,-4.565610146674404,1.3663167670433318,-0.2510243335987572,-2.3925405573266736,-0.41612662541648454,-7.652074534720252,-7.172414903876527,-6.834236489869846
-192.0,-4.093337928770331,-0.7654483040168669,3.327889624753407,2.391415116355552,-3.751731722293215,1.3110895645166367,-2.9986153429662203,-0.5053801315233702,-2.1162322194527343,0.0614620402668653,-4.29214179184383,-0.8260503543624507
-191.0,4.663092783245402,2.8732821370111057,-1.789810646234311,-3.731539651593705,3.2595550982999053,0.5671798788893054,3.320205608106075,3.0284667810912316,3.8944388761711126,9.025381217796317,12.67516540446116,2.405428186158235
-190.0,-4.317481345541736,-1.8201082853740247,2.4973730601677477,3.0213876020552846,-3.377117685560386,0.28378094341440874,2.0848927455785446,-0.40875758337943524,1.4971994973335128,8.335393139440328,5.3915113764146,-3.0248914977535692
-189.0,-2.4096734474502295,-0.12475023180954231,2.2849232156407435,1.2936895168633873,-2.315999873824963,1.1054108447557607,-1.233268757124348,-1.6912394954075145,1.7919642404904323,2.896752370464453,4.772668594586737,1.1063406974484533
-188.0,2.777530329227437,0.1505294203735893,-2.6270009088538053,-1.4402849580649277,2.660263579856964,-1.2877822076133345,-4.488019967045366,1.636223892079049,-0.8824646923229137,2.4744088647442535,5.010385724100934,7.507005044025087
-187.0,3.990878456656974,-1.8263068413739159,-5.817185298030864,-1.0582321353813384,4.949550586035696,-3.7870847969426755,-4.359518810120835,-2.5066201334724276,-0.22906326587850911,-7.39639047660361,-7.732886278713193,0.727330790108343
-186.0,-0.9023464555639813,-3.3475848139459092,-2.445238358381941,2.073232577586805,0.7477303378824702,-2.8558037924380963,5.571611827351401,1.6474475248618998,-1.4966638256271005,-11.1487514041906,-13.825683209894557,-6.37012800288343
-185.0,-0.7957731159283961,3.8999085955786024,4.695681711506972,-1.521044957277799,-2.762230673929701,4.264884627060841,2.6626546224469347,0.4007164431511031,-4.020873062257885,-4.367777985287361,-8.63065031439092,-8.568064361206778
-184.0,5.828875869146721,9.627531840361339,3.79865597121461,-7.69435205457433,1.0011019062306457,6.683584001431369,0.030387826732632073,1.4868521452002563,-1.7628501504845233,8.318941998440447,4.843155527840968,0.1141136623775747
-183.0,-1.9240691587170973,-2.6372487829760294,-0.7131796242589106,2.235512121441924,-0.6226583290782497,-1.6251292353930418,0.3520365778693769,0.8743302098378909,9.14797362019831,5.973531518796747,9.382613704985769,6.687054535996613
-182.0,-7.230256788208192,-4.41977036069639,2.8104864275118393,5.775851731932606,-4.967086789038672,-0.8350960840625286,-2.40349725181735,-3.9587635864008357,-0.9755036582872383,-0.4988279064803729,5.480734715230508,6.776327937804424
-181.0,-7.269446769644565,-3.5160670000712075,3.7533797695733977,5.41555472469633,-5.54824318098589,0.08439611595307839,0.37556054719880216,-2.8085735434512507,-5.6754234493474485,-3.24872525576258,-0.45376440588787315,0.2406108945697163
-180.0,2.670939219864594,3.3400359136802,0.669096693815632,-2.9898335761562045,1.0309132594651336,2.044332539963353,-1.5553407651088595,1.7331426797492993,1.513452859253783,0.7378278395932732,0.5806511946223705,0.9170954829954934
-179.0,7.797841258206204,-1.4738044577888672,-9.271645715995053,-3.1509215688602343,8.554761018460743,-5.337418158481537,-1.209945473297414,2.723267007534459,1.6567449279823316,-0.4182604550997202,-2.9411840594617797,-4.520708841635526
-178.0,9.531884696403498,-1.9128611535961741,-11.44474584999967,-3.798075581657976,10.423587039060557,-6.725578536264916,-1.1718571683323784,-0.6761559117757325,-0.4848827265841682,-0.9668657757968782,-3.6439180506563025,-4.858907626329982
-177.0,2.237284111019356,-0.6266793189658723,-2.863963429985234,-0.7878069908396719,2.5638809592734466,-1.7152037204567852,4.772841475025659,2.2287681325218203,0.9873257408937108,0.854456665347171,-1.5724108487568822,-5.29072833360159
-176.0,-14.443540173974853,-3.8678664899917097,10.575673683983151,9.105319339402191,-12.491617878506943,3.3047727485028853,4.330488672998027,1.5017159462138454,-0.12909558498613868,1.8788774026729533,2.4059198305998426,-2.204438897412331
-175.0,-0.5848444611195633,8.173495259538546,8.758339720658132,-3.7525599390379516,-4.644280363036859,8.495993597421458,0.23883428872762757,-1.2551193322182115,1.5117689136324006,3.834460901398267,3.0780176342991505,8.93479906255066
-174.0,-0.6516181302198807,1.0980078149503818,1.749625945170278,-0.24718720564511087,-1.2402386709362299,1.4547741582429392,-8.25434244161776,-4.464175838728364,-3.760254359613442,-4.17167204282128,-1.8031161384278074,7.332231883722248
-173.0,-2.8936090323908013,-2.0529799540091958,0.8406290783816093,2.4590823455323743,-1.8165998922201454,-0.6531996076307176,1.964407282224859,0.6150220936994417,0.3820916482260759,-3.42387205516124,-0.4283021251062871,2.556804268618145
-172.0,3.9074099819002663,7.527552284611619,3.6201423027113573,-5.727174952620737,0.1233204751979664,5.605816569502639,-2.2082561320293292,-0.13879213061543916,2.2930739526558255,1.6720717399985867,2.1255721389778315,0.3242858478514672
-171.0,10.423121119131215,5.373989662880617,-5.049131456250581,-7.831171286743084,7.718097921877506,0.11520099110641024,-2.8349900910880375,2.425923092710505,0.3372798766091809,3.7452057685756044,1.6403229063097173,-7.406287792037716
-170.0,-10.425582636556607,-17.888661669780078,-7.463079033223445,14.138244197156773,-1.503091331710627,-12.645378496236184,4.229419108422466,-5.019204551139069,-6.2491534315276045,-5.092642542258963,-4.192471871816846,-8.737235840226198
-169.0,3.022316895895625,-0.26520347835012803,-3.2875203742457524,-1.4091126716849995,3.12470343329519,-1.7472145002890196,2.247606649423068,2.874027158522762,4.660887346969001,3.9315791191704115,0.36963848779317143,2.1431606948434236
-168.0,-1.7293217992308858,-5.0015226701505515,-3.2722008709196926,3.3219121094179758,0.8100756538575472,-4.187877969940248,6.0596809370486895,5.135682048559204,1.4894604891115863,-4.144570394816928,-3.63692642586302,2.8718518858070707
-167.0,11.267656804782334,10.991029138201396,-0.27662766658099236,-11.104700604577193,5.802772149092453,5.383544555048135,-3.3345764370110507,2.310711742812133,0.17002082462402845,-3.1139295318168503,-1.4692395230541653,1.1089901923034566
-166.0,-10.654525318059289,-2.1141276393473776,8.54039767871186,6.404137054668301,-9.570429328690174,3.2380409949671627,-3.582971616610724,-5.083664584975649,-2.9865020477862183,-2.531536567101554,1.403738558283729,1.88034414282497
-165.0,-2.446729477549962,3.690309271236192,6.137038748786083,-0.5990815272091443,-4.3419777815408835,4.858195473240733,-4.5378164674870245,-4.473720517043223,-0.1148823337293281,7.1387244024099346,3.5907104312424147,1.9756349236270814
-164.0,2.0880784267041848,-1.5160388064758656,-3.6041172331801152,-0.25307833964070636,2.8806956103660903,-2.538735699988841,6.091764530960802,3.872868976709757,3.6551889742572525,9.71182980142639,5.464752936960125,0.30334895778674675
-163.0,-2.210085178328444,-3.1219960338877417,-0.9119108555593181,2.6349661779510374,-0.6849640772363204,-1.997774609496414,2.0634784844133263,-0.7584965940158366,0.9526202277333434,0.5077672600777192,0.3469268839142805,-7.576706543305117
-162.0,3.7070183288306904,-1.0236899644163642,-4.730708293247026,-1.3579053865900788,4.191412000327915,-2.8601393348267834,-8.744768791182253,-1.0538790569724876,-3.596736049076195,-4.5558404295744985,-4.8388883487178855,1.225641173474397
-161.0,-4.422639702354689,3.8834367069116835,8.30607640926641,0.26379509454954103,-6.306153809151412,6.031516000910921,2.885448167603603,-0.7581383584896657,-0.3833048936595447,-3.1410227155650063,2.597344028984847,4.820399425703391
-160.0,7.430936510315574,11.026513212808297,3.5955767024927328,-9.231625261319774,1.9017132360208122,7.32631211270893,-0.450550257445955,1.872795960408809,-0.4246066991796701,-7.513373333667637,-0.952574422117719,4.657433491341128
-159.0,1.0568210555802628,-4.40062435887007,-5.4574454144503735,1.6635369262468243,3.243488500878271,-4.911925427034548,6.255886787383447,2.962803794560062,0.09419904194976236,-0.4505635654632112,-3.417173101475668,4.1066392144097525
-158.0,-4.2820039040776,-12.422165084473301,-8.14016118039574,8.331459993275509,1.9162205375799293,-10.259665831634528,0.8578662723572661,0.8244496059198734,1.836656407521528,-1.6092775809344624,-3.269122608967759,-5.001535586673569
-157.0,-4.6149838605426154,-4.073326610979189,0.5416572495634178,4.3865978098728675,-2.5909529656481918,-1.8163938695923365,-0.6354273021301426,-1.8624533547922197,-0.5878491992056105,7.9442583671566815,2.0707260113847887,-12.652299095094671
-156.0,4.206363367819219,5.310127846438192,1.1037644786189826,-4.730824138732968,1.6177947402491788,3.2429981408172557,-6.731890394147097,-4.186577347246973,-0.7536469545124801,4.186618584160767,0.41711379482580013,-7.325023100488791
-155.0,2.2908160857033306,3.6519271629653662,1.3611110772620558,-3.0334221183515844,0.45314201556580413,2.5497054720368686,-2.8517951796879033,-3.2213104233029446,-0.6604960303172761,-2.6648335644612025,-2.1550355946796658,4.900698684477119
-154.0,-3.3917583063534145,-1.3210984716571148,2.0706598346962832,2.368973975289355,-2.742984813434332,0.34349457246902304,2.5340847638469586,2.314342166924696,1.012493337492566,-0.7906685125265517,1.8648854452888832,9.027475347165149
-153.0,4.485216497202097,5.756337702601428,1.2711212053992886,-5.105465269009084,1.593398961175883,3.4822957633545117,3.8444648075175576,6.774085307326029,3.0393202812221576,3.4923525562473667,8.696079231614064,13.325647740042793
-152.0,-7.609828321314531,-0.9097901349303283,6.700038186384196,4.283116397664296,-7.173231190180729,2.8588709855151424,5.246968774545224,0.33669235485399085,-0.8731029342140798,-4.5906401684926506,-5.441946320580043,-3.9147557873543093
-151.0,9.723107871661645,3.69689207527033,-6.026215796391163,-6.676802693910171,7.927546772602654,-1.1302877931545363,-1.887979970685147,1.9118891885535974,-2.1921230734676334,-0.5712737945541826,-3.442552298753843,-5.315103794592048
-150.0,3.8340939898608415,0.8435036444617241,-2.9905903453988545,-2.3765418445871225,3.376959882768964,-1.0480139846452001,-2.532313982883245,-2.659511566516211,0.9499087311675893,-0.290949223755411,7.870335207509472,-0.5294086235003777
-149.0,-15.162524483144171,-17.956437684891508,-2.7939132017471096,16.52425936634325,-6.229210942026821,-10.356325113453435,0.26013778395511133,-4.670679728493582,0.5470546799842884,0.6800177451952508,-0.8017865023508515,-7.322572951135472
-148.0,-8.234697220905403,-11.99352353362706,-3.7588263127215606,10.074943525716755,-2.2112516506287503,-7.9383643129194805,-6.443144618520113,-4.181763086677326,-2.9304494895592677,-1.4271359262701764,-3.3239054496347427,-4.014900836382167
-147.0,12.78202712937815,19.203049928706065,6.4210227993278695,-15.962037560265614,3.204301568926298,12.831574204315682,1.114566308446306,4.410393283071078,2.3358389640228574,5.025014248192739,0.39586977389707645,7.515092590843545
-146.0,4.1923647938174895,14.306999654633268,10.114634860815652,-9.23016299248651,-2.935377020000839,12.237847747986354,0.05365961537495212,-1.3610346045139674,-3.817772282157682,-3.221820467023515,-6.2662920476193475,4.330268190255244
-145.0,1.0736168726536839,0.7749188291468947,-0.29869804350691354,-0.9138784158894175,0.7175059585979819,0.27490792667181996,5.479758889222405,3.5944140436410925,1.360659059622056,-3.1325142606805207,-6.369965467964299,-2.574070688661953
-144.0,-0.695715520018771,-8.908184004533542,-8.212468484514826,4.807810131573714,3.7175969247647735,-8.593352764096862,0.7089140857467435,1.8303189204624155,1.2137651569266552,-0.6015397641042614,-0.7601892196800356,-4.336831547278433
-143.0,0.4649105666426695,-5.428225661455872,-5.893136228098529,2.4883529489622984,3.143016597381549,-5.68858184126192,0.13719375528465805,0.34030348695752544,1.4593207231691556,0.9417250477858785,10.191145103454149,2.3448801354964415
-142.0,0.3718828379809658,-2.1640071651939694,-2.535890003174879,0.9076358137384535,1.4189052642429902,-2.378226815123795,-1.2108659408540028,0.13001670661488818,3.344631918484875,6.112315134402344,13.786002456587557,6.343572862128076
-141.0,1.1847452277093689,6.886207180618268,5.701461952908952,-4.017617959959219,-2.2174931840671133,6.33863665240706,-2.6124097107850655,-4.042798201257781,-1.0683641385976756,4.078376688989938,5.7507129108557145,4.6462644757169995
-140.0,-6.565005218184147,-1.6501467118271234,4.91485850635706,4.051726606374863,-5.704499638366176,1.589448250563633,-2.1461220978362903,-1.6757618415901112,-2.8155869867885697,-2.6766195855397528,-8.559279573716799,-6.209391027181601
-139.0,-11.808067474291603,-6.885692896835319,4.922374577456308,9.29344136055142,-8.41432422462266,-0.9551115551062179,4.473300801233416,2.227199174411022,0.5041366735855513,-2.220816939068402,-15.039015241254749,-10.15296025211774
-138.0,3.201431427161003,0.677146013571839,-2.5242854135891273,-1.9137231102876355,2.8883385714246455,-0.9039159733117164,1.2513586109502297,2.323652133150843,-1.408452330906623,-3.273273965176264,-5.807139073969988,-3.627838595366093
-137.0,11.166709452613897,2.451640587046768,-8.715068865567073,-6.783577930105136,9.96486853673212,-3.1150400075284392,-0.9790491721911556,-0.9235559110442273,-3.411229090725491,-4.391470811671787,-2.70357010736553,2.6073560754851446
-136.0,4.134269673611812,7.626820080519461,3.4925504069076876,-5.852954281274623,0.3459093080593867,5.577171535141772,-1.0926441550148538,-1.4325844159325167,3.9127675429464164,1.2559628312766078,8.812603983427616,6.231770187612786
-135.0,3.261345121564423,0.06585751990345656,-3.195487601660946,-1.6309238743995387,3.177439018662546,-1.6228970972239645,-4.059642650711819,0.9520182521671506,0.9457876907182428,-0.6612847786193068,7.9747331393026935,8.161535897325777
-134.0,-3.530262404134395,-0.1859279166169877,3.3443344875173846,1.8195952991100526,-3.484989168500502,1.6035765894716763,-0.3617075572808661,-3.7066347762152443,-1.5732548436562137,1.5039347171956954,6.311345295322215,2.7146883333521217
-133.0,-6.819233963078866,-3.15115747791528,3.6680764851634953,4.954638752424407,-5.2094284875477435,0.20697469364694093,0.0450776615543986,-1.518942872236679,-2.8830136046393857,4.22240550093543,-0.069644172880448,-1.599526262232486
-132.0,-2.082050753310524,-4.996017038451262,-2.913966285140852,3.592841662142503,0.45309957532220624,-3.925963327225403,5.242853001921697,4.158683974398442,3.5421978042601223,3.094957339512194,-2.656065972650481,-3.093849487985348
-131.0,3.7662508674065105,-2.7082864565332323,-6.474537323939846,-0.5527801836238471,5.081564122248407,-4.56114321458047,6.606221307962475,6.319867978177693,2.1421400285859526,-2.642269876715986,-11.38250371373766,-10.288108458084405
-130.0,1.9720422814807932,4.518897179769658,2.5468548982888173,-3.273274118596717,-0.24491492331977538,3.486074644891938,0.07744037734976317,-0.2112192826026793,0.4100097670347339,0.3917771423190861,-3.1798777196476786,-3.429764003869259
-129.0,-2.265338352879887,2.9216172447117277,5.186955597591629,-0.36396171453486015,-3.760531414730503,4.0889902856882525,-8.954037873085793,-2.1546461289382455,0.10247668549887379,1.109042508514628,2.4551540994725345,1.1097359801122884
-128.0,-5.435617625753684,-5.586916878744996,-0.15129925299128555,5.544752818680905,-2.597426294324327,-2.830730836187647,0.9002979772308857,-3.328744011998422,1.468130895076331,-0.6682689850645311,6.019402700969438,5.583849788533193
-127.0,1.2545674116543786,5.577554589607552,4.322987177953217,-3.390431848195295,-1.5701245101293928,4.913493273488375,-3.762842952248809,-2.2047838525257006,-3.7939151131261983,0.9089038374296887,5.234270918469265,8.592353583750045
-126.0,7.631865425864702,7.440694842518927,-0.191170583345741,-7.5147328721318045,3.8711775411098794,3.5900530327155002,-2.183893604256575,-3.066708382821464,-2.2380248176260036,-4.036832849473337,0.771646374474372,1.2126195299996967
-125.0,2.6871324343771863,0.2617353351296674,-2.4253970992474514,-1.4526629582316994,2.5882150496930496,-1.03852959789623,0.816025692021673,1.3676590332060488,-1.9877932543964125,-4.3654168138774,-5.029793560211015,-2.418259640551068
-124.0,-1.0728659917067784,-8.190236756049016,-7.117370764342124,4.577976040746151,3.0468888188807433,-7.693372086877137,5.513880478222689,3.2496227176635806,0.8558551816567431,-0.47497633070689826,-3.8475629579454753,-6.344056913936901
-123.0,-8.205913828425574,-12.667968557884487,-4.462054729458802,10.466710009179879,-1.8539446691744867,-8.532933036853045,4.7568264707212276,3.38220907457296,0.721932348694561,-1.6045496913012447,-6.801893082311672,-5.744506211518617
-122.0,4.541043301003316,2.4311105822583947,-2.1099327187448647,-3.531022810135198,3.260194448912052,0.1839104605819668,2.5221855775192923,2.566469501015182,6.204678738941611,6.323890517103599,8.815371819505472,3.7020165616920355
-121.0,0.8298926482506713,3.7851067930339615,2.955214144783286,-2.349677941766897,-1.0505073120813075,3.3063419854421032,-4.713087829136307,-0.9879985012646304,1.7992702858896186,7.449459786410111,7.995230515630226,3.7546373782320077
-120.0,-1.742084486981987,8.468694063899047,10.210778550880955,-3.3248267919503034,-5.961860330617377,9.348952353690455,-6.935550716513856,-5.810554781715505,-6.511997304032269,-1.4425563587544201,-3.301011634493703,0.750662974990489
-119.0,-8.293607206977404,10.00360917574067,18.297216382717938,-0.8145985962096289,-13.275045736706723,14.158588736248092,2.542376312497546,-3.158990339121277,0.06643598012826102,0.18579855421301555,-5.889746835287863,1.5269806852909067
-118.0,8.432424218311958,-1.1015465629510555,-9.533970781263104,-3.622630141839666,9.01147154499536,-5.304982760935445,-1.1584640999927116,1.7644595527714886,-0.373103821545707,-3.895411490402167,-2.30606247257953,-0.8546871651753818
-117.0,1.6529799694265699,-12.648553927647903,-14.301533897074458,5.464293648673964,7.934883282961611,-13.452707205033178,0.18667165187530108,1.9109863520379533,-1.1121136690504418,-6.283261119842408,1.3425752920481624,-3.831565197194339
-116.0,-0.11869114432757089,-5.895005205184456,-5.776314060856782,2.974761641985924,2.7927712942094276,-5.801223891091852,2.0034287202560983,1.0459045680345862,2.166334802107058,1.7746484952732828,4.352038675784917,-0.048396826777920676
-115.0,0.8267898879244029,0.7784591975645689,-0.04833069035968851,-0.8352887699793747,0.48350333508939203,0.33187911105081014,3.5959772098303304,2.931646608297656,3.010755249415611,3.5978668542016585,3.5088083900852403,3.3053254564792987
-114.0,-2.8157043543874023,-0.30529024223055945,2.5104141121569192,1.6039238387368493,-2.6960344385535304,1.0762283314223227,2.098298777458583,1.8249636806545222,1.3608067650328397,1.9926673956978964,-2.8531944847436406,0.12413287172450505
-113.0,0.587252005137882,6.682829504488885,6.095577499350975,-3.6742025901092017,-2.711247066610519,6.3637142118263155,-4.523220892777219,-2.998180877391585,-4.30183465542093,-4.117882674605745,-4.787614583615647,-1.9722806233640076
-112.0,-3.0914174365012315,4.28236861720127,7.373786053702375,-0.5594526273586484,-5.27259371597051,5.798048676386422,-0.3798783811510935,-4.614393633091867,-2.8839872823041346,-2.9529341567792,-2.323743984720781,-0.7971187967499703
-111.0,-1.1199807420590495,-1.5075401200875196,-0.38755937802861773,1.3477624914852462,-0.33128739584914246,-0.906041498103276,-4.950294212398444,0.650784901047305,-0.7216194433568681,2.7410993670734305,0.627381890215059,2.0543062181626572
-110.0,8.27846849789279,-4.717247111569492,-12.995715609462348,-1.825328838849074,10.59116057373967,-8.821259482572565,2.9005881338963575,2.60294485900224,3.459171572861046,2.476597046569672,3.413492113613481,3.8162488439580735
-109.0,-5.517500345819302,-4.194979329920158,1.3225210158991985,4.8919463173874735,-3.3867412442577347,-1.4033796341702507,3.9625440053342147,-0.7494440743213737,3.2148686487892966,0.2759806439168595,0.48562403549320265,-2.8076037160318883
-108.0,0.15576678816010459,6.344361042409852,6.18859425424988,-3.290796056538138,-2.9801144553796775,6.223423380346966,-1.8476636512551048,0.5473434923320019,-1.973008685656152,2.8275415631150924,4.331285688206535,-2.446297831066202
-107.0,5.691811903789179,6.916938425750342,1.2251265219612915,-6.264456986365027,2.1957403850985404,4.035425647930784,-2.027085196487668,-0.9719969196407964,-1.3706819756500443,1.4626499222993803,4.760250453842233,-2.498569417122107
-106.0,2.245426631800303,-0.8334350208740684,-3.0788616526743438,-0.7438973100547528,2.6299585030352177,-1.9030197915942373,3.0855108437759795,-0.02911527401630691,1.829603212618973,-1.0159202730747667,1.917732665563875,2.0001695043880026
-105.0,-6.074325325171666,-3.1401039196171014,2.9342214055544678,4.569450058199562,-4.453014211025894,-0.11874273813323843,-0.6789605357547779,1.6392815161560872,1.2784248930549906,0.3406772213561957,-6.400353734020976,-1.3187847853083547
-104.0,-4.435410275466285,0.2042791071324208,4.639689382598584,2.156633174485167,-4.5620005459608555,2.4133105229940455,-2.74751806143276,-0.36293782476611847,-2.8536104237464213,-7.902377826210537,-10.175762113853722,2.2412728736467558
-103.0,-8.510438153243452,-8.79241257299493,-0.2819744197515375,8.693289841106603,-4.137665247220855,-4.543124885834365,1.967737099754445,-1.620965981457382,-5.399132482731268,-11.449460663509097,-12.931658023240962,-1.3730028998606483
-102.0,1.7056472102099436,-8.790348318857669,-10.495995529067583,3.5071977683367415,6.155342677159535,-9.651232940481494,4.60608002848689,1.0182981874180632,3.0263168199281836,3.9034698910920618,3.600565388700878,0.2694194869664443
-101.0,16.2512123281004,1.0984216774524227,-15.152790650647864,-8.62910978278147,15.675838623165857,-7.041541337463732,-2.607783354622193,1.9311480324144634,5.739649933393235,13.506126902520304,13.820575017921529,5.624551725781744
-100.0,2.9019235602784326,2.5121339674056418,-0.38978959287264736,-2.7386170894754525,1.6175844581118506,1.11661398577071,-1.5398777694882553,3.3382135544433478,-0.7078227790932368,1.6013851588844288,9.509753467725098,-0.06999914793164486
-99.0,-7.519199644208922,7.421098576080796,14.940298220289854,0.017420148004680946,-11.180499123563553,11.147526722119084,-2.3882435717066786,-2.6901614175333606,-1.5472530099865354,4.269378865005621,5.100787589202408,0.5052592296934895
-98.0,3.4315074003080546,23.266191200273553,19.83468379996562,-13.382075395015985,-8.230510797322449,21.586733370869464,-1.1046384877858668,-4.338597238848459,-1.1319153145661387,-2.5233953559227746,-3.1799737531592824,-5.882348769165484
-97.0,3.7857293818534403,12.683020011378796,8.89729062952544,-8.191167625651637,-2.5817760543218817,10.740035164146141,1.5220831470651628,-1.775614108293845,1.0256308173586475,-0.2319913720229776,-4.363091444989456,1.4997359493553675
-96.0,-12.874030161328944,-17.694920405103858,-4.820890243774855,15.32589404724354,-3.968605379407842,-11.234689073244429,1.0173662672769643,-3.704346159697842,-4.527658514181789,-5.651553253593169,-9.108938423814656,-2.7536074764741674
-95.0,-2.9682278730154446,-24.85209197697808,-21.88386410396263,13.872502525476484,9.443724109118582,-23.347514095560815,-3.376394158804425,-0.4173209767410134,-1.4370222203016805,-5.47063623418481,-3.648584328292082,2.2269114155380825
-94.0,6.333979874252655,-9.864675709886448,-16.198655584139154,1.807683283826611,11.258950142128471,-13.08973447744773,4.537792076971538,11.39942882712635,6.907582441031771,-2.768645989756591,-0.5926706564373974,-3.0580166030607288
-93.0,0.6071278390254471,-5.056793094448273,-5.663920933473808,2.1905004399016805,3.133178956150786,-5.336292739470885,7.271753513426659,5.769252956034243,2.8489468583182385,0.6882288459246597,1.9617710744132362,-2.0743222254515103
-92.0,-2.620816709649465,9.209379863571481,11.83019657322088,-3.3268422550227115,-7.226045310987505,10.550323183535582,-1.269791342743165,1.2178824353522981,1.5716142604794898,9.181672154405588,8.307938740743527,5.070056705869068
-91.0,3.493580154492563,18.941424907716694,15.447844753224132,-11.17088634370456,-5.979873480118144,17.155395018338176,-5.707170089433106,-6.974838670006178,-2.3460254555106057,5.062348946525543,3.74207223889685,3.1084938153676975
-90.0,-3.7734612859115533,10.86693014479472,14.640391430706314,-3.5803202987403075,-9.215687547858732,12.803435866762202,-1.8671280142140683,-6.7934976574901995,-6.1023896446510735,-1.70837657734495,-3.1762039868176872,1.5846924596164744
-89.0,-1.0590685263449449,-1.8297873296235991,-0.7707188032786227,1.4863546497920188,-0.16164688223360102,-1.3193899991417943,-6.180531883978979,-6.833169618881474,-4.9864912222890805,-2.3210030828481925,-5.982233893599987,-2.5488263091859773
-88.0,13.189775656056135,-2.8915315221821456,-16.081307178238283,-5.190307739993194,14.687124959509081,-9.4979560071086,1.5707417704281932,4.316183303712814,2.608909374308129,-7.349538858350528,-3.192318113354502,-2.5016808023785666
-87.0,-0.6883405512761911,-6.883496342743891,-6.195155791467738,3.8190644621342256,2.71732818797998,-6.546867194514049,4.76879267527507,2.2184363844155888,-0.2263373693502746,0.5982926184260378,4.695598967119038,2.9301947564678703
-86.0,-3.8906985126423304,-5.520031625820922,-1.6293331131786468,4.65653651378128,-1.094802566490722,-3.582335300111577,2.190201395111583,3.800672655505409,7.205146350608439,4.900683276950179,11.139463259101616,0.9136885288246662
-85.0,-8.498658974150711,-5.626835426580138,2.871823547570503,7.09175663143731,-5.732133696062848,-1.3889218966960342,3.9824540387540335,4.34017526800976,2.9204598659648604,1.396353853058158,-2.8304583743546505,-5.614954202767715
-84.0,-0.1481063474064772,-0.36717144542942126,-0.21906509802298935,0.2886763811621904,0.06601462121596757,-0.23204657271507767,-1.7411848981771314,1.9607218145367877,-1.536217940723887,-1.645768008759137,-6.260224148242742,0.7675583004333646
-83.0,4.079904208145312,12.13680341746654,8.056899209321221,-8.151243916468106,-1.9571790439359311,10.071811451856181,-5.490832472851887,-3.3636375404403807,-2.6916216789380054,-1.358800489547996,-6.458161612303286,-0.4370403545219362
-82.0,0.14265739344628803,0.6212108688151154,0.47855347536881787,-0.33942481780126244,-0.21330280638304955,0.5176378174777332,-8.657085970984978,-6.062913756610338,-0.9163831256109036,1.589382400876756,-2.266754405764631,-1.2562318168316742
-81.0,-6.041859538465685,-10.009929313369517,-3.968069774903801,7.9965836877536525,-1.0795900521451687,-6.948643121786852,13.095974530027089,0.5244621977755859,0.7340187010718044,-3.323757388812787,0.7687578497060197,-1.480987564719292
-80.0,1.5358757009264665,-2.9962186005839193,-4.532094301510345,0.7063894284473593,3.0728271515699404,-3.8071827423295552,10.842746300494756,3.740640615272358,-2.3182828896812406,-1.22651983079782,4.044452026586349,4.67068271816961
-79.0,10.64957954551426,10.69544921860156,0.045869673087359786,-10.614757222712097,5.343297977663216,5.403269154899302,-11.17258370059312,-1.3001428798864023,0.2141039696742355,5.107806060965457,9.624631520716477,6.803375380229823
-78.0,-1.0564369435959629,-1.9710531526130053,-0.914616209017068,1.4921841781898304,-0.10622756732252903,-1.4122337661091033,-5.282739096716272,-1.5490772389564649,-0.44802095548084464,-0.35913726036065086,1.4504200505420441,-1.2361939286843473
-77.0,0.3516257279821328,4.326717378436028,3.975091650453863,-2.3643526092663674,-1.7675440505756457,4.101202772409584,-1.6363664791177315,1.3933785212324308,0.9372485474122817,1.9129885909339401,1.4137758651523842,1.1173742608798696
-76.0,-5.05879383969183,2.0472489596991954,7.106042799391007,1.475103995200033,-6.11802219717902,4.604036972890966,0.7518674051771803,-1.0363189391593826,3.903977632890046,1.7789308332401093,-4.422629394726571,-3.010407572798637
-75.0,-2.0709596547407996,0.6117286609671018,2.682688315707917,0.7720407398772577,-2.415310746284254,1.5939404183380912,4.050471360252005,1.5519558490447374,-1.4092889712097603,-0.8829359140412056,-9.202639895510337,-5.5691082966337495
-74.0,1.744815731183555,-2.9675471189407783,-4.7123628501243005,0.6495353586452164,3.2649422249927533,-3.8162650623772607,-2.5634357783222104,-0.8129402092449818,-3.9288801477199558,-4.3069492331560255,-3.327935723487614,-5.963907648103723
-73.0,-1.6733481589549943,-3.444313981741754,-1.770965822786728,2.516196471148443,0.0030198271469519256,-2.584966768653322,2.8698043036531944,-1.717572670119159,-0.3793375110588585,-5.460737222201634,1.7954574278964186,-1.9079340424500464
-72.0,-7.539880248101832,-11.803687694011565,-4.2638074459097055,9.707788228368827,-1.606293123936938,-8.010801129796977,2.607609758009155,0.42439347923318715,0.5368928977121542,-3.1567255545446207,2.0414375456632117,1.3586928140899772
-71.0,4.752302295518066,0.39695052619502436,-4.3553517693230255,-2.616648342134788,4.5874449452442345,-2.033427348749219,0.8364985741861029,3.228562158406368,1.8161966326216814,4.176181716688049,2.800108009925839,8.594791323896397
-70.0,8.071150213748426,11.995207594898606,3.9240573811502024,-9.996279300613374,2.1117226326473615,7.986469787679722,0.045786613936108445,2.4954270821033497,2.615389850397011,9.243222372817444,5.213539661248062,10.63949659739976
-69.0,2.9300265404451906,2.6796210516898125,-0.25040548875535595,-2.848068969610779,1.5552394282050819,1.243558920397171,-6.287187012107665,-2.2663787003820652,-0.23197004220535244,1.7282178675527948,-2.186602142799014,-0.5874789028094591
-68.0,1.1894613805636498,0.3787083288451738,-0.8107530517184709,-0.7517137628328472,0.9697081555822236,-0.2648421169167898,-1.7609909025795685,-2.8846853665169965,-0.3836152942957153,-1.5033005209173629,-1.1414509869766298,-4.340833841012467
-67.0,0.03358457907204149,-1.8518567607814282,-1.8854413398534682,0.8586598059220858,0.9313095625742815,-1.8394153337034607,0.7484832291483507,-1.160125075037618,1.2587149993549325,-3.674251629057147,1.3502198788914164,-1.9199003483558066
-66.0,-11.452499466442765,-4.076251697962951,7.376247768479821,7.788998139994451,-9.442729348317009,1.5982061884164995,4.154074404803515,0.992411080375939,-3.4602260171818133,-1.6643428832642546,0.24680549897409176,-8.011393856602599
-65.0,-7.719636885454199,-2.987248986679103,4.7323878987751,5.376271317092295,-6.176870262906483,0.8963511138948352,2.2445647629251546,0.3328010247443166,-3.1884304706012743,-1.098991146105584,1.496489009909647,-2.704225551691245
-64.0,9.017475497977966,5.88246594114517,-3.1350095568327645,-7.426353839515858,6.124538679096824,1.3943147158215417,0.2950524543745059,1.5938071940210994,1.2042164680963934,0.028849171468788626,-4.498876804103044,-1.2032376827062647
-63.0,2.3221416123522793,0.593070304400396,-1.7290713079518396,-1.509732623054498,1.9953701099777401,-0.5500417304575458,-0.6544691844851072,1.4047202221322728,0.24784428275400094,-0.6962233508719492,-4.726264295028437,6.451604996652569
-62.0,2.968958737872624,-2.465963999814607,-5.434922737687208,-0.22102666389126635,4.25100527845914,-3.9345528081592613,-3.7192706456356026,0.10412052837034691,2.5715250579506184,2.4776031025472074,-0.0015884450019834073,3.3275885814273947
-61.0,2.5887960649996042,5.47263231302145,2.883836248021848,-3.9974186275305894,-0.178065408091018,4.113379092586243,-2.8524421686431416,-0.7582494155540995,4.715634745973923,4.353146666632359,5.550334364495421,2.9377791183513065
-60.0,-5.690200173512627,-3.9719797105491406,1.718220462963464,4.78585170473937,-3.738711708023877,-1.1154427135069152,1.2860049175284498,-4.0650001660316395,-3.7507868106848266,-3.246454853488064,-0.8446069719820026,-2.6591578675481005
-59.0,-6.844082812768294,-6.91402225633433,-0.06993944356609677,6.830818840159573,-3.429100585750986,-3.4836241103907426,5.224820884178713,-2.016094690010308,-2.6150104242021692,-4.113376268694138,0.7869844628546112,-0.7509686410872751
-58.0,5.46059492190661,5.179098265829566,-0.28149665607712365,-5.294844470825183,2.897954134386434,2.453805653407352,-3.412962796792187,1.1231739431687786,-0.22956664700104534,0.42839222920780595,4.275179304696169,1.109697222386449
-57.0,6.326241434718147,5.240218458370342,-1.086022976347874,-5.764578538304836,3.723594352679602,2.079167961196333,-2.2606892007202632,3.6978060084686395,-1.2142996236554122,2.9982806124288643,-0.5376550047697772,-1.6312275039078443
-56.0,-1.6247101488942635,-1.004446094046196,0.6202640548480127,1.327894195259514,-1.1112306707298694,-0.19181548836949247,3.773593933097128,2.581188885989038,2.029759438514937,2.730045579634646,-3.1811004264653793,-4.1044621553546765
-55.0,3.3067672307987985,-3.0452594683828247,-6.3520266991816445,-0.12062071140649003,4.839498783798668,-4.698514273647194,1.6441014562556728,2.536643899580586,1.714418265336404,-1.6752973989537057,-1.7463075767572405,2.3979072959036856
-54.0,-6.641565891663737,-3.3727916420194077,3.26877424964432,5.016253195215422,-4.941215899285243,-0.05018296516483256,0.5506008563895617,-2.031923553596526,1.0887446170281136,-2.4824944235939252,-3.2597747838272637,-0.11527977122320116
-53.0,-4.899791234281483,-4.590963191843487,0.3088280424380061,4.754540752853581,-2.583341259412904,-2.135760827858693,0.028333579557168087,-3.4827699140476347,0.11459218558875328,-1.299099230453184,-2.23350575389147,-2.044037794626686
-52.0,-0.5517399762624144,6.702717196500431,7.254457172762864,-3.1450253223243614,-3.953500207152987,6.989002704094299,-1.733857517108828,-1.858909026768524,0.10026153053946463,5.319704609984242,7.3043891541682076,6.948480775264567
-51.0,5.280756825016734,2.42067123043547,-2.8600855945812347,-3.8420708054005503,4.025252790769372,-0.2814021736048371,-5.22211869070912,-2.2148811724596786,-3.437570493835711,-2.2657294751277384,1.927368963817873,-3.236463391409993
-50.0,-0.05953742863890321,3.3823281257189555,3.441865554357878,-1.6535056079188744,-1.7152368311733643,3.4372990474936693,1.386353107270077,1.6678987580903017,-1.6107676798754893,0.6733244654442639,2.2696322740548442,1.278219563443495
-49.0,3.792557200370969,3.3150664065402333,-0.477490793830722,-3.5456401445991075,2.169491334588561,1.4534832778011761,1.9418666237220532,2.8290077238700624,1.1237079642009569,-2.7349988067159634,-0.6882879600929477,2.6410979457083164
-48.0,-0.31278865113402277,-9.375372642333502,-9.062583991199498,4.85485561143929,4.328524047468358,-9.252842685286833,0.0029377277692679282,2.6054796998477596,-0.44965255996883324,-2.771165428570416,-8.036704968901521,-5.144122558386278
-47.0,-1.2497237346252636,-5.652412419338651,-4.402688684713423,3.467358905897438,1.60797478157632,-4.973133829609317,2.8440299555200155,-1.1231291918482964,2.5824283024895123,0.28139226867282763,0.12979373083337586,-2.3940905765433467
-46.0,-1.1495621447354087,2.686226526484262,3.8357886712196287,-0.7441018613329122,-2.5377193475751483,3.2436525597268715,1.0614581104099006,0.029879085769922778,1.8210809618709947,4.69904971893207,3.8929017619984565,1.3683938295557934
-45.0,-3.0180524908057746,4.795873855962872,7.813926346768621,-0.9344594239746897,-5.376295677496221,6.290146653946845,-2.9536685095165884,-3.8640139583694637,-1.4321711001889819,2.014131484509833,2.328173224603842,3.9596304901094794
-44.0,1.1714527948610187,1.0008702132296907,-0.170582581631332,-1.1234047765266155,0.7194687644797773,0.39768283775686886,-1.3074170685231326,1.3437633156048023,0.01456569320082629,1.3750459114924545,-1.289974790133598,-3.714639732296299
-43.0,1.3938632044886843,0.8729831154909726,-0.5208800889976899,-1.085630881220728,0.9360398313031081,0.1511590877554725,0.5200193722625819,0.18478033978099986,-0.7438861688038632,1.085798852543114,-4.396610005392832,-3.454884781749554
-42.0,0.44868231944171677,2.9404010006214043,2.4917186811797385,-1.7218917488800756,-1.036949208203517,2.7599230399961403,0.21575392341238075,0.31950397365557387,-1.3643217215365337,-3.534707936778916,3.3170929997840566,5.504986450172794
-41.0,0.2356928379419544,-1.8965816792406884,-2.1322745171825783,0.8828045049831811,1.1687279768247374,-2.058759822178537,-2.6595545580731805,-1.3661990427092057,-0.9389235402599677,-5.172963824893718,-1.4470232308685123,1.6270639469478236
-40.0,-1.263865447162995,-6.5853008175609435,-5.321435370397915,3.8970388605577932,2.0071966181878405,-5.924876559144956,1.136803030405025,2.4561937788056114,0.7913731113651072,-3.6220083248286903,-1.3797019043173777,-0.12239830154333453
-39.0,-0.5555753245273505,0.07898066020614625,0.6345559847335052,0.20835467242977335,-0.6278443766284789,0.38453955486841496,2.8925123725925808,0.07869439499224284,1.9944893268049282,0.4931541503559975,-2.031270946348493,-2.464017392220991
-38.0,0.4916867558093894,-1.9643812858906524,-2.456068041700044,0.782608246596291,1.5073958132289387,-2.178262219391526,2.9854000472400974,0.7724253746740721,1.8711047355592343,4.433359058407616,4.583037820344591,3.105207406830475
-37.0,3.781312366770606,0.7211888539623746,-3.0601235128082434,-2.2852742244961317,3.444678493140809,-1.2093584485799105,-0.9056883750536526,-0.4356766267512431,-2.335933696167886,2.6067118761071963,6.1896577673572075,1.201091090671013
-36.0,-3.738099868445327,0.639079142024523,4.377179010469834,1.5158856726075203,-4.037303273940877,2.4745831367418445,-0.7778188188879789,-0.14487956797442514,2.186817049706562,6.500327314945612,0.8373432054592627,-2.97764056083403
-35.0,1.1496002685730677,4.664146185692587,3.514545917119511,-2.8591478596413946,-1.1591246189319238,4.137320516954864,-0.34312156917057557,-0.01577296795439337,-2.0855823375657296,0.3524290109886876,-3.0877059409573664,-3.444477293301434
-34.0,-0.3013195760127378,5.158946231307097,5.460265807319847,-2.377025744944861,-2.9283930830687472,5.276392330632484,-4.4670985524890785,-3.5308596962011594,-2.292560326998661,-1.6898267021601487,-4.054164676048108,0.8944811734367616
-33.0,-1.1865613650220213,3.3932353801386697,4.579796745160739,-1.126512756560738,-2.8429955554272848,3.946003293808758,-4.27269541286816,-0.5249921800749373,0.6104417239442794,-3.764219841496198,-3.294999276270022,-0.3343909422226756
-32.0,2.5637001727108846,-2.7329926345430957,-5.2966928072539226,0.06282491770791498,3.8981196527940263,-3.9866031027785063,1.8748536893017944,2.3763156408843167,1.4595807176394786,-4.9312857071845695,-1.4486853214339541,0.7118581150968013
-31.0,-5.307094483914209,-7.962218975506177,-2.655124491591906,6.610185205829898,-1.3566081960717122,-5.290008051358349,4.8940855970224595,-0.24139046609440595,-0.5147111776488136,-4.422360970266512,0.20183855328592076,-0.49007486377395026
-30.0,2.3609208891271773,-7.029966433355026,-9.390887322482138,2.3033146466217573,5.841395742443809,-8.198047642035304,2.8658977383916966,-0.7594667429863566,-2.8935785005589256,-1.9121718667141359,0.49634653597796885,-1.225021694598216
-29.0,4.405594977964089,2.7406855694602097,-1.664909408503818,-3.5347472161924087,3.07208082146443,0.5488530339977871,0.9885659089693983,2.9080507795108272,2.330015871650256,4.947171910094258,6.588555114397709,6.488577393171702
-28.0,-4.3242172270665655,2.073905585943342,6.398122813009944,1.1548622883533723,-5.332358880121238,4.250290768091786,-1.582316401672469,-0.3305053622930485,3.1295762378393754,6.2744209979367485,1.3145740289654722,0.9058499622811453
-27.0,-0.5987203182640993,-2.918083990579127,-2.3193636723150357,1.704101256618751,0.8831472048119209,-2.6767303788955434,1.0763230557811265,4.155968063580364,1.7207407851297685,1.7454425932768425,-5.576040628129267,-8.898344759723212
-26.0,3.360868211012545,3.7891453549350884,0.42827714392246463,-3.550502577014629,1.4864561458170518,2.136861159924247,-4.806814918753743,-1.7803828134458906,-1.4870926219587772,1.8785517168830799,0.2344524334260436,2.9674595263751415
-25.0,3.49939449286498,10.305310710397194,6.805916217532064,-6.872495673124009,-1.711477244574406,8.511331552520803,-0.5357768578102555,-3.3916372936089174,-0.5506816464438544,0.4143754881417225,3.1465159359494606,5.764768990278233
-24.0,-5.341849140024106,6.087241351216246,11.429090491240196,-0.3342553633728067,-8.362795823510217,8.796554621318432,0.782211967552193,-2.6406093784415505,-2.283390779138914,-1.7229834018641474,5.188970300240052,2.8681050346074937
-23.0,-4.6535474703954325,-7.78364234531476,-3.1300948749194557,6.186645825523462,-0.8152323342009389,-5.417405352712566,0.922894875464103,-2.5098502039356445,-3.7745743751770107,-5.3849307354729445,0.44265286307946194,-4.372709533161714
-22.0,1.788744784401306,-12.844026202995288,-14.632770987396645,5.500342850525097,8.238291826012643,-13.779140083018047,-0.48253015358720086,2.585480596381448,-1.1749975873375529,-1.1828311247722878,-4.302750563359295,-3.437341011555162
-21.0,1.6324667021636845,-3.3327248778074834,-4.965191579971134,0.8217852996397239,3.32845071593626,-4.192767359033004,-0.0386889900242785,1.1412769373658807,3.6175794701729513,-0.41089331773067617,-6.207864405528406,-3.6231035608783193
-20.0,9.841753144035797,4.886688725062457,-4.955064418973235,-7.398852436447159,7.351706344962671,-0.002640311304048737,0.33434901241272486,1.2109262093957416,3.599092236934456,-2.8325721317094414,-4.406779525624178,-2.8530819596303414
-19.0,-1.226003974972961,8.683463524225218,9.90946749919832,-3.693420472041936,-5.532439878321497,9.325590533942268,0.3896844953564641,1.390684371236996,1.6287735301280297,4.156674603861102,1.908022011912484,8.161198311986986
-18.0,-9.935346714590215,2.572464515767618,12.507811230357945,3.709129690623547,-11.182187301012208,7.568702790610409,-0.7229977876867402,1.431686157420964,-1.4586689419547265,-1.1832430474991869,0.33340988349492573,0.9516054253876796
-17.0,-9.383045950739504,-6.165727764573926,3.2173181861656257,7.7985925690157405,-6.335112446080132,-1.5228366332004297,3.0787802856552924,1.1803249787918753,-1.1415631427184316,1.1454076854448416,-0.37898525976559805,-5.677927093356701
-16.0,8.55912573342314,-4.363161582956314,-12.922287316379514,-2.072285295216208,10.709731577653788,-8.68802526720272,4.059054881920564,3.1303809360145225,1.485116893439621,4.418858746765386,6.64580783061939,-1.2843807204789557
-15.0,14.618518171931203,4.781061351808344,-9.837456820122966,-9.747970140559767,12.199774965929707,-2.490380331160495,-6.9495643558798985,-3.6581906314761174,-0.08836500128092584,3.2501625141693467,5.997382675821745,1.108436069148612
-14.0,-8.514620584835802,-5.723193698933178,2.7914268859025277,7.154524573834005,-5.6013547664320775,-1.4237191666026057,1.8037247719589793,-2.754310725160426,-2.15501783592072,-2.272424241110148,3.7674220149204403,8.597963889044339
-13.0,-6.402105344784479,7.360466390100907,13.762571734885348,-0.520407603934693,-10.03139245676141,10.527896004585253,-2.8869313835637707,-6.024641776835304,-2.9430519583642645,-0.8550773608362983,-1.4143378208660873,6.325277621378126
-12.0,1.7695636108386976,6.796296281881934,5.026732671043232,-4.327326463449079,-1.6590852583598465,5.95673285061712,-3.3796973801728205,-5.548978511801636,-1.64997310174047,-1.3263949890283144,-4.996294445530232,0.3677542953163202
-11.0,2.292951330487184,-0.27466818432165896,-2.5676195148088343,-0.9827329777095934,2.395206477287277,-1.458575058865795,-0.722251680134861,0.3375446741236343,-0.9224519997528807,-2.533483498575505,-5.337262753315728,-4.496537085303618
-10.0,3.6751276360522507,-10.177605395706859,-13.852733031759097,3.267340939928436,8.72296028777662,-12.060601527917193,1.8491200667647654,6.449874379308546,2.5117420121601617,-4.448961803449423,-4.567971461094907,-10.365794289275295
-9.0,-0.8095112469243437,-3.747281752153275,-2.9377705052289214,2.285408246923514,1.0958088121493037,-3.320005757464937,4.64911979166264,6.851714285457624,2.429900557063341,-3.2389380079227563,-4.982737782069587,-9.51048394868639
-8.0,-6.45479888725557,-2.755994293270493,3.698804593985114,4.607972620036974,-5.050187991115845,0.48289577886675117,6.7850281282523195,9.910751293407042,2.400973982753923,3.225512645291539,1.2989186741974494,0.5400899841594358
-7.0,0.5627667519426716,-1.3264320714827071,-1.8891988234253336,0.3868024267505563,1.249300070849654,-1.6045074988965895,2.821376220720227,5.1768464506092124,6.250253807119727,4.820337309245869,4.224853909673717,5.461462901278174
-6.0,6.035339856306492,6.381542888898111,0.3462030325917316,-6.1939459264250125,2.8661688454050305,3.3644171991951426,-3.643665543816555,-1.9202420052498648,6.703494242747366,7.803541229818073,8.786222463604409,7.644433007711646
-5.0,-4.107083709620676,10.36652416549903,14.473607875119919,-3.178904248123157,-9.3485380596089,12.4244480277908,-5.288843309949661,-17.59675441998583,-9.842943824937892,-0.859654047413204,2.9743773601361054,3.692224102830986
-4.0,-10.780489916182768,0.7239296574203609,11.504419573603228,5.0754459045558065,-11.12313748403787,6.128372660297663,-7.535879690550589,-19.48294790983884,-15.60231704196064,-3.7611670836304776,1.8759199551116081,4.587500532497661
-3.0,8.578767300885357,1.1400177916354584,-7.438749509249983,-4.874545417570838,7.947853351548098,-3.1216030772192505,-4.062513604999888,2.8375884951347654,-1.8005368054362716,-1.076841848838359,-0.9933763875919114,-0.2130155076203588
-2.0,23.452500764257948,-0.3504547987883777,-23.802955563046773,-11.554438954730024,23.64497050898269,-12.113436995513084,-3.9453571318675213,14.047364757588898,5.868988321887439,-1.3071193544583557,-4.103056437067081,-3.685153140785288
-1.0,-5.56104457694186,-11.443891840076365,-5.882847263134986,8.503557640869648,0.18018028591711754,-8.687945911941267,10.83542681211408,8.656507111780982,6.45241041088414,-1.7905015559792483,-4.555479641346601,-3.324692051017072
0.0,-9.627851461186395,-13.303423119252336,-3.675571658066218,11.463082254431926,-2.950763237966174,-8.505587628038986,14.805848344485398,8.58856671634409,6.037375190186713,-7.445119277371799,-12.328099937052706,-11.986183688249705
1.0,-19.252103294129263,-7.799719569241153,11.452383724888035,13.512537257443977,-15.316622610309043,1.8150642019159213,1.555205918525541,-0.8426056993930011,2.8741710028600824,1.9864222622667125,2.7074840133245486,1.5664121436235705
2.0,-5.333674711137369,12.929632661163149,18.26330737230068,-3.8266889162663205,-11.828860973415269,15.666288818800439,-5.752135073845206,-10.557487533628876,-6.112840076747337,7.840975579218082,10.597802356097159,7.7746307360264835
3.0,3.0086165275801573,26.833361395292304,23.824744867712532,-14.887172837913083,-10.426054180211029,25.321449441803374,-8.156705475864547,-11.358314325031113,-5.74659619138656,4.4559063872492555,8.708313783740921,5.708070345799079
4.0,13.959655615677292,21.19127966929471,7.231624053618379,-17.55520237211944,3.3549053457213107,14.205133600370203,-11.763715019220822,-4.442852817935257,-10.042948258205962,-12.790032797054963,-11.969012364150196,-10.770708086591558
5.0,16.84576605137368,-18.10217113506212,-34.94793718643494,0.6400937624417615,25.890856612034863,-26.529999227512253,5.686353767722874,11.608524398787331,10.481701896227058,17.911804037455965,15.600131022433425,16.202984761934665
6.0,3.161516894962306,-0.6836633130434446,-3.8451802080052957,-1.22932493816943,3.4939689885901792,-2.268410672347338,0.6571993039280466,2.5405660647572956,4.241936220197287,9.9017062633039,9.879171741278592,6.29415332945613
7.0,-6.920238302439007,-35.179981460776254,-28.25974315833737,20.98415837355292,10.730127707941048,-31.723963907067045,9.06181322463833,9.928578844116414,5.701905308910701,-6.907681796289335,-11.001891415626684,-12.085449548928967
8.0,-6.689846892523013,-6.324205911253095,0.3656409812692871,6.5269437531927865,-3.5585561890003032,-2.984905791443772,5.480491873207997,1.9089257610993557,2.2576856877304134,-18.136498883388132,-20.570079061223314,-15.014811637213162
9.0,-6.940405644003149,-9.901094127013478,-2.960688483011239,8.449804952212457,-2.0336687743163324,-6.439264531029488,3.673276365697123,-2.196826804807858,0.07296145994067982,-8.849516936406523,-11.980346781842734,-4.794718009882148
10.0,-1.5814708042718308,6.7644479764115335,8.345918780682787,-2.6318294131384214,-4.939372255509133,7.543422152534785,-9.764223146172744,-11.567410424905416,-11.841938873143484,-1.6395520489179651,9.040987585570981,12.08841724680884
11.0,0.7969656434966939,15.35346009394811,14.556494450451316,-8.028712802687982,-6.861380539143836,15.018593614240613,-10.652984406537561,-6.8971485752383614,-18.64684986232664,-10.316384712400707,-2.6777697338271995,-0.791606612000054
12.0,-9.059913030200772,12.589730897314077,21.649643927515132,-1.7913847991387835,-15.336620698310709,17.101557663643128,6.783905088711605,6.877339721265995,3.2844632432364254,-1.2973477577745811,-6.7339420277499356,-6.5094274882059
13.0,-2.4184364017252937,9.342207790568231,11.76064419229407,-3.4854726502142284,-7.066394763837674,10.530611729949067,11.81580129964455,7.936370989353895,16.307718677158437,14.123666284599775,3.693811423883081,-0.535321552725643
14.0,2.3375489591087732,4.044625101786721,1.7070761426782868,-3.1359839212300926,0.2680890543045553,2.852327854613322,1.3173813523890754,-3.5146366201990045,15.9038885010995,30.397532337551432,27.073619125879326,11.616416550944983
15.0,24.018693931919657,3.7814239513684775,-20.237269980551183,-13.926311922655657,22.090508733366416,-8.175749785801719,-12.368756905351258,0.6803546913606802,11.484517623172438,26.040040982997517,23.457183118853855,9.935542636094087
16.0,18.59649569216347,22.041794518902353,3.445298826738732,-20.3497768784046,7.6258008115125335,12.713464298743016,-16.318587929663597,-7.885534367217596,-12.300371363447237,1.774069944747958,16.50002952500682,18.80581214579395
17.0,-2.0290198671337585,8.311728762728682,10.340748629862345,-3.0983990259668888,-6.2064752587172105,9.292327365639892,-7.678667901723872,-10.378485598094127,-17.200510509175324,-12.937891274264372,1.0626082436883344,10.903101721838404
18.0,-21.580443130154404,-24.846725857055095,-3.266282726900732,23.172816360090856,-9.174156053623113,-14.015596681746999,9.306246017239811,-2.8464261550101995,-17.037041650545646,-32.190610610404335,-29.854455833010114,-16.870636606771683
19.0,-30.622978895269263,-61.99760610856925,-31.37462721330004,46.34417442451477,0.43956399564703474,-46.64913303932384,21.42506713664806,15.026131233700697,0.6166979412301572,-36.929840497680985,-52.86554202448025,-40.73562859379403
20.0,-4.996491607578806,-29.114719850470795,-24.118228242891906,17.08646233342955,9.545640707610762,-26.662266579160715,14.768041644962217,13.99226016094779,7.807020453079689,-13.98863937022539,-28.708837205307386,-24.458136873086634
21.0,18.05178232743634,10.947589594175632,-7.10419273326038,-14.549785583974014,12.560510539578692,1.9503322279647357,3.6051540303440843,10.71225941450832,16.835010827647906,17.377233245760536,12.018668212056586,2.6780304032072024
22.0,23.947659865444017,28.716496620435287,4.76883675499168,-26.30525193216596,9.568104329438267,16.687974857743278,-13.445715987183075,-2.571673183176279,8.098596302787126,27.392358177311284,29.967525392824765,17.483063221992637
23.0,2.9671886299769614,32.6879980621015,29.72080943212477,-17.8812137602302,-13.402768854041396,31.224204702317746,-13.636179105783508,-15.33831196158889,0.1830744785456737,23.097495924958896,33.53689258988005,23.673203014092046
24.0,-8.59781693907213,36.04378999031705,44.641606929389035,-13.699302740585782,-26.57145265456527,40.35966405142585,-6.262216664678899,-14.478942729869809,-6.904791751358779,11.592678814537454,19.50824838210956,21.01675649640247
25.0,-10.747809471620986,5.4112251463891,16.159034618009603,2.6911684229271113,-13.408812939754506,10.802015677448505,-1.872986419108849,-6.290918134787688,-9.046773637405611,-6.54633747382549,2.615968439802497,9.122996209351472
26.0,-1.6147236863848917,-16.94608053936137,-15.331356852977168,9.303435311548958,6.821689720222869,-16.19680486405839,1.7388286051450237,9.565144351630963,-5.995641884035019,-22.881037542127718,-22.777540878306315,-12.845390706125444
27.0,-1.862367742933483,-35.90564439274967,-34.043276649817,18.82939968939327,16.052328567586756,-34.94573155473732,11.211703461978892,8.988114049272998,-3.0919485481767683,-20.77871540409162,-25.060325541989723,-21.0556265409412
28.0,6.2644777427007305,-16.251638440067776,-22.516116182768965,5.019403413003662,14.430097310997162,-19.34334893208765,2.6902338759935027,5.305210475207745,6.381991958456144,7.109757299139311,-4.737689310711403,-7.580554313344223
29.0,9.929382627535675,-4.1256104785679355,-14.054993106103588,-2.8743753794287414,11.952992034305952,-9.114604984318259,-0.41539496935320397,2.8772112825063614,15.868116211966063,14.85846607529959,4.541353351287773,-2.62097966660658
30.0,2.277948331722458,16.6346544565491,14.356706124827376,-9.506280695626353,-5.999255334038373,15.48498184919922,-0.6381540937802557,-3.034212621702298,7.611308774926306,20.267156400664774,15.71346237867306,4.535431845703566
31.0,-0.38306207194566255,19.70502833187936,20.08809040382586,-9.631425547814592,-10.2723889083051,19.89645835154905,-6.772304178782576,-11.925192118190747,-8.25075531515876,3.586481075291821,11.120564703164845,10.379226565005157
32.0,-12.641753647573486,6.986164455757388,19.62791810333151,2.7793582926310085,-16.089511603295193,13.31226640794778,-2.4572428328426272,-6.19076298850611,-16.47806017497911,-20.81729195189958,-7.727580280695683,2.3259784744430476
33.0,-13.896127860850662,-12.083885382348093,1.8122424785026752,13.021808284927431,-7.882703292123472,-5.1317740360541055,4.923338508196965,0.15455197847638047,-9.259197370841907,-19.646369818409333,-9.923711023485552,-2.5941224602222546
34.0,2.6895431123728244,-6.565487757864254,-9.255030870237398,1.9726784742657189,5.949604241913256,-7.913726333174463,-1.0489877815147217,9.148108353428732,5.3077808873119405,-3.456008389047228,-3.5313590140761635,-5.532227554190625
35.0,13.965971652250833,-6.485452229525105,-20.45142388177637,-3.7797974112615362,17.270412128844708,-13.484127842656989,6.533319008887008,14.816385899531426,12.202889307240591,6.303706130568344,-2.8130322091261912,-1.1447085407196458
36.0,2.271393030986239,-1.7245496978491457,-3.9959427288357325,-0.22860295442920497,3.1206735256785123,-2.890081341603705,1.3415692668033197,1.9005196803633213,5.29421809531903,10.615679765398681,1.147516373055634,2.191160266343827
37.0,0.10359797870366982,3.1246664574556684,3.021068478751861,-1.6423803522743272,-1.470576022712767,3.108975918672184,-5.208398692008106,-9.170043762489904,-6.529986807135092,2.362517131538464,4.222614589375416,1.039589192325425
38.0,3.7039030116900724,9.458467445149308,5.754564433459295,-6.604813999206839,-1.0394886734219622,7.6339812791806025,-3.118467185541318,-9.809638896108549,-1.7813487645391919,6.930456639877558,8.665194324934124,4.072589242985431
39.0,-1.0059240925787318,1.3509859549081753,2.356910047486968,-0.19347778783883784,-1.7008200603925787,1.8785162428826006,-0.7133430961740519,-0.1425374045901906,0.6789716567190565,-0.7296785003845097,1.3490086084725297,-1.4977821364742425
40.0,-7.72529249470106,-4.262174355857319,3.4631181388438947,6.051806273790021,-5.620143365173738,-0.450865608755012,6.313084174970106,1.905532515211261,6.042984525293763,0.6083499593995683,0.7622848494220299,-2.5833916104876584
41.0,-4.656717144279914,4.616460366280878,9.273177510560798,-0.002902262187937321,-6.91784894794842,6.900670007681796,0.74320511759842,1.526731262289371,1.9401400888189164,-0.5068914340285753,-1.6906383830071043,2.0273498979387465
42.0,0.19613396207179834,0.16823236550970622,-0.027901596562243114,-0.1315639632141523,0.15583149914010974,0.1140030954892653,-2.0266147065573437,1.554320823840162,-2.1203461633048057,-2.5784838999036435,-3.4280559309441996,3.5492909239384804
43.0,5.7736114826059355,-1.6380077461112905,-7.411619228717374,-2.103771124657443,6.557116774764921,-4.47237557613557,-3.868333899156325,-4.296680315500429,-6.766034455266777,-3.6688625144788682,-2.079133414388698,0.11026102682440592
44.0,4.31415820332684,0.9226109448912552,-3.3915472584356827,-2.6644932351916752,3.897099127828707,-1.2553882013810895,-7.599166816103464,-2.854309469696855,-6.637405851564076,-5.285282141474418,-4.074983721687087,-4.425391620103055
45.0,2.3734784651094936,-6.777934458591885,-9.151412923701386,2.2235904482383098,5.728521812465521,-7.98524531230014,0.9305516299416552,3.2660665343269066,-3.412734562590738,-3.3826686315022436,-4.582160424456606,-8.753761992548377
46.0,-2.311644672589507,-6.89969018429699,-4.5880455117072945,4.616464676902218,1.1027717636531544,-5.769547553322159,7.607830064090351,8.34265364728122,6.140442170898211,2.0947235385448604,3.2036495427953806,3.139771740792496
47.0,-2.411073854259397,5.157597412384144,7.568671266643785,-1.3702354080751153,-5.029303375291744,6.328276955392598,5.5654172151867485,2.6671835841622555,8.078572286966756,5.138329523327689,5.340773020353623,3.97612247720756
48.0,-4.727534217442308,5.236528883899947,9.964063101342365,-0.2548381494171717,-7.311897175244039,7.633801991230518,3.682327532658107,1.190804937285541,5.72199635774396,2.799121275291428,3.244506836045228,4.4429228750868575
49.0,-3.231555812645547,0.19940121808894418,3.4309570307344286,1.5173023157020564,-3.302237265337517,1.840367858178909,-0.9324845512850481,-3.6455781791602115,2.127938790572009,5.270624546597984,5.432131803689162,1.1752584132953112
50.0,2.443571704980986,-0.057298976951537295,-2.5008706819326454,-1.186232043050144,2.4986185729647317,-1.2577811294244379,-6.74414307449764,-8.414799839445125,-4.251761734386671,-0.34406309614096076,-2.9305558928829374,-5.9054576413691855
51.0,9.184890813801523,-0.7578768837139416,-9.94276769751555,-4.198793371120218,9.590497240290542,-5.3279578660601725,-4.188577506564245,0.3344597482662728,-7.137280667257979,-3.5352255964428747,-4.140757147418712,0.5400914432683401
52.0,-0.07313657057273204,1.9225284522840305,1.995665022856632,-0.9025589772929439,-1.0839084894865074,1.907321406790194,-0.3949972322087758,-2.414051245859538,-6.671083934233478,-3.898250155099434,-3.619768671543672,3.9663301600647154
53.0,-5.845867726821449,1.9897291951926614,7.835596922013969,1.876369492612635,-6.886577671515624,4.9452976254810075,3.0847999000741586,1.718501095392503,0.8152027996462454,-3.1712948340539726,-1.1601780299327489,-0.7630824266189362
54.0,3.338747536211767,0.9216104005507062,-2.417137135661229,-2.1803392056434303,2.914570811440358,-0.7895489577284553,-1.149864282285375,1.0220170281039194,6.374115074033585,0.6163714464064616,-0.08990139676181252,-0.018820811186646247
55.0,1.3823724573967429,0.120322395096215,-1.262050062300606,-0.7238367455148085,1.2835056373188936,-0.6108827348228555,1.6332167405018232,4.981684483017066,2.214656677904548,4.376505021730717,1.0389777079702331,-3.038927112738122
56.0,-11.404881648501844,-13.435314924113937,-2.0304332756120833,12.445860404917449,-4.643890420169779,-7.694667147973261,0.303875690695272,1.2011583278329327,-0.6954434853977407,-2.15941306565767,0.8705272951481544,-3.596167667124316
57.0,-5.041046420820936,-8.893435759423108,-3.852389338602027,6.99271056044021,-0.5475551293248315,-6.336160321144152,0.12152084078127667,-0.5006522284055068,-0.8597025776890953,-0.8344089834106709,0.3539146252363541,-1.28474638433492
58.0,7.847676136937719,7.348517788426369,-0.49915834851114016,-7.570190052148677,4.145041801328703,3.381848282473676,2.81804865751871,-1.8343783371473126,-0.08215730320233769,3.276130581356709,3.145378240273291,2.2951045656403077
59.0,14.511729437339481,16.04641639420641,1.53468695686707,-15.32480347361938,6.463685741593676,8.827140431375671,1.3939449845271064,0.09188938563597904,-0.05151701934286507,3.4870283358944802,3.504009580954313,5.875313267148434
60.0,5.575061310699253,10.14541478065031,4.570353469951047,-7.899350596285913,0.48087986164512264,7.396470126889453,-3.7597866837077363,-2.227499533112447,1.4588509750143244,-2.391080837941882,-0.47257896726749904,3.009077015154958
61.0,-8.35007152260851,-3.4347235351908285,4.915347987417596,5.9384822296817035,-6.650747210606987,0.7024762171069732,-3.984544326608571,-1.2273457908331606,3.1062410589519134,-2.555893860111044,-3.079853445071899,2.036260073489717
62.0,-8.800695398857435,-6.407187729893883,2.393507668963448,7.575953593507567,-5.532380513171268,-2.043118499137505,2.2816009405771673,2.161748885656501,-2.1110485340584386,0.22436283954065384,-2.900552798368614,-4.030402177773946
63.0,-2.2912451749431826,-10.063205033740132,-7.771959858797043,6.2297330188024675,2.731168743502333,-8.95352446929266,1.3192059623034582,-0.5498243099975556,-4.205040226830047,-1.6707249023020463,-3.5190625228717085,-3.23351982178738
64.0,-4.424135632314583,-10.684182715364708,-6.260047083050209,7.526207078996357,0.9139892376574832,-8.429691639525561,-6.179469442951143,-0.2723788218531258,-4.460891288899509,-0.32134779387952417,-0.4651492033526785,-6.295861572332782
65.0,-4.1044144737945905,-2.5251552227390786,1.5792592510554666,3.281923100600189,-2.841468596393048,-0.43053040051662705,5.7841890891258245,2.1705510961050662,0.4658746754769343,2.8703287762937593,5.253201614937136,-0.46453791611659145
66.0,11.163715505162596,14.671530889748343,3.507815384585747,-12.878753477108273,3.8300351389936895,9.054697088342845,2.2256941831888226,-1.995463803824077,4.890225249625605,2.362046685590538,4.537834518403653,5.903585244235597
67.0,6.496716893716957,9.932606162951268,3.435889269234348,-8.261915635848625,1.5300716301585777,6.731044267068157,3.4860112410802246,-0.735285845265703,4.944513844367527,-2.2624075938420973,-1.9734245055983544,0.6432012635171613
68.0,-1.555321065699248,-0.6302530658095487,0.9250679998897433,1.118508726033392,-1.2477274854670084,0.11970923962803148,0.5147829089814914,4.434873370371191,0.6337345600816908,-2.846742983466882,-6.690601450316049,-0.35747014373430996
69.0,3.4242999712164672,-1.0084513383596416,-4.43275130957603,-1.184851536988203,3.9097827405314476,-2.743580110912764,-7.673455139198738,-1.534196338740398,-0.8944561608059637,0.6280564666952482,2.6536974981010752,3.1193592402659376
70.0,0.44076327381476677,-0.1522085820313437,-0.5929718558460246,-0.12015751157526999,0.4849794455945206,-0.3909664397488051,-0.5797818753942128,0.405700130931967,-2.2622833534161835,0.6458285303946739,0.581514753618019,-1.3965631101681464
71.0,-0.7442555637786485,-4.154539309795488,-3.410283746016783,2.398976561249092,1.367614646903207,-3.7964538198259428,0.15589088608521862,-1.2297944969833485,-2.764181226012907,0.6929985862715176,-1.0608339724924212,-3.522442956001755
72.0,-7.725739095548611,-7.739690044722475,-0.013950949173836769,7.767084980465279,-3.8301353017917643,-3.8079884340849146,-0.03579950683123648,0.006527360735558929,-1.3384447909100659,2.2926820104213634,4.955616353598122,3.7277315251256895
73.0,-9.363201504329613,-2.8618534786875554,6.50134802564206,6.074467351686341,-7.910666072652806,1.81352279997839,-0.5196930052389024,-2.2954389421893464,-2.45950432525123,-1.4811991529935922,1.2381984918815294,3.290499595531971
74.0,-0.22555477698385795,3.3496100445241352,3.5751648215080105,-1.5947655782032681,-1.8786091571013586,3.4585865054980305,1.494211708072084,-2.345748129759374,2.7320370158175655,0.15192171263044196,-2.500360484022686,-0.7033972476907675
75.0,3.175638703954359,0.6626839718428488,-2.5129547321114836,-1.8696360499482731,2.7900802848373143,-0.9290976209823993,4.015170882533771,2.1848205910957854,3.0633738719343944,-0.1844966954841798,-1.7603727888330136,-4.1186457369930825
76.0,5.287856600505338,7.216696540580147,1.9288399400748342,-6.201507215255225,1.6288198582670619,4.564865911889165,-0.6412326978026672,0.2614616773470897,1.6481539941532612,-2.9207106462422336,-3.41563670292147,-2.6051031951307806
77.0,9.458562819883952,6.048992734210341,-3.4095700856735975,-7.783033646447237,6.465240228749532,1.3037406696195817,-0.2227376278907509,2.1297977112359834,-1.892896985339577,1.817645116967512,-0.2654639079615879,-2.6611129155052766
78.0,1.84926282957097,-1.5057276360242078,-3.3549904655951845,-0.20477135512834366,2.6359714020579466,-2.457582567084654,1.4438553713560256,4.857061139633114,3.4758457164836285,3.365093128490895,2.1906374628128726,0.07292874810838555
79.0,1.3316259445978436,-5.190915319377093,-6.522541263974965,1.8910236402683076,3.8852148340648283,-5.817480924178776,-3.4602785793949233,-0.6095536293354209,-2.9132385644669703,-1.4495293700079694,3.3077472852656626,2.99450472678366
80.0,-5.100312959562653,-5.8921922621093525,-0.7918793025467585,5.530146863262575,-2.11300358701945,-3.3133090677910713,-2.206592308812117,-3.0571824623671198,-2.61652532637893,-3.9164512663878432,-0.5482849160859127,5.87573138356683
81.0,-4.633405055005735,-0.5196911696011188,4.113713885404575,2.605167167975692,-4.405114923508287,1.7408005882423292,-4.282104879248727,-4.237468646468098,-1.2877749306391986,-3.1834395024437034,-1.625305658353037,-1.8403978411838913
82.0,-6.757604969421841,6.432642126714333,13.190247096136162,0.18808678355677744,-9.919708949172746,9.833730575069033,7.267781140318942,-0.751527938298266,3.0484557585078402,4.050368984468401,-1.332099693967171,0.8524623338271478
83.0,-0.5377800951374492,2.395565594566192,2.9333456897036454,-0.9822421142292102,-1.7535201924125774,2.692562255722814,-0.48192056801804384,-0.03077446911011772,-1.097534405662595,1.6823885766191014,-0.029209093491899152,-0.2725204293476565
84.0,-4.810269933932737,-5.364136976463252,-0.5538670425305205,5.11491105207316,-2.141855097733426,-2.999201778016193,0.5795875684271277,0.58665111994745,-0.7598838648231592,2.46044459598162,1.8764318888473652,-2.432425126763524
85.0,5.5642431238727745,0.6044401487550388,-4.959802975117784,-3.1314671369027294,5.2490342916996315,-2.1268323377900846,0.7569357038068563,3.041128418293951,2.5264505222839246,4.026181705191592,4.294075543293465,1.1185455776167093
86.0,7.546178020243165,-4.946809941898023,-12.492987962141235,-1.263707135148488,10.003378918806387,-8.737050978497868,0.7284480706543982,5.5993612625033435,0.8767542546574704,-0.26102903491819074,1.0929934948920592,-0.925560562601399
87.0,6.266477728906957,0.07047179563113404,-6.1960059332758615,-3.1288849331318285,6.2089970496095805,-3.0737916645661145,-1.6190896887749098,-3.0308769416806665,-0.8863964046078427,-5.504073157904863,-3.0467851919978486,-1.546988686596455
88.0,2.40100520001429,-2.312881068001386,-4.713886268015676,-0.08128647045359827,3.606986686002246,-3.52464407160326,0.9010960972466109,-0.9798531419404569,1.8987115340052727,-5.873292768920857,-8.055621605012602,-3.3648310254781744
89.0,-5.835806440021031,6.100502747647761,11.93630918766884,-0.1697582025031547,-8.842493433224979,9.000784521861076,0.029942851916378688,-0.8261157597669642,-1.6195557658786137,0.5368918456125682,-0.2513266593672574,5.764286197610893
90.0,-7.832662790951966,12.505902655992378,20.338565446944408,-2.2973560539636235,-14.124628240675637,16.394318342886702,-2.467867700657598,-5.84336634668887,-3.069910582657679,-2.611728090697775,0.23006822148702255,-0.10309594707211511
91.0,2.281512847863681,7.42268746381491,5.141174615951266,-4.894727849607814,-1.4704184651593994,6.321889781566779,-4.8411244968687965,1.2446274312450412,-1.4281764184527281,4.1034798870762375,3.995312684355925,0.24322287802399178
92.0,-1.7622391990074697,-13.124479015207859,-11.362239816200391,7.476288543593863,4.8380967632236045,-12.211635840199433,2.6246324334613247,0.10402249036929767,-0.3660760110652106,3.7516565904887638,1.7393985605873343,-6.068510205449348
93.0,0.2494867398342968,-7.377914262128653,-7.627401001963015,3.5945694448383088,3.9768652687981016,-7.4746506326124385,0.598105023899927,4.79046194469576,2.3529392520710246,4.656535209526043,6.074890253071515,3.997736861774157
94.0,4.63966927881637,-2.2321552266991116,-6.8718245055155975,-1.175343011358994,5.715210495564225,-4.601951613807503,2.5486160562708813,0.7387862033235097,3.8555530225384005,3.3790861804225165,2.7774676990797644,5.851194187837667
95.0,-3.0231017808489082,-7.157040489656887,-4.133938708808073,5.037937925361705,0.51391233325834,-5.613010992922428,5.421407608825417,1.654196844009146,0.2785030907099548,-4.228622480457526,-5.337386868770203,-2.6418851277252093
96.0,-7.927418284189912,-1.2439462794800724,6.683472004709809,4.531450459175783,-7.269215875652753,2.677894589475258,0.10876277454074912,-2.17688719814875,-0.3729211899682975,-7.55259041893702,-8.112205348931052,0.4872770513720617
97.0,6.38764733032353,12.758541101869753,6.37089377154625,-9.55088134660319,-0.03375608959052823,9.526201382074152,-2.8166625108219896,-0.8224689081083658,-0.7068062613787227,-0.18042216646794706,-0.09220393428119245,0.8093216814572144
98.0,9.993331167435052,3.4791936216088724,-6.514137545826105,-6.715909155820909,8.293614871921068,-1.4756511568792279,-3.3226259919887324,-2.541720717706077,-2.964860482356892,-3.660342018957619,-4.02218152621899,-9.981107984795813
99.0,3.842782165001954,0.13247687461490276,-3.710305290386963,-1.9679824729336364,3.823173806656904,-1.746938281522612,-4.619576136651922,-0.5932934262875948,-1.0176336467121294,3.4049193759736553,5.33530315819372,0.6865339447309866
100.0,-3.441080809247925,0.7829244616200135,4.224005270868011,1.3493298137209964,-3.8552631529192576,2.4663486130119843,0.5329387392856093,2.421790216758605,2.720140273837173,6.970454791491766,7.299105613683655,4.9831722042003666
101.0,-12.330979826046695,1.0554879343687866,13.38646776041551,5.659327200124301,-12.871590301241147,7.183999480359473,4.028511988083777,0.5571159750997261,-1.4182869981240436,0.06038105274030814,0.7290142093739513,2.9316577635791714
102.0,-6.918960768292678,-2.4148882452311966,4.504072523061474,4.610902368384642,-5.71687536414303,1.0875613303916996,3.763269611319455,-1.9612552323582806,-0.926477322168928,-2.5639711343203606,-0.5157642355352929,-0.4237212623160138
103.0,3.023077589588838,-5.064913918246427,-8.087991507835286,0.9653814405911851,5.553005880858892,-6.531285986530946,-1.9855031625338155,2.927937293736428,1.1679985112797682,-1.937157887256033,-4.10718758741947,0.767083308239305
104.0,10.955983576109613,0.7448720279204952,-10.21111154818913,-5.826939458923915,10.578216719294332,-4.7641694595922015,1.110652137966606,1.2655843399294044,3.239555292398272,0.7375880129407519,-3.2178587929051585,-4.844973700790756
105.0,0.10284730812621579,-3.282949820342826,-3.3857971284690658,1.6147828880599011,1.7313802872758526,-3.3634571969801565,-1.164330103515649,-2.7717636828352763,-2.3936918761426558,0.22909366678404053,-1.2546696041991803,-1.3785113668973792
106.0,0.6601887536022466,3.9813243608803943,3.321135607278106,-2.2927353775304087,-1.353475864781422,3.6229402081619226,-5.565348574866389,-4.035228513220092,0.7527706802700713,1.068475742882152,5.8926283451207775,6.134357696127543
107.0,-3.4684837403975264,2.9618020703700347,6.430285810767522,0.28678725415350526,-4.903047641319496,4.746186650804066,0.9119028812588592,1.701290248609787,-1.1398716097045236,-0.479978831709416,0.7643101302678874,3.003429161797796
108.0,3.0894315349009274,-0.8365657710027876,-3.9259973059037248,-1.1654003641313606,3.548084556630371,-2.410644759295587,6.527514096873254,3.222643198376545,2.041089297552027,1.6113978045025041,0.4130442742849716,-3.0467272206026026
109.0,-2.839506606757234,-2.900057993439444,-0.06055138668216831,2.835981015212373,-1.4287564252909042,-1.4312236622548071,0.7551996094134505,3.127057415262245,-1.428994531333277,-2.4805272688717634,-4.074289716304146,-2.2250317164035875
110.0,-0.4708934333662287,-2.0080440028539197,-1.5371505694876013,1.2864363276105766,0.49812163686089606,-1.8014708301485898,-3.3686201254604957,-1.7233095404266396,-1.1178608317285115,-2.3402010747539443,-3.0148665812556343,-2.2447989963380666
111.0,0.2619691071054373,2.492042444719007,2.2300733376136503,-1.4108554878443078,-0.9321112055167975,2.33422589357095,-1.8275017039027954,-3.3254311396357696,-2.215257703943546,-1.214322569498856,0.9493129736455526,-3.081522152904637
112.0,1.021620215198452,3.158573695295649,2.1369534800972403,-2.129523237200688,-0.5744596802745767,2.702581795378784,-0.36933301690186293,-1.064679895235402,1.5339966169737287,1.989348644615197,2.1930758490323274,-2.096431484183875
113.0,-4.415876551493916,-3.2198509156502904,1.1960256358436228,3.8500244968528916,-2.813297253887484,-1.0328550908534684,1.7507017580515303,0.6954602765126545,2.092300936196439,1.3521643356834097,3.4613457852083593,5.282209883315705
114.0,0.2213724017815788,1.9340172743246034,1.7126448725429881,-1.0517586737663494,-0.7462035085091197,1.8045616485269136,0.9098714038080333,1.7557601884536242,0.19796372865596634,-0.006877790031386111,-0.7927235507132739,4.027939910088543
115.0,6.066520102637748,0.529539640015545,-5.536980462622256,-3.2752444932341933,5.803948136207991,-2.521914611662064,-0.9725189829581024,-0.7268396008690374,2.463031432127152,5.6998267930228455,1.6881631205973178,5.917206675819697
116.0,-0.5091129795266576,-0.8893410547112912,-0.38022807518467117,0.6441438312810976,-0.0638219427313973,-0.575730256913662,0.8730041202687722,1.0917251477848473,-2.4347803022406604,0.0499407438948416,-1.669434506301868,-0.4641165908634397
117.0,-3.652277084753354,-0.9882380458590184,2.664039038894323,2.348347011504856,-3.162766788152671,0.8145072889924815,1.304457815607247,-0.29685878097718477,-3.260576400582015,-3.831900263760463,-1.6850697182833607,-5.968702381752452
118.0,-2.1882931232288327,-1.3307504717945016,0.8575426514343384,1.7939061557486287,-1.5349626602594757,-0.26565867776462465,-2.9150617627471354,-0.6964752337927078,-1.6327114560613665,-4.391975972491373,-3.6616881898497633,-6.144110663234213
119.0,2.163740258750093,4.758675408507254,2.594935149757184,-3.499600005056856,-0.235575826207723,3.719445326716381,-1.7781272136193194,-1.071779234392513,3.2664974850190562,-1.5239507828415042,1.551207658406354,-0.1741513257994356
120.0,5.423998420961231,1.5865222510698973,-3.837476169891299,-3.5399161242835033,4.682454831296649,-1.1691642214930043,0.8555865498780891,2.2204537728367257,4.919513666385953,4.351053620822894,3.433835134618487,3.462091566037394
121.0,0.7704463993119293,-6.298489054466824,-7.068935453778719,2.808651352362709,3.965821780916156,-6.6556873430746215,-0.18823820985180806,-0.9781398458670886,-1.0719743798333652,2.7099398591124224,2.6667602388543785,0.08321946059909946
122.0,-6.85615819852297,-5.240599350912198,1.6155588476107705,6.011868548308979,-4.2728203774382845,-1.789920590091544,5.082909683439185,-0.728944501798533,-4.181032684819368,-4.2798548712498405,-5.271148670312305,0.366832558658462
123.0,4.7799194938705485,2.6131243940417703,-2.1667950998288257,-3.6582816481614864,3.432764671705675,0.16409350338652157,0.22155430170166035,4.083766407785312,1.9253163483536853,0.6790049588973182,1.5317088406596533,3.5976244449408368
124.0,-2.0824643895125114,2.823023067703917,4.905487457216394,-0.4145971542738838,-3.5376215945458873,3.8840580578753237,0.8098020659345585,0.7989675702305737,0.12366387630138223,0.47194089585603805,-4.210026177957064,-1.9685332650692093
125.0,-1.087007321940533,8.656553570316868,9.743560892257412,-3.7523663982480686,-5.382043730748775,9.223075344511738,-3.8693798582932573,-4.631371390990365,-3.623469516930993,0.03468873999621891,0.9786974299131304,0.8541222979717533
126.0,-2.1678763698233965,0.31701159356277175,2.4848879633862224,0.95839242802926,-2.292794046042827,1.4297568726291336,-4.869997290742806,-4.563271903289458,-0.8815515768141978,2.823324048149392,4.1532075253329115,1.0266945413634687
127.0,-1.1874262323341975,-10.521973320638612,-9.334547088304333,5.811779495853842,4.110352723407388,-9.970822697953317,0.20458286858910935,2.0239151752055253,2.037974352028246,-1.8148344928214946,1.5439413855405995,-5.062292182070088
128.0,0.8471618209046005,-2.875857556741037,-3.7230193776455645,1.0542210263641745,2.248801945764003,-3.3341824224436234,2.793872368907051,2.8577988323294474,4.609000132045985,1.2205525944323035,2.4643301826551243,1.2648767838069774
129.0,1.1514587050460634,4.638957393742768,3.4874986886967356,-2.930342306146894,-1.1976799707336312,4.11449392483724,5.978174148789478,2.799218595087125,-0.6199902703152009,1.0162966816096735,0.06845726777351585,0.04220467057994033
130.0,2.589828274701018,3.1332605382213288,0.5434322635202902,-2.894389819508562,1.0777777003911626,1.816870299010414,-0.9931486003932748,-2.296513364613299,-1.8008901309817373,-4.9569867339762235,-8.212295078828706,-0.5952442787586625
131.0,5.391695632627235,2.0921435506316035,-3.299552081995688,-3.6955738819022717,4.323930286331942,-0.6208969950391003,-5.777162040130624,-0.500228011797952,-1.0471721659476994,-1.9878430673027547,-2.752502342824409,2.4327069487603916
132.0,-7.326884728119432,-8.290999145357993,-0.9641144172386188,7.7755217617295145,-3.2044923173910274,-4.563857658152071,0.8767401283081071,0.37220899815232494,-3.09393218987156,1.2201744927190648,-1.388318827616606,-2.396516883073569
133.0,-1.8525338214376617,0.5308038489961961,2.3833376704338294,0.7045525986578962,-2.145778834140194,1.4416238513873498,0.2281723561060408,-0.16747241326785783,1.2347748227494408,1.6008523665828713,4.9121911623737935,2.0234038232317717
134.0,5.898658560611484,6.657868363813915,0.7592098032024417,-6.314813244446501,2.614505920921442,3.689991220793398,1.761395701198809,1.5877694573804417,4.1311871703518115,2.5553525008424085,5.252922727197848,2.487250408884469
135.0,2.22191191142845,4.900479796325942,2.6785678848975154,-3.519980004518742,-0.26716795832995144,3.765593136982681,2.539419017983221,-1.3792612681321366,0.9360216166655648,5.681876245464998,4.556682239246866,-0.5513975971787378
136.0,0.5832006859871084,-3.6666340187227866,-4.2498347047098735,1.5034894252844089,2.4551582458674712,-3.988603001182933,-3.0219076377510357,-0.7619624886000546,-2.1411915422498042,-3.5440369691056177,-2.6256309163433973,-2.022347468207773
137.0,-7.269367129357883,-3.0507364930282153,4.2186306363296735,5.19955308508634,-5.70189857770569,0.6266366626378992,-0.431551509815598,0.20506210681740533,1.006396793990832,-0.20975551831299155,-2.3942807270079687,1.9132978359815154
138.0,-1.9550923659546076,-4.417650715198907,-2.4625583492443193,3.1450993823387776,0.22475997351691168,-3.4006612426633214,0.21470713850236978,1.6135227056083234,-1.637697732067115,-6.096268879478766,-3.49507524097234,-0.8018395744311888
139.0,-4.8875241019923354,-8.428930796399586,-3.541406694407304,6.692368161513797,-0.6920088183955992,-6.024448555471711,1.7921612884594824,-0.15622448151084,-1.2177252614628458,-4.793471790436791,-5.926285234335468,-7.63061669356549
140.0,-0.09602713719403366,0.729908162601264,0.8259352997952052,-0.36583916235164926,-0.4699813954260078,0.8202414804952598,0.5192240749314883,-1.2191574414369653,-2.601412538476846,3.686007692491107,0.4122890632800087,0.7685706383949595
141.0,8.805889064511693,12.155768264931703,3.3498792004198954,-10.455119256319584,2.726817521914563,7.720516979697438,-5.345501089377767,-2.301931607488219,2.3870957979945366,5.646657716566086,5.247264121834005,6.736386606092022
142.0,6.475826840826294,6.866980206862508,0.39115336603611695,-6.648089656275003,3.0456992157094813,3.6001548894478606,1.0320498910162903,0.2133182346940089,2.7716607455970235,1.8838446010578918,1.8261442007349906,0.9593589228524797
143.0,0.23829315198831535,0.9713428578726138,0.7330497058842658,-0.65928500286903,-0.2428168782704525,0.9030223424746628,0.20159103232108805,1.1591029252697602,-0.7968360648438382,-0.8276921802730204,3.38069351496892,-1.7982196173027272
144.0,-6.751414454248021,-6.350395765520197,0.4010186887278603,6.5805881886055655,-3.5731514971924687,-3.004795716733919,3.7463189396150027,2.5702835519793976,-0.366513896632181,-2.5713365017985197,-0.8120240891126713,-0.7651766042776806
145.0,-1.655194716305001,-1.4180586211570283,0.23713609514807543,1.5761691909292486,-0.9463674937446087,-0.6255572666750311,-0.7889147130348746,1.9671066709338922,1.3340874239186726,-0.8223629598393154,-0.4023900767645421,1.6832908881350035
146.0,7.938379196999023,1.8486180617912753,-6.089761135207632,-4.919621046286622,7.0095694387038705,-2.0834148072930074,-0.9903223635440724,-2.4589779277695234,0.21404820006537129,0.17927940887441607,-1.9737545488723587,2.1384644144277267
147.0,-4.560675381288378,-3.589459445341788,0.9712159359467067,4.062922770465466,-2.7755143773046553,-1.2782702780172364,1.3463985874036708,-0.7712734269707955,-2.6599632267980176,1.0212485518579832,-2.4054492527911444,-1.3512630260428644
148.0,-4.150271184304887,0.27230759663962134,4.4225787809445904,1.9387998895214908,-4.223335715238421,2.2948880093349953,-1.0799591659734324,-0.4956427088254569,-0.2021445549792784,1.3796438881651665,-0.5164570896434939,-2.9786810084342425
149.0,-8.279791715718762,-9.009380527547366,-0.72958881182857,8.651564894282021,-3.7983793674520907,-4.845586402219697,1.6911607771442094,-1.9661601041184698,-0.6685683192107348,-1.4787608651224649,-1.5301818387032342,-2.8909010077282433
150.0,3.3655128383390758,1.7177343993280438,-1.6477784390110901,-2.5342984146045926,2.474014441798582,0.058736275038925756,-1.435318570817816,1.4068456107520948,1.6653672165680755,0.2831842260402252,4.992869135350499,2.3481066070339445
151.0,7.0707592837358355,6.311087982818778,-0.7596713009171565,-6.690806862259289,3.872125029102812,2.800585955037477,2.5492728509605156,0.612395794322326,2.7213604791240718,-2.4477933741724276,-0.09442414242399622,1.1738256900098403
152.0,6.290551992483849,8.450440149176277,2.159888156692338,-7.384326760464674,2.0910601771830692,5.252636443083687,-4.909949448991391,1.0831483747212856,-1.9440496801324598,-0.92639615970094,-0.8614731389619112,-0.6082562559326521
153.0,0.9829178277802191,-1.9983641554393712,-2.981281983219638,0.47556715633836877,2.000580107457679,-2.5412890080185666,-2.8708078397506256,1.2256820572260363,-1.713283460116511,1.7921941840025684,1.0424258403580076,2.7405959146509242
154.0,-4.165229674411041,-4.447064584891464,-0.2818349104803951,4.33353267372881,-1.9260534884017761,-2.3360006107535574,-0.0954606045545584,-3.3679930068516413,-0.9977807615898863,1.00022673791578,-1.9826368241247767,-2.273099284127216
155.0,-9.147693164173834,-5.264707832007794,3.8829853321661236,7.217310588673372,-6.497705178334253,-0.6600904991723873,4.177810987894721,-1.048475164475187,2.00379224234976,3.7839591102812604,-0.6606266349101905,-2.464210056559156
156.0,4.956516127918871,5.292457668535346,0.335941540616566,-5.12358965664951,2.333551617008175,2.8494503088017296,2.403312197580009,2.7924876455190413,-0.32888499866814125,-2.703362502476592,-0.5125697385705908,3.40120195895686
157.0,1.2879641048192716,4.521273936131388,3.233309831312177,-2.9062905347708616,-1.0211718370521852,3.8406414371733524,2.510428189635009,0.5022670040334026,0.738578335177331,-1.1773969619342677,2.6827832568730976,3.8158802149204423
158.0,3.3372838384964076,-2.1468053205077475,-5.4840891590041325,-0.592221779208298,4.368180833499846,-3.8437832020533733,0.9211807349064285,1.8363078723794428,2.845022060714739,-0.11903257561479164,0.4836487105381736,-1.4853181705627523
159.0,-8.85540781565763,-8.629274819627126,0.22613299603049564,8.755102580107016,-4.50095103540275,-4.14319475714831,-1.3006937857913667,-3.684767438475264,-3.078733534234698,-3.0416731281895903,-2.418396051814828,-3.0122149964827387
160.0,2.2122788243114866,-3.592985880794757,-5.805264705106265,0.7145837205774712,3.9709318482624214,-4.714061514309877,-6.774887912078136,-1.3981122071427095,-3.8323034332262287,-0.30631170148248543,-0.1818680155953104,-1.887442049459794
161.0,5.285499468663385,9.655998104915783,4.370498636252373,-7.515471851265644,0.4980391989469528,6.999416292006112,-2.2421327240003803,2.214332448867297,0.9313680988644455,4.384615332687482,3.1689752043119777,-1.580618635341425
162.0,1.4100737224164153,2.6626917395386926,1.2526180171222556,-2.0753438474773906,0.11883812387029008,1.9398230659286129,2.6440212830751033,-0.7835580392300711,3.7323613018574324,4.663134261362151,-1.02929185063214,1.0704454622657043
163.0,-1.759450224894814,2.658788490517086,4.418238715411887,-0.4087685294843655,-3.1268750269559042,3.512232707689897,1.4499308794817898,1.6277811301280676,2.7904620305504144,-0.6191478484127537,-0.3608250281234043,3.3378716188740474
164.0,-1.8896300641830086,-5.9185133591286085,-4.028883294945604,3.863807207059891,1.0336637389709056,-4.932164724795827,1.716983309654605,2.20038515694041,-1.1171928367126713,-6.051872019505753,-0.17702685747790303,1.834555028161922
165.0,0.007732477769169632,-0.4082682767012855,-0.4160007544704447,0.23495137357101337,0.25790930689414504,-0.38136039089751694,0.5617162040898784,-2.728069976120563,-2.5522615083295976,-2.219510441326316,-1.654731516061803,-3.505965338038042
166.0,-1.4386109710001396,-0.27339018826341066,1.1652207827367613,0.8875917754881097,-1.3309798229918615,0.3898906408885854,0.7891684906705405,-1.8565559627893937,-2.033026587186468,-0.9537777021098237,-1.6179209781478436,-0.20396442306335394
167.0,-3.15343595600986,0.1378862457336183,3.2913222017435224,1.538185775974994,-3.1697618204851805,1.7336922730958766,0.9340897922210677,0.5661101151672789,-0.5948337791804155,4.860096207371129,1.9282771747819116,1.9499974959803104
168.0,6.21923361209448,1.931656786498406,-4.287576825596032,-4.122974030274147,5.228411004128669,-1.1576176398779365,-3.1287002807073474,1.3016605792327895,1.348054916643485,1.545826770802293,1.8645536932683098,2.5931515140954855
169.0,-0.6684802536835139,-2.8419370659861256,-2.1734568123025784,1.709848831077002,0.7261943490960809,-2.4819641447822214,-2.515549966686812,-0.9386074639639065,2.088935881477169,0.3838869689152291,-0.6286351329970568,-3.462556775742236
170.0,1.1123893280487458,1.110362166985921,-0.002027161062784111,-1.075140034044377,0.5273250882102718,0.5090281548257087,0.4857551290143771,0.46468948955539413,-0.3282945443613552,-3.8854774081121093,1.3631227259852439,-1.0830769778039857
171.0,-0.5596297128417523,1.8979264131799312,2.4575561260217182,-0.7084760074308696,-1.4645964956487463,2.141008621187447,3.3264224370853763,1.1091375017861425,0.9662264808688172,-0.34917691908445514,0.4841526110623925,2.926360674134179
172.0,-3.970084626049463,-1.9711557123723582,1.998928913677134,3.0134927332089996,-2.9451113489678407,0.06313543567631164,1.317046780519351,-0.5881534311578247,-2.9375450515937285,0.24688403684182314,-2.169971114722137,-3.407437766393209
173.0,0.6385637237273958,-0.5758749789921117,-1.2144387027194896,0.015044225621373197,0.8843831538169098,-0.919748526330328,-1.346821780331569,-0.08308624976825074,0.7458753375239375,2.9514566200397025,-0.9283934668496364,0.28150006044950626
174.0,4.9526603683255095,-5.1413410165429685,-10.094001384868447,0.06498522875302837,7.481400226308569,-7.561484670128834,-1.1818315685948337,1.0283785284508267,1.7738052950529792,-1.815130029595028,-2.033759576748018,-1.5416535399518745
175.0,-1.8037426948994053,2.858279766211279,4.662022461110716,-0.5549427109737161,-3.1925817271576777,3.7367212974386885,-1.0708311228992065,-1.0244699009918252,-1.4537609622103833,2.6905896683803885,1.7247170265826417,-0.4068787531438602
176.0,-3.4096947213463658,7.3155724196845915,10.725267141030994,-1.9808700635119987,-7.021008261091425,8.993807386208605,-0.3416535422412841,-1.7677816219004463,2.06244977061013,0.20408102869957567,0.42284251688656105,2.791784029239027
177.0,0.9848215396239828,3.736530522277734,2.7517089826537675,-2.3120755341256634,-0.9083855070354345,3.2132320686996363,-2.8376704911521964,-0.7618077079753888,-2.956238734650485,-1.9149047932672478,3.961575847342988,3.1841559298500304
178.0,0.3093273664942635,-0.06032466286891047,-0.3696520293631831,-0.1582342156814447,0.32095091712871976,-0.1708091686599642,6.162788160214406,3.57659864868914,1.3372948392692265,-0.922690662029532,-1.279110827631218,2.4202361709766222
179.0,1.464679242353845,-7.831467481867287,-9.296146724221149,3.2243531312928693,5.365315782267566,-8.599882066668759,2.5398557215920095,-0.08433129381883164,1.672903019817149,-0.33328635890407976,-0.9258209561547076,-1.3574479696464756
180.0,-0.4850752191068516,-5.961196320814583,-5.476121101707749,3.1815457287793922,2.4795735765268545,-5.674584098189904,-2.2106413401912954,-2.01510958264653,-5.073984651394609,-3.5846966882928633,0.3504095712918692,-2.8051312580598164
181.0,-1.5498285861198025,-1.030362088490711,0.5194664976290797,1.3239677560183847,-0.9773084839208839,-0.2077545439973525,-2.537252640249191,0.5097899533287914,2.108340731816398,1.824857219733899,-5.665110184317597,-4.4528856797152745
182.0,3.9450004736375046,9.085402243114817,5.140401769477303,-6.484376445723544,-0.6285262887341472,7.085673363937593,-1.2876282340052347,-0.4221746158963305,0.12025881511486874,2.803897142768424,1.1209317520166922,-0.47725225410305017
183.0,2.766759089841194,0.6331938136455335,-2.133565276195663,-1.7512199309336367,2.486115348823339,-0.7758794707349814,-1.2942248320051881,1.6857369009017305,2.645812336914477,2.5843440887131184,4.205300961470961,2.5611257418702422
184.0,-3.9197428666922756,-4.238795081957152,-0.3190522152648596,4.102946294720725,-1.855766921088116,-2.3071364233224108,3.0037027736191435,0.5140266175989443,1.2038628304889099,-1.2768918158500433,3.1976597508681834,0.28938547562457284
185.0,-6.775606741686835,-2.288091745359997,4.487514996326893,4.472930376052684,-5.619324150558098,1.06487620551749,1.1371899449374974,-0.035273226113651746,-1.9368398154822857,-1.4993079405419345,-4.030075955038155,1.0650084156914328
186.0,-0.8558691334951884,3.6753746860315157,4.5312438195267815,-1.3924808532191109,-2.688733432880918,4.138282365466704,-0.3426898850142377,-0.7404993383331775,-0.6439042686227553,1.0025540561026334,0.6845211584427884,0.1062681051306058
187.0,4.5690515065192425,-0.5938252828110233,-5.162876789330199,-1.9699774517317747,4.868670146523642,-2.8518341255451114,1.1799238546503434,-1.1714330956054213,-0.9188179009340431,-0.43758840597395937,-2.3154784489043467,-1.620863207739231
188.0,4.1424864291612336,-0.4237916675325392,-4.56627809669374,-1.8373135411471864,4.360838641317548,-2.473954440823398,0.47247913993377816,-2.3322720030577835,-2.7294888089770732,-3.346037253540955,-0.25376810973019703,2.6463301163745943
189.0,0.03900211635902018,5.700299006943467,5.6612968905844205,-2.8393717983814573,-2.795860022641565,5.7006793663424595,-3.3740454101336073,-0.0639407030865895,2.5248989946313842,1.4326171811267803,-0.23132817585869808,2.129518098593402
190.0,-1.603045945841524,4.050267789623467,5.653313735464918,-1.2617105288787702,-3.601000826071247,4.795566451914867,-3.4474654704227072,0.7063257605056837,0.9599245234283055,0.7777268050299374,0.4881589282008868,-1.3484725753528963
191.0,2.550987945877858,1.0463572326188761,-1.5046307132590757,-1.8270609268904532,1.9885496712352821,-0.201647151601286,0.6392443535219101,4.127666337973762,2.940137579701028,4.168303445492804,3.863521614555161,1.4197524024657795
192.0,-1.1953240731978554,-9.760862437877378,-8.565538364679586,5.534596706522746,3.656214138069265,-9.208960927159273,3.777005238029473,2.0721913326438486,-0.4159220764272298,-4.380756813334349,1.2779141982125921,-2.8723860393719223
193.0,-3.878433278565755,-9.531326738231787,-5.652893459666018,6.683203001795057,0.865437955400028,-7.554367770093533,1.5545278194589391,-0.8474913433281679,-4.619560313085249,-2.241168613227372,-2.177974298490753,-5.457646174117684
194.0,-1.4443008427224544,-2.609070410104892,-1.1647695673823806,1.9996753209714355,-0.07901234421750912,-1.9243670587830737,3.5650688396096184,-2.3389231923296685,1.4581931494183564,2.0317374673526944,-1.9449787150357554,-1.8549757027643363
195.0,1.8747855759941154,6.710105667060857,4.835320091066779,-4.329097077793866,-1.4969089531060717,5.8166534880787,-1.7188931503107114,-2.7871354998749274,-0.597137487885223,1.5845029512907816,0.9344101214793807,7.178150429531042
196.0,0.1745617625020256,9.438518895705549,9.263957133203526,-4.775295880374955,-4.561360517984493,9.318714582187258,-3.0761362135853267,0.05325398799495984,1.2788115842325976,0.6802744474808221,-2.119641170683253,5.9429345074055995
197.0,-0.9689703630694548,-0.8213905656686116,0.14757979740083194,0.9178910605721442,-0.4969272854369926,-0.2883207922030655,-5.153696481949696,-2.1227957633833,0.31708158410877196,-2.6459451358654156,-2.1262252256550456,-7.1806272803496425
198.0,4.045491659445508,3.90135715636911,-0.14413450307641296,-3.954267039974262,2.076002164658294,1.8508838504856493,1.400683870160011,2.9814698878005848,-0.1344053391100044,2.4826002694505362,2.871331458052318,0.5094645846462837
199.0,-0.838878171313379,-3.4983178887470263,-2.6594397174336732,2.1900077093182584,0.8890903866213717,-3.104489761854645,2.9452124893702645,3.1287164073914377,0.2873003515876021,1.8735797008157322,3.7981547026117157,2.7861235570370075
