Time(ms),I,II,III,aVR,aVL,aVF,V1,V2,V3,V4,V5,V6
-200.0,-2.358398714776028,4.685089997201277,7.043488711977153,-1.1214672262739818,-4.6634312198930274,5.88454871730559,-0.6675525007861387,1.1706498295219063,5.5458085576928315,6.112817689042704,3.133243055090842,0.30399726264117444
-199.0,-1.9496645095218241,-4.879988693815417,-2.930324184293668,3.3812761224115278,0.4447924571459869,-3.877675715059823,4.387197355366256,4.954511401853936,-0.5889973355085898,0.334608536254247,3.976892079628349,-5.210099683769858
-198.0,4.905648231935594,-3.2063741087827835,-8.11202234071833,-0.88237477290306,6.5382218928916425,-5.701297572680889,2.3381129929506366,3.57476256930222,-2.4913064386641146,-4.718077869918291,2.7603762916287127,-1.5202451825903398
-197.0,8.55405783514347,-11.532398723989001,-20.086456559132372,1.4546110965517411,14.347470381099484,-15.841688404039871,-1.0762408857470445,-3.321616530861647,-7.752958340100447,-9.959147379580129,-11.902994118852188,-6.415784620988729
-196.0,-0.16654019954960564,-12.493791689134161,-12.327251489584466,6.3713778037286275,6.107243863947877,-12.354567485420263,-5.028527703694996,-1.8073537420723573,1.9046567350395782,-1.674082334883407,-7.869247647146262,-6.115559652935596
-195.0,-11.72371096500263,4.250853314940202,15.974564279942909,3.775893210513604,-13.900384990419905,10.098347298683086,1.0347005249542471,1.829831814324152,5.524405353908591,5.885382660684369,2.941415185012154,4.326454933369205
-194.0,-8.984801754454143,16.222125644332714,25.20692739878687,-3.6563135586676947,-17.06837123215911,20.707247999307764,3.6942412330444987,-6.7663509596836615,0.2679967012025859,2.859663119298904,4.839044614904941,6.521299397806269
-193.0,2.534608725859899,17.38236791975711,14.847759193897145,-9.911465965189626,-6.209907277929728,16.113390663960075,2.873517453176146,3.338844277187824,0.6284382831155138,0.44924302477171807,4.6759756841456595,7.461739037197255
-192.0,13.564703014922658,-0.3421633798465198,-13.90686639476932,-6.633533634811422,13.756415132448511,-7.122134080637679,-8.370027874881218,-3.425278202369733,-8.945489818605918,-4.365588041597345,-2.154554209227176,-5.539955741056168
-191.0,5.30019564984989,2.4575995003513667,-2.842596149498628,-3.8903078678718406,4.084943377665291,-0.18775777280795847,-0.0058560232526376765,5.7729872375011215,10.77813480614692,13.517583247599386,11.141427664138806,3.8869473903330705
-190.0,-7.056831351794569,-7.585234119805166,-0.5284027680106398,7.3190485642624665,-3.258740563257934,-4.051683779877426,0.5959914038998689,-0.10645850495042009,2.92931512746344,-0.08691058921999462,3.3291056805577113,2.6285865426762682
-189.0,-0.23615426132545725,-7.282019251688343,-7.045864990362846,3.762499059275318,3.403033789079018,-7.1607292894105905,-2.013218838653716,-0.825309857857579,-5.5341430562301035,-8.992464122061302,-11.18551663076492,-2.764928078889192
-188.0,-10.912719693788942,-15.562473509422578,-4.649753815633516,13.24072868358699,-3.138033463162027,-10.107376942771962,2.4240663850425697,-4.350696213231389,-6.871966927354526,-8.393211529628795,-12.60736433248157,-4.191061683674531
-187.0,2.0355532612887384,-4.569094952417094,-6.604648213705663,1.2636850997535607,4.312830195943289,-5.595022629111401,6.463905914475306,3.811937736362559,5.5212299469537,7.102700617235353,-1.040808160100057,-0.6284112221908003
-186.0,15.861592465413356,5.367199273587994,-10.494393191825202,-10.628456007549866,13.17481010276126,-2.580328820441931,-1.380544956643261,6.768366531585246,0.6589553441381691,1.6157804356722887,5.842399434664622,-4.678001043602573
-185.0,-1.4671066518954996,4.540990976437358,6.008097628332944,-1.5644488532897034,-3.7319928803409286,5.248776540992802,-2.0713176020171424,-1.4697215486476916,0.8504942664770526,1.192991948289426,6.7947081361893575,0.13224126606254527
-184.0,1.6469722650427405,17.368028363946934,15.721056098904185,-9.469477230869598,-7.019099972500241,16.589405585312104,-1.7445233206980237,-4.019093026922552,-2.1428135001266515,-3.7879081676621396,-0.5843896555836219,0.668177846704225
-183.0,-14.486801803272282,3.624548021305772,18.111349824577996,5.458421291990826,-16.267388288259607,10.906545289375206,2.947422449570516,-7.405304634843757,-3.1064339426221705,-5.745698125030603,-3.157360003624003,-0.9261526329420335
-182.0,-9.112365020637547,-15.32661893824499,-6.214253917607529,12.239727494131493,-1.4835788794566058,-10.814929353191715,-0.45583790324150675,0.6236687373410521,-0.20334843420989368,-0.34007348870482756,-1.8034511269945024,0.5027338491525164
-181.0,21.09160318751869,2.2944287287410923,-18.797174458777658,-11.754964174802232,19.9188699187598,-8.220283746508555,0.8054711950570986,7.80217862178727,4.233397221667356,6.895481046243569,-0.061162139315715125,6.03451697294847
-180.0,-9.452595720613187,-5.993659200136112,3.45893652047706,7.7392706327078695,-6.477076060167146,-1.3181150845811151,-0.2813533002745744,-0.5532705333331647,-0.39223554537082084,5.132562514261351,5.330049307677305,6.344498655578096
-179.0,-11.703371356823121,-1.1819278236072615,10.5214435332159,6.4599251524268855,-11.055365238282858,4.693982765750299,-4.214740408602366,-4.082557515521774,3.825599004307147,2.1913797380773494,3.3614807091158285,1.1221414302497676
-178.0,11.61408691234924,16.078027721856678,4.463940809507476,-13.905205116502195,3.549807401284901,10.290869948529341,-5.743141298697973,0.29507256772610013,1.585818257788186,2.435773979581075,7.140339440417292,-4.539248027419047
-177.0,10.417952098551568,2.366777169950678,-8.05117492860087,-6.369330863512287,9.20465440806117,-2.9048660307440706,1.9042067134894134,1.212849569675401,0.1516720017200659,-0.24315036211881758,-1.3460451280848116,-6.355826345555431
-176.0,14.076975886451558,-1.2468684493118258,-15.32384433576339,-6.387350609466559,14.745452002178295,-8.270776783809799,1.367579957484768,3.3018979603767153,-5.330256461881163,-4.828277924747315,-5.796438598584267,-0.5098466749876271
-175.0,-10.344073464771888,-2.9963228716197063,7.347750593152139,6.703697877374273,-8.802653255640065,2.192777384776289,6.060273682117448,1.4842632838086578,-1.7513613658225027,-3.8146306485862937,-4.809378868663692,8.447921573702075
-174.0,-14.323009648282685,-19.90693084098769,-5.583921192705069,17.075981402576975,-4.404607993545935,-12.72117441758979,0.9228093831139059,-1.9536528225049636,-4.114174107573266,-9.2215915713996,-12.339236698878373,-7.560404097601243
-173.0,-7.9857476313111455,-6.690548113754899,1.2951995175561635,7.304732915499757,-4.673427958212721,-2.6624201726814936,4.464009872905558,1.6953326335355432,3.124671343833482,-3.0433942620726735,-7.4117962647210485,-3.381999341920187
-172.0,-3.029011777060422,-1.0333922347831446,1.9956195422772094,2.0801419973562636,-2.5422227422408668,0.44996805121006744,2.0591080201580723,-6.247307707077793,-4.313839239525244,-5.789822807888946,-3.7788515835238634,-8.874476495608707
-171.0,0.5280566101163531,8.786795720435242,8.258739110318807,-4.686586727615918,-3.813112399703733,8.50206643162237,-0.49398115647394447,-1.5569130138232539,3.858594029604042,4.850732929259657,10.5270652262869,-1.1264891661247363
-170.0,14.008754642921481,18.05133853993108,4.042583897009557,-15.983125408220326,4.9598081890138594,11.031969727557108,-11.631495124964362,3.01200715181247,6.975754198759896,20.681101241219604,25.424160608664018,14.636029344389478
-169.0,14.858742721399642,25.087120286019637,10.22837756462001,-20.01027182556077,2.373126526569199,17.642381082693085,-7.590551672985046,3.271239222772227,8.153016191012568,20.709758091232843,19.71030075675424,21.189213333842723
-168.0,0.45266655936221945,-9.235139401133134,-9.687805960495256,4.34691240635768,5.0502038677756955,-9.403975015978933,1.372848599691944,-0.549148157146226,-4.675279945763203,-7.193294037292867,-10.346511201154476,-5.312390105681924
-167.0,-9.302050826252607,-22.76908839070822,-13.467037564455449,16.06358796663184,2.060550074949889,-18.148454467284253,5.588696878173195,-0.902418263659341,-9.959974888519886,-17.110663700556653,-15.654299299438755,-8.270518723612506
-166.0,-11.130826553918201,-10.279549578234656,0.8512769756836622,10.72952015778653,-6.018112569713232,-4.753757777942592,5.597027104840686,-4.927411551354689,-4.443135024395352,-15.167623507347782,-13.531779070636288,-12.055452347774516
-165.0,-15.420835762678724,-10.705003247033401,4.715832515645371,13.08774567621731,-10.024533717227184,-2.9617146276329915,3.3985069371281593,-0.5545137759928245,0.16873940387128616,-1.0464141676503704,-5.735495126344437,-4.826957578573692
-164.0,5.737240857385409,12.03487313565845,6.2976322782730385,-8.9351559972809,-0.3242740829344384,9.197806446641383,-1.6610258560391662,3.186498521692711,2.7396882330846126,2.616814348699183,2.9698230470633478,2.089060735106875
-163.0,18.73772073683096,10.743623718635435,-7.994097018195537,-14.703180647857746,13.39252643479721,1.4101628219061864,-5.340744428661071,4.5360463190361155,3.278347719919301,5.105598839162293,2.8056965668594236,4.9049176153072835
-162.0,10.887521667379794,8.372532100859996,-2.5149895665198017,-9.662852493797999,6.723354122360359,2.8929216911406668,2.7603707359488645,6.730921434714048,10.156983315590251,12.19235473757874,5.073095594950785,-0.19483773572214158
-161.0,1.7321755509387655,6.050572746894687,4.3183971959558995,-3.839234606227559,-1.3488832747571502,5.15730573415656,2.3129740117133477,-1.6233581450808923,4.098046842189987,3.315937145875904,2.3664114268910437,6.703915803223161
-160.0,-17.33543066632632,-11.991405350383594,5.344025315942636,14.638499771839392,-11.309847577816607,-3.3433783371606416,1.4930663883482191,-6.8301671216005495,-12.638895557360726,-13.70149516748506,-6.750479335473211,-3.2442786230231873
-159.0,-6.5249920865527855,-19.277808150750328,-12.752816064197642,12.872690690779644,3.155735248826583,-16.030024058525946,-8.364265746911789,-13.337928831112494,-15.314968080804778,-16.797289014717787,-5.108134616602074,-3.630578991967513
-158.0,2.0548972454857504,6.573185867671876,4.518288622186056,-4.351146699983945,-1.2541909639019948,5.6121426233534,-9.64824541723206,-1.8623403916735537,1.2081236096315235,12.187296901946407,16.245968125090556,4.896322575694373
-157.0,-7.403749119277096,2.7368875309638527,10.140636650240978,2.3646443079036104,-8.781337084040127,6.426938928343076,12.886589692009899,11.818007936919471,13.009197613254036,21.076795326022346,14.884167167443396,2.7259357436029665
-156.0,7.672862060796197,14.584906832196205,6.912044771400057,-11.106738626850056,0.37992650444537057,10.736326421857402,6.688742160586608,14.143427220498296,15.327754038638071,11.96134834502632,10.379238529710948,6.936829191159365
-155.0,10.237206209122029,1.1112534327839745,-9.125952776338021,-5.656799640620003,9.682534446477792,-4.019948285123274,-1.105052105586501,-2.8093198952141885,-3.3783812521670553,-12.703661934037896,-17.616585267727064,-5.5516801659405886
-154.0,-5.74275866224924,-12.255775882806741,-6.513017220557534,9.017864695223976,0.37970425765594484,-9.397393528809781,1.806897383958603,-3.1025865112730013,-8.624218406522575,-19.7853945072259,-24.214056671309258,-8.787952161107892
-153.0,5.855563224748762,-1.0177536522534556,-6.873316877002319,-2.472331685728504,6.346499735229237,-3.880587168134026,-10.02667930109709,-7.591419756248213,-11.674926247413588,-9.923024439525271,-12.066800374628512,-9.276815321935326
-152.0,-0.23238505875198812,8.791083609197852,9.023468667949718,-4.243602295750794,-4.660938405658046,8.891299823416176,-7.715026760494569,-7.065905375047535,-2.7124300816081774,-0.18574672830353034,1.6295411232002897,0.629546573701838
-151.0,-1.1022753390288558,4.58951826947682,5.691793608505551,-1.7751425060957575,-3.364520753393453,5.120063148342442,6.658087766824789,0.10290421185498211,6.848750585023962,7.131729726292361,9.053469140204225,-0.1466973548166135
-150.0,-10.259175302899406,-22.04261762482177,-11.783442321922442,16.129302079409133,0.7869876220415861,-16.941259910619774,6.730593505087697,5.8885293184226635,3.57446453333069,9.150046732694841,10.199372805549702,3.6445982137067463
-149.0,4.3220320178901686,4.081994781482833,-0.24003723640735508,-4.138478623102682,2.3054371128187388,1.9612944092872349,-1.2878991594063978,6.440109684518442,5.912911549202208,10.370981465266544,16.657587294530707,18.173045785053986
-148.0,7.714503579536672,10.166334926534278,2.4518313469976434,-8.953844731207418,2.6614210700003267,6.259515380006533,0.5959491489983286,1.226328125506269,2.700831822570347,6.104812545712931,9.699496591580981,7.786635350828153
-147.0,-8.401537843316348,-4.5835907048888185,3.8179471384276167,6.476392463764336,-6.149903337935031,-0.36324859482282745,0.3601266346999917,-1.1117671758180199,-5.149475264329111,-5.184187933222207,-8.737374146627353,-1.9898539341365198
-146.0,-5.243529148133653,-1.6570253108916724,3.5865038372420943,3.427971263032051,-4.447976010136419,0.9787176610680652,0.909516813937392,-2.4200951685525416,0.38224377597748393,-7.056157823500763,-12.468557540496544,-8.385396803553434
-145.0,0.737833402263621,4.902311896756451,4.164478494492921,-2.849910467191099,-1.7436136811376484,4.547433539260846,-0.41919271514043877,2.299014453007564,-1.2105516139265813,-7.823642814091061,-9.461346741040604,-13.71523067868455
-144.0,9.281954531161524,15.71328630363265,6.431331772471161,-12.455427603048397,1.4707623955230025,11.09223006202541,-4.456094458595025,-5.298835964858717,-1.8956964561964846,-1.8703961814339536,1.0553083079069925,-5.817721214797427
-143.0,-2.414829035777035,-7.628488553757505,-5.2136595179805125,5.059518977327602,1.3585793309331704,-6.4695861272492206,-7.261145596684941,-5.312949223227123,-6.818879605641943,-5.72175938408342,-1.2689200494071948,0.09265375282910426
-142.0,3.031857068332809,-2.784784911665098,-5.816641979998,-0.08732755510685064,4.452799756544441,-4.258184570324367,0.020825670121905837,1.5363913644220464,-1.5483003911516207,5.380792101661909,2.361848372854121,6.522847289724618
-141.0,1.6098053124997433,-11.911891336596524,-13.521696649096372,5.108579311287302,7.586136967610537,-12.741450016529459,10.076386956344848,4.511996979596009,5.039217801191979,2.78086994100764,-1.7431390387299013,6.253372087088373
-140.0,-0.11066763256702139,-8.23650939788911,-8.125841765322178,4.131507848599543,4.023206432388229,-8.197092485140322,5.689526034534181,3.9159870480130285,6.560154280442171,10.063294944729105,6.029317891147507,0.9830814842027644
-139.0,-2.1881310348916228,1.4223173864070944,3.610448421298676,0.34063831611655226,-2.8842771999386745,2.5054126784233226,2.771874604305893,0.007463748064774123,3.1745378267372155,4.811686330824557,7.791988053158359,2.347225033034422
-138.0,-12.57771766181179,3.3656222272217713,15.943339889033544,4.642006034156315,-14.321272388895178,9.644868166269381,-5.669229220974867,-2.881142535897581,-6.061833452082258,-6.79353029436041,-1.561365470321138,-3.5943648113575803
-137.0,-7.984953850178838,0.4613745371499576,8.44632838732881,3.797985642859313,-8.192286292950065,4.521690889751497,-3.0299405836966584,0.6422061981358418,-0.10248385503961144,-7.728157030559551,-5.109063410612722,-2.1908485954819694
-136.0,22.79141262874262,19.513693812903163,-3.277718815839422,-21.114204490235487,12.985639626952624,8.104152709906927,-9.663697167172156,-2.1111207483593724,-0.9924256739089841,-4.868469138276289,-4.494932142567661,1.1539868868950416
-135.0,9.462672916293075,17.17836497921937,7.715692062926317,-13.356373510923776,0.9100438550248509,12.42930773986954,-2.5773745990007715,2.317007097928878,7.337056738269737,9.074853736882712,9.750651730550963,5.086594767732686
-134.0,-6.047285415416157,1.531928068413552,7.57921348382969,2.2283443673731975,-6.770259492976748,4.533233655038384,7.646427272407452,2.3303686766112968,3.162434635288121,10.582165266516407,10.347354627968105,9.421074632656595
-133.0,-2.0451612928142415,-29.651931265751735,-27.60676997293753,15.82663083748489,12.750678095110608,-28.57825091008031,4.804436556480832,-4.4051740732623825,-9.525998090119039,-6.136358551977733,-14.864294613808116,-14.455489654184593
-132.0,-8.535604763645551,-19.82535684362763,-11.289752079982124,14.244278329451038,1.3511725957522076,-15.591072887306499,7.898015516060706,0.33692496781044157,-5.135768870178838,-8.97612677757772,-14.406964870750658,-9.551718568183865
-131.0,-6.373037884382821,-9.877172062965965,-3.5041341785831523,8.115298899338843,-1.3793614145934223,-6.730160366000511,-1.8004260336307705,-1.1291334732440432,-7.837530637196375,-9.736936797589928,-5.160054475194197,-1.461052427963617
-130.0,1.576328273535708,13.606670902214587,12.030342628678879,-7.599130711414763,-5.25064147611201,12.852331136889939,-6.216122577010437,1.0711903808782461,4.399665364155142,5.448844799254835,15.240061545543991,7.725384005520673
-129.0,2.146533992434131,19.648115187584736,17.50158119515055,-10.906434887817856,-7.702927930758857,18.604531199257746,-1.9252526878555436,0.04008650187167451,7.313341860045517,10.211347311597526,10.690982522829525,1.459111474798699
-128.0,2.2234140943614267,11.351863909295277,9.128449814933768,-6.801820132483006,-3.480305515066587,10.267421536386662,-5.2480740728994855,-3.457166702879072,6.886881888792318,1.7080739883122273,-0.5847588000836232,1.9995111328691992
-127.0,0.6921065445825647,-5.745825037396418,-6.437931581979011,2.5049076428293544,3.614662117851237,-6.143948841772529,2.436953921408652,3.2554969382543577,3.8242947883403517,1.591654684583435,-0.8296388024651089,3.406325250926878
-126.0,7.360820935616816,-1.004530939970778,-8.365351875587566,-3.1303276412888015,7.835252474170061,-4.735823098509352,5.133878516050535,3.5085573574006665,-3.7808320675829505,-1.905928121581323,-6.0041939335944985,4.122747133042918
-125.0,4.426693981142486,-1.4764379589471144,-5.903131940089528,-1.4358655726685947,5.220309725639431,-3.659022661276669,1.1486991551568737,0.4956440744147117,-3.951105730960796,-0.007714603005023246,-1.3046766952829243,1.407313477474287
-124.0,-3.4346870836669483,-4.230655243434827,-0.7959681597678188,3.786440859568965,-1.335798394931437,-2.4781400757682857,-3.8025631913959854,0.5882865240320181,-5.793679998533591,-6.137541985992058,2.3254707071484213,-6.100135173843866
-123.0,-6.60910834064066,-3.8436039840405813,2.7655043566001156,5.17616477331972,-4.6964584352603085,-0.49857040762530147,-1.1246625724162256,-2.141689190683735,3.2288572160648985,4.223397965783086,6.663871622588253,1.6680180553157546
-122.0,3.404996701543082,-0.15215600801877027,-3.5571527095618776,-1.598510441665403,3.4769101768113018,-1.8878854117937753,0.08040728263400865,-1.6424514824842558,1.6688323942327703,1.3156105157480267,-3.4294649652164324,-7.622599293161869
-121.0,-9.54567944165769,-7.851191633927845,1.6944878077297751,8.729016244292577,-5.623877010275104,-3.1082001792993776,2.3857415948470053,-2.6967629477465938,-1.1889909289400846,-10.284849371874724,-13.855897820069845,-4.818729287046067
-120.0,-6.312590134700811,-4.37677698494557,1.9358131497551625,5.380587592693854,-4.133340887091687,-1.2495963119816613,6.919869457405929,0.2921732468066769,-1.3948274521351862,-4.17848805090363,-6.809295948888818,-5.564183603052132
-119.0,15.620170027614098,11.177368866232584,-4.442801161381574,-13.43495490880795,10.01184115299324,3.4148681182840157,-5.208917152758044,0.14609539664641563,-2.8173206150099577,6.039005268084792,6.060164111504401,3.2583608957471606
-118.0,1.215657542893691,8.891944142552044,7.676286599658337,-5.083584027827254,-3.1847749533119663,8.248811347355675,-2.9098386338694455,0.11206026760770516,1.2242199554710198,9.905700987645432,17.86103138474967,10.208052418646938
-117.0,0.6921310148486692,6.7609791882125565,6.068848173363919,-3.751528194075873,-2.7351760386724897,6.453221478975296,-2.184709948174598,3.4501803952940273,2.7977283064676217,7.338009273045191,10.097231661369573,14.119112575833217
-116.0,-7.362883627274299,-8.493394681415367,-1.1305110541410088,7.984413587933375,-3.094872573523679,-4.778839729415461,0.09352511206155678,-1.2346066609733204,0.6599585254598206,-5.844189131618134,-8.21855421307743,-2.7751251413716362
-115.0,-3.9465899305950973,-6.768716144764738,-2.8221262141695767,5.3352336841549155,-0.5464274694154418,-4.845784551519623,1.9220905059186553,0.046350961356657165,0.6900354962240554,-8.364039053263543,-14.853589072836288,-10.025771967843632
-114.0,7.321038502927089,-2.1109335849371025,-9.43197208786413,-2.5508791816354686,8.392496630340618,-5.74711608275703,0.34579719644260765,5.368973655244661,5.604927101926444,0.023521315032687617,-2.9032850536938444,-4.467314386297374
-113.0,9.639319066720388,6.289700147638014,-3.349618919082345,-7.993013668245627,6.515303340082644,1.412454675857103,4.428831898472269,-1.1432967165031027,2.4974019673511,2.811157403779731,5.507547964719011,4.554359891115159
-112.0,-7.255776595629904,-0.6620173973349504,6.59375919829496,3.925436356760504,-6.975344134950594,2.9851188907332475,-4.50543038330504,-4.281677559543636,-5.358061904686221,2.1370152307645673,6.8429019692792155,5.069104258371267
-111.0,-7.165130441660248,-1.9963136778617132,5.168816763798522,4.542428510509657,-6.210113615458171,1.6052499633083204,3.509568759484666,-3.7233923736462198,-5.828770605200848,-4.055399238665426,0.3326194126399584,-10.907532246141507
-110.0,0.844230879244019,4.624492715419643,3.7802618361756215,-2.6972228229914617,-1.4267019066635727,4.222837403677993,1.6249087801041788,0.27143888571808006,-1.0406447329628952,0.8474052544302815,-1.2971833831810353,-2.8365718810648897
-109.0,-1.459901974383528,-6.864183433537008,-5.404281459153468,4.198447017731533,2.016606641164355,-6.111228328935841,-7.560934834711107,-0.6782309218239507,-7.0494751408526515,-6.402906767841481,-8.04638051590976,-3.8093118640362276
-108.0,-4.06589572082706,-11.927865791249346,-7.861970070422293,8.035233943739659,1.8642631076444869,-9.948253172283966,0.3916593421860761,4.240079434420027,0.2549052831902192,-2.6706537479782315,-5.105459102233199,3.742471002996137
-107.0,15.842869781437352,17.511337967134924,1.6684681856975176,-16.713949357743203,7.052173917151906,9.616295369945785,0.32682351761735773,0.3074656639482929,7.1897728112553665,5.653919497834452,4.834392057861914,11.097064484471664
-106.0,2.5383110681541874,10.564152720292533,8.025841652138284,-6.584732711472654,-2.7020005683057606,9.241420556987775,3.1781193600352196,3.3656490850738288,11.643844346838058,16.5247413950464,14.649781077825251,13.608569506835323
-105.0,-9.623728461527996,-3.1355522436725716,6.488176217855415,6.347598477025805,-8.094482283277175,1.6981935766776255,2.8507395672438074,-0.08533524020080008,4.4950635095293645,2.3020067036128653,2.7229077128413115,-4.997534367324359
-104.0,-0.5361847221316505,-3.5987704547472723,-3.0625857326155526,2.112933103926828,1.3030224277262348,-3.313267885592822,-0.038822366634416516,-1.3299813820949187,-2.7381267788291512,-7.803831724765957,-5.9659864807002725,-8.326392704871227
-103.0,-0.5374091411196451,-13.681475895591314,-13.144066754471627,7.15119926035708,6.343974642131682,-13.39981564757746,-1.801029372376047,-4.740218735583362,-12.509869946978348,-10.753792428990584,-8.700313568403907,-11.018486228226408
-102.0,1.283063304215596,-7.590219008744122,-8.873282312959741,3.111600685145488,5.041600711489163,-8.222214433905643,-10.162984014523087,-0.3759502497471927,-10.05276930678879,-9.47742115452606,-8.960318092807228,-4.973802260683144
-101.0,0.023876895532494335,7.620723264819588,7.5968463692870145,-3.8688838299736097,-3.8214867683562437,7.616578697350884,2.4833044519125345,1.9422105725964895,3.7951258292832923,3.084760270577995,-0.008238540807802508,-0.32154791010892003
-100.0,-5.646892755091445,1.003887474824912,6.650780229916295,2.351119735903321,-6.182532982214113,3.7567030042293115,6.863048004013215,0.3778632930314163,5.373812252836348,5.331473251740771,4.690476094352718,7.9426411383601
-99.0,-1.4526687193816124,7.787165692997464,9.23983441237903,-3.1369988372090063,-5.299881486446432,8.524353199579219,7.747277353067618,0.7190447435589289,7.70955881935731,9.877975020096788,11.919569975536689,9.785369844828232
-98.0,4.850955391275673,4.99429656178147,0.14334117050580675,-4.88851763767876,2.4020896514071812,2.585070607860364,-0.5169875911048458,2.1236276103257494,0.08490938998684161,5.436860009968039,5.24109199487889,3.672473426555573
-97.0,9.461045986144615,9.113175643744427,-0.34787034240013504,-9.325868250091741,4.876890725220856,4.406784423460017,-7.648063264499861,-2.176156037846605,-2.543854680033415,-3.8135906558535635,2.235485041353029,2.678115166622569
-96.0,3.791341545280596,4.227930660918051,0.43658911563749525,-4.042547368988347,1.653562213601215,2.3657306432448153,-9.021178122312012,-3.686497050668902,-3.8549220159465665,-7.293103037069162,-3.538684615349892,-6.510464644208476
-95.0,-3.392751800411486,-13.72269453689516,-10.329942736483666,8.607214583704817,3.44873970685534,-12.062703946937873,3.4412582107304406,1.5855603028231613,1.0029260584705004,-0.8424040554277115,-9.135044608937896,-9.696608725582369
-94.0,-5.591435392037827,-14.271019212808426,-8.679583820770622,9.901962851203232,1.606198433428422,-11.505527451140757,3.655981483285867,1.2372627959275917,0.3435129362800826,-1.8712319032537303,-10.493516304133472,-5.410245626081692
-93.0,-20.22017845301814,-21.26841539028547,-1.0482369372673608,20.711069461804154,-9.601033595293694,-11.108211907291839,5.004641856114294,-0.21744911373203013,0.5748374556500576,-3.0158807190186048,-7.906150362855662,-0.5489319199979006
-92.0,0.7726580449845484,6.661159081718841,5.8885010367342625,-3.6783963445569903,-2.573747484393152,6.242621564868741,1.6199280580255992,6.6445070891361935,2.541605621646643,6.489321393169391,11.180926948626105,9.823466030784001
-91.0,18.72886943892891,29.921557572808528,11.192688133879596,-24.294987977593948,3.7490649966157643,20.51721357948219,-3.3395905720870136,-0.6590072179929458,-0.8845919838479028,4.6733748102724935,13.46488458653899,9.119430578489432
-90.0,7.265254664626495,15.024106234261982,7.758851569635476,-11.200694595054486,-0.2709090169552386,11.420973184853453,-3.823385070765558,-3.778425839765625,-2.3514785093553905,-1.7083244866694072,9.186622748902348,3.5024521849184493
-89.0,-4.814167139479992,-11.787897106297288,-6.973729966817263,8.318897321002233,1.128470684813763,-9.359106956393578,0.19398410326241633,-5.091502660847497,-4.553617489492705,-6.416858514606411,-3.391039912382091,-8.693333059112017
-88.0,-0.6474016101769141,-9.756474230459114,-9.109072620282125,5.218707000607798,4.2737603336629775,-9.414394372332922,2.7654020869337073,0.17305043471372228,0.20479962546423758,0.13134771438314852,-8.67012730358598,-7.723914238059771
-87.0,5.1002704816187725,9.368678000907153,4.268407519288469,-7.214763999825997,0.37521785499797566,6.76096247706303,-3.614042884571525,1.471127672618258,4.991891834163309,5.11972885594,-8.167701110855427,0.5873573383130024
-86.0,-6.965831522330224,-14.153676683588733,-7.187845161258435,10.507059169952841,0.06651761756098584,-10.640813782556268,-0.8043009260396725,-0.3478991545810055,1.1202519860192455,-2.189222578773993,-9.955659096673859,-5.409410644534233
-85.0,-3.832573334389458,-3.7558804600234668,0.076692874366029,3.8287114735533114,-1.9230806680363657,-1.7968370727857104,4.669025287428181,-0.2845610762834463,0.9387514098483394,-2.5217137810566443,-2.1213079685971947,-0.5977928889111579
-84.0,-0.01853706828734003,0.23843774976603127,0.25697481805336864,-0.14538231238151633,-0.10797845553924645,0.2252603807615735,6.762798394454891,8.58909518552745,-0.42496201390987953,4.649599982091159,14.874085257240894,8.028330251326272
-83.0,-3.646772444603046,-12.894696771406347,-9.247924326803336,8.32155905307608,2.7506068525828082,-11.083160307624127,-4.490778095828718,-3.1035088645963,-6.376611321376853,-5.8795451239744825,6.209973556277301,2.6053054811179086
-82.0,0.08682414060679894,4.575926301424529,4.489102160817691,-2.354640155735453,-2.1727658771299834,4.5254212824288,-7.950755155448845,-2.777821416135395,-1.1938522683861499,1.5790548245509548,3.96778545924317,4.757609825531031
-81.0,6.491802108803618,28.52508767395523,22.03328556515158,-17.530950266323813,-7.742394871323749,25.269963638000306,-1.9862177282877926,4.189783648917928,11.306442268600112,15.323182597249588,14.058987853976548,13.019124038039967
-80.0,-5.326738728757113,22.196010887015113,27.5227496157722,-8.381873718424416,-16.474921454120196,24.842377695452935,4.562598780733833,-6.486751963526356,3.3400097358353946,-3.085670778509413,-7.568106257403613,-5.6570946198781105
-79.0,8.151465885488573,-8.937708761334704,-17.089174646823295,0.35997137717860195,12.649459920914033,-13.040752460994122,4.982280352234122,-0.36548498860505685,-0.8618556565360467,-8.45574861598661,-18.184256875516297,-10.990427432406443
-78.0,5.482603487862171,-23.441823179464066,-28.924426667326216,8.937098889478136,17.155196826411693,-26.140693394589736,3.0046574771772496,1.625580632028335,-9.64180094999579,-13.11018991510218,-15.571982012019342,-13.682507783078755
-77.0,-2.1330330270176545,-21.173694784149987,-19.040661757132284,11.68018411222549,8.486835689498498,-20.069440930102537,-1.0439826535426338,-1.5195136396674034,-7.709145233927931,-5.769021228874707,0.9262372067043607,-5.081006912272478
-76.0,-7.414913617755717,-0.3127850939654344,7.102128523790334,3.883425801357296,-7.22114868691339,3.433028971004484,-7.4902798470727365,1.649962409405142,1.8006830114562775,13.092948385921071,15.69195898759834,8.335885140623029
-75.0,-3.451627060919994,9.641934054938194,13.093561115858206,-3.079020956882707,-8.307832031934492,11.332021462578352,-3.984194324895678,5.182501138212602,4.794942656206353,17.247728261913412,16.376853404020274,11.155335131837802
-74.0,2.1923096054359954,6.684320470749955,4.492010865313958,-4.4213050497992405,-1.1777338335759175,5.558449302252745,3.2043578286164878,-0.9599087211374404,0.7876869437881879,-1.6885631612550007,-3.3924013797391996,4.180979747333083
-73.0,-3.6013784816295216,3.634052756320008,7.23543123794948,-0.0734833927559233,-5.3600677745870575,5.409684134300177,4.720647589379743,-4.464549922955152,1.518465415398008,-10.675151854504236,-14.587789624157296,-5.39201948308047
-72.0,4.540068228297985,1.9746699681027273,-2.5653982601953365,-3.228772955826785,3.53854419318789,-0.3185495737045736,1.055749672956615,-0.2589164518383713,2.3564570346086953,-6.58225780500357,-6.473632473728266,-3.863505855593329
-71.0,1.1641738298886164,3.048462890560062,1.8842890606714398,-2.148561086110305,-0.3705085833089974,2.5212825169343613,-1.2364998141165466,0.6925544860001902,2.3647555030950445,4.428058463469165,11.020642373980348,6.633360082949992
-70.0,-3.74454131045513,-3.554874674113354,0.18966663634180714,3.6937740742341676,-1.9769940652450797,-1.7081689628896373,-3.363632863800213,-1.6898181745452456,-0.6266144628236273,0.7460346995025356,7.333684726360616,-1.4148660385573786
-69.0,11.298126877933614,14.757235819785054,3.45910894185148,-13.056137498593065,3.907157708913141,9.160267110034662,2.648366776867164,3.0276134660891136,3.0565598244900043,3.505011628764417,2.683266332281855,2.9217903218844614
-68.0,-3.4549096067168694,-10.124354916832754,-6.669445310115872,6.8440574114019554,1.5904066549901974,-8.423007448075342,-1.6672404083479697,-3.0370640023183495,-7.910422806484652,-3.414767760951073,-8.98028409248085,-3.8062952114718898
-67.0,-0.8414297238360828,-11.610478498149151,-10.769048774313063,6.2030848378969825,5.020515122869425,-11.213807536783044,-0.7400053201267205,3.455916210930833,-1.8560343710174445,0.6343494504702197,-7.820400199184659,-6.086346566462921
-66.0,-7.01787863275821,-6.970837991261465,0.04704064149673837,6.970015442173247,-3.5592012328341402,-3.404737057929963,3.7181098287031658,3.2409672154178906,1.6090648461087351,5.185998211421643,1.6171421336538687,-1.0933993930665813
-65.0,3.172158714993455,2.960438536924519,-0.2117201780689432,-3.094755599074193,1.7402035831355547,1.3540649479293956,3.0184320073005186,-0.9497329363917468,1.0475235866501253,-2.513707877570976,0.7694115589502053,2.096893680067769
-64.0,-0.6079993559327789,4.265762967689895,4.873762323622648,-1.784433264503491,-2.774438627824323,4.548392655707475,-1.9997413758728582,-2.7195057391871718,-3.3640610132925697,-6.179447739128253,-1.911679992096208,-3.188979326112194
-63.0,-6.5262250384014635,0.9235121865317524,7.449737224933183,2.8395904511534247,-7.0245876433268934,4.161612973230442,-1.8986234973186635,-2.589935464339826,-2.2984766093527425,-7.4954292633743,0.3128995643877146,2.554574631538095
-62.0,6.072446977191484,10.860033122405484,4.787586145213972,-8.511850077663796,0.6810794915688829,7.793611589480225,-4.6089061127587385,-4.434015023729296,0.380809586716748,3.0145593788074776,8.765720121577882,7.33748297644444
-61.0,-3.7712156060177633,-6.89811245062802,-3.1268968446102963,5.28638873272806,-0.3661193325170362,-4.9689151802529565,0.911732219119362,2.6627783937950933,4.6154857096893025,7.949043218261703,2.5483454894161306,0.9814071909677149
-60.0,10.176231564787205,9.834285509084552,-0.34194605570271697,-9.97419320652012,5.290282744767878,4.786562891261145,1.3670886758225749,8.439100852367396,10.420930833483062,13.693491740471186,9.246411540752149,6.906559710460812
-59.0,8.635878688585883,1.285534963826587,-7.350343724759364,-4.925795025686186,8.021827958514425,-2.993031125200954,-4.776674584371474,-0.8279317679573897,-2.052405002882104,-0.9494529748993941,-7.543419397747083,-3.4811842348833157
-58.0,-0.6340231942820114,-1.9526930918679604,-1.318669897585993,1.3342873625490472,0.29160843481630616,-1.674847563323337,1.95042841592479,-2.045918272885684,0.07718081321347459,-4.0185009357154495,-6.7041510225693255,-7.208429125204757
-57.0,-20.066797373432287,-29.735118896027952,-9.668321522595663,24.869310874564594,-5.169867289625371,-19.74110541076628,11.563458828631383,-5.204185682590561,-9.045300838196813,-14.001635164634198,-12.141153316337698,-15.265637470656143
-56.0,-9.695662421465688,-1.5351229881045274,8.16053943336119,5.587852528800456,-8.89564712300636,3.271373520313219,4.177190325690463,7.037620267214438,-1.7456613335106113,-0.21369061822589863,6.77709255686748,4.579617482729154
-55.0,12.998761237985242,24.51696056558663,11.518199327601426,-18.78480137157586,0.698239657047945,18.05115425230059,-8.710461430855002,-3.401149014621881,0.6913690072049228,2.455993635944371,8.636386464508504,15.24688770981537
-54.0,4.982477636610629,5.210036783869896,0.2275591472592975,-5.126115489790917,2.3402521820954,2.7476424852432126,-7.522511584940132,-3.6502802248497854,-4.256138516854488,-4.010217426188197,-5.62098511369943,-1.1348158825467038
-53.0,1.6606937112543152,-0.8699644501388377,-2.530658161393145,-0.35163184924875956,2.142224995286316,-1.675538615176266,-2.1907672820420805,0.4879464765759327,2.0860477473857544,1.3509247292807185,-6.884351002577381,-3.628781043802147
-52.0,1.4351491652362345,-2.244138384966332,-3.679287550202578,0.4425208627586832,2.5299294023890315,-3.017792233918505,3.415777155967857,3.8447044703287054,5.603443900148689,4.774723629106411,2.9204611230455066,0.4993413066493478
-51.0,-3.3202837376054246,-2.9978409901168046,0.3224427474885969,3.1919237683165944,-1.7654524297677412,-1.3146037220273596,5.968699408547448,1.9223845534868906,5.0187996547362985,5.1014846050565446,3.8752353416804257,-2.641948488782323
-50.0,-4.587394865240016,-8.370309770870886,-3.78291490563089,6.428331446816683,-0.42176207017602246,-6.050908174578135,-0.2770417237138121,-5.147498856519334,-8.605236376259887,-3.5441711221615373,4.872149716638613,-6.448646945711518
-49.0,1.977201501397524,10.670925420359081,8.693723918961552,-6.300708031270858,-3.376504254601845,9.63298315407902,-2.371713619460704,-1.071984482349187,2.0804336700739743,4.038586247501417,9.7937540716123,7.705628940553843
-48.0,10.23380495034823,3.8130976861723918,-6.420707264175808,-7.084607878398722,8.307453710378006,-1.271077568869126,-4.0651554632230456,0.9931996104925593,-0.9868698202736097,-1.7463631983808097,-1.8571175094589316,4.674428128131188
-47.0,-4.308518007894096,-9.456539286953955,-5.148021279059824,6.893793765774406,0.4740195761019226,-7.2680109541124,3.430620113209634,5.958364735886204,5.433927522632612,2.150552768571807,-7.575488115139474,3.3678975766961186
-46.0,-6.021845400313867,-12.603383951319305,-6.581538551005401,9.318535459318246,0.24806866674941114,-9.637952606719917,6.946536132386593,2.799996647065603,1.4177428407621855,-0.3723417644104554,-8.493453589559447,-5.562459400443151
-45.0,-3.4006184136433473,2.753029971461448,6.153648385104849,0.32764959289692497,-4.817523638687749,4.404529680234942,0.08083900392108823,0.43592996493066577,-0.31613643431691274,-3.52751937093841,-4.229841065256897,2.035023242375989
-44.0,1.7542028023264176,14.605414617171533,12.851211814845225,-8.172684405854461,-5.518254876641649,13.753941628081652,-6.43651931741356,-6.23131604368101,-3.4183424182045714,-4.324298900505302,0.8535177400822249,-5.265957695370187
-43.0,-0.5021774744196688,-1.9992381402949517,-1.4970606658751526,1.2672382870423418,0.5219003596345968,-1.7259248693557607,-3.6368147167998557,-8.343800097826602,-8.882747188112623,-8.98022685855049,-2.444615044010293,-14.298974477938845
-42.0,8.5982401490676,-0.8219933048239885,-9.420233453891505,-3.857075450118616,9.031453929581746,-5.099750828499846,-2.7670655019410306,-0.08388324509747047,-0.6827211360643703,0.6100865856827804,6.3233513592932695,0.4055788776292726
-41.0,-7.4656050639016955,9.607784845862275,17.073389909763996,-1.1018820130834135,-12.324456472476108,13.364224485457681,7.892176508201697,6.2165558165237105,7.792358567110171,13.737577682786425,18.943246139020307,18.963888814334414
-40.0,4.838654949495643,4.311538476138855,-0.5271164733568385,-4.590178404638073,2.711355556316364,1.8418356130363502,-0.8504085578904803,4.9732948044713154,4.32313974803011,11.84842873491915,6.888395690259134,12.775469912583215
-39.0,1.718122942324875,-1.4171801798141157,-3.1353031221391108,-0.15433830003177718,2.382789818231642,-2.2421872505591893,-2.707983814897952,-0.9717844456881446,0.1875209311485868,1.2755845455326114,-3.207006296705457,5.088041245286018
-38.0,-6.294837243257835,-19.88272988969872,-13.587892646441073,13.089673324501662,3.6875886900500605,-16.77496548642854,1.081549857067476,2.0012492647438433,-6.076193843231922,-10.65914991324533,-22.449109666304995,-18.103423368947023
-37.0,1.9244601885277208,-9.31462788783627,-11.239088076364165,3.6941758164135763,6.627124920473168,-10.313056492823383,6.063525827023173,-2.2531960352301375,3.200760791522723,-10.848817894363016,-15.96939700709796,-15.987030125909573
-36.0,-1.6575978979085586,0.3665048452969808,2.0241027432054275,0.6379531904080342,-1.8733020071922792,1.2396574251391175,1.3934442973632746,-3.399014853640129,-1.8627531282766912,-7.426064454583375,-2.0374818935774996,-6.455042887153788
-35.0,7.166295583971824,10.179391667626469,3.0130960836546397,-8.689227357104528,2.0413388791550555,6.641302273207895,-6.160560413853203,-5.842710265642535,-6.619100739474168,-3.7727298279465633,9.597398189928818,3.2277913895709998
-34.0,2.9356472182543967,8.817155376276459,5.881508158022145,-5.821995076554372,-1.5137510940630006,7.315931484693918,-6.905799868108033,1.6599429712414704,2.662100176122659,10.632027114384288,12.763814826118814,11.48989085361282
-33.0,0.15608910172936352,5.819016657778722,5.662927556049519,-3.016891001565897,-2.7214600484902687,5.707875475922951,0.5428225879229998,6.243927489552002,2.94350001498601,17.051554874825303,14.75789241861796,16.663578551395588
-32.0,-15.213677901578368,1.5998498323630175,16.813527733941562,6.855035575815156,-15.985145745376744,9.252708223122273,7.733194556591228,6.597219175481465,13.90930908622001,11.358753511074699,9.335985963956475,5.618525980539647
-31.0,-13.424667637063582,-8.954477734968671,4.470189902095,11.16068245857409,-8.917798445387302,-2.274696390746376,5.0278912183566415,-2.18338503144645,0.24387242195258896,-5.3041599733981215,-11.325607964433921,-9.524475451832544
-30.0,5.813342695000419,-2.804387638214213,-8.617730333214658,-1.5301656538848558,7.17279006591057,-5.665269486231425,2.7049642672606984,-1.5554583942014353,-7.617163133578957,-15.286893724375702,-12.959090370544832,-5.766351902896024
-29.0,21.92369214515767,-4.668067235369326,-26.591759380527186,-8.65052671479841,24.303834853887572,-15.664222926522283,-10.25258737189032,-4.438830722711372,-16.902358608422617,-16.725746309511422,-16.079106432247602,-16.90441538151144
-28.0,2.945434336729763,-2.7269125000751946,-5.672346836805213,-0.051684246164451775,4.287133869630345,-4.236350041669315,-5.58593063951993,-5.206037729137946,-0.8331176821969803,1.9051428056896977,1.7075446185017817,3.8339035095797858
-27.0,8.618971091400148,23.947241894837234,15.328270803436888,-16.304636093140257,-3.368108561724659,19.67651962748422,-1.8770098912868503,3.6182331475594287,11.233374768594304,16.68604875211346,19.54396331270302,16.7954969741706
-26.0,1.6982387119100046,3.7372157668165045,2.03897705490642,-2.741296275707777,-0.1806865985074495,2.9231926097437135,-0.2340030975663046,0.1744930564678917,6.409656030869072,4.842111302949644,2.540923590616039,1.2702167335416394
-25.0,-25.225348102041853,-22.376814673725317,2.8485334283165233,23.853225347870936,-14.050180563025416,-9.81133400792825,9.487568203427655,2.1137678723591415,-3.53960007887083,-8.496550630737094,-10.1785435297741,-12.399999618425365
-24.0,-9.584711790820204,-11.365520071179043,-1.780808280358685,10.445404623507269,-3.923224886655597,-6.544542009812996,9.84151710807501,2.7492402567404137,-2.2170844913166903,-5.338083380147704,-4.138655405757029,-7.030196440016514
-23.0,-8.111548988278603,-7.178151179465505,0.9333978088132846,7.612923736661914,-4.475863259534335,-3.174435753311215,3.3973541474466407,-3.808737825077425,-0.336184721273609,-2.441370617131018,-2.162376388771286,3.130538513300385
-22.0,2.268868011087674,2.8214386257939212,0.5525706147064582,-2.4988867583800167,0.8936723099322201,1.7130540594319008,-9.499822941477946,-4.086167402904696,-3.7276708382009787,3.8022370011495603,7.272230695520053,5.419945582969722
-21.0,20.049337373123734,27.47061776078455,7.421280387660957,-23.791020747126588,6.261485702474669,17.47271363435114,-6.932068260157138,2.8320119501427885,10.714751811049808,16.025106716029992,15.600742263317022,13.46964273951078
-20.0,17.273589656214224,12.347610216646927,-4.925979439567271,-14.759734131316153,11.119295468244658,3.7394063807557387,-7.2536191859647925,9.05934646363132,2.0044656737299444,5.5860978588232095,-1.3261248709169902,3.740426092511613
-19.0,7.056265247170199,-5.459741301577546,-12.516006548747832,-0.8221740311156873,9.801337198289518,-9.03555668809275,1.0438526035957403,3.9869715762700624,-4.840352407374679,-10.351823044772734,-9.492386117947039,-6.983045217641922
-18.0,-6.0025218461238445,-6.774338513808832,-0.7718166676851954,6.368015315375289,-2.60289624247968,-3.818008636635575,4.450049514193798,-1.853537584801389,-5.487564921459556,-6.617844961794103,-6.384860756352181,-6.325823733451138
-17.0,-15.934081403255007,1.8775574975493452,17.811638900804127,7.009603144318707,-16.94106789077518,9.881438336601594,0.9765703977045361,-11.406079191683016,2.400447270765686,-2.381600805829631,4.688386579007136,2.324919535204594
-16.0,-16.10424780535193,-16.157222067713,-0.05297426236119929,16.1899644814932,-8.016274973559458,-8.064606485394018,4.787239465382754,-9.881759720960169,-6.013216233511455,-8.903315857297605,-8.685401767323203,-11.619520516720048
-15.0,-6.355961333430331,-18.833808793649414,-12.477847460219062,12.571603679102633,3.070520797258628,-15.689369663254643,8.233214064243448,2.015620154428416,-2.709614265607681,-3.275132743725969,-6.6811497720502935,-12.155431961177428
-14.0,15.132011241286634,22.32393954667534,7.191928305388838,-18.757543655872713,3.9822532376971087,14.730322824446507,-3.9109564087490343,7.667727580222897,7.99879310304347,10.857744877277158,10.088776475480003,12.132339325647532
-13.0,8.41772742712423,0.6020205832690895,-7.8157068438550095,-4.468511444364195,8.134664222673718,-3.5489207571223753,-2.6118876356186025,5.235723794756241,2.791606124272392,6.759358199631994,5.666688352706023,9.641241617995549
-12.0,-9.142940365190622,-12.613501583415669,-3.470561218224989,10.832950312045716,-2.8096247966665917,-8.056106003429392,2.9654179022336047,2.382815385558314,5.304792959177186,5.7811999016184465,-1.137598970441715,3.7586059132052485
-11.0,-4.412105483442839,6.945461488875898,11.357566972318724,-1.239494452208029,-7.926735881304313,9.142959499882725,-4.313328948171403,1.826080254993482,1.6732497637731363,3.857567322368233,5.7928301157431905,5.634110943180458
-10.0,19.927790348022832,22.197441370178872,2.269651022155924,-21.038703688793735,8.797315371555502,12.22814306116946,-7.760630911022389,1.6018322597639665,-2.1442422949839846,-2.2813481071032866,7.12990857742878,2.7421331003866514
-9.0,13.611923086251778,6.325049477683209,-7.286873608568725,-10.022739607689166,10.504630865996592,-0.48616998395484945,-7.45409197034647,-8.084370267154124,-10.955066964256838,-13.334031666048253,-5.893386441653618,-9.487999470211212
-8.0,-10.043620193715277,-2.1528850181073644,7.890735175607791,6.127147132007305,-8.985554629812128,2.860924859420552,-0.432028314692917,-6.960932168422,-2.585638610822871,-3.6511677346205182,-1.3075878824376823,-2.2432840364586353
-7.0,-19.963213994201947,-17.111635310657697,2.851578683544222,18.57353959703858,-11.424058596891854,-7.142836376909208,9.669405432957696,0.2333226329172895,-1.5053903920265224,1.7835955056513573,-10.0584827905537,-6.786510524437478
-6.0,-8.085197882403033,-18.694836643460153,-10.60963876105711,13.3556463336502,1.2443731810287035,-14.591985048216221,7.870310702993806,3.1731643375692835,-3.2458027241143745,-2.4763298251779533,-12.338305957183696,-9.521044764994953
-5.0,5.975516607950837,4.762198945312182,-1.2133176626385174,-5.396091494114138,3.6523722281760618,1.750480525569933,7.456907553147239,3.3139907292645803,11.02293013392161,6.586028179655791,6.38633304252542,10.988153593837385
-4.0,16.4216330953987,7.423082726171624,-8.998550369226916,-11.866849423284696,12.685932372149656,-0.8162020946487472,1.7209707286909022,2.3497740311762922,13.220493292416997,6.17914788996723,5.980257799492953,5.3525099681606285
-3.0,-6.125387365715538,-14.260431415258337,-8.135044049542795,10.169181740717235,0.978035617932381,-11.150720139165895,-0.5515863062716289,2.9862032123754645,-3.3316780231244616,-5.345720598211343,-3.445403905163973,-12.307038202585645
-2.0,-7.755591089581367,8.10586165109145,15.861452740672785,-0.20409422367667318,-11.75779061420674,11.94987375895392,-11.217653460996068,-7.337148418408688,-12.991130244179155,-11.095858107660936,-1.178832946412013,-2.568728216228398
-1.0,-2.5634603998329255,16.54935216213133,19.112812561964205,-6.952190235454115,-10.865867953079244,17.796252382671543,-12.165831972481463,-0.13500689307335634,-2.2174068489504757,5.033214084332508,11.504278426703776,14.724059018986894
0.0,21.497044648278855,20.71572100125076,-0.7813236470281693,-21.155238702015488,11.11283452143551,10.010742342787452,-1.5648784949469956,11.947696403377785,5.0543745971201055,13.990567409431897,10.7697707435776,15.569218585321455
1.0,5.332981510133628,-0.5391037155859033,-5.872085225719713,-2.3772219269718553,5.656610811923437,-3.1622487246577693,3.4775848834753593,-1.6048609418591049,6.812896642929907,10.043552765750892,5.150143592950549,7.051575109124975
2.0,-19.038268566871672,-13.732112869766102,5.306155697105244,16.397718765878487,-12.195891347084252,-4.249025950368366,9.080365197994722,-9.518588813800422,1.7269485217954867,-0.9244478013069737,0.01809184702057598,-6.00863210605324
3.0,-6.495490392812287,-7.887252692897469,-1.3917623000855341,7.201056878645766,-2.5761530780476316,-4.67718217398945,2.8897847714472515,-4.97929607981963,-0.2811568949354716,-5.887047355833536,-4.5630959638917785,-12.235223318733137
4.0,-4.5899572781325855,-13.372774516245041,-8.782817238112457,8.992528850543698,2.148074255545315,-11.039451022508807,1.834563086163418,1.4981200147262175,-5.131532465629411,-10.44903857985677,-11.913100728735994,-7.621666331122477
5.0,4.597367076005888,-12.074858963528785,-16.672226039534323,3.7543863174351486,10.602596125685297,-14.417279508234088,1.9363938488726347,-1.2997167448155356,-14.880963724533258,-20.417766921451545,-24.12545964988024,-21.013150799676648
6.0,3.2575688854573337,-14.57413026273479,-17.83169914819156,5.600647804938074,10.505612252386362,-16.170832942543328,-5.0063955113431895,-3.2555290394254586,-12.076965589335746,-15.42733361327686,-21.19158178123915,-15.776326399667722
7.0,12.602254517744216,6.672853470873281,-5.929401046870583,-9.611777262622063,9.298062380815043,0.4023901685736645,0.12342092988685094,5.617371287545784,10.634464688774148,11.49450236079915,5.188016444480489,6.1695050808376815
8.0,0.7264611029551489,29.173866661408177,28.447405558452907,-15.000239266494145,-13.835181758235978,28.763436361831026,-6.9653556077943675,3.9336919504565713,17.306994352386404,22.409158208511233,29.695178853887313,31.12036031645605
9.0,-9.269544501920784,33.608956953388955,42.87850145530914,-12.139786967393832,-26.05414161878739,38.27867558819973,4.919147941684107,5.676199625373845,16.436395246931742,21.687493199327577,37.46629110799711,34.35431803565511
10.0,-3.491203709816638,-0.6574454864759627,2.833758223339977,2.104644835335979,-3.2247126217165754,1.0498549041993357,3.4358366061119443,7.577697463593299,2.716273119173625,8.810647046591914,9.995908960219118,4.716037159200987
11.0,-0.43962384677841104,-30.227069394508238,-29.787445547730044,15.364143295883057,14.689180168319087,-29.960064485620396,1.645777444860161,-2.898880302234968,-12.61668338105986,-12.404447448756393,-21.15550685603857,-29.023231079836442
12.0,8.30737936208367,-7.944058573314635,-16.25143793539806,-0.22846924205580166,12.29535015920711,-12.122411699014652,-8.612059377467757,-10.041148711686112,-18.9876388171919,-17.86482263583746,-19.034252652745604,-20.253279836055462
13.0,7.095676953719545,4.522106837446948,-2.5735701162721405,-5.8537199375120625,4.8528642347693705,0.9555632626676847,-5.4879082718703325,3.4589320981422205,-5.705333191868462,-4.010437003278547,-4.703758517742035,3.7385339512951603
14.0,2.9328161741481678,10.233834300259534,7.30101812611176,-6.54674615480716,-2.241003497290813,8.752839449498701,3.572021206004835,-5.098647929045271,5.4193908159670015,-0.7911936303160854,-0.6077418261159497,10.425577190004162
15.0,-9.456386478068916,-9.239193483323369,0.21719299474570514,9.387263389191494,-4.810357996785821,-4.445235608248785,5.393659620129048,-3.668370056650971,7.11152552012993,1.7103708908211566,-1.647665446071235,-2.035110448741486
16.0,-18.37743677865,-0.8715944342049124,17.505842344445043,9.587627972352205,-17.9100234909686,8.302752885884537,4.272454073488641,-0.8487143232041755,15.091416144122071,11.242326306587305,10.678613831972593,5.5423201600666
17.0,-2.722478629882014,-0.7889879424349973,1.9334906874468327,1.798522639299736,-2.3698214581488237,0.5532996661045875,-3.2726862735493008,-0.7094012466128055,-0.28308021399011274,-0.7340618927413942,4.623706253857509,0.059296823552944744
18.0,3.6431957323681123,-16.463044140905332,-20.10623987327363,6.372586473997245,11.916428007555714,-18.311121104689235,-0.02068634854791851,-2.4043406554172746,-15.062236013726677,-16.65402574606474,-14.222254268091095,-16.99535676671688
19.0,8.31457726533456,-4.279835246943755,-12.594412512278344,-2.0586735934813216,10.421090166962706,-8.394429632221287,5.207573411754446,5.307497313441512,-8.140614998351653,-8.117123342355754,-10.825601265216527,-10.132353978545309
20.0,6.884902914726645,5.920076162865603,-0.964826751860993,-6.371045882498489,3.8933398083484434,2.4314714728909017,-1.4255071975333102,1.0899060675924623,-4.514987424778576,-1.2360024860772332,-2.4692920554592375,2.520532563378957
21.0,4.649168939982503,17.862016631779532,13.212847691797018,-11.230905501633039,-4.234951818303129,15.561260110452007,-2.326628844408691,5.958489848844346,8.55685304173777,15.11805012713329,12.645555386099572,14.659849520570535
22.0,12.953910127312419,17.341618739301648,4.3877086119890905,-15.128963791456114,4.327107997248903,10.882726836677959,-7.879259184320411,7.748939408050212,12.644696869446602,17.099762000173396,13.502260794238618,13.81799029857808
23.0,-7.07583876588048,6.4245012995346436,13.500340065414862,0.26220270818190095,-10.328376680635234,9.978753374982471,6.807067153573349,4.2478451057004865,11.493602132049235,16.226329646720856,18.899842139991016,8.81614312716674
24.0,-22.279477213554237,-3.82909894751511,18.450378266038868,13.069467955236998,-20.413118356432335,7.250653784637696,5.799536456564572,-5.897262467494166,-2.638108149321532,-5.750808810145341,1.8138516880628766,-0.046933585648190945
25.0,-5.0515073286567205,-24.84381062073864,-19.792303292082043,14.966513211535382,7.391662867651046,-22.293461635678703,-6.408216643467429,-14.06090726006586,-15.217406593263117,-24.13503837394264,-24.054852587957672,-17.268387976033324
26.0,10.397522349834572,-13.316172570759278,-23.713694920593866,1.4851806294506371,17.067781377492004,-18.482553343027618,-13.602071831221256,-11.099246830584432,-13.106396512711674,-15.676998696816687,-16.478643095047232,-10.646492586786625
27.0,2.7290125951374176,-1.247732139714305,-3.9767447348516676,-0.7844584798059158,3.357951267728966,-2.6506829607061544,-1.4690778345127486,-0.3645882977444419,0.4014458372514209,0.611142562826922,-1.877511648705422,1.486168035317954
28.0,12.272129713454238,6.494188692446846,-5.777941021007317,-9.338841851927178,9.026350208580899,0.40473056626820814,9.851936719995805,14.887962026382297,7.639649384941544,10.444400300153168,8.321156161938928,2.5368127896278705
29.0,-5.554429947579805,14.870992033277865,20.425421980857813,-4.684767912209451,-12.988632202630203,17.619531985108875,18.020058393567883,14.646462907743572,15.54260212391618,15.493186858812543,9.820392864022567,7.54885969322133
30.0,-10.201338362458586,9.569026126113283,19.770364488572014,0.2950203855072262,-14.981570847208962,14.641450847601162,-1.4558227793993446,-5.507995497855212,4.736349919087719,4.921936652991784,7.934255952197195,5.243156538626208
31.0,-1.2085433637972365,-6.266238732526036,-5.057695368728787,3.718817814271607,1.9332444841698067,-5.691876302486479,-7.624286351842463,-10.604333901121162,-13.7280903262116,-18.506201537844092,-11.114130154745949,-12.068358926039739
32.0,3.5017799133875824,-12.264642990707852,-15.76642290409551,4.442121888198978,9.646655225800073,-13.96872642759169,-5.248725776556396,-4.3770067552908305,-14.275701676396709,-15.610859884824826,-13.768914955779818,-10.627111998547777
33.0,7.366703807076593,2.529828585998046,-4.836875221078726,-4.966590395515737,6.037499728874805,-1.1074069621532159,-0.6120444798927229,3.133698698226354,4.341647336389725,5.222175883326296,2.2504162072937755,6.7934860436358235
34.0,-5.151376488473547,-2.312310310862673,2.8390661776107287,3.7137109662452024,-3.98130798344906,0.2322644771397342,1.9143649293323342,2.6133103392917008,8.468908092969842,15.502882298517791,12.201036361809395,10.117513367008545
35.0,-3.225095885182513,2.4353619140221983,5.660457799204687,0.3780831237584017,-4.431193407957096,4.020129350377431,-3.2732878990470846,1.7700555757902383,7.0752899921160575,13.652039261264726,13.848971437064105,9.055004655739472
36.0,-3.992122248078748,7.048161653297075,11.040283901375881,-1.4636799372427292,-7.50729010255437,9.098865108204242,-0.5026485542194994,3.239305223933198,0.4495941965466681,5.788368199043024,4.7778450932116705,6.220891060346256
37.0,9.41343354505183,2.8126963913304053,-6.600737153721387,-6.125061814914884,8.014522929289207,-1.916011944422491,4.306251880933898,6.0733282622539395,-1.998448311711479,-7.402685191007822,-6.568187970583908,-10.047736243474256
38.0,8.63617253048401,-2.152275956867354,-10.788448487351275,-3.2529960874697808,9.720471649387079,-6.493294546328067,0.6471547349076858,-4.7454952947839475,-5.6819542773380505,-17.90355884003566,-16.637848407817525,-14.645445738464176
39.0,4.9698557306417825,5.79920899949129,0.8293532688495695,-5.397463996987579,2.0815129467348736,3.2869195527040533,-6.182737685905469,-5.369436817794405,-3.3666612948152657,-6.290465686145174,-9.398763707941884,-3.8967565054787974
40.0,-16.184267469406528,-11.569776409898374,4.614491059508314,13.858846255082193,-10.461952313458527,-3.4332990875209326,-1.8172946749632861,-9.308483214672425,-3.042814933110506,-2.9130566282258865,-0.8027597415525678,3.866732889487259
41.0,-8.635034864933882,-15.417918698648647,-6.782883833714628,12.00037770754977,-0.9041671052092113,-11.142629507466236,6.038206355767885,2.5166080865568965,3.269251462668948,7.678588983106579,6.069732767111871,8.998188349857418
42.0,2.735974431348379,0.2507798689388796,-2.485194562409418,-1.449652873805765,2.6379159715649734,-1.0872648365064002,8.65829136096116,4.696885316719485,1.564990390821131,2.6310793856033,4.166400895472039,-1.6505539003605882
43.0,-0.8266307943304607,11.077774982264588,11.904405776595045,-5.089802547692756,-6.334083705004667,11.517024121164583,0.46806707483128873,0.6129293270440535,3.8053096032289306,4.003359761950539,6.197056451805754,-0.7279880535089274
44.0,-5.925505288022418,6.455258642991448,12.380763931013831,-0.31335747279143966,-9.198317235165781,9.442600328599607,-5.737946119555252,1.111024892311232,2.804136993766855,5.731065691575601,10.795535206826731,2.914829118779217
45.0,11.098625501733213,7.5871566402893365,-3.511468861443918,-9.315151271655287,7.260022136565439,1.983930253760957,-3.89814715519582,4.795073484722664,3.618465698388264,6.310130047698302,3.6337232889480986,2.441015956539321
46.0,15.036351783052135,1.6446209981572424,-13.391730784894907,-8.312727153424047,14.246731192891477,-5.8484618998149545,-6.980041635515883,1.4634225573638453,-5.707864568212296,-7.3706347223528015,-8.47802783922639,-0.13770998781338673
47.0,5.612342127263576,-0.7217167604931121,-6.334058887756679,-2.4946716816458894,6.00500994460394,-3.582485338938921,1.5945110321285978,-3.624965183441351,-5.962980229073606,-8.217875831797148,-12.659596460146847,-6.409884011205015
48.0,-3.301658873339795,-11.80909215146017,-8.507433278120335,7.508341483080822,2.5565608808340294,-10.13643602845873,6.5945263761185995,-0.4294776534835596,-3.4778419050158216,-4.424007388222574,-9.863787036828747,-4.8483786713215675
49.0,-13.877417855341102,-10.284580030178994,3.59283782516217,12.115133931246946,-8.699896272177552,-3.326830843078876,5.026299230189122,-2.4998018992071835,-0.47083592260695406,-0.19098653765230544,-2.7004170320971825,-1.5468618315360927
50.0,-12.012348168008756,1.9387820853803994,13.95113025338923,5.073050220911893,-12.94180728441982,7.962355952722346,4.160873349760585,3.568909508747156,5.013898821069515,5.7539283771433105,8.526536215022922,4.246701340642687
51.0,-8.435451148477611,12.249822898384867,20.685274046862542,-1.8695657860596224,-14.593777337649108,16.407290175490907,-11.097254028185038,-6.052710829906303,8.529900139576341,8.756152495402558,16.611957853184556,13.060997615202032
52.0,7.633509132130496,1.2002475882314956,-6.433261543898974,-4.458182224776187,7.004548109532076,-2.59332629407025,-4.469949123450755,-1.1333515997603973,0.34150931905399196,0.1980777904997959,11.47058775035657,2.615388257189005
53.0,4.412241083508407,-5.497030734598371,-9.90927181810676,0.4986790389775999,7.134504247489863,-7.6720554351704955,0.6777676154927605,0.04237012197595774,-4.180480367472709,-7.29991126693532,-5.1799613581525525,-7.489206033581295
54.0,6.3692029018948,-0.4956909288894298,-6.864893830784212,-2.9064926966668114,6.669788691716752,-3.6398059766447517,5.382106261889634,2.4776264000959567,-0.450737564436293,-2.9195462024580876,-12.788743275926908,-6.180931213245447
55.0,12.580982425114621,9.376800587868518,-3.2041818372460726,-10.954885615443995,7.864922648492697,3.056203642240339,2.173155124197279,4.2938646466498005,0.42788799893117413,2.677751274872159,-10.983864317649957,-2.6603043938756405
56.0,11.981787461924897,10.470469736242896,-1.51131772568197,-11.28678346815034,6.794975433616509,4.453728359566032,2.4677585845858605,4.377868263130601,0.16395376433720799,5.685148126843827,1.2597157055462436,3.8296679245923375
57.0,-5.137251186979288,-8.30938547632988,-3.1721342893505846,6.738148008447784,-1.015709628066047,-5.767681828514066,-4.495759752731881,-4.997870833890222,-9.50301964676185,-8.106846966976,1.9469043602037435,-4.706075443214944
58.0,-26.687293366538174,-26.55152323347308,0.13577013306508823,26.635569307988987,-13.447101427719092,-13.240656630757329,-3.3336897275395234,-5.903953808072813,-4.703669207257455,-7.415895562212208,-2.971104811661004,-5.262537067063795
59.0,-13.93317425369467,-5.569843692398113,8.363330561296529,9.774336919701694,-11.10694075002413,1.434416999844788,5.311744354661645,3.1025310436913376,7.254512192287578,4.58073575587899,9.549724204204038,9.691969768457694
60.0,19.36519235904508,26.404791427695493,7.039599068650424,-22.851170967129853,6.202511443164184,16.75219770141929,-1.6162010803504752,3.2874569230088966,10.585221571004109,14.036375083533176,14.882517743752386,12.093538401525663
61.0,0.45904035929908815,6.048096054408488,5.5890556951094075,-3.2857963275422417,-2.6059479193358586,5.843913675966834,-0.6838314997085706,-3.70753936345739,0.391851577821285,2.9261201534450327,-1.1963395489825537,-0.62039395906669
62.0,-1.0906627706709608,0.4786913584588408,1.5693541291297923,0.2847992121189362,-1.373773245424119,1.0484470934781571,-0.4769477296859148,2.148313687623984,0.7404762089049601,-3.7084973671060797,-11.439562205985197,-3.7440713324920782
63.0,-2.0113087327200416,-15.870585168108107,-13.859276435388072,8.926243120282201,5.954893054998396,-14.917343199936834,1.6422052597710153,1.2179105364435419,-5.273767755208307,-11.490082547709664,-14.16006765062046,-9.179975126665335
64.0,-3.504447747384656,-11.602286557483724,-8.097838810099052,7.539165769565008,2.322386060692817,-9.899546495594036,2.773648611172391,-3.2097812159937575,-10.018532289094377,-8.795630161189111,-3.5605246310560608,-8.772507923778882
65.0,22.66934380054911,21.912920898719555,-0.756422901829529,-22.231610720930863,11.732729412022971,10.609785493780684,-2.753010010073081,3.49267782738138,4.5201932832026674,7.816980901835751,16.915591033408386,7.896680304531989
66.0,-0.4625293907987178,5.347292400450708,5.809821791249461,-2.470115716474612,-3.200721810952057,5.610838795137958,-2.1980959623083045,-1.9501781199508177,2.89744664054943,4.531325346604265,4.16134415175158,-0.265401045440369
67.0,0.8944868701026762,-1.5098733932052513,-2.404360263307888,0.27091260147149954,1.6592433616208204,-2.0043379266833092,-1.7061375467832685,-2.252990352129043,3.7882263047546916,4.058682241917085,-1.8725719247052641,3.805090738807169
68.0,-12.941264275586258,-8.773803844457154,4.167460431129144,10.892858030690567,-8.546549333042758,-2.273301049690976,-1.462126077460427,-0.5368225709144345,-0.22258288894516998,-1.3960572605895996,-8.508304236348947,-1.2625464876762966
69.0,-9.103856911281028,6.857267371952479,15.961124283233538,1.156470182546026,-12.523473685266227,11.437214413691908,4.182144532158835,2.2842323428401894,0.6443852517754044,3.751201262132968,4.365760448690047,6.6408193463262615
70.0,-8.147155845199595,-11.69921912166094,-3.552063276461314,9.880602303585007,-2.2839961934791484,-7.677930110958725,2.270630906228172,1.0936852592372033,-5.216294559888196,-3.7238967695854255,2.409292583947226,-1.5539099106360443
71.0,4.610359048675466,-2.0479571508402232,-6.658316199515667,-1.2378865854346182,5.654908813601095,-4.327813895791043,0.9109559768298339,-1.58143020892403,-4.004737559940715,-2.228673055262631,2.6127189256923065,0.5530382475582605
72.0,6.201678596289973,3.456235760829318,-2.7454428354606346,-4.85533134019216,4.423235261072857,0.37980978219941397,-4.236092999397567,-0.5578077953422794,-0.17811107280214977,-5.3297205644763705,0.22632385029724633,-3.7545201651172126
73.0,11.220928303416342,6.629431483271138,-4.591496820145193,-8.943380876952023,7.9413705219813515,0.9636057144731189,-2.903892935627768,2.9665474408100545,3.1320342972032944,-0.49939684349122837,-4.727731112693264,-5.874643090168503
74.0,4.797247094614916,2.4535056939354343,-2.3437414006794866,-3.6388330904638666,3.530930440382704,0.07681769396538896,6.193681083073549,0.46611960515044765,8.866750131537248,7.77670887921259,-6.000355548846041,0.4445204975060433
75.0,-0.889810091217687,-7.794469641122348,-6.904659549904677,4.407121886936881,3.0472472562958113,-7.329645992695712,2.866196316894986,1.6666884468188785,3.2825244112514262,2.376961110820509,-2.0422226214608874,4.572231382081146
76.0,-12.000414633782805,-8.271996706877617,3.728417926905174,10.116754334020007,-7.905669477914464,-2.254326871218135,6.0988354308335335,-1.2436524969783949,-3.5095198815813857,-0.9909242478318734,3.624051487588954,2.4786289912232844
77.0,-4.94498283913638,11.394329304467385,16.339312143603756,-3.254028870773861,-10.60853744026881,13.803072697246883,-6.353792366613379,-5.43397512961585,-6.003375278375767,-1.0590549951759995,7.086874058129673,2.843604864629605
78.0,3.6550731831772207,7.786185398938164,4.131112215760908,-5.761606069410568,-0.2867021421864262,5.971918349626601,-13.784532717161325,-1.5686902906624471,-7.452042889802934,-8.309833823806065,-0.7745408308145856,-6.989664220879224
79.0,9.161017450847595,-0.7158632853892377,-9.876880736236906,-4.194817450461119,9.547548799517028,-5.283247572517455,-5.33586881203265,2.596373150872039,0.14397633432146284,0.219401014713688,0.3268622835045283,-2.5833898469307592
80.0,-9.324784618375324,-7.01379341122226,2.310991207152985,8.191792246200812,-5.7878088125986356,-2.3362107615997045,6.498524567488004,1.5109824492244424,4.513867136587233,3.371516774327357,1.2868437956463974,4.515015969934213
81.0,-1.2023164777173363,-0.638209135297422,0.5641073424198835,0.9440834044234201,-0.8490835316038879,-0.01758685861158016,7.7253805757472005,-3.1208499061418697,-1.5773130369532926,0.3072848842019995,-5.1109361847993355,-1.7536862874712709
82.0,7.255279327690156,4.931945638653959,-2.323333689036162,-6.062173417588259,4.749848249753884,1.25070057851104,2.8648366148545445,3.4863648355009578,5.208505021504318,7.226202613851525,0.41049300160349,2.8767482600566785
83.0,7.233136471920306,-2.9573285827121243,-10.190465054632359,-2.1735550758846744,8.676808418248466,-6.54309245954509,7.670167974781608,9.568807324138726,8.777312941432749,6.943709521411084,3.998392655408049,2.002303343214934
84.0,-9.318903364921734,-3.467937214403058,5.850966150518745,6.370188696825062,-7.617440245510233,1.2263451004253594,5.599187559233599,-3.9616702746615426,3.950738466986352,-1.9791213029496095,0.6160310737178433,2.1802233527354358
85.0,-9.831818909760115,-9.82448509617873,0.007333813581414272,9.815143550781471,-4.8730553527311296,-4.951347704534804,-8.748183225940565,-6.693459209738707,-10.295351607018231,-13.764082090033538,-5.960588040744944,-8.917989180920703
86.0,-1.634134687520612,-6.710396181370888,-5.076261493850293,4.165704007868804,1.7663799088343075,-5.938232799908789,-10.528742093564496,-4.213020318990067,-11.92809874569588,-12.27278917654918,-6.066209538872371,-6.059873974313588
87.0,3.8350346664361163,12.566848440353558,8.731813773917409,-8.204762671715331,-2.483312665198238,10.678398588364429,-9.492475288524677,-1.8963040936745905,-1.8586541280832467,4.578302769224561,1.9473195894767403,6.48119474716525
88.0,21.081982995187392,20.312815370544197,-0.7691676246432113,-20.70102387719218,10.890030303544496,9.794882068824455,0.08599366978984069,5.6656217961782644,7.0542179915557295,14.96031297308947,12.178606590574832,13.019376491522426
89.0,1.133855238076773,5.364165350229886,4.230310112153116,-3.174992491098214,-1.5039884441767954,4.814682041940079,5.490767373317468,4.96018551363777,3.4501236702474145,7.502992524991086,3.0792656389269704,0.9253804883296173
90.0,-11.206377361499793,-13.60439158431341,-2.3980142228135826,12.398675080149978,-4.435747838249595,-7.987683084621695,13.961145165277296,1.5300144728297602,6.518685191077452,-5.13849884891684,-9.664665666171912,-12.560811703745642
91.0,-8.12569708301383,-7.618875000684877,0.5068220823289984,7.862130301205696,-4.2645679630930795,-3.6227430271257077,6.262346586747865,-3.269373493601199,-1.4945062468618202,-6.608722086370862,-6.173748482998197,-8.903757062830753
92.0,-5.076454605904257,-3.5077008142734707,1.568753791630824,4.275938910644872,-3.344458902433875,-0.9561826159841855,-5.3482760166715675,-0.931233637524207,-4.075851816229768,-3.3392858478005185,4.155407061727604,5.166193746889377
93.0,1.0063303185529748,-3.5845928187102154,-4.59092313726318,1.263939025855934,2.781567864692758,-4.070439560763251,-11.056791644621297,-4.247705172865299,-6.218644123882048,-6.424647792992148,-0.1156361164889553,5.616773837219834
94.0,0.1618183418184358,-2.295871544024533,-2.457689885842997,1.0305091100421382,1.2961313295589332,-2.352892566338066,-1.8126727734051897,-0.7947687153914162,-0.9989436061405663,2.0359806295964407,0.18551654403021992,-0.2543784701194167
95.0,22.075043038770808,16.987274090965464,-5.087768947805391,-19.50032409024101,13.569337605904172,5.903437429787202,-4.947368567781876,2.1809604405957064,9.502192719584786,16.696156245918488,10.90826894938974,5.322315498546214
96.0,-5.663754673664586,-0.8724551782347696,4.791299495429781,3.2903106027702993,-5.161239624745223,2.001433670253822,8.327886702477828,4.331108818868106,3.183011875036996,6.211001174614398,2.428687877097672,-2.639587684191096
97.0,-10.032062091046196,-8.486436113378339,1.545625977667822,9.277886983498886,-5.803413772080344,-3.49779363625058,11.539008429358198,1.6036863034600615,-2.820917190826394,-7.2921226091128855,-7.275359107404319,-4.808190577962332
98.0,-11.441470687481843,-6.212140250554187,5.229330436927625,8.8476868205001,-8.353371746441285,-0.5110742692390059,2.634198416299924,3.1046304435746155,-3.0624714239234403,-6.661825725907567,-4.706016419659357,3.020393582881498
99.0,5.688265459552886,1.062758248545895,-4.6255072110070135,-3.4264118138657995,5.134831873163633,-1.7175444857153443,-5.985574670750344,-7.083351859004691,-2.6887964200665038,-5.616442928686758,-1.5724628346321952,3.770474956969297
100.0,14.44263654837948,14.940272883973002,0.4976363355935114,-14.654346778153165,6.9464857361365695,7.704813608768842,-12.280612751748894,-3.455969663844202,-0.46656757493975776,-4.6303585175720485,-2.580588659462292,-4.531645377006207
101.0,6.640094462140469,14.520954502173614,7.880860040033169,-10.613438585758276,-0.5706936983490132,11.183272444292939,-7.65564574274996,-1.514065211996319,-1.671144158392107,2.5411283596814913,-1.3435770375844858,-2.4902243929805987
102.0,-11.509526977075554,-15.963152372433822,-4.453625395358234,13.709414409959816,-3.4800018636577477,-10.233041552709537,4.82514913659025,0.665564075534754,-0.5386516562252432,1.5875955144149327,-5.367499074520964,-6.455075520704923
103.0,-3.583270220472653,-10.596311352329845,-7.013041131857216,7.143914230541124,1.683391852452667,-8.837985929693795,9.78549937770681,4.350616231528546,4.441667992205829,7.839764965536262,9.513694030703103,4.523577885918419
104.0,-1.8444307433578726,-1.3569715424904993,0.4874592008673515,1.575131938668303,-1.1978496433213208,-0.39703114999127553,4.091498203657205,1.930437252359389,5.3167452807902045,7.158166677061045,13.340479750121265,7.15765662239052
105.0,-0.17098816641877268,2.257264027026509,2.4282521934452426,-1.0713592292349285,-1.3324555702612972,2.37606407255839,2.5371984912175107,2.581863811252675,3.968063092299196,-0.3245903451071497,4.465192994925443,4.2151438733794855
106.0,5.136771029585453,6.743960366654291,1.6071893370687909,-5.892193551613824,1.8088579973437997,4.208911841927783,0.4051223341431738,0.3920696593250832,-0.08826003546344219,-2.681977184678855,-3.6045362777967,2.778520167254947
107.0,-5.616109265974171,1.0907992078717283,6.7069084738459415,2.2317881718085966,-6.1200719303025615,3.8574021553842677,-3.580858883527262,-2.58612995499394,-10.574724211836253,-10.451131953623968,-9.529473101289092,-7.184689207831263
108.0,0.7145152270931696,-3.8225270661858524,-4.5370422932789864,1.6046227738543306,2.585577075532104,-4.215250190141962,-9.51843918684439,-5.644547987718889,-7.093527338389157,-5.64045420437154,-10.202381357640327,-4.213701921739246
109.0,3.8901663430748803,-4.127326543319667,-8.017492886394567,0.09608878828539491,5.911189000233589,-6.023564687379353,-6.947200059922662,-3.7701423605144906,1.013165136988071,0.4641345596760962,-6.764349321088168,-8.832559411223377
110.0,-2.693117912602152,-2.032725376594678,0.6603925360074219,2.347961569079258,-1.6419425788743727,-0.7129972510416046,6.032992005675997,4.697843252338918,5.489265579479208,9.613966720887564,5.286292025270527,3.2999721506907203
111.0,1.8254936011202585,1.6334849275303926,-0.19200867358991403,-1.7364877997652002,1.0438389934408863,0.6934806768734567,9.914710445233851,5.27561547179872,5.542740629152613,7.247891438675543,14.128050638033178,5.627520723386754
112.0,10.088942643304895,12.93741860254538,2.8484759592404982,-11.513191653495399,3.5783260889111936,7.940768475790692,5.326084989125981,4.1084832799652835,3.7474699212417426,0.8415130133447928,4.391984015126479,5.567148609851724
113.0,1.0609212629565357,-7.741697984685079,-8.80261924764153,3.345335287916167,4.9711365157808665,-8.308672970185805,-7.131419691804115,-5.000191762809988,-8.087333887165514,-11.898295694323503,-7.395725779334516,-3.121135962405476
114.0,-13.188277993217314,-8.074872339213073,5.113405654004376,10.638782447705717,-9.188068500598227,-1.4440863786269194,-2.346428030337047,-4.983236682261949,-3.556666994747482,-4.9572031839062465,-4.80071699007563,-0.4654985220186415
115.0,-15.79230219239843,-2.550206888780079,13.242095303618491,9.177644402884662,-14.47500643682936,5.300128343064765,-0.8620686038110299,0.5935886816410632,1.26913034424364,3.698730932381425,-3.1452413756203605,-2.633803921206679
116.0,3.9869047760060425,15.126143355972841,11.13923857996687,-9.554191455063897,-3.614155490907459,13.165074402242695,-0.09321302842327173,-0.16473840146339735,5.505335564223911,6.7625091994557724,4.937153511523088,5.495208166683179
117.0,25.649461782926437,23.000659869965226,-2.6488019129612415,-24.329916240501195,14.107834875064448,10.211247368525232,-4.183094906282594,-1.855157623868241,3.6933859458441995,2.531668423523377,7.483716039416697,1.657741894321318
118.0,5.166750870212642,0.74041908968172,-4.42633178053103,-2.968244404452202,4.829818682379631,-1.8806722223789873,3.085116070755932,6.320760447351488,4.419250219248526,4.893163869625091,5.79529038454135,0.4922953999673634
119.0,-9.35721364577906,-22.422019615304976,-13.064805969526024,15.86352921769382,1.8833760173764436,-17.774093498778818,5.482261146255929,4.730692751797334,-2.7623914802707352,-2.3098957949096137,-2.5842043575795013,-1.4104625246495255
120.0,-20.94966554422815,-36.88497180789258,-15.935306263664511,28.958273046976093,-2.4797612017081767,-26.355440922342492,6.756613209046702,0.336458639433431,-9.461583571840949,-9.528949459458225,-10.041597515963144,-9.115438006317587
121.0,7.577976610888724,-9.167649499118244,-16.745626110006988,0.8251858154203138,12.110211142520297,-12.975950732575381,-5.222633151885945,-7.99212491862386,-14.285318386563796,-13.022844163878478,-13.094087627032074,-7.549782275237895
122.0,2.6770130630185456,23.066238520769843,20.389225457751333,-12.92843147127904,-8.827582801158806,21.71039815756621,-3.9909147530776843,0.4833627485719312,6.389221003878493,9.234185973431456,7.421933912627382,8.270953098293795
123.0,6.797186457465168,25.22142398815147,18.424237530686373,-15.992917981005945,-5.861319642534548,21.804631173730215,-10.334980106092154,-5.325331972894914,7.961139321276905,9.912702322342799,6.810739001839158,7.0551323673326385
124.0,-13.93353738810305,5.995315476017726,19.928852864120802,3.9830189073077147,-16.897188488023737,13.01956699469014,-0.11073675441975617,0.4037682479013256,4.9156673119726,0.45430764316862327,-0.4281713421406481,-0.4968831092933783
125.0,13.781543520624957,5.764141364624127,-8.01740215600085,-9.758393634825438,10.858164986366702,-1.1520531299159238,5.375144460733016,4.878831546092019,3.2858657325354335,-3.372003789225414,-2.270857514256593,-2.949537889852472
126.0,20.90120582379411,4.382711171478501,-16.518494652315624,-12.702906072427117,18.750919001838298,-6.097316615177099,9.01480068711101,4.556067813546962,4.954764203922171,0.24355981165182777,2.5667203898018376,2.7119692441186443
127.0,-13.375164170535417,-17.38289733232881,-4.0077331617933964,15.402714086805382,-4.6392559732839995,-10.648778010171707,3.743410001600787,-0.2401475874321921,-6.040035693553236,1.9317050497957806,5.772724234289381,6.501651174895457
128.0,-22.23184975959487,-23.12224056464647,-0.8903908050516236,22.708717157964873,-10.702608485725612,-12.03943667363026,-5.721594499916316,-2.4334875243976306,-7.042957989861545,-3.711713307691322,-0.27531756793196704,-5.773378809030604
129.0,-10.000105534577175,-9.601713023385786,0.3983925111913389,9.76321692008467,-5.230501308446103,-4.5548794924831935,0.01853345988336441,-3.1670802982261534,-4.81531272884377,-3.435113010528392,-4.182534889763825,-5.204899915689099
130.0,6.366585493037446,5.081004550950309,-1.2855809420871833,-5.673060444334954,3.79323827119028,1.8687186376049847,0.4817690927157061,0.5420181101530277,-1.7482105715010476,-0.9127683901002195,-7.011399030330594,-5.409940408056356
131.0,23.68351055678502,25.240402170921666,1.5568916141366143,-24.481385142428767,11.1055914616394,13.373997128055576,-1.841974631982733,2.653175603704258,8.29387907397584,4.16764539758509,2.515590192500783,2.3178498668532708
132.0,7.857303960505087,13.293311943959708,5.436007983454617,-10.588524345737214,1.247950813765315,9.345216624823243,-3.257451143551832,1.402169563713439,6.00907857376934,6.438666546608533,6.318184547268203,7.094034054945211
133.0,-12.914292528579603,-2.4967006446485502,10.417591883931063,7.695404539431285,-11.712952329570408,4.025270098941834,-3.60036917571925,-1.2734474229901402,-3.579456255661232,2.0742843294989703,3.7203276898754902,5.263501780778579
134.0,-7.470975325882581,-7.976804221489471,-0.5058288956068653,7.713993947187784,-3.4564196741978535,-4.250164071763873,-4.552207351161654,-3.631517240761862,-2.5887557368796865,-6.739552547100476,-5.298599500560806,-3.4921281241981026
135.0,-0.46867423726488777,-12.130958562514925,-11.662284325250011,6.288139626969925,5.617662226941468,-11.901864621703663,6.971768905207073,-0.3354487333700793,1.564495337453127,-5.685105951888055,-6.328420138252424,-3.125091515850965
136.0,10.686896604670732,-4.60999029619036,-15.296886900861063,-2.973866587661151,12.929249940914122,-9.957675553038047,5.857491907423066,0.9647579386379415,-1.302043948073957,0.16556402463030073,-2.496094821087131,-4.196772625235712
137.0,-5.236265365081248,-6.157999349266866,-0.9217339841855914,5.680757139290958,-2.1449442065268176,-3.5464721644213313,3.259867789433389,-1.8845633970296092,-5.53133163930735,-2.4123426299482724,-2.1403008073952567,-2.429454375748917
138.0,-7.1887733292781775,10.610098147736526,17.798871477014707,-1.7286995477511713,-12.483729355138626,14.192143921092619,0.10873939992160953,3.1467477664515195,3.283930440505481,8.622452741709255,8.509354959083932,5.359258098389428
139.0,-1.2044764924018052,13.224703649800581,14.429180142202348,-6.029725038010737,-7.806867865191753,13.806449897537526,-0.5641612544990111,6.254682144524587,8.276656529022812,8.57579450994551,11.185322191922097,6.530454760274251
140.0,10.088175503383379,6.526192937172867,-3.5619825662105846,-8.250439214193161,6.837125043284059,1.5314398824867146,-3.773612950300964,1.1334937489974217,0.519896099546632,-1.118746846283302,3.4350522218087836,1.3733604485768178
141.0,1.9768689738100456,-11.80333621803059,-13.780205191840723,4.8871081709711754,7.8943823019330885,-12.829118673736307,-3.4964828267247032,-6.589862621834708,-3.1243445620606547,-13.025578293500391,-11.288161097000518,-7.611729789920431
142.0,-6.4751077180855345,-10.157206810229678,-3.6820990921441963,8.283725027007472,-1.45493033743284,-6.883940850041457,-3.4782098510124375,-3.5949973152280217,-6.681567281104584,-5.747082974681014,-11.149140226189266,-3.0477750837853326
143.0,1.5057870004829392,-4.041226382421047,-5.547013382903972,1.3058564165532585,3.5506642634025343,-4.7614964128056005,-4.330391234869557,-2.555978284670466,-8.203189818171401,-0.7550738175103731,-3.8960962649780617,-2.524123689089783
144.0,-3.3831307657327496,2.233015613623489,5.616146379356321,0.5255149639806349,-4.47299002025956,3.8774734919943383,9.179809594556405,4.732466375223937,5.738499820408977,7.90196612660417,7.904125711188078,5.23232444119038
145.0,7.012218908193047,20.671193288917237,13.65897438072428,-13.820569522062781,-3.375215103934787,17.118156145302095,7.617509816511291,4.976600009110112,12.994122608969796,13.2300859627638,16.268070583509484,10.891035994090297
146.0,-3.5024524797458714,-5.563022239398393,-2.0605697596524637,4.548118599568785,-0.695923738087711,-3.7795639162572483,-4.593777679086274,-3.4672930584108004,0.7209985121500031,-0.7791563657001319,-2.5576741849753946,-5.733277827841702
147.0,1.074545208710143,-4.815776327561313,-5.890321536271458,1.8831983154403655,3.5038331927458692,-5.320833529579059,-5.551514088425321,-4.077502700219785,-2.887614815525476,-3.384506016706596,-9.562279305088193,-6.512268931165716
148.0,11.176501331694062,1.754435314456015,-9.422066017238086,-6.4532565379504625,10.316165701182843,-3.802390848491112,2.019351648100681,3.8879350407390234,-8.247958456983833,-9.191882441306214,-4.989718202017222,-2.3629921444344406
149.0,-8.093970972656187,-2.2398444545609975,5.854126518095156,5.179676058552197,-7.040183382112192,1.7582381076183564,5.436004423529926,0.9199470390038853,-0.9300194627373966,-6.064559787338859,0.2362222320185423,2.5273954912797816
150.0,-8.876228961988932,-5.185225821120322,3.691003140868616,6.964482361802646,-6.273606543425353,-0.7979242717205741,-4.339208749308332,-0.33350328720592914,1.4571532148733088,-0.9385282192354021,0.09620673053150985,-1.0245352986475837
151.0,-11.223611902785652,-8.936939559826799,2.286672342958898,10.090606304440497,-6.744640654843597,-3.298472416220981,-1.1284249719382087,-0.5939539882041683,2.3883868953505734,6.458834718114986,0.7623215963010214,-0.579456041730475
152.0,0.32889591733861856,7.025125047109999,6.6962291297714485,-3.6705894086874795,-3.168575127897527,6.887880015362656,-0.01743911876788351,1.1937155923722258,1.9723587989980753,8.77365328185668,11.148715414471779,5.935759957124746
153.0,16.588821285071592,17.818962688294352,1.2301414032228148,-17.20166852766402,7.703155229357147,9.55491617819436,-1.5603246294600388,-1.5371924111841806,1.1375188293711793,4.663221632042283,7.3929962644754,9.496420403864175
154.0,1.0264521931816315,-4.240175321335842,-5.2666275145174515,1.6067354364235102,3.1032580504542335,-4.796115265177502,-0.2819444113885846,-2.128912768226614,-1.558769377132681,-8.725047795525747,-7.8377874885841745,-6.040001241172248
155.0,4.215182803839614,-9.300379442568854,-13.515562246408486,2.5439091009102643,8.913167620236878,-11.364859798555056,5.219158964002654,-0.9760730841948221,-2.2080693309488377,-5.4767834809838245,-12.186198002805195,-6.406512652906987
156.0,3.137650886423441,-6.206023848262115,-9.343674734685589,1.5416220247940167,6.220038063847991,-7.803698218151204,5.0134717543274085,5.515814198703445,1.2367689596028242,1.3430831873464055,-4.891754140050381,-5.085409334744274
157.0,4.750180513309445,4.384741804247274,-0.3654387090622031,-4.549837432341114,2.5432969879880085,1.9857255197538843,-4.642052415734443,0.6792102059733927,-1.5635687588977847,1.5633108686559074,2.8344628597052592,-1.9633212500172657
158.0,2.054615166286196,10.75683838644115,8.702223220154925,-6.375931170089467,-3.337411662476415,9.707764654212074,-5.468618513863173,-0.5825675167416697,-1.8370898229824641,1.5242501050028074,8.729045405682218,6.9997744777015765
159.0,-10.867843417492761,8.394536948220374,19.262380365713096,1.1989936290993926,-15.082394739167874,13.884821043635617,-1.8074843767458915,-2.629059932290561,4.010486135112816,1.25493592929968,5.436361997848817,9.56527900247701
160.0,-23.896802500924082,-10.542850948519764,13.353951552404276,17.190004000635117,-18.570123528518604,1.380390544312358,1.9211749392020068,-3.5256389376640715,2.6942774425105376,-0.965106514398361,1.581713086211562,-4.307897671784249
161.0,-14.10473047634778,-24.099559526903814,-9.994829050556039,19.075378348995912,-2.0844681378759535,-16.99765397574685,-0.9219242089321484,-2.5999486700443453,-4.793451127678311,-2.145859926159096,-6.657011081043107,-6.960397347363502
162.0,16.695752153327568,6.353829903067647,-10.34192225025986,-11.474195307769588,13.485933818387185,-2.0277428642066093,3.1451240575567803,8.158485486299229,5.017774844691093,5.583658065592099,3.403626229201581,0.28315807865898623
163.0,26.51395013243663,17.72632930249972,-8.787620829936756,-22.152489008327468,17.697129554653966,4.431519165195191,2.0087619886108143,4.6123617656055185,-0.9400964941533458,-0.7702706544170177,-7.939565300034664,-0.5270360237267868
164.0,1.1293509469046867,6.3111108762003445,5.1817599292958505,-3.6787714366330224,-1.9759581788274492,5.78437449014688,1.2986190456795563,-6.158193808998119,-5.116807334624129,-8.784475076886544,-8.41337319329,0.7611684357658229
165.0,-5.48687445807887,-15.479149643311098,-9.99227518523202,10.520385664982886,2.229402647312068,-12.777544423215097,3.5950687296981787,-4.973724923854919,-4.526990767836703,-4.889183627745667,-0.238338047390513,-3.672467888221105
166.0,-0.9837601775041733,-11.298091837303271,-10.314331659798945,6.097003023893459,4.645629890118455,-10.767861283984514,-0.40786234361691814,3.2047244377538897,3.215504817568344,3.0818594961783123,7.413052645091322,0.11152038817784693
167.0,-0.5727228928957402,9.090361568223967,9.663084461119764,-4.303891437406058,-5.137767517709487,9.418830304724102,-7.565805335481881,-0.16889822183914377,2.600668773129712,6.271396818942665,9.197398770649233,7.905038151853979
168.0,-0.9300059518457031,13.286661425339918,14.216667377185587,-6.144950528558523,-7.597746779037129,13.720230779512688,-7.86827538442727,3.1865487891764115,0.8593865739649496,10.019117574991212,6.169355706605687,6.904978553520907
169.0,9.384519297861626,19.537753613783046,10.153234315921384,-14.427769749791555,-0.41592638541757676,14.819374560016696,2.470363684655866,4.9564767090654485,8.186685358901554,6.58990705796907,10.099456985536284,9.15254226652092
170.0,-9.960393076654176,-6.704461464403817,3.255931612250351,8.286960950286113,-6.567492877113169,-1.7462614107082874,8.857951159415173,0.7508037465800765,4.097762425926626,-0.7723730115161567,-6.296555992585261,-4.821303628627462
171.0,-19.63148574752304,-27.694826846411,-8.06334109888789,23.696178560678476,-5.7459815067484294,-17.82018197679893,0.8461711004779646,-8.28395882621736,-12.252647495664323,-17.472655774242934,-21.339754040906257,-15.835402765114994
172.0,-9.120616839320206,-12.001739927764214,-2.881123088443939,10.515162535918215,-3.0785828627146534,-7.4612110304050585,0.29072152604889157,-6.282137541764383,-5.979410254611582,-9.71618092995472,-10.552217513174748,-16.5801706757993
173.0,11.479731972826212,2.8897144160078483,-8.590017556818328,-7.151955214588656,10.005310725437173,-2.8715027756513,0.5885519564594195,3.4374497464758305,6.903870192100442,3.4331698379774718,5.128571230836858,2.5838144338460856
174.0,25.30116086846924,16.36514032314649,-8.936020545322787,-20.799612943653685,17.099177038343882,3.6906740880474986,-5.9478075411662665,-0.10133528568322991,-5.247011627172025,-1.2888672668145542,4.652078613945312,7.004005937265051
175.0,8.25107677180504,14.911048308139543,6.6599715363344405,-11.62443891924866,0.7847249825091005,10.83741507252739,0.1292100987871856,1.5886661356081568,-2.0627385026031293,0.984297535986765,6.020414814623161,13.518757816684907
176.0,-3.9285198011980347,-2.5520036836714954,1.376516117526486,3.1999175971501295,-2.6593688017568673,-0.5391167663677532,-2.14164241851234,6.475475643774497,1.2902037782858053,11.052380677124996,6.944078746235152,7.759676367371986
177.0,-13.528627583565834,-14.560698750027514,-1.0320711664616953,14.087104177806403,-6.257045062350436,-7.830410106470914,4.602269077066701,2.7731557228011092,9.140162918322195,10.301337714945628,3.9867988055537324,-4.713001933237286
178.0,-7.332438665887389,-12.085721896787998,-4.75328323090064,9.755883968679662,-1.3053530049387776,-8.458316513638009,1.0280809205633263,-6.950745145415057,-0.6272478292525046,-5.121694281614151,-9.457744422856958,-12.9655760427296
179.0,-10.872018340273717,0.06217485253588606,10.934193192809587,5.376444981362307,-10.84982630986929,5.454095251265322,3.5200980504290107,-3.7459392303837262,-5.064714646318456,-6.944607456342093,-1.411542753846268,1.1256762443001485
180.0,3.9275606303981796,13.727192557867882,9.799631927469681,-8.854796230752878,-2.9708740454548774,11.793638509490501,-4.787077101722181,0.06515841111524656,1.012189903836394,1.189058644940097,4.6092983272399435,7.876939457743999
181.0,6.712948827953955,5.207931841208805,-1.5050169867451841,-5.911692907816705,4.146384834268222,1.879909111643097,-2.578087992251657,3.9790991112640373,5.706214152610977,0.21387984732864407,-2.27243905221823,1.692789276286073
182.0,19.37802364997948,10.17839925335982,-9.199624396619726,-14.814678435859351,14.245060576281544,0.5201088938709093,6.918794968213313,6.970059825071354,5.4606923434876995,0.7019678502722817,-1.556350370368797,-1.141821302893958
183.0,19.717678377653016,10.78500783639355,-8.932670541259583,-15.296968814973894,14.361463771247386,0.8845444717292783,-6.48016908129347,-0.5686300337993382,-5.450421331882684,-3.795835780350793,0.2107621322318196,0.44435601251113743
184.0,-25.01226390918632,-16.94171571021248,8.070548198973684,21.00077713989723,-16.501847926511132,-4.389393863183956,-3.303647020336744,-8.450917846015662,-11.188052230175071,-2.5740384769845024,2.183250519469373,-5.05103826218515
185.0,-32.13462490538147,-23.717720170383295,8.41690473499802,27.943558904252985,-20.312106921986565,-7.673830859678821,7.293719533725257,-4.771217436224497,-4.5267460848341186,-1.1650381982442322,-3.120252558451569,-1.9327524460566305
186.0,1.903832444044312,8.545046592198059,6.641214148153637,-5.207945464413733,-2.4045774402969204,7.576167162771189,-2.442387310094312,3.1231095054555698,6.895524797486853,5.583316017042216,6.61923829292102,1.4513251740649835
187.0,19.784409223676708,10.145287821612612,-9.639121402064134,-14.942767122488199,14.673289610368336,0.23800921176399892,0.583097564083122,3.4398199847487323,12.225553484277428,6.75122097517548,3.029463570295714,2.854640012693197
188.0,12.197820110968078,-1.6668035311159848,-13.864623642084009,-5.311234456939182,13.066830283861123,-7.7838536565939265,0.29439457239848654,1.5531971117962162,-2.7662338068511865,-3.4365606208215365,-8.789552340197032,-4.417884280807354
189.0,-8.491439157874014,-17.761549030841582,-9.270109872967456,13.172874280930488,0.42026308221459274,-13.462091940697631,-0.571399988250227,-2.0760498081629604,-10.379994734705745,-13.388420249603133,-17.28921079566456,-10.599079204228314
190.0,-4.78556960710246,-5.792936274247595,-1.0073666671450061,5.268818990143845,-1.8607443730517057,-3.433720536743241,1.8769150378325152,-1.844152601080208,-3.7219990271969783,-2.574321942865929,-1.6397311348875592,3.8929606750537857
191.0,2.9738088931953874,9.22959243772011,6.255783544524829,-6.115114214179542,-1.6905917349694204,7.779880610510824,-2.261562991688034,3.728533522186803,2.762271383945672,9.215046402445388,12.897406472536922,10.234426294349875
192.0,7.252372442770508,21.364977838236005,14.112605395465591,-14.322002450578124,-3.396850784437346,17.691423842323143,3.5258641310204792,1.850399470813268,8.800916772774961,12.147254330198965,17.60423557839122,10.077558230229785
193.0,-2.3232773492052696,18.549141489053376,20.872418838258746,-8.132989995669908,-11.636998089923464,19.739025478727562,-4.0858088703162725,-0.5162724093631004,1.000879555717506,3.3539178112089223,5.918638850025192,1.6111588674405835
194.0,-2.035083379130109,0.23158163233192042,2.2666650114621127,0.9490940474561951,-2.104389496485261,1.2762215001430395,-1.899907334355003,-3.0408768832370567,4.759516970758102,-2.4248441473868336,-0.04847053248660327,-1.3790634346770985
195.0,-8.585511011660092,-17.61576642745602,-9.030255415795896,13.056798932455472,0.1959589213603624,-13.296543473944944,1.0743610977593065,-0.7235658262606603,-1.2612378480797866,-7.908780085953027,-7.360675796984999,-4.568180745768911
196.0,-5.109217875295938,-11.873484388880645,-6.7642665135847455,8.516456548007,0.8049277749195394,-9.372733888069556,2.984933993135132,0.31546745958646616,-0.9911328876196732,-3.463854221353863,-7.824390470894636,-4.795688079129369
197.0,11.283814389577039,-11.598181616648993,-22.88199600622613,0.17783569680239264,17.061871934270812,-17.296986427570012,1.074000108469731,-1.1784508873667372,-11.707109964247222,-9.179261450433632,-16.19838601781593,-16.02305423451833
198.0,14.935116262581206,1.5420563239936396,-13.393059938587689,-8.216090724633869,14.221495375078192,-5.907189240281397,-1.4088813576997588,1.7359936127736608,-7.620853320397858,-3.9694525346715444,-7.276575893823097,-5.525486799220739
199.0,-7.692309630594057,-0.9019069902439867,6.790402640349979,4.248011464471575,-7.26437866420882,2.960660039802491,1.663342530948987,1.0235353290061302,4.1388073791663444,8.584149217012914,9.335386563700188,9.92006305039941
