Time(ms),I,II,III,aVR,aVL,aVF,V1,V2,V3,V4,V5,V6
-200.0,-6.339267620241559,-4.565222785420142,1.7740448348214013,5.4848017320159865,-4.007247931185894,-1.3653601069106909,6.8012785790987325,-2.271322714823551,-0.6222741070115241,3.1713122674575023,2.9646960421194373,-1.7817266028311178
-199.0,2.9208181969392752,-3.106042147281824,-6.026860344221131,0.04066191704319877,4.449283405442236,-4.535155700779898,1.2472051784455376,2.380779390607197,2.8731100728168406,1.5275314572786634,-1.560867853847209,-6.873155588127345
-198.0,5.7603858016828315,-1.2186695533213125,-6.979055355004188,-2.2462006835302577,6.425291146624093,-4.062870851376118,-3.8141363181480847,2.5696693806477695,-0.4277296647501829,-3.3853658917516287,0.5468797282532505,-2.7578351278294657
-197.0,-6.904616800971462,-6.73029054505087,0.1743262559205947,6.844579518822722,-3.5645428970586526,-3.3131209656409926,2.5262151763691474,-1.2249457260398016,0.24530488117175542,-1.45181024803961,-3.2377713525042715,4.062342162833628
-196.0,-1.6540972777869636,-4.787121769887949,-3.13302449210098,3.253969599884142,0.709689044965582,-3.986695159368627,2.5582607158743835,-1.3112574390009253,0.8016888773620232,-1.4298801369277716,-0.7341170298648905,2.1374090999588558
-195.0,10.106569507178811,8.49862208012017,-1.6079474270586778,-9.340296061830587,5.89957623823794,3.4256067930591927,-5.830526196026457,0.14217943214735373,-0.9343634066890059,3.9044532202921083,0.4811866104929312,5.176987448294502
-194.0,3.4192171310380832,3.225589599924613,-0.19362753111348974,-3.3537431640758646,1.7627363364464652,1.578152742234868,-2.8662259684961913,-1.7178232746449233,-1.011488997958534,-0.7888242404327996,-1.6479939145520837,-1.8921664680003856
-193.0,-12.372938364184407,-0.7561157194821275,11.61682264470226,6.536115023181671,-11.965882647285522,5.412121953550152,4.723798155140308,-1.6303306148793086,-0.7327268320537583,1.7508908868426372,3.149920404495367,1.8385723533804263
-192.0,6.086689600434985,3.0781566723814056,-3.008532928053585,-4.533266805718703,4.494832337418156,0.010388781893162946,-0.950458846816052,1.2591818997777586,-0.1212427533460419,0.954126538812053,3.6178613164536166,-2.2047612723669774
-191.0,-4.907961089580177,-1.0288658288489607,3.8790952607312357,2.9342964242700034,-4.366239738497215,1.3915046028833258,-0.12133959521285842,-0.955026830060195,-2.0037256414799955,-4.985086815015969,-4.520843613609615,-10.166456382110113
-190.0,-2.8634539494244646,-4.362036232674928,-1.498582283250395,3.651141124990676,-0.6494196512187164,-2.8949624734804065,-0.7760530191604508,2.1643779558406613,0.0573682318830473,-2.780407800775358,-2.804541776949822,-0.36937772290571846
-189.0,4.460307755750849,-3.1336987271117343,-7.594006482862509,-0.6311356439119884,6.068723552593734,-5.3364256581402385,1.119920485740496,-0.5890646067071621,1.8049081822421644,0.1610420884752879,2.2461397582142677,7.460700032673161
-188.0,4.632113130034645,5.056318885262243,0.4242057552275824,-4.895731258041144,2.0751423912870695,2.763399954990035,0.1287679322197326,5.260331115518703,4.065644586607138,2.245985381710755,-0.2647866324818653,2.6334315832259367
-187.0,3.949232934189843,4.118913078518371,0.16968014432838996,-4.009771568637644,1.8657504019273456,2.0885732988796133,0.9644117012378761,3.3454338043811807,-0.4158766137221639,5.334846528748249,1.2659005561415468,0.9786347679692913
-186.0,-1.5232804880029591,-4.554187821132327,-3.0309073331295595,2.983622167796006,0.7285618815049932,-3.766094719196982,-3.1262571614042725,-6.482234857561765,-1.0090869213382776,1.0681603200866299,-0.3951069457432884,0.9664988286499848
-185.0,-6.1470183994082905,0.8159143142964536,6.962932713704598,2.6907604763227897,-6.587816333315246,3.8426417161534676,2.6990171862678283,-4.806110472567931,-2.0553936887711104,-0.9724752947407792,0.9152802677774272,-3.3624013571220015
-184.0,-4.161877414606277,-0.840188845196548,3.3216885694096745,2.5296719060658486,-3.7079179710552923,1.2785256909791587,1.0307939847280256,-2.388822951184697,-3.3901779933013447,-3.571469790720565,-1.5630540104572073,-2.447616265436946
-183.0,-7.70752180221712,-2.50618619987224,5.201335602344889,5.139973451233013,-6.433703035467863,1.3896841886791709,0.5321750263481841,1.4932247014459883,4.959603296937646,-0.5965191561668242,1.1805790510746539,-0.8463298222921971
-182.0,6.3649812698857495,-2.1481816805141074,-8.51316295039982,-2.1496562458975177,7.448987563226011,-5.365838787901039,-0.05126979508011742,4.045092068017828,-2.3522140476812075,-1.2148747387269394,2.1877336856710006,0.4991061887089645
-181.0,17.735869540888075,8.254644143372126,-9.481225397515882,-13.033366179467762,13.612182969428607,-0.6504583554452361,-6.44751812596951,9.067381460745974,6.821810155398154,5.855234398146646,4.3188023319320985,3.9726306721886746
-180.0,-1.3279785001216569,-3.8510906318253397,-2.523112131703624,2.631495361535263,0.5997837190579354,-3.150524321136772,3.182968915794506,-5.449323787447106,-6.0512027879681645,-4.274025172941162,-8.588410085429881,0.294124182205707
-179.0,-9.316907323627628,2.0186296775091686,11.335537001136814,3.612011153906322,-10.321923520440121,6.628450574072164,0.4597747314074231,-7.367620598887277,-2.1147152805979963,-1.7787286086876979,-2.6130435309272424,-2.7107939803451915
-178.0,-5.6131366193839884,-3.0716340511872993,2.5415025681966776,4.382784909762205,-4.069656017365064,-0.2407231191280692,1.3999183471041625,0.4544648564013918,-1.2157299792376004,-1.8955399284630636,0.1352433838178344,-2.536236286944339
-177.0,2.7797907618450326,0.7620872794757538,-2.0177034823692943,-1.8104900188813495,2.330331224946072,-0.6066654610827342,-0.12339808538921315,1.5868285644159241,1.1821406975665754,-0.5003216449531551,-1.8668100651646764,-2.5417028905750607
-176.0,4.693954481664057,0.4588739998527381,-4.235080481811332,-2.537881364732792,4.475952674380264,-1.8667698720022745,-3.797469652373884,4.7374864255566145,2.6793401962677685,3.787629722934435,4.726072124732997,5.43840482627271
-175.0,-7.459576579168542,0.4027676003457664,7.8623441795143005,3.566617272370328,-7.649533840702337,4.156840198323158,3.3638359649139957,-0.8786845428527834,0.5562083606948194,5.927900299386434,5.192631988133131,4.465583138604389
-174.0,-10.388063428209577,-3.404674477208692,6.983388951000846,6.855066868399139,-8.674106392169145,1.738835340295482,3.1959389831310383,-3.3679478356658272,0.9470664678120975,-0.4774647652216222,1.1239244949376146,1.6025148966531972
-173.0,17.135678337756637,6.762910636364554,-10.372767701392158,-11.992711019689185,13.767511452002251,-1.8525845233561522,-0.3833639089414178,3.1907677924136095,3.374381855238652,-0.49860487551269556,0.9249185226887402,-3.0491644133863645
-172.0,20.21420688044121,2.5326147690296468,-17.68159211141165,-11.341948035119387,18.964787246877933,-7.543106017417655,-5.903534983404955,3.059999689926844,-2.644781692762961,-3.7218703881035085,-3.692721161656478,-5.006753509265678
-171.0,-23.275161399951926,-11.091805340766491,12.183356059185362,17.209785834512733,-17.707451639045352,0.5744062214702117,3.209609095731691,-4.365321529745565,-4.534072107640942,-4.021691898774551,-6.456155537236856,-1.8334600098417702
-170.0,-4.169243410447631,2.024646606352457,6.19389001680004,1.0146850288550944,-5.233560268040966,4.132646775526234,1.0529520636519383,-5.412051603014546,-0.9860545384082058,1.4319528659940546,0.1551291364900611,0.5339089229270839
-169.0,3.327871417090919,5.61622333057098,2.288351913480061,-4.454417222062731,0.47152491138714137,3.890410746279078,-4.4940007330486,1.4604066491305803,3.3521047196486347,2.6866794566029206,2.5274587281907612,4.027333399561823
-168.0,1.3823808918250031,0.22452152888680832,-1.157859362938142,-0.7862638041738463,1.3026709857730454,-0.45593243217914203,-0.13461122389855174,5.009099600889637,-1.3019589744235476,-0.9282767897430195,0.575170212578171,0.41174420457095495
-167.0,-4.166032314178708,-3.246527544308596,0.9195047698701857,3.7266227975848203,-2.509625032616059,-1.1569097184741965,4.913943736786862,-0.6056885396260823,-0.30464385176425846,-0.08290758461883008,2.927841735853868,-0.3386958517222296
-166.0,1.1852281356276364,-6.078353243893477,-7.263581379521066,2.473033379705816,4.257466560927622,-6.665307249136144,0.5875260571058132,-1.2731085340555406,0.27054310132417936,-0.9166503980226185,-2.018369341665636,-3.2472019165776174
-165.0,8.826830951440442,2.9174951926635497,-5.909335758776857,-5.9168926550386995,7.322490342035434,-1.487718714349105,-2.024532294708475,3.2961786868482905,1.7149947004842678,0.34956118156742527,-0.38038150050390934,1.0105345665371355
-164.0,-0.6359796068035735,7.1132348745177305,7.749214481321295,-3.276181574780218,-4.237192908419763,7.4446051939631035,-0.7674500260649663,-2.0142346978760535,-0.16281982782311777,1.3865614272152045,-0.1131422797351965,1.5361079845094125
-163.0,-8.93505751241753,-2.6450132986657797,6.290044213751718,5.83673785629883,-7.575959557662118,1.8419276045216155,2.186339301708621,-2.164736991847508,-0.27598720278205585,0.44081498631878063,-0.49125157152942944,1.0320594762305195
-162.0,2.5392218674588647,-1.379141416525597,-3.9183632839845384,-0.6086597851024185,3.269503555599276,-2.7032877645366256,-0.8561146425258088,2.9141844248314985,4.419879094590044,2.6000750435845625,3.6371009293652623,2.9073073798971896
-161.0,0.9682786036172578,3.1966451822034054,2.2283665785860745,-2.1094064853024252,-0.6625143948753063,2.738770764630014,-0.1999856363674254,0.1373210969824562,-2.9474917178661384,-2.0647580138107027,-0.006598689474220043,0.5065605585550214
-160.0,7.216812553063058,0.3184860363103978,-6.898326516752702,-3.7154112346730384,7.031322798293341,-3.343398298961104,-4.145720216938799,-3.1198334098064633,-4.866050476972918,-3.752867656730447,-2.1549925998405297,-3.35275834351719
-159.0,-8.211543031878128,-5.789485588073987,2.4220574438041713,7.052048236520798,-5.258630102237236,-1.6614034423086577,1.6663713540145022,0.06798635307491485,3.7461362445526354,6.2501415661039355,1.6421853012088292,-2.8107648238772187
-158.0,1.6830864502993848,-1.6508509891804866,-3.3339374394797714,-0.045695930236584026,2.4917608541094616,-2.4730702317550772,3.3628644145158657,1.9928240302134028,1.9138004098231436,-0.8396381367072254,-4.016882236214362,-2.6943634587281347
-157.0,1.8542491743423963,7.017936968023454,5.163687793681177,-4.470476841363595,-1.670375447065359,6.10905476692741,-0.8908918240553465,-3.049745801614672,-6.9944204221884085,-6.951306147722105,-4.430538618326805,-2.443611828398396
-156.0,-9.958507214042172,-3.732102195687287,6.226405018354979,6.803358619013851,-8.109846451821689,1.2673281440176198,2.5281752986055417,-0.9056306488405464,-2.118604037175796,-1.4741335808955733,1.5184284289438879,3.2794366035641245
-155.0,3.3275981261782146,-4.439139198170929,-7.766737324349109,0.5829828974193789,5.526082583618432,-6.156618601093728,-0.790789857526899,4.83454042375915,5.761261369362016,0.8764557006803789,5.473215567984651,2.9331503826460326
-154.0,6.0320267634555575,8.366338171913078,2.334311408457493,-7.181860062180096,1.9024437848655886,5.382209543590969,-5.729695157754952,0.2945660675146444,4.129553266034779,6.684381711473045,3.6113098454979466,7.074317153354247
-153.0,5.018910318438751,6.339659807244996,1.3207494888061908,-5.670043161830035,1.82112069059153,3.7905670430572522,-2.145142260246807,2.691686392156261,2.378786679562113,1.916220533049764,1.264756863932512,1.6088303072381702
-152.0,0.636319979687213,-4.942221670996146,-5.578541650683389,2.1575985664161705,3.157787920266494,-5.2150995147169565,0.6617242643499657,-1.836687114869886,-2.0823363481344717,-1.2665730193867843,-1.3900191477715247,-3.650417404026347
-151.0,-6.005012242285032,-9.030052266828937,-3.0250400245439093,7.521775397497229,-1.5163449607078543,-6.057008885963818,6.4491709480298764,-4.099371679784818,-2.7798037704700858,0.8344222602297369,-4.301817474873294,-5.963649543859882
-150.0,-5.506339838807214,-2.6127925292107914,2.8935473095964404,4.067252078905106,-4.2226147486488355,0.11211080968538178,7.379937510133722,-1.3276471278302187,-1.6280472993495918,-2.898975626359375,-3.7192431057761772,-4.365137825947944
-149.0,-4.311780025523623,-2.3067742654288033,2.0050057600948143,3.244423027668363,-3.1770672835208638,-0.10226366733271544,-1.3231318183363743,-1.805440209112847,-3.8632483328006386,-5.483213660421198,-3.0557347244759088,-0.8960308045504912
-148.0,6.042674478726704,10.624083330881927,4.58140885215521,-8.311908532825802,0.793607452074788,7.646484363907872,-6.745237451274245,6.178116094306642,4.269671266836177,4.445228342432615,7.634546468345407,7.9315371474220075
-147.0,6.970466484845422,4.657732225965526,-2.312734258879916,-5.785139747290912,4.626545913811281,1.1299469582401893,-6.400072098261743,1.680159312020002,-0.5566053772427975,0.013907870896277097,1.6666690699252014,-0.4779047387649533
-146.0,1.8755870517110949,0.501154709439704,-1.374432342271388,-1.1533955416818453,1.6080463486990728,-0.48847532694809037,-0.4679962807921103,-3.7528723651116715,-1.1970007196154924,-1.6832753526000754,-1.5464381473354802,1.2504119020324782
-145.0,-3.4168216778349896,-5.187944367906468,-1.7711226900714272,4.261947895918478,-0.8439667149545731,-3.4619643093313557,3.0717407592481205,-0.459989864656262,2.3462925269010304,1.2883638071854397,-0.3825316878109662,-2.9318993130254647
-144.0,-2.7994650346652565,2.382474007347472,5.181939042012846,0.16798383042729848,-4.017022252863253,3.792684019448791,1.5695183814311076,1.2144119147744088,3.2005319241938146,5.554970036489947,0.43723589987406664,2.5482602558930223
-143.0,4.4265480196855655,0.6286455402496112,-3.7979024794358676,-2.4928106294009216,4.160007712139531,-1.5766860380347067,0.17441761474679618,1.32988379389114,-0.31356686686234236,-2.022090393550709,0.553291689073232,-0.17068623759696547
-142.0,-6.4858010967558535,-6.529159050332995,-0.04335795357714134,6.536371641453662,-3.1761994108055323,-3.2748787867411093,5.165976643601383,1.8618047949844765,-0.8931936613042926,-3.088525889938806,-2.6331295629695926,0.504649355664993
-141.0,-11.210423374659133,-10.723880652153467,0.486542722505543,10.910577446553425,-5.882622298865756,-5.098035339820955,5.249117921871209,-6.674141861242315,-5.656324153790677,-5.585745549478194,-2.613384169082961,-4.699200666601619
-140.0,-1.5246015203212346,3.3606941900122145,4.885295710333314,-0.9015424636266833,-3.2377102164034737,4.078071645322931,-7.011982336186199,-4.122684855304862,-0.9437028550475848,2.0770380960367003,-0.1697629889071064,-0.16560428194844468
-139.0,20.57772307165414,15.91344221666428,-4.664280854989935,-18.232134797105974,12.668916561796589,5.67239959034028,-6.406102259403184,5.716099658632322,3.6224210681184354,6.244286957844679,9.342625723442984,6.480605861607273
-138.0,11.91440881939847,4.352851654277477,-7.561557165120929,-8.11984153618471,9.708283088698629,-1.6239834656903005,-0.9210145401227723,7.928967215583697,5.532631525062198,2.591889660640041,0.2143982643276594,-1.0965921983278344
-137.0,2.693638232190513,0.3413699402196291,-2.3522682919707707,-1.5002526570659542,2.49267146186364,-1.0192378422195962,-1.2731086183468214,1.7951371958916145,-0.8633246771601701,-1.5532588242077994,-3.2725642020979095,-2.5561391701822487
-136.0,-19.04682312508001,-12.40886275374569,6.637960371334467,15.671708784399708,-12.796491925911283,-2.8999979709607744,4.7217234565833825,-7.852105544592922,-4.659228719046641,-5.618651254919941,-5.047151592839116,1.3383603323337558
-135.0,-17.74102798229098,-7.253689985213071,10.487337997078043,12.525543080177378,-14.151266072084027,1.5958019223310544,8.719387202087017,-4.8531460822041135,-2.292518077165363,-1.6986685108526602,-2.2014528214216997,-5.774563916997844
-134.0,-4.1421522435391065,-2.0283492417687725,2.113803001770365,3.1176587587364857,-3.0915681227562617,0.09087901489258646,1.12925393631485,0.5921836253775377,1.3872536429359477,3.14556007990144,1.1701300303085749,-1.2641880841009674
-133.0,14.023162834923028,9.341360758975576,-4.681802075947536,-11.726568351712324,9.383303648615449,2.2899460647184373,-5.875612476467909,-0.15270792541620826,-1.222049542014786,-0.6494811184839389,1.3001936920564043,2.3377487907486465
-132.0,20.291350251213863,14.537715757880143,-5.753634493333895,-17.45883883674434,12.969329207479689,4.425134681745816,-7.688532075784677,8.152870199592238,6.2415627656014525,4.130665795016067,4.222257394141916,8.834379456470819
-131.0,-1.4696804852551164,-5.601159204751848,-4.131478719496844,3.5688665128144024,1.3524364976350904,-4.83395881364979,-0.9781356745429739,0.2629466339892148,-0.2273999250081582,2.0884862689341497,5.812166663794751,3.4362789186801552
-130.0,-13.122809944425905,-15.352735858286726,-2.229925913860848,14.270593357416901,-5.505382748983651,-8.833572151183937,7.724919464724763,-7.584845141028712,-4.876938431849466,-7.355344427584304,-5.5505515713798825,-7.865228712560695
-129.0,-0.9953811004176751,7.476468942730841,8.471850043148553,-3.207014672276305,-4.711903534249986,8.017838153039637,-0.5303420362829288,0.7213976766528925,0.3997340650564112,-0.611939961485656,-2.0965902992679113,-2.88872155184351
-128.0,6.376454891008508,4.431452143236637,-1.9450027477717944,-5.447070300611195,4.188919345020375,1.2156674514346784,-2.5810339662555966,7.489406071188629,3.819498720184564,6.036385494280976,0.21018736771657798,1.5085377333844756
-127.0,-3.8484898433396317,-0.8087077924880224,3.039782050851713,2.2881500447539933,-3.405022672464334,1.0934468712852514,-1.0086908956163558,-0.7548613986080084,-0.5636473433130003,-0.8421688416575064,-1.2675147776623672,-0.13219980667735265
-126.0,-7.048479480102842,-8.583457109120808,-1.5349776290179058,7.856198270748056,-2.7826542956768536,-5.0790993153301045,6.474991473807968,-3.5655615328359325,-1.4631498269480154,-2.528262587288485,1.4628758484542028,0.7601009221059718
-125.0,1.123409600399972,-5.381382055983185,-6.504791656383172,2.169162111159592,3.80181495961243,-5.96377212823045,0.06012910687504469,-5.067943062692619,-3.546856519029372,-3.9349454462900484,-2.864336113915323,-4.546719787676666
-124.0,3.7217429707705203,8.259751567314813,4.538008596544091,-6.032085193728426,-0.410315839972033,6.454375650705706,-2.27058487170647,1.0711724615513862,1.7180446207220461,1.44472495052465,-1.3726832369334176,3.1936548725824108
-123.0,4.858875614048104,5.545304139607133,0.6864285255588216,-5.248791529856602,2.0878282885708233,3.1683674317117156,-1.6480185298808225,3.5969146435558272,1.7039418774698747,2.9150375578075867,2.7929190391071788,2.7138478896757783
-122.0,2.2579305536304797,4.887099464160278,2.629168910529621,-3.547411304576121,-0.1878397279259849,3.729133607211508,-0.6968787765336557,2.2405104445883772,-0.11450950243925528,0.7917362962528844,1.4384916258824583,-0.8283775598929424
-121.0,-5.3316888868735335,1.8211357076175516,7.1528245944911815,1.7734706457042322,-6.255271229733891,4.455298292436946,-1.694360185334841,-2.807204042682373,0.9572499701513031,2.6746667218037006,1.5889160307660741,-1.8124729917995195
-120.0,-12.049039467096039,-6.88029767208044,5.1687417950159,9.477569671885027,-8.637225806209011,-0.8906630641741753,1.499616476218697,-6.137763218752203,-3.874575879698992,-3.19335662131496,-3.481367774513374,-0.8487741356136111
-119.0,11.626883489037724,-5.393220577794575,-17.02010406683181,-3.106676014122675,14.35759365810628,-11.166943020721547,0.08770523496077276,8.141901769939906,4.660691179210588,3.3375734583181575,4.13362067153381,5.917824540564786
-118.0,17.34861289575739,0.8762207715868859,-16.47239212417015,-9.102427241302289,16.93085583666779,-7.763340924476987,-0.7907553174129618,7.628921769758501,3.192773185615357,0.45653566491896036,4.190107830530361,0.8742109881407425
-117.0,-10.883288540226594,-6.925327902878897,3.95796063734777,8.837313857062911,-7.408878802202769,-1.5327982922007495,1.588859925231982,-6.274080978300029,-5.726545937856845,-5.0170637522929,-4.220183280667405,-2.9677715046407815
-116.0,-10.367005131140425,1.2784948735342987,11.645500004674489,4.558842158327362,-10.996966400933553,6.4875262103576805,2.228615112385512,-3.9011627043051718,-0.16253638968021855,-4.253095934771738,-4.82534177478558,-3.393064387999858
-115.0,-1.3792807672242242,6.962704684629583,8.34198545185333,-2.7739414619081137,-4.926899943318656,7.5973503398913005,0.16361015242100085,-1.3351136140515716,0.1614921587752156,-0.21214549844437713,-2.5721256504841037,-1.910205936624386
-114.0,-5.3065387816841705,8.694576968361337,14.001115750045013,-1.6731537447304659,-9.633963661577061,11.373271855986614,-1.050101364870883,-4.678180367646467,-6.262525553516439,0.7886230487900047,-2.2697157908090775,-1.325277085481189
-113.0,4.889648029148511,-0.49512252718798777,-5.384770556336805,-2.1735794297073836,5.166792419861465,-2.9090658895844,0.9185605729820485,5.567618340341541,6.839830414417433,9.377629008887679,8.85538692371905,5.5485436091205464
-112.0,14.159086671980301,-8.512228817372486,-22.67131548935278,-2.8758573883937206,18.37631962128638,-15.552521801502971,-5.15095048727369,7.16749852558572,4.770614735778539,-0.1391623688838557,0.7020438307248917,0.15353983111680103
-111.0,-4.409990959658977,-4.974773800876193,-0.5647828412168536,4.642870157038777,-1.8733352706967459,-2.800052130056681,1.2773261629040702,-4.916199918246202,-0.48248623411691227,-0.9045503005894784,1.1035513954836067,-2.611118492175652
-110.0,-7.7748074172162145,2.170239913653419,9.945047330870151,2.835413185224371,-8.881860819600924,6.034851384011787,2.782962720494214,-4.46757821559443,-3.6519201499584018,-2.3319751399819726,-0.4900773238513393,1.3629105201997036
-109.0,8.630059700684402,6.54845660824982,-2.0816030924342397,-7.550800374995702,5.339231213377815,2.2142385001623333,-2.1428709892273208,0.7044864738591343,-3.146996195223135,-3.6998071562173473,-6.391694404409973,-0.828596026355226
-108.0,0.5912079208817305,-1.198910756548178,-1.7901186774297175,0.3486949807969262,1.1774355894964903,-1.514811647222401,0.5484815791503618,4.802388837093081,-0.19448634695167666,-1.1227031352439893,-0.7022244923472112,4.8500712026453705
-107.0,-4.031409093800011,-3.964440795750339,0.066968298049488,3.9700196106762258,-2.060354506865348,-1.8954258357531035,2.606255634854435,3.733608332227155,2.4611473754289386,1.7982557330511422,5.3827037082456055,5.306354770122865
-106.0,-0.6510979406890298,0.9024663960889918,1.5535643367776257,-0.1499879009334153,-1.0334010093061807,1.1951471380996437,-3.737718372305467,-1.5162909908914433,0.07226095546169975,-1.006950233237999,1.4809013882729638,-3.8748627348276568
-105.0,-4.101519345855256,4.029518025557136,8.13103737141206,0.011313922447600655,-6.125393353000892,6.118485283723709,1.5916200687940825,-3.022826074356636,1.2780526636056433,4.996685698404724,1.8280557054098874,-4.463871527792035
-104.0,-3.7765947384928897,1.4616213530861866,5.2382160915789076,1.1281795508763102,-4.5170459096061375,3.3818734571196236,2.221848812815105,-4.984480181757812,2.0781565830507622,3.841073951478255,-1.1507039256052154,-7.343455791870293
-103.0,3.2807803795257806,-0.7743067923991784,-4.055087171924987,-1.211329178934656,3.6556165392909983,-2.465301105836751,-1.6074554332677082,-2.199847521556255,-2.2042943311096215,-3.879986678838977,-9.717420389169956,-8.996944434641453
-102.0,11.451247428831385,-0.5114194643783059,-11.962666893209608,-5.436103972218951,11.689181711212465,-6.288537430348036,-4.7083700656430825,3.697879004544046,-2.251376327143496,-7.4342446473973025,-3.044061881624198,4.337550466117019
-101.0,-7.512777020032879,-7.961641318916902,-0.4488642988837901,7.685994447290728,-3.5578023962499548,-4.175871936400129,3.3649704333817874,1.2719740371558912,-3.3858190918332225,0.24862849310155077,1.7093178129072664,11.812949095859747
-100.0,-2.5834291276054753,-2.6826068217056265,-0.09917769409989075,2.657577558127695,-1.198856068592462,-1.356685294730029,5.079140168163742,2.0029646655487836,4.518182642169611,6.2317248168736175,12.960998510055518,13.081962794608945
-99.0,6.057857355975969,4.863508340836605,-1.1943490151392067,-5.435743381912956,3.65974486124047,1.875405881426612,-4.5947760047749995,3.5810759985256517,3.5425555325531595,2.922364134492354,4.321898470332468,1.8502306041481518
-98.0,-1.3063773817154691,1.5134344536597504,2.819811835375199,-0.07613350109152117,-2.1162625874676193,2.1356244857047493,0.9106811830093764,-0.07590796033954339,-1.2715227268057228,-1.8630911744764327,-3.1212371943540926,-8.402877896285858
-97.0,-2.1224164934958836,0.45392022776335317,2.576336721258865,0.7854653409406391,-2.3291318335645466,1.48974785450336,0.7601233164125278,-4.5776638134740315,-3.4993129969494996,-5.831824916818928,-9.362669828144575,-15.70089549155478
-96.0,1.755581383303237,1.6197271715568773,-0.13585421174671186,-1.7354022345648086,0.9639323909085105,0.7198403310968868,-4.535413454463317,1.015927938721826,0.7708027614464072,4.056946857920022,-1.972295199199622,0.25133168345727874
-95.0,-0.7154582501878402,-1.1661821135591695,-0.4507238633714819,0.9708098054766037,-0.19162103988305704,-0.8295585985582757,2.5393869108589495,0.06700510711968599,2.7619321028750057,-0.6433658415942402,5.00281919287813,8.268526625749566
-94.0,-3.879688932314842,3.6747739610500454,7.554462893365024,0.13026422702365337,-5.693551120681448,5.671932648208774,4.09922122478005,-0.5975226697810408,0.12510549496289125,-0.3728666632881919,1.6958558439615377,4.045776075672707
-93.0,-6.977292116328447,2.6250523843462568,9.602344500675095,2.1236180251927497,-8.260660317011233,6.091823761363648,1.0577603244987754,-4.625025766739793,-4.281116404635856,-2.2116084573586847,0.707045052436778,-1.2879312867068684
-92.0,4.809277108346265,4.048901627114276,-0.760375481231563,-4.401983202661905,2.819577593648595,1.701228033647982,-5.928338410155003,-0.49961076568219187,-2.383627145769347,2.639913527080094,-1.3787425646538618,-4.06759652181019
-91.0,12.47860188114091,-4.756682998532849,-17.235284879673543,-3.8297322275267227,14.816687858097772,-11.017501865704688,-4.3628436448434424,3.028687186312044,4.733301430580677,5.31109750713459,0.7801747423943809,-0.49868220254557205
-90.0,10.187049835077586,-5.79659772307347,-15.983647558151192,-2.1572556654470536,13.045634367610239,-10.912298331194425,-2.1381729034352817,4.280769338216784,2.174559229861345,-1.1895069074110207,-5.532885113570581,-4.1746209813218496
-89.0,-19.778027164009295,-8.647282411613093,11.130744752395723,14.179278746616884,-15.41826306431708,1.2168516798693991,5.984852513239432,-3.8679430164986073,-4.380973863218671,-4.447273559590874,-5.901527322284317,1.8421284058359284
-88.0,-8.873899476802027,-3.1463630516358507,5.72753642516556,5.982413756811449,-7.3486177794835195,1.3393665707910065,6.802967827392486,2.7069081994620907,2.7207705948124454,-2.842337478122972,1.3666956367896606,3.5731916441359566
-87.0,13.629167240450101,12.127819786775124,-1.5013474536755735,-12.903982612704155,7.590538940938708,5.276674864516106,-0.6396256893636512,4.054774165985883,-0.4979846218859905,-2.2681808943706785,6.047163117043377,4.782323309010147
-86.0,1.4153406135710354,-1.1375633588586433,-2.5529039724298874,-0.16575269196222386,2.0057089750771295,-1.8878943795150587,1.6939639652682636,1.2929181692264762,-0.43947715790176817,-2.4131163842679255,2.6878616358813083,-1.1160086315727895
-85.0,-11.709305696111981,-1.7334469202602714,9.975858775852045,6.769581319820044,-10.82147654437661,4.154099858119368,-1.6075919904852052,-5.871078267639014,1.6464941375517643,7.712911275789135,8.69233377676699,2.9363199447831105
-84.0,2.5328745117903404,2.7549469431771056,0.22207243138753796,-2.599734454351313,1.1792286851885083,1.5229019232452328,-4.444916427603728,-4.4070885797543635,1.6920692301237663,4.28894283153296,5.190988961498225,-0.4584044670570384
-83.0,3.5358720699927044,7.184803572642799,3.6489315026508184,-5.397715098977475,-0.1067246567443629,5.457661130905889,-0.44732023631244866,-5.419346830086658,-4.899335808678789,0.45490833351734383,-9.298235346349967,-2.6652610787611946
-82.0,5.238430002711802,2.6915168632248934,-2.546913139486477,-3.9246612708406214,3.8475487522362948,0.043945813312783744,-6.192943266154599,3.624214831241776,-1.5869852943913918,0.29583743685489683,-7.790831922428686,-6.610022247518821
-81.0,7.469408248377492,-7.001132938355649,-14.470541186733131,-0.2724375207438543,11.007718718356312,-10.754439061450917,0.12846283069763675,12.329518340127812,5.746240607279214,-0.5037692731361698,-1.8060176758656832,-4.922589355231094
-80.0,-4.056743944836151,-5.274986770997965,-1.2182428261620961,4.627803718432819,-1.3788019063313808,-3.258451369418486,3.303563244736223,-2.8763961947332737,-3.4604140379115798,-5.033071497660074,-5.318478048413489,1.5746276304691706
-79.0,-25.787183260631412,-0.6368009226270166,25.150382338003883,13.252008820511437,-25.50538732474686,12.246788129563729,9.262233699888457,-8.330860372186052,-1.4517346849657906,-1.7037188461296435,4.315138641276318,9.588068112883375
-78.0,12.225448175098638,7.3742346875361955,-4.851213487562898,-9.761868975871504,8.50338431950399,1.2483941138506158,-3.883722079575624,6.4876077698168,2.7704228733997045,-0.4803315334648821,3.2359529631072106,0.04536583513252346
-77.0,23.798997851506044,2.008792306741614,-21.790205544764607,-12.947818989339325,22.841105640983656,-9.91012829315055,-3.9969768955856146,1.7514481960263808,2.801959751659155,0.6732677779187425,6.778725144731597,-0.716179816945949
-76.0,-7.53541148346474,-8.804338460473929,-1.2689269770089027,8.122656912395843,-3.16107869588207,-4.984200838836866,5.0720819402514055,-4.732749473334728,-1.0679093715043302,2.2483022279848646,1.8925380424054907,2.532421414206953
-75.0,-10.105079278958359,-12.295382303766601,-2.1903030248077116,11.229657782809538,-3.9005643435795356,-7.195699508307741,0.06668071574699723,1.6394956513391725,-0.4090202453936672,-0.5654342928724199,-7.259948412932443,-1.9780451065192055
-74.0,-2.688056269268643,8.20568346746855,10.893739736737574,-2.7291574816174364,-6.806646865318441,9.515281139116327,-3.11507394196452,3.7078794319712185,0.9203519566599019,-1.240767426722434,0.4381130981178534,0.9713696216777996
-73.0,-10.334927390256327,10.128225765520948,20.463153155777317,0.13586601169222723,-15.410262425103296,15.260217146128088,-1.6995682933992047,-11.021401626899781,-10.213682975778948,-0.26946962587588996,-3.261392438153396,-7.043122222319839
-72.0,-3.1024941382566826,4.560414016639245,7.6629081548956925,-0.7705921662998114,-5.392895727609966,6.153992486828684,1.998632134667236,-1.9080938308337827,0.7403787960304515,1.0589941340063547,1.0595250054388883,-3.4663573270178523
-71.0,11.703040799605194,1.681441656402185,-10.021599143203375,-6.650550931875876,10.848701149720702,-4.209133909543015,1.478769258059649,3.711889320840625,4.673574384402065,2.0374075717963724,3.935611205238236,5.0163133283742525
-70.0,17.326899928519634,-5.466508576898276,-22.793408505418036,-5.9645225312069226,20.03908835856138,-14.095635039439378,-5.868394320961747,9.998054757929728,5.1523094914557515,2.1077343063133354,1.9732877426969322,5.079812024694641
-69.0,6.19021955547066,-1.555411390626051,-7.745630946096643,-2.351705676665654,7.015846439452622,-4.702857549362453,-0.046118366850175674,1.0499468901187408,3.2745709400816034,-0.09507094037960181,-0.87054359391872,3.089455078446443
-68.0,-11.70432466876305,-11.8415227567978,-0.1371980880346202,11.736566532924709,-5.824134836065133,-5.97193296927909,4.59971447344532,-1.6910949784734133,-0.011536528652965616,-1.9163890711329583,-5.032518105221633,-7.132851523736976
-67.0,-11.48259910072924,-1.6301394620227443,9.852459638706515,6.596493620862846,-10.637003170767915,4.120794139531066,3.9847941688057027,-1.7197947232598034,-1.2531757374115589,-0.5916162979367976,-0.43428046800717235,-1.6616172497706727
-66.0,4.113717218176866,7.517432780504365,3.403715562327278,-5.775826671645258,0.38102692762367774,5.465887591342343,-3.074161251557044,-3.6135658928604903,-6.3538908837338886,-3.271353610148913,2.435108155375188,1.7318723890383674
-65.0,-5.019116695004481,9.62892441319018,14.648041108194391,-2.2624964410512267,-9.80910311308537,12.144408753393595,-2.9578561135762556,-3.3261370730933093,-5.248390459846439,1.0353073625791072,4.255425076687393,3.3116207984836192
-64.0,-6.6003401465595495,6.2777930742889705,12.878133220848362,0.13014482681812023,-9.793224215034257,9.589546239179516,-1.4413313062779987,-1.5592011682880103,0.39420800407282375,1.8788856900663917,0.7139443286768292,1.2615888935743347
-63.0,10.189178532013901,-4.663068377919975,-14.852246909933825,-2.7882401389463007,12.4675769624494,-9.736627478252295,1.6671587195789523,0.8352094565446462,2.679497576352553,1.107093872665215,-6.09709075324124,-4.318486807253953
-62.0,7.293466353330639,-10.191272410515596,-17.484738763846025,1.428217921525481,12.415364832801545,-13.884623718220004,2.926663934953264,6.850284157152952,6.229410544211312,-0.8606738113980514,-2.755983831342781,0.4743344102867828
-61.0,2.1447648229548557,-11.633465611580203,-13.778230434534825,4.725275916094111,7.9880898569250345,-12.741985712262684,2.5319949654085705,3.641368599451295,2.766707346571223,-1.4676780601107466,-1.065105992870013,1.3654406611352061
-60.0,-2.2444524367528387,4.554366129642803,6.798818566395781,-1.0966984271679354,-4.494840226089002,5.727269460729078,-0.5037990213800244,-1.3616920819653524,-3.373530706119984,-1.3006506519458774,5.476718897543849,-0.4314765188002232
-59.0,-6.419420048844831,7.44865384841197,13.868073897256844,-0.5384800908503862,-10.116800275021955,10.634869794858151,-3.3542186803128327,-3.624825175150609,-1.1170458840786215,-1.3676634722854963,0.5553527727408052,-5.24088188347158
-58.0,-3.076856333588154,9.928573491937318,13.005429825525432,-3.4533382726175805,-8.092950053122975,11.52290946107298,-5.395727459201606,-3.970841173360534,-0.9442874028045332,5.111958968685028,4.087560313600636,1.6919225767798551
-57.0,-5.5489075127616365,3.8968560250805764,9.445763537842101,0.8750431223500355,-7.549257545986447,6.645221712379398,1.0063852073274346,-1.5861444694986377,-2.5064858301421205,-0.5026163819911109,-3.016456272934046,3.295312650916066
-56.0,1.0765679398848385,-3.02872994957355,-4.1052978894585115,0.9463273417617393,2.618061519792665,-3.59974838595694,4.970458399140479,0.3073070898523038,1.196235924554442,1.8950473070425655,-0.7501132484267492,3.1326180198679565
-55.0,15.636357459530185,-6.5046205178294,-22.14097797735967,-4.51487659394008,18.917468489656596,-14.285737345468574,0.7817479156855089,6.653569437893858,1.943261336919754,-0.8329823416313318,-3.5104899405303716,-2.1099679608421162
-54.0,4.279845687239505,-5.593403650904974,-9.873249338144523,0.6318219141066096,7.109304956048207,-7.78454756593118,-4.998755216338187,1.4647653486718974,-1.842298773393438,-2.5563134899520614,-0.17971185431079162,-0.2863290327604616
-53.0,-7.347259167044509,-8.019646232160733,-0.6723870651162231,7.6604000091077955,-3.3768611700531137,-4.326487000603425,3.6725733070077418,-1.0685961406896718,1.4700758514844567,-0.28462312938100687,1.814412450025813,1.1445508718700463
-52.0,-8.054001481721004,-5.7531603165536955,2.3008411651673515,6.880037169123021,-5.208195353476711,-1.7111455054119262,3.596811259688036,-2.2378493298122235,-0.33908406562705473,-2.554011604709359,-0.5065516061206043,-3.505564990982891
-51.0,-4.204128290090035,12.885939773939281,17.09006806402934,-4.289329372278516,-10.589685985184547,15.003130632135477,-0.24056667617627792,0.8173017971085323,2.1615873192361175,6.100758124334412,7.073203322900427,2.445758197179988
-50.0,11.539046003329577,13.456678285255377,1.9176322819257976,-12.531600601222026,4.797826903851521,7.706944381212662,-1.3536622635353597,-1.2832450694614557,-0.2425723152841981,-0.31864982659262187,-0.2492533637779042,0.6608400422848455
-49.0,6.834502853981876,2.072814703132078,-4.761688150849823,-4.4171467884120545,5.790895567886248,-1.3954372919578004,-4.218844558887415,-0.5768040979014821,-1.1725932538574284,-4.507253642660602,-10.949744264686633,-7.682368125113495
-48.0,-7.219944030930929,-3.0922567556093994,4.127687275321474,5.104880377233483,-5.679449811248771,0.5548079632505908,-3.3587997887645327,-1.451602753768988,-2.3536643366971273,-1.1216307107462886,-1.1894576562822148,-0.9745897069386062
-47.0,-11.13953319346377,4.0033265611517885,15.142859754615468,3.5876561548355577,-13.149799005729651,9.540296882200245,2.693179596970225,-0.17468112286637585,2.056039519800171,2.904368214824245,7.44601202696393,10.442810525061532
-46.0,-7.297719485794223,-16.728751233080907,-9.431031747286829,12.026914151161202,1.0512750446791999,-13.105546843005168,3.6305957366369404,-0.24539629048950884,-0.3192335005808976,3.6157332422208612,2.9357985349788653,1.490193523350627
-45.0,15.218694853023873,-4.012061491614314,-19.23075634463839,-5.593027622380798,17.279259903919762,-11.563290278160096,-0.8493305178783572,6.067713606969396,0.5610966622856007,0.008773605163646891,1.735181961140303,-2.3528500884952543
-44.0,7.592364207675492,-0.05798268606186774,-7.650346893737568,-3.758205968510779,7.588617580574025,-3.871615071175925,1.5059713483598156,-0.8268429718547909,-0.06326739594370412,-2.676490495669661,-3.7794489802685294,-2.9765536025583597
-43.0,0.09419092076538327,3.5251941807330067,3.43100325996749,-1.800789431880652,-1.7069512611690527,3.462536049526212,0.2981029387238745,-2.723681131998852,-2.3132804920857577,-2.7298741365432715,-0.32751069079321593,2.1414624481821942
-42.0,-2.610552073550776,4.533716247374333,7.144268320925113,-1.0310176367114514,-4.838475607343106,5.824430666992292,-3.525177921462843,-2.0863348034576226,-4.007389264386264,-4.372084719867323,-7.343399458056191,-0.8517983319311961
-41.0,-6.576154425709143,2.19850209739018,8.77465652309941,2.1989974561178003,-7.632500145384029,5.5508474143101365,0.9380017444736939,-1.8868051157379067,1.690028943227445,-0.2210326929806259,-1.529762073374322,-3.9422505973489326
-40.0,1.559881716700711,5.916879043075259,4.356997326374692,-3.7261440306630167,-1.4258839800508722,5.121060902076924,0.8868837487466268,7.161386905080358,6.7200960981193605,7.747705827357043,5.370307398565997,-0.8260551359791999
-39.0,-4.1091261291695735,-8.165374312539544,-4.056248183369785,6.153909652740892,-0.042638499746578074,-6.130404135047285,3.0245345319827948,-1.102914522332671,3.915706251296169,5.038607210632513,5.089513094268969,2.01323559555848
-38.0,-0.7440106027655071,-5.40774748729743,-4.663736884531765,3.1001175000556893,1.9547749965026657,-5.062019669791578,-2.305683992349513,-0.8313529793053533,-2.4379631141868865,-0.9400089758368102,-0.6349116593958399,-0.9738835871729563
-37.0,6.078596814363276,6.92634487505716,0.8477480606939416,-6.546429299137639,2.6188456235013504,3.929921739126688,-2.9719063527132232,2.6056554972716746,0.10645651390598454,0.8031770638390989,2.77584678290455,6.053022886596329
-36.0,4.350080253922756,8.383469428078836,4.033389174155911,-6.319815531785479,0.16572163170896737,6.161047389116988,-1.909385056827145,-4.4240443949018236,-2.3420360115088825,-2.7585164856602233,-2.626960626041773,-0.14525364572255972
-35.0,-0.036190035178027546,2.4812849800304475,2.517475015208211,-1.2427984989200924,-1.2710178522306168,2.5191170899652846,-1.42932325422303,-3.8609039209386666,-3.8392183554890367,-3.5842858112350138,-0.8884709841711,-0.36411949453901066
-34.0,-11.363018690841194,-9.994070721166798,1.3689479696741647,10.66672017787736,-6.367069741741125,-4.302509706668781,5.9556263932224205,-0.5644292804738118,-2.759807930480428,-5.657008311595121,-0.5525584618647006,0.9348124274060898
-33.0,3.619619123385962,-5.394457463216466,-9.014076586602496,0.8789225359539254,6.304820387007536,-7.2002365517318605,1.170796310341982,2.9957181273538236,-2.6555467605248,-5.491888374819584,-12.133197884229213,-8.517875452851317
-32.0,1.4799032956102198,-1.2170929753172137,-2.696996270927429,-0.1425747465536753,2.0636602473383876,-1.9545176213190625,1.6555120920863708,5.993183448706427,3.3835316843784216,8.373821555543657,9.75863087189704,1.8699321587416629
-31.0,-1.7271673287499099,-8.424373984610915,-6.6972066558610415,5.135115948256184,2.527079034004472,-7.555451917064122,1.2329771087596866,-0.6382751522035295,4.118698317952838,4.503875218093786,5.095531177589763,2.444484107285404
-30.0,2.670783571775102,-4.287796700271832,-6.958580272047066,0.7770124825071301,4.769398015627226,-5.6117900830679,-1.6880461085268155,-2.124471624731761,2.938327798922357,2.0401012471198188,-1.2521987274547413,-0.6412294052864886
-29.0,5.042071418990768,13.203885598490187,8.161814179499258,-9.167750176528614,-1.530257009338671,10.623343172729683,-1.0227116387866515,-1.8560564293907325,1.8971816264457062,-0.958883506893315,-2.612234559423164,2.8413803935188855
-28.0,10.088555779152516,20.776811854128287,10.688256074975744,-15.410057684237197,-0.26949290167477935,15.760054044900906,-11.573027216911273,2.513308890008217,0.8958430314405532,-0.24316071455648547,-1.2446419294436677,1.920135854049213
-27.0,-15.937403523702475,-1.899886812975998,14.037516710726553,8.934691464572893,-14.953533553223451,6.104126601348561,8.004698666804481,-0.008246942028682008,1.6194440086077522,0.055087759734243846,-1.3741351295129598,-5.223168719622018
-26.0,-12.595137344530798,-9.073772901826572,3.5213644427042508,10.850476923615103,-8.09940535630825,-2.8127635519715715,2.614379745292263,-1.1936543066086238,-4.935475395109742,1.2018228365088728,4.277685671089826,-1.9636947064885046
-25.0,3.9609378635470245,-3.752561151102948,-7.71349901465,-0.0814946930529965,5.797342828196088,-5.763723012406514,2.3774546799589524,-3.3170756930597856,-7.30748453419065,1.050111162853193,5.469502467473815,0.32274938261854125
-24.0,2.0195963250341222,-11.591475961655394,-13.611072286689541,4.7416770966948025,7.773254155639968,-12.548425949513078,-0.23114272655967572,-1.5625392676561864,-5.723512730374267,-6.1007931504784185,-2.8795866358119167,3.2392029119727614
-23.0,16.77130503773722,7.188533912472458,-9.582771125264724,-12.010101495685571,13.208770820259927,-1.2196496838589734,-9.31654387787601,-0.40949054640067184,-2.304308370456414,-1.8461091786998463,1.8682452360521014,11.504086773516482
-22.0,5.483538864651645,18.98144925603485,13.497910391383192,-12.170906102035982,-3.9810864611174352,16.297048205810317,-6.5703332779335435,-0.5084355920430128,7.350823485365329,2.7153304437598167,-5.043562748690154,0.9475535935584856
-21.0,-7.839406360631925,-6.876873500091385,0.9625328605404881,7.349847788266679,-4.379102737851246,-2.980696130312359,6.421609273155782,7.159470723097385,8.241056375684602,-3.043559213646679,-9.256395020728162,-10.574983409567693
-20.0,-5.250940626459618,-10.28818899040138,-5.037248363941795,7.763848396471361,-0.08678849523963184,-7.6924454260411315,10.291050155554073,4.657472171210689,8.763636840547344,1.5924945046633276,-4.28219564367089,-12.144717746919946
-19.0,-16.685141024989136,-21.96024786784813,-5.275106842859017,19.312634215810252,-5.684780689410925,-13.657416048479366,13.122638660931809,0.4025865603611787,-0.16669079640790052,-7.555079629102414,-8.566701582986965,-13.171483756817159
-18.0,3.0305119553707245,-0.7108984231899838,-3.7414103785607153,-1.1799116667108116,3.3282680140435277,-2.199358133857615,-2.002248015177046,-3.783284745428662,-5.770695004239514,0.35858607327154735,13.573654707106682,9.674855994218628
-17.0,2.5692042249116045,5.78795434809564,3.2187501231840097,-4.211535703493798,-0.38219300969384973,4.518394142713486,-4.7076923350319,-2.765634686133572,-7.446781809340541,9.38146996322434,17.70516051795232,13.880536138496502
-16.0,13.057805129208846,14.538150404016278,1.4803452748074108,-13.764085071918075,5.809608909708431,8.015842252216899,-11.141378927720861,-2.380170442756469,0.04111146844660851,8.047086496093183,3.9115174968613013,5.538429096080578
-15.0,13.285180268746958,30.44973211028246,17.164551841535488,-21.841180471669198,-1.919083729781974,23.810610499473665,-13.440919824322336,-1.1801271907599324,-0.3234548220798832,9.653443566820592,5.443963477118519,12.800658021313291
-14.0,2.245468170289274,16.313044605190097,14.067576434900833,-9.254653387191244,-5.889321693773985,15.196461837185948,-11.649521668060208,1.193361317788872,0.9998335401655463,3.850572484538505,1.9923211072230131,8.066523695892586
-13.0,-19.492563843274354,-16.814628185621576,2.677935657652805,18.181875889691906,-11.06039613462274,-7.0548768335268734,8.76828767051895,-7.07442241505689,-7.269672477553792,-18.751382831085756,-14.182074581765658,-13.139258449323398
-12.0,-7.223657311086299,-22.566162871445226,-15.342505560358912,14.851053240420232,4.088798335526484,-19.010082695046382,14.175980860873626,6.502361876843981,2.7172791501871143,-12.021126133451402,-10.027927670172007,-9.907108601045351
-11.0,-5.323983900423493,-33.407239414930466,-28.083255514506906,19.328330025171766,11.334722840814724,-30.713417935874794,16.54002764421044,1.691504160118161,-2.9274797104633135,-13.002302966977405,-25.33634622013093,-30.098945051465293
-10.0,-1.160271662282372,-2.6022599785934677,-1.4419883163110487,1.848383452978032,0.0989788870787196,-1.9847567439945095,8.20941397879332,-0.0769346267807669,7.157860018589225,5.419697538765928,1.8350523019726,-0.05005495343599442
-9.0,11.97875339518019,4.460591698408376,-7.5181616967717595,-8.17210129615367,9.707844635511565,-1.5694644287690078,-6.196801823693054,7.298388336180784,11.931057756463927,11.189765207606074,8.262346687036782,5.713170500097714
-8.0,12.058451671219622,15.293798332627153,3.2353466614075717,-13.707389450947879,4.450151036596679,9.219711930909245,-8.940735384205194,10.764957351365473,14.45482673996647,22.647105916673706,30.066838986393705,22.016514661324095
-7.0,9.130476488053633,29.96275479932186,20.832278311268254,-19.499604705852615,-5.811015258031276,25.42382726076623,-19.583997387114984,-4.339619869309592,-9.110318832957109,3.864260453083933,16.455735487123537,22.51915238879335
-6.0,-9.85208019118019,14.651482535301994,24.5035627264821,-2.3527050023818212,-17.13461452667412,19.59539704247335,-4.740127533400434,-18.92711888829635,-25.3913579241711,-17.83587502274031,-13.035455008689407,-1.89990078301844
-5.0,-9.822392642228632,-12.678583954484854,-2.856191312256497,11.218939177446792,-3.5132955093915843,-7.756095003756613,7.125030104077294,-9.870958146855246,-10.84562803585769,-11.389358643398813,-13.925216441307098,-11.449152256427862
-4.0,-23.588267751106777,-25.642217033398605,-2.0539492822921774,24.58302340043521,-10.791200537933062,-13.83952624178514,19.341025298663823,0.6411750544231625,7.842287481914065,0.5335222717337036,-6.30282689647058,-10.067149967127158
-3.0,9.037904436822428,-7.199067849508488,-16.23697228633099,-0.954356753979912,12.61861653911587,-11.707588410682103,-2.2798218581057235,11.265513565193663,8.801589130737243,0.8165953650325378,-5.80804772963129,-8.804920062451599
-2.0,20.316515862215656,5.595664421618466,-14.720851440597317,-12.917537910544077,17.502755383797048,-4.6248705290646175,-2.5393263203439322,9.97898538641044,8.970605213443406,3.720599373295694,-4.308622921335981,-6.816217034195994
-1.0,3.852529041595389,4.1748168497605445,0.3222878081652194,-3.9823983686694517,1.8280033569926069,2.2739636916543944,-3.400965252495166,2.4469724933791195,1.075417631793611,4.601222186462066,8.242922677940397,2.36801792541853
0.0,-5.463248602491981,5.815136326317884,11.278384928810029,-0.2313475470239199,-8.389012354767596,8.582375359259338,-3.9114984631694103,-6.728321823851183,-5.641731313865632,4.399406026180605,14.241559599789465,16.71880761427131
1.0,5.6924705410532965,9.662351541179648,3.969881000126498,-7.660880060717137,0.8395212826041463,6.782818164398256,-6.393339751170723,-2.576436139715156,-2.2400143507967787,-1.6690585547684376,4.764732593691587,10.361506989623166
2.0,-11.152751427851028,-16.75554416498892,-5.602792737137792,13.966610359245724,-2.8001315013742163,-11.204380988675231,8.667379952920047,0.40949305835917515,4.464393552509053,-1.5319458094495049,-11.836221538918068,-17.862052444751924
3.0,-9.926412906076699,-18.388543843336837,-8.462130937259834,14.169665040645,-0.6804249321962095,-13.366446051465216,13.338857376832586,7.101405071134751,9.555284312638001,-0.36289230918571214,-16.22235774313731,-18.993439750250204
4.0,10.72638746002918,13.538766797518868,2.812379337490045,-12.116671152089667,3.930249191548981,8.157850591500093,-4.574922276219431,3.051403482514544,-0.8696691331749669,0.2197327554167292,7.670801842791056,11.165570512064324
5.0,5.772157824204429,21.62964435958552,15.857486535381335,-13.756622300142347,-4.988523087371576,18.7248069853369,-6.6433786080107655,-13.17291870646359,-17.23997533634954,-12.177984666039055,11.115399164041946,28.61075670984591
6.0,-8.787950138600586,16.292784641587165,25.080734780187687,-3.7199531900602283,-16.95611959637633,20.66435830565336,-10.16586126458655,-16.802338188774158,-17.315246167694102,-2.2273924150376043,17.22564673711883,21.21257049901471
7.0,6.308114796883592,-8.554287704041915,-14.862402500925628,1.0872992165895483,10.565462328079732,-11.657275405533012,-1.516699225535998,8.732483289607098,9.674278472043948,15.731391379476406,0.8324850665429928,-10.388092565340864
8.0,8.482352411006849,-20.173390363395963,-28.65574277440303,5.898852055886657,18.54926125245147,-24.448031151703322,1.9540546956084008,19.713346354666527,18.715567946746997,9.380543501794628,-11.75682672828966,-29.962662872487776
9.0,-5.042892734243419,-25.096048273710164,-20.053155539466978,15.053242076045194,7.483269164180022,-22.53460751619664,11.892467976087111,10.838851699756553,11.602798943498268,-5.503150309850354,-17.635779582835237,-25.87827744899156
10.0,-10.99643909742555,4.231025186026168,15.227464283451665,3.373626535248815,-13.058269386432265,9.686366518675985,4.740986569054632,-12.129701041172147,-11.158255309408965,-10.987243842266325,-12.45596290349842,-2.2026006019159077
11.0,-8.337658393748967,9.031849691086217,17.36950808483525,-0.3516346897464353,-12.881435635928543,13.233921367901553,1.7679480099019922,-17.771502331132076,-15.690757435208257,-8.097158447124102,1.6531485628529161,15.389825198461425
12.0,-1.1571118179053945,12.45694663814886,13.614058456054366,-5.652715138751514,-7.3356275974042475,12.988914409521188,-1.0850639791812564,-1.6680157382138123,1.8618082823841249,8.512196997550488,14.30942835511027,21.27356581379687
13.0,22.66045602613214,17.063993311437056,-5.596462714694922,-19.86594670029388,14.101294759671175,5.766269297452473,-13.846572626641116,2.508751862027675,-0.21505009098785788,0.48838513914663917,4.288207092369774,8.274075946557058
14.0,-0.8522118232679698,4.56915258327704,5.421364406545184,-1.86551349095034,-3.159946511122663,5.029272829964787,-3.1726721301708505,7.112069222130202,5.548189433945377,1.9429830020412675,3.857522778922183,-4.543899136505933
15.0,3.0579979721569965,-5.979510978047617,-9.037508950204401,1.5269245994996958,6.029981764682763,-7.550896431169428,-5.031490596245476,14.318037067816658,15.06511742577861,2.3777819799784417,5.957443446525937,-7.139265692052179
16.0,2.8774085809662537,-15.362790383195852,-18.24019896416191,6.22238913503334,10.62499479725732,-16.841015557993117,3.3729862764305363,11.174326338107315,11.299049024478927,8.519470561831486,4.2565759156644605,-0.6913546849659511
17.0,-4.803320596780917,-20.262279795816234,-15.458959199035192,12.50273417941041,5.318510778968906,-17.81827963896226,13.693003965238027,4.875864781552274,5.140127589021033,6.671847089882464,0.7639778853257901,-0.9188369497822495
18.0,-16.130007197694418,-2.1888391795142823,13.941168018180154,9.118194226377948,-15.045171096054242,5.921579348436429,12.473767546450274,-23.988926612708326,-24.532687520708382,-10.479882496282901,-7.937075061486141,0.5692575975374057
19.0,-8.238978610845113,9.987723808291838,18.22670241913683,-0.8480381840274633,-13.246954904270387,14.076540295224872,-2.6472786975074394,-24.334420119143342,-29.84095856218269,-21.103449002709212,-18.6720584040356,-6.131985801038633
20.0,-1.61840170907863,11.033621125146707,12.652022834225132,-4.690635715315068,-7.157478748081179,11.813967248218859,-4.4955612749703695,-7.481326992535796,-9.460607846309978,-5.642946463685499,-6.857207892832296,-5.361513312776071
21.0,14.556327144189275,6.012547776788216,-8.543779367401207,-10.273331340297148,11.518098432045008,-1.2938172740778162,-9.145442096616996,11.365491369552725,14.537435065609317,10.838743632204942,3.7847904270156323,2.36733857277735
22.0,6.809736393650814,4.9773371084251545,-1.8323992852258186,-5.883995673823776,4.359578857451617,1.6223989269079535,-10.704394336057192,11.331246422047641,19.0037691896906,11.047886033611732,14.201507256852643,4.412092170721195
23.0,7.865287003345479,7.244352251995118,-0.6209347513504282,-7.542876775319353,4.277413557801497,3.359803284980279,-8.329299313601592,13.854452595134616,16.68669562421107,11.798594855255699,12.12982460725482,7.672663796749081
24.0,-10.449015064767103,-4.023448509694192,6.425566555072923,7.17452983842489,-8.40184596030047,1.1675152070462396,8.066849193254258,0.5803654185863358,2.2800635338857553,-1.568000552723193,-1.034522226991097,2.9183592759468517
25.0,2.1042070865763396,-9.322589180624563,-11.426796267200748,3.6324007755502414,6.728035682282796,-10.411776746034391,11.224484168907477,2.2440462360108007,-6.164981797563993,-12.306246366314117,-7.975210610407424,-2.9578203533391614
26.0,3.7252674876607186,-12.625821527842007,-16.3510890155025,4.479223512895336,10.008991957434201,-14.52889435551987,9.458375723106585,-2.574749389311232,-9.574588794495362,-8.51763494688169,-4.17846692624919,-7.670510020061603
27.0,-7.534411529744054,-11.772377295939098,-4.237965766194915,9.60791803596556,-1.6696225436164298,-7.968832421944544,2.188711326874359,-6.22954878709371,-7.00216109786872,3.068693736733686,2.2773684749489664,3.4057335808608817
28.0,7.815957619008904,3.4479072517632563,-4.368050367245628,-5.59615376196398,6.1540366870202,-0.4232830597490256,-7.191443729543428,3.8851536046216424,1.9474006933148251,6.106455773203179,2.3915506516702543,2.60813583338153
29.0,-7.1102828212023725,13.178110631735155,20.288393452937513,-3.076158357059777,-13.716075906002146,16.773104607035155,-1.8701042103747856,-7.808061802565225,2.5004991280249405,2.6078102402040617,0.5965847458103284,-2.0354307161893956
30.0,-4.743234135852487,16.94492806631335,21.688162202165806,-6.065118083493023,-13.237442577876626,19.282367734525113,-4.941062531250017,-5.709963082776901,2.989355772815405,1.354792676365142,-1.4864778328496746,-0.5589673636096476
31.0,-12.65491165853231,-2.8819826122916012,9.772929046240687,7.802179218622833,-11.24465734794153,3.415934087531708,-1.1854117670102031,-4.30192791282567,-3.132309464404354,0.53486117975978,-3.259709542727083,-1.3659623814346518
32.0,5.820040362231366,-4.89209763810518,-10.71213800033655,-0.5119877546719691,8.303057221960051,-7.828775512430131,-1.2097024673945433,3.36082685064044,-5.641043207378809,-8.12345123593122,-5.5301551146072585,-5.839730200480557
33.0,14.958189719524825,-3.1066855851653816,-18.064875304690275,-5.898722598311365,16.537656972979505,-10.533401679025605,1.4618578646691531,7.576138212541874,2.8182256957619956,-0.9977097223682474,1.8597708394659949,0.505969902334578
34.0,11.419568324859343,-2.730903013091601,-14.15047133795111,-4.399849909989876,12.802427519350317,-8.469086673877122,-2.8197550299403877,10.274401949471915,3.567465431265573,-0.16711457707933342,3.568299664871039,3.8073377697864226
35.0,2.5714465329806107,-6.861418043738549,-9.432864576719311,2.165344387596963,5.935424694064723,-8.178771482281972,7.794305390650284,2.9890665462031825,5.903301386349043,3.433184570898056,-1.270733859514356,3.227772481737465
36.0,-11.868099841888172,5.221753593946217,17.089853435834367,3.3427552667576332,-14.468595311296962,11.199777849436,1.3235310900968762,-7.0612016901778425,0.5386140915011755,7.430627032908023,7.068616940711255,2.9063567158185535
37.0,-14.124341269098524,0.36823892342591225,14.492580192524557,6.899791387572296,-14.29620366290268,7.472077013188006,0.2797851667884983,-9.561818714334343,-3.663749624372402,-3.1178582761567144,0.3301507489128066,-2.0990629679542154
38.0,-6.0775301606883865,-0.4359447440005755,5.64158541668802,3.2048362847239837,-5.842696276798041,2.564083912579429,-0.2843755791592014,-6.430868718725928,-5.048813145401314,-4.3277231259106665,0.22326109817954243,2.543470195982405
39.0,8.749314720267718,8.035062913937235,-0.7142518063302816,-8.358288798702848,4.754769919017009,3.698453937543996,-4.646852693513553,8.053849960176578,0.32400042114588024,3.3387500271209323,0.6604860050495858,1.5068329504887936
40.0,4.008018320716387,-3.470509201936866,-7.478527522653153,-0.2277002253206457,5.693803114368031,-5.518552994406454,5.1905863944355595,2.535136825303081,0.0884567104371029,-3.4879485364752054,-2.741920310240713,-1.3340313737982312
41.0,7.417470495887977,-8.846027061855079,-16.263497557743076,0.6817349279372884,11.87518496970901,-12.603822426774084,-2.1140203276252896,0.8921901593579906,-0.051375234451730534,-1.7858159653522503,-5.786486661822163,-8.803810848604032
42.0,-3.796118853327047,-3.3893543128058874,0.4067645405210891,3.5617656858559172,-2.141239829523535,-1.4674794628134702,-6.607024276993013,0.9494309660113713,1.7219086923117728,2.349596406686006,0.2489687187888352,-0.47938738924774293
43.0,2.3315935771555467,13.167043921042232,10.835450343886585,-7.782642278332206,-4.2880810715853075,12.02007878587331,0.47820821777896994,0.1837860489907296,0.37597258363275254,3.3307008512646066,0.763435889446877,2.751968567095033
44.0,7.541262579047106,11.13917652122103,3.597913942173923,-9.299954735637057,2.018370747415861,7.385062743751872,-1.4801917048221402,-0.991526160566128,0.4295883218411666,-1.4466804954491508,-0.6105028940854167,-0.3892752083674087
45.0,-5.966272277190659,-2.706288195337633,3.259984081853124,4.370730238073371,-4.561049558690539,0.2946047747942253,3.6081303526238435,1.4690663877477559,3.4099760364184655,-0.9761001005668142,-1.278410937850176,1.436288004264238
46.0,-12.480030120666207,-10.763461409982156,1.7165687106842562,11.57331742875719,-7.1183709591420055,-4.501366917720872,3.8762796242890554,-6.846323823767652,-7.936923941723686,-8.711902084084532,-0.8123380893339367,-4.202424587812882
47.0,-0.28396917999732274,-13.625918300792085,-13.341949120794533,6.984489940474597,6.515619952979748,-13.53476510655708,5.460822274380158,3.372462966571538,3.2981224076226248,2.6410702920237292,2.7647104347769678,4.429257496335163
48.0,0.39046145500657514,-6.508083990305815,-6.898545445312191,3.091415722706979,3.636251155078694,-6.748686241975813,2.397732744521994,5.716527593922495,7.4577685902505415,9.596539983333937,10.92898955011288,6.414222609604929
49.0,0.4858828776908153,5.76545748695468,5.2795746092639435,-3.1656727613871025,-2.402995961789454,5.559532111109661,-5.557432378449789,-0.29355895943965127,-1.1641616602011498,3.25302875646428,0.8749707198955927,1.2073341594915863
50.0,8.232307830642501,17.593034448982774,9.360726618340241,-12.94507458299623,-0.5717599911030851,13.515098593572269,-5.674558862788798,-5.0868014721155,-5.916504319272387,0.434588914179475,-6.0654762543396545,-1.395868202012166
51.0,-5.0473342902641996,8.533390294374929,13.580724584639112,-1.6896005515488026,-9.325821930539798,11.015421823232254,-2.3106359231728923,-7.494218145988333,-4.522561234464904,-3.75511535293236,-3.700707438388238,-3.4106135853683135
52.0,4.445405333965761,5.081882211691326,0.6364768777256185,-4.7842376112993925,1.8870210261583074,2.8934483759196485,-3.3241077904034033,-3.686039101181204,-4.003737949294964,-7.3438934816355905,-5.371507295663969,-7.664634021278541
53.0,11.693156758427305,-3.4384849619841025,-15.131641720411347,-4.146913723958905,13.46807253189496,-9.333428826078059,-0.25877024645367,9.129124349187748,3.625784230121525,-5.81819210985225,-2.899663657803554,-3.5447277696884916
54.0,-1.2648719693028103,-14.869902527975125,-13.605030558672263,8.12318492114851,6.220791780916746,-14.211373776638656,6.526772867289549,11.151817999882308,7.10385628233256,4.215846411115597,4.992976235580176,5.528079205707432
55.0,-8.256322941968639,-8.951180185807944,-0.6948572438392997,8.573178011891144,-3.8134413566364156,-4.80120449290114,3.093569502849293,2.7801050388596815,4.16454141782985,3.562257427736801,8.512421120800772,8.32836965621972
56.0,-8.85735031770446,-12.006087430266245,-3.148737112561849,10.390298091644688,-2.892366462662821,-7.559682077762356,7.122753471275318,-3.732771291737567,0.2770400824128392,7.2887981220785845,-1.3892834843731965,0.6425742603618572
57.0,-9.028274828178617,6.625398285974045,15.65367311415255,1.226471473871051,-12.385739190473744,11.074705592464152,-2.166721809047311,-8.600496264543889,-0.4563108467218416,2.993974473964757,-0.8437989616724959,-2.7149638160943383
58.0,9.035289989999512,15.634835468322038,6.599545478322449,-12.321625138100663,1.2440970139927456,11.127786216738397,-6.787915107163188,-4.433975524521231,-5.480276576701507,-4.972091403632663,-4.1255165990883365,-3.670383270729772
59.0,2.40173395566672,10.142262487810527,7.740528532143808,-6.267524929978112,-2.650736916727549,8.949623299282738,-2.860886630433552,0.9455358314142126,-1.5159211789817357,-5.180432455857256,-1.0797530945829021,-3.348912714268472
60.0,10.433442327176849,4.890069039692994,-5.543373287483737,-7.662464726973345,8.001217983334872,-0.319251790310199,-3.2215001605260714,-0.21413203554173868,-6.601615507762049,-6.228368908078419,0.8802170509376863,3.5068207584383044
61.0,0.2622940938228666,-3.419706744980409,-3.6820008388031646,1.5766832703822038,1.9817521486726122,-3.542375943204824,1.1471139360176639,5.142334550670287,2.7684494751554247,4.919864914457709,2.7816543906603752,6.204838147147148
62.0,-7.273470603317897,-14.365082072025801,-7.091611468707834,10.818923184173103,-0.08202911014495529,-10.717010142355951,7.89601199632323,1.0676406586211646,5.564959705830058,2.2443913599340024,3.676960169909065,-1.111058074381575
63.0,-6.683094517310451,-12.731987562843797,-6.048893045533375,9.710394687783182,-0.30747178141806675,-9.375055878384732,0.4105782931359996,-2.9753394745966775,-1.1443913497544607,-1.8464991945046605,-8.064621810247418,-10.037034002692767
64.0,2.7535456386465844,2.3071351261252158,-0.44641051252144237,-2.524172478479512,1.5316904158639535,0.871500031267348,-0.2753984643733409,3.2787262875189676,4.817740765094444,6.590742699068569,-2.0583755515215145,0.15001583282366004
65.0,7.416498416757474,9.47873813696345,2.0622397202059495,-8.438855181561056,2.6877210165340992,5.794881991242824,-4.937534763922518,1.9694469110227173,0.021190701664035805,-2.148803428557658,-1.4413785812183777,1.2821872096503548
66.0,-0.9431912973402643,3.2627114906136168,4.205902787953953,-1.2276988346679523,-2.5643860974772394,3.684472872158872,3.117001999156051,-2.497477657696994,-3.80984379243381,-1.5912348058263652,6.78256478309265,5.13922434096726
67.0,-0.4419240921196347,6.45456033762038,6.896484429740108,-2.9928468228901943,-3.6590708895509474,6.709211007292903,-1.494692844280882,-2.2792216196851003,-2.8806443077383985,0.7596080515781078,5.649573625060301,3.7763555511692646
68.0,-2.7827634456199837,4.880666096787806,7.663429542407786,-1.0306095027768967,-5.211366272566872,6.310633224650445,-5.08323529734548,-0.0007108604954195741,2.105206520074584,3.2922642288896506,4.939220335201031,4.458724066191404
69.0,-1.353864902567643,-9.291250184742374,-7.93738528217483,5.349083848246082,3.307562882775837,-8.571668089029295,2.7212011377810823,2.538155846680892,1.9713531598792877,0.11407259333119767,-1.8078773707260543,0.9794439678605312
70.0,-6.457576188086641,-14.185624925084117,-7.728048736997647,10.359375774856094,0.5789281325026174,-10.991380360932475,5.896537686713821,-0.9156032203341401,-0.8395931302933983,-8.977319764599855,-10.35385371437955,-10.614640692065874
71.0,9.007899994341212,13.582597506541042,4.574697512199687,-11.323764207650376,2.2475196665741906,9.041578545130712,-0.8958297883975148,-2.2932712098363663,1.6472197829444117,-0.4122788100994401,-6.844414438217549,-7.4428182547507165
72.0,2.052901902365448,1.5332583920543728,-0.5196435103110577,-1.8108118988732675,1.3261570882674674,0.4627577667685726,-2.1392783434951665,-1.7402718621686608,-6.018301306558541,-1.6757638599453097,-4.328037253748199,-1.8058007350110703
73.0,-0.47532113239989426,-1.93395374378813,-1.4586326113880894,1.1932265571897571,0.46065702301542477,-1.671538367116049,-1.3213879782294997,4.612459958485573,-0.3626830514945807,2.072508559140633,1.5576787589391285,-0.6000887141387139
74.0,-3.202976292337257,-1.1646110653083421,2.0383652270291455,2.1726669575441684,-2.6462530468459993,0.45180035818525105,2.5636327363618236,-1.4253518337717817,3.285510059458424,4.7128066513638815,11.747381219990517,11.242791342066232
75.0,-1.556673907799877,-8.02180851972602,-6.465134611925932,4.772574177030596,2.4309124217057825,-7.234731212164193,-2.5849936990204863,0.13118721227691083,-0.9759492263906127,4.712473875995405,6.116395027984839,6.571794066970578
76.0,7.623889728420434,6.092302848807149,-1.5315868796131167,-6.805553555563066,4.632352969535726,2.2891242126860165,-0.5289262096254922,0.6052110735903334,2.378343099107118,1.347793510993765,3.307320282698815,0.7625392571549403
77.0,0.5385147414920688,4.874596657236819,4.3360819157448445,-2.7436226923385827,-1.926223740496435,4.620861656547843,-1.9785280679702013,0.4543051465776135,6.921770644871978,2.786167851721617,3.8300277972089924,2.8320219477391215
78.0,-5.726797725055145,-4.263138282290374,1.4636594427647145,5.027060302116352,-3.5490202970180187,-1.3725001105996326,4.359907124409025,3.0268549688706052,-0.25124246995494803,-3.278724900342849,-9.503742205523558,-8.768990714439006
79.0,-9.983827175239039,-3.653075308868098,6.330751866370711,6.843982310153415,-8.196240420103853,1.3005959793018564,3.083956966699999,0.33893077735735505,-6.567686914484527,-10.387407091526986,-11.900553980813967,-8.782616257206458
80.0,0.4253242137032136,4.200063475047994,3.7747392613444806,-2.3687946103070416,-1.6423291153528439,3.9602058566123803,-2.7055560804486323,-4.5819346834583,-7.498700047212159,-8.956111552115427,-5.946300239171184,-1.2097625899266742
81.0,9.120702757217003,4.0579851871535295,-5.062717570063697,-6.5661765233068765,7.037258830714802,-0.5235213005551539,-0.33390895394667075,-4.357131891516496,-1.5641566592669842,2.4278767798935865,3.276900660918251,2.870530221065126
82.0,0.47089178556948497,-2.152732433480054,-2.6236242190495354,0.86725778981562,1.5634869812303083,-2.3304787905918456,1.036771189388771,-0.9360942496653764,2.218671430357719,6.8560697240739525,8.019085164828955,2.6747165348916124
83.0,1.836741609521955,1.759660204508401,-0.07708140501334615,-1.8455310792831614,0.9661163035032558,0.81544337925417,-2.5699859545955794,0.43798190981658924,5.389948760389473,9.802684154288457,6.128219909584311,3.6590118848813296
84.0,11.939161757568126,3.78179914752439,-8.157362610043391,-7.901285100485396,10.052669443057512,-2.2208763583072626,-4.391308278343987,4.077006274253652,6.862214464255855,6.3038254705254895,4.8889374117521145,2.4104721640227167
85.0,-8.014756657707487,-5.303023764026171,2.7117328936816074,6.7045061121715115,-5.360440791563148,-1.2567606702865983,-0.9865721881503373,5.005976396647288,4.62346205298685,0.33529867630483734,-2.0561734497333206,0.4596366465949615
86.0,-10.071499590683992,-5.012857232711532,5.05864235797252,7.596073081407151,-7.560212591548357,0.05791266611520035,3.6920610807828327,-0.5038685622558905,-9.77411855487616,-12.36864307178993,-8.71347604266053,-3.0061380177623866
87.0,1.6284931494373236,-2.0049659841630767,-3.6334591336005717,0.17109675088122778,2.6414133188362854,-2.8627132752596136,6.154643881378184,3.486000434069001,-1.4097420871691408,-6.008973903247675,-1.7402154223456634,-0.005520910664287726
88.0,-5.99984233394893,-7.25617127354045,-1.2563289395918267,6.61624633527627,-2.4316089836305927,-4.2169701914762445,1.661779350722878,-1.883578707302905,-4.162624423009424,-2.1650835327872615,2.959628353140571,1.5570546980541438
89.0,10.030931088112649,9.532450888181987,-0.4984801999309447,-9.792188386280923,5.293931647639874,4.483877874892698,0.1199210503354553,-1.430408409103375,3.493173532931242,3.4886149719427997,0.7694696159001138,-3.3026735450126106
90.0,6.1599900345633465,12.133673184658338,5.9736831500948835,-9.161102053244726,0.13326317275395771,9.0272728930362,-5.120862301333893,-6.690677105242112,2.5482291459953346,7.626371513467941,2.424863843164769,-2.148357754179716
91.0,-19.108792931979533,-10.776941034278693,8.33185189770093,14.920367444561263,-13.749103375503418,-1.1649643608902975,0.3033312411361804,-9.535243850395602,-5.271244886237742,-1.35104385946551,-5.783169738326615,-5.376795100615837
92.0,-1.2432749719280984,-1.3040841275988218,-0.06080915567047307,1.319377063898263,-0.612898881252093,-0.7009279636031694,-2.323720491731231,3.1979970806681486,0.512861767991721,-0.48479447038842616,0.041777575725483684,4.916802737277591
93.0,14.398461943343207,12.332475565502268,-2.0659863778407326,-13.408301726444822,8.292137918487137,5.114827439580553,-4.175785972103103,7.112574773087027,4.8054620142190725,2.4489773727080575,3.074071310752468,8.175788793016226
94.0,15.960479101254208,2.1270303121356937,-13.833448789118458,-9.013780386803166,14.875779359680303,-5.8732936719004405,-0.5603243668742026,12.49749580922305,4.195420190937748,1.086200689279993,3.1724965083556116,1.6186673482033025
95.0,-5.702259114853117,-13.221430202598839,-7.519171087745817,9.491721989094353,0.8799728594497678,-10.392330691795099,3.7048297978064095,0.21310758140159347,-4.340094684169073,-5.336893678440443,-4.151232182807665,-4.711877448491089
96.0,-14.018382556192385,-8.527995752984403,5.4903868032078265,11.23032398454254,-9.79352112216526,-1.463056222683929,4.724735611680682,-8.678647010728369,-6.639083153100306,-2.8970395882180986,0.2457151610175421,-2.7069526677740345
97.0,-5.729030105007534,7.288895551982194,13.017925656989643,-0.7335449511138954,-9.345149297718969,10.20939867082685,3.668418454391271,-4.822061576236871,3.4285471789748576,1.4785898264421045,3.5225490517122373,-0.08709059340495573
98.0,3.7999048048326127,9.204320658710017,5.40441585387745,-6.522460190330412,-0.7828102162415203,7.281932365129366,-2.840064502650081,-2.203763253833522,3.7881783930794013,3.123934029541649,3.080078554671863,5.22797959042844
99.0,-0.023459252833362476,-0.4262179980265035,-0.40275874519306054,0.21459984474080684,0.20483543184804853,-0.4385154248995127,-5.39703385722376,-0.8333394293936824,-2.9408438776094608,-4.761161333111351,-8.688175943278244,-9.176417244759286
100.0,0.9105757219780186,-8.997959262862867,-9.908534984840902,4.038882151570665,5.425636666789696,-9.482503918851105,2.408912222779003,6.37703659649538,1.254214498799607,-2.81109816317647,-6.90111310652204,-6.176708560846377
101.0,3.024333057537635,-9.793355262919023,-12.817688320456758,3.3791800581462783,7.941826708039013,-11.343910398552785,3.730086527981771,6.8163171208913695,3.6678017951925606,8.458231447445652,6.0698993837881945,4.707938566431746
102.0,3.1623167593872483,-3.43486089611733,-6.597177655504722,0.1250423250239109,4.827891108511739,-4.987026210512216,2.308871004784278,2.8165879623177092,2.548683125132573,7.5518222014755025,8.67630116172563,11.798044229529513
103.0,-0.3448099420046229,13.937728587198718,14.282538529203293,-6.816842213377266,-7.3606378221669235,14.128586134839248,-7.7260681367563215,-8.753503193468797,-7.571446939471878,-1.2473848932011338,0.22357501459901608,6.405829294238279
104.0,-5.235491739562355,16.66182526095227,21.897317000514754,-5.664354388299696,-13.532450678780656,19.291529239752585,-7.088598376562522,-13.68371040881745,-9.133537349913178,-9.941240379941057,-2.814495968875519,-2.3895829752561095
105.0,10.172060469253651,10.421662423227934,0.2496019539744907,-10.255429022634129,4.994482246734729,5.347197891130749,1.0936041426094025,5.805426034804496,6.688636136523639,-2.614615641748485,-2.1801079582190854,-5.340230052221462
106.0,-3.431052433850675,-16.106039647595527,-12.674987213744721,9.727567295333792,4.573878702406297,-14.373127649687166,6.2382516623106365,9.44480331133491,5.283301200973176,2.4703422416471046,2.6288468368078117,-8.58735739379769
107.0,-10.070197753291653,-10.858419100298065,-0.7882213470064077,10.423673311617383,-4.61337753317723,-5.874465469578483,6.57845884568815,0.510247405298526,1.234496248255689,2.9810990153049395,-6.275921826890796,-6.725976072053665
108.0,1.2648858698191714,-9.996384929334518,-11.261270799153763,4.4074771249312,6.288407201720806,-10.589629970402427,-1.1759285117306044,1.0800739621854056,0.8645053874625566,-1.1374910657655133,-5.5468240552875585,-0.3349440996220139
109.0,-0.1738944618570188,-1.9350484851432403,-1.7611540232863199,1.0229746834474418,0.818105767920124,-1.8778818618186195,0.07610638808271514,-4.2869879013009555,-2.5407965852848116,-2.990654757525044,6.2294969041794115,6.37955874387345
110.0,3.758088473106672,7.895799281698744,4.137710808592015,-5.773876993487683,-0.24337046197370982,5.992517440837691,-2.857601573123488,-1.2866716983635826,-3.336557529269274,1.0750973275716402,5.597650587929746,10.904356214280522
111.0,0.879712887387444,5.141349617440549,4.261636730053144,-3.031700902173609,-1.742302196674425,4.756292558532099,-0.7030071079633888,1.1353756510431052,0.3389732354919399,3.306403642532582,1.7668499040774321,4.3602362878484175
112.0,8.071786281240069,12.212190664499442,4.140404383259428,-10.161161813510722,1.996795408821487,8.147842841641868,-5.630813446098782,0.33305913667259357,0.33130148736556153,1.1180237666287784,1.6173937432579377,-0.9184693950777101
113.0,3.966230394070379,-1.5898132769729232,-5.556043671043274,-1.2084215597172614,4.797290502317626,-3.609036297907381,-0.4006074870182239,4.291728064943557,4.796192526918197,0.8019822445670826,-1.2170886784686177,-4.472811326411052
114.0,-15.089566252733878,-9.561078669088813,5.528487583645005,12.380129870792462,-10.26706408827303,-1.982252309914616,6.726639623829957,-5.17459837224782,-3.079559447670538,-0.9009153230544089,-4.716931375152018,-4.761163611511536
115.0,-14.30343671709329,-8.08023808505566,6.223198632037536,11.162581527383848,-10.294795645399184,-0.9019948783061633,7.021603837114302,-4.681434522944716,-3.530879564013537,-3.0433553739547086,-7.709616009783824,-8.21328665083107
116.0,6.664541978094454,2.867834251923661,-3.796707726170805,-4.80082296888123,5.202340649770048,-0.44310412369952057,-4.319118463565699,4.066874450561496,1.4609974855552739,-2.4537056408952234,-0.16147238188622914,0.3111108520602279
117.0,13.431416588940293,0.259810422581341,-13.171606166358849,-6.805493978221262,13.273020873973243,-6.515922929870432,-3.1128931713577397,1.419884898249884,0.8593580441517401,-1.2742468028944154,3.658165433506166,0.1817787378029636
118.0,16.087521274576552,12.917919118236565,-3.16960215633977,-14.464309787016731,9.674860418934017,4.892387037200844,-8.930172523347949,-3.118148461783356,1.428812504308312,2.439043467367063,1.9281339333491752,6.095409997196774
119.0,-10.27052585625794,10.119169070578273,20.389694926836462,0.03596942233063061,-15.369560489973798,15.273571789483594,-2.4486687940055587,3.134908939721171,1.6914124844776504,4.061637366013219,7.939990339675552,8.80933445121092
120.0,-7.1291661253206415,-5.072797484196263,2.056368641124643,6.063452775737433,-4.562056488985595,-1.566015479607052,7.444751543808126,1.617504250922039,-2.249163196550545,2.7002327539423128,-2.4483069559325212,0.04137780592700757
121.0,-8.663189347015692,-12.143721468017418,-3.480532121001591,10.447069942326227,-2.5691693623508765,-7.788648807897381,5.765365159720002,5.229732452117909,3.6764662872163134,-0.08988008161498029,4.390492227542194,1.1827201487465555
122.0,-4.275610252593787,-23.390785530399985,-19.11517527780621,13.877998528958038,7.434803362634343,-21.22626289090833,7.594478021543785,-0.5794478617425182,-2.7076860873832524,-4.794534849440569,-5.571185444726244,-8.105104385804307
123.0,8.253008430573349,-5.508035795234947,-13.761044225808458,-1.4074268970916908,10.938571867378599,-9.604010166830493,-0.23639989700529807,-4.002977447954052,0.3401339524785658,-1.9806615358163788,-6.848989539689352,-8.39965653990869
124.0,-2.2710466620212806,10.303214850915893,12.574261512936971,-4.054169707707752,-7.413938452192468,11.394455484383924,-3.9771970376351478,-8.635556226457922,-4.70559090448371,-0.4990029991697902,-3.9992962235657368,0.611093030927659
125.0,14.391146983166914,26.706025774436085,12.314878791269047,-20.590647777761394,1.0489591185500928,19.469534613103953,-9.991306669648312,2.8052596107604213,1.0253837050623122,4.413730182713084,7.245502219933419,8.0543634678745
126.0,-2.0221204454361654,14.496534567405815,16.518655012842046,-6.202988227605783,-9.253546230301213,15.547462397112376,-4.685073465521997,-3.9395283092509588,-0.9491539830053174,-4.7806198603669205,3.423046127673394,-0.9826196049007461
127.0,-4.3861897245861465,5.309262033726132,9.69545175831249,-0.42590912330209596,-7.0144359416567745,7.542249106196092,-0.6075885098126186,3.594750645580685,1.1249496840014825,0.35617827245851114,0.9709587003170213,3.046219118403889
128.0,-2.205181676974633,-9.47147583446421,-7.266294157489359,5.880389956062196,2.4901262246382894,-8.41026008519316,5.6977154174562905,3.7911315214127344,0.8519058057517039,2.618831956398368,-2.7669290305480496,-0.01202454947856002
129.0,1.1369331008200567,-19.48951163525945,-20.62644473607945,9.1501588086311,10.853805151883245,-20.02589323841442,4.743738449767033,4.088837003808864,5.165947685781167,3.470535599999208,0.5159208960850313,-0.49778624816799744
130.0,-2.7368338410333006,-24.38048020178885,-21.643646360755614,13.544368991194233,9.51531856856339,-23.066453053245215,3.6643381408066413,3.7438788184484553,1.635330692507791,1.409035531606193,-1.8466482419627122,-2.3254815475432014
131.0,-2.9650754928215894,-0.7189990783151803,2.2460764145063052,1.837104169611587,-2.614912565800968,0.7788582634813288,0.89880398876373,-2.1114977880568766,0.39044904162563077,-3.1318734605116436,2.2484121277399858,2.844015439351317
132.0,-3.6351039937205427,13.161953278642137,16.79705727236256,-4.764783130068822,-10.223000276520182,14.986290740178069,-1.767937004935424,-7.668863341170728,-8.56716478880372,-4.70733544246329,-1.1363036275997458,-3.2848862356977038
133.0,4.574126673024046,10.755153613922428,6.181026940898313,-7.669795515295325,-0.8136037116646424,8.468927197157335,-5.250087562772476,-2.960560972040784,-2.721019758840252,-1.2718255936009748,-2.957630083975687,-1.7177262816039367
134.0,10.296625715108213,11.87544745029994,1.5788217351916618,-11.101639986201352,4.34061720438457,6.726266115161335,-0.19978168646830818,5.905317560099479,5.227929781582116,5.239640342733723,4.086069265068646,4.3602351291406904
135.0,-2.5121044935410044,1.8308628065686676,4.342967300109603,0.31075611252277024,-3.4568017228074663,3.0891693294891382,1.6986715259401342,-0.7549230294032485,-0.3107100269994383,0.7011571852667513,-0.14585410370068086,-6.662227891167382
136.0,-3.012580253069596,-1.7032100406416877,1.309370212427895,2.3927034555852567,-2.1225371441472287,-0.1875770713572682,-1.113185244500022,-2.952184572631167,-2.9219525487954243,-2.5275949512363676,-2.9689067648056753,-1.071057459930178
137.0,6.877795559791738,1.695559262182913,-5.18223629760878,-4.262021230948832,6.059921476135359,-1.7251714486925263,-5.869535294406759,0.6143158969327135,5.359192526879934,-0.17307610647250554,0.26157020841862133,7.774009173304872
138.0,-15.861641559482853,-18.442580162931712,-2.5809386034487956,17.172693474010973,-6.614988074719143,-10.486018273982667,7.366688347581292,-2.0786054766624016,-4.919579076137883,-2.2558736559674704,-1.0193661184238278,-1.539831100398822
139.0,-2.254987402618074,-2.335442747854449,-0.08045534523633968,2.3177114020920673,-1.1412065838009569,-1.257325368502208,2.3420650709013184,5.5051159628670305,5.261374242966064,5.298700213798455,3.243628105620706,2.015403881330855
140.0,12.357274006138194,7.1545182113512675,-5.202755794786929,-9.806282878956925,8.807086258258655,0.9249370813993685,-2.790310786844148,3.2751417643955465,2.70779837331854,4.432511648541158,3.6689212007815497,4.542585386721438
141.0,1.558332343233642,-2.4933710644492986,-4.051703407682983,0.42402517932708506,2.756821968626275,-3.2506406998773874,2.7141360311468965,1.0867197764377825,-1.3901484117902088,-2.3811262044323565,-0.6758745598030407,-4.32791024822421
142.0,1.991625390218581,2.0372859680899342,0.045660577871312225,-1.9739021728224149,1.0069539891713462,1.0559006842034535,-4.901079722769646,-4.819260799316236,-3.310112531422799,-4.4620473771043745,-2.503403819276167,-4.9421057953432665
143.0,-8.085605493451432,-4.6833696904984,3.4022358029530095,6.348445713476809,-5.785957105436737,-0.6315262753075186,5.307356640796492,-2.0442646587991873,-5.547211663960161,-5.1577523797198115,-2.232954157711595,-1.2813179486854693
144.0,-3.2436979778581847,3.9452472642770826,7.188945242135292,-0.3094123814667492,-5.177552311711891,5.5758827702624245,-4.730470284889401,-1.3801562859670506,0.45556658089729263,-1.6160757770072376,-1.0849428609322112,-0.1991757931605589
145.0,4.266391259117032,5.825159139615769,1.5587678804988014,-5.00874251339201,1.3941980804516891,3.7068876390507586,1.3043258826645834,0.960698951085465,5.490812401605723,7.606620160652196,-0.3858595554647233,4.018227688371209
146.0,1.682821529490842,4.22377787065265,2.54095634116183,-3.0013024705301,-0.46605748592686125,3.4088199201200293,-1.1234440710457685,-0.252885206942571,0.2994960070301462,1.6080523936840176,-2.0754587926525137,-1.9571314341665316
147.0,4.199376231461964,3.6105368987272923,-0.5888393327347292,-3.8810747923101254,2.3583140341551307,1.4726162140456234,-1.4751470476216637,0.34893239086617833,-1.238524375083345,-0.6578706585743572,4.087581892793899,1.4698094486934439
148.0,-2.727181894652344,-7.5041727845562365,-4.776990889904016,5.055063756632881,1.0689387253379623,-6.165859429476383,1.421064158684579,3.33885757642363,1.8960057945854394,-0.01631110856405371,2.414755650915295,-0.2804974913299121
149.0,-11.74806106488928,-10.104890481813612,1.6431705830755545,10.94185568862771,-6.729199061009804,-4.247484454454243,7.677574302581179,-1.9294130521277668,0.35917730355411776,0.8977566398080763,1.1012141794768115,3.3123988713384365
150.0,7.769891267845996,-5.698764305855399,-13.468655573701433,-1.0183980880665908,10.665906010817835,-9.519040378781138,-2.5755084922841616,2.9179833512463773,0.3203821680393173,0.12584618282045434,-0.07509191436782597,-0.8149089859977656
151.0,10.165905143832273,8.58558098933812,-1.580324154494095,-9.351713721891041,5.843075188321249,3.4849474326339136,-6.176989728221307,0.837550362237865,-0.8574297728399993,0.04650606521059619,1.0660427542393274,-0.24930014426689728
152.0,-9.689394720155839,5.491157903484017,15.180552623639983,2.134095349378236,-12.462160448607175,10.310062032840642,-1.4782587017953834,-6.576652358631208,-5.38295465249992,-0.6000703347520469,-1.7134297569577661,0.8437058525376333
153.0,2.1859108364484525,4.372256568285106,2.186345731836827,-3.310262944358889,0.05492173769676878,3.2437157232385267,-0.3093550164370862,-0.3006813105967132,1.5614736337885968,-3.3890235034771523,-4.095018017838289,-2.812548588548961
154.0,-0.14440690355516883,3.3834040986865603,3.5278110022418705,-1.6395270979904457,-1.8557700811954458,3.4905367845924937,2.9859033929786833,1.9722246236989436,0.46216929082101504,-3.3688252814521182,-0.004930272596949115,-0.584489407745139
155.0,3.3851911128851446,-2.6838584215923036,-6.069049534477463,-0.36357501583447055,4.711093294692692,-4.345580523550809,1.9884071867737385,2.998609267347704,4.010029570190051,3.454851274648941,0.6354259362295204,-0.17095076850246685
156.0,-11.0356876842673,-14.384792571606088,-3.349104887338933,12.699272543471249,-3.8569862192510014,-8.834855302807702,8.194283366505266,1.3865157415113136,-1.143256320825898,-2.4897276181990313,-2.3815260537496328,-0.6943713407957139
157.0,1.211166461593605,-7.969864350178014,-9.18103081177183,3.3657043049698427,5.26104011496247,-8.616401269219622,-4.59330623490132,-3.539621200031231,-5.051010810095978,-6.90782580462559,-6.762392111290307,-8.603820900798768
158.0,6.483192006032973,9.459466361765696,2.9762743557325386,-7.911729474376535,1.7360396082443146,6.184812561142264,-7.4109271427341525,-2.1202621352014694,2.6062602482406234,7.707492851042904,3.547105276127218,5.0604577736234955
159.0,-0.2763856686525541,13.904498121169638,14.1808837898221,-6.839437564424137,-7.253738005588689,14.095621742295828,-2.7880925164874935,1.4146961293763518,5.082212054969485,13.226419456811854,11.959876125511938,10.646740109296815
160.0,8.958908620627403,-4.344265725848714,-13.303174346476085,-2.259342948389312,11.094497666113424,-8.845323916578444,0.2231526565777533,3.152591082761931,0.8073822395806947,5.688576876071112,4.550955082992061,1.8598827966160778
161.0,-1.8563360940323559,1.5749303198747913,3.4312664139072453,0.1060200328005263,-2.615380772971284,2.48158645739164,3.203603159405929,1.575623604513904,1.1416715176320418,-5.36885386567532,3.889536062024958,-0.3734686422093747
162.0,-15.848343221798991,-7.508632875757215,8.339710346041901,11.641223243692428,-12.079464281357728,0.3904650461131869,8.675946642827002,-5.392497083731016,-8.970808882039336,-10.270237996054492,-7.8432204210438785,-3.1900153344308997
163.0,5.754748267372206,2.6959802363521295,-3.0587680310199405,-4.18563649741501,4.409910880650798,-0.1331613019095892,3.3428767505297525,1.7129085766443268,1.1806479482733963,-6.751914763277342,-8.147624655180497,-4.605315068033791
164.0,2.4473684874578225,4.059306415517818,1.611937928060139,-3.2937685673324184,0.4139715907271939,2.8000850722067123,-6.9185021334924635,1.567934137837856,0.8016472565761817,-2.424069876024814,-4.333894149780879,-2.4353282338636224
165.0,-2.4118585677400843,-5.081585931819686,-2.669727364079497,3.7836878556890934,0.12391334353159378,-3.8351689335717203,-6.3773382949381245,-2.258051632143944,-0.47982930214978103,1.6772638073292372,-1.2867410840138809,-4.894106256798752
166.0,-6.963547476914679,-3.5224481337338105,3.4410993431809014,5.278535641575841,-5.203047893904648,8.260246246027947e-05,-1.5910936860499199,-6.236718399628566,-0.9070415242161264,3.085513313498654,1.8035348997507514,5.557111453207587
167.0,8.629270223621827,4.0980805735715204,-4.531189650050368,-6.40838200279347,6.588270313364849,-0.25190376041806517,-1.8261546846774444,2.9377536894435843,-0.005746538763565123,4.920004759694065,4.6487234519751155,3.1250461877716385
168.0,11.594058610567268,5.91458657309432,-5.679472037473101,-8.800402619875564,8.656176919747253,0.08577419045074675,0.21106012817592118,6.319005881926165,3.568704541979812,5.185326353067933,7.241299723153098,4.947375360903507
169.0,-1.769345675981568,-10.75887769322587,-8.989532017244473,6.295890699954645,3.5625690205127802,-9.902977681956987,13.039076083136441,6.78107790866842,5.245620601378474,-0.6041123358182823,-1.855102577134116,-5.6578317591269185
170.0,-4.545484969074521,-8.04575604012099,-3.5002710710466394,6.327332416273992,-0.4810783676970728,-5.721459668782688,4.927767579560038,-2.4892192601643575,-2.3871449773258027,-1.6430917636717353,-2.770308515741049,-2.154035257786234
171.0,-3.8096169525937755,16.801377239897423,20.610994192491162,-6.463388699164431,-12.240062917791287,18.678991338759875,-7.351177646067511,-6.68290237002127,-4.656934828420409,-5.205456696984385,-1.7734013400899835,2.6264595266555024
172.0,-9.91848998780432,9.48735452185257,19.405844509656962,0.1705176076207524,-14.68781635003301,14.49689553975256,-4.103537424671723,-2.8683138186139767,1.6188695180797597,1.2938698121348429,0.5361775307970686,4.203049227345904
173.0,-1.5260574065516734,-13.235998221438692,-11.709940814886854,7.33696920941371,5.145974605723473,-12.503560579432868,-3.9281516150685096,-3.125810454740412,-2.896978849497667,-2.621674731671923,-0.3389864187470657,-4.705245081127629
174.0,6.163418211059033,-5.775253932281924,-11.93867214334075,-0.15911184526920197,9.024631481877865,-8.890349053783234,1.0489957042000393,-0.8064131937669777,1.1586887258051197,0.8060905181338252,-3.3039421034774774,-1.8433679228185418
175.0,8.070407622643186,6.2421236627204415,-1.8282839599225689,-7.121834210829712,4.9979342056109175,2.248854994907119,-0.11197174944327523,4.140623693331438,-1.509403171664534,1.4585758721432256,2.2952071395424714,-0.26120755808658647
176.0,3.400955498746595,1.8628626403170225,-1.5380928584294686,-2.677313580107779,2.434030661877217,0.20019747776013475,1.0419411019119624,6.98849813074138,2.5860452318787983,5.595091920088216,7.568795894008433,3.373827620607794
177.0,1.4017256103328966,0.041810722008663315,-1.3599148883242544,-0.6895706127469206,1.3388672034669837,-0.7047366389137145,2.7515252713334712,2.122485303491876,1.6260926276227945,-1.789622149954286,3.5295826620799615,1.528998143972945
178.0,-9.552150421578615,-4.229840437224388,5.322309984354091,6.843748195624464,-7.40740538069685,0.4956252836374959,5.648492867253896,2.339359168434287,4.415902209997086,-0.7064765311705484,-7.121275603663633,-1.0549549681996178
179.0,-1.3566112864000095,-6.026816389503946,-4.67020510310412,3.7233347983601175,1.6799439901289777,-5.324558325325668,-1.3430923737053573,-7.360784544056276,-6.7323406901100835,-9.358823380816293,-15.666280036305857,-9.268649982041765
180.0,1.7044231162434662,8.397020285269708,6.692597169026058,-5.018141575011789,-2.4764578963235593,7.5664166841329346,-7.278540474447532,-7.98560095207087,-4.9607333863131124,1.0878410453446103,4.847965160814726,6.769118610215025
181.0,-5.562406539182743,7.849935417440593,13.412341956623345,-1.1885171722936516,-9.552096452657295,10.652965700495756,-1.1424650051118594,-1.3251169494336112,2.386681834042137,5.187902164683686,8.999154639592641,7.905187887618128
182.0,6.845303561272129,-7.308631533613467,-14.153935094885444,0.26686223373005447,10.512495308020021,-10.706838191474404,3.851449187410797,7.2879101327375535,3.3417142112965967,3.9122800819365833,3.3956959802001814,-4.739982789628899
183.0,2.6706370135446793,-2.0420892786930605,-4.7127262922376065,-0.3575036769734829,3.706039875269865,-3.427759755983079,0.5742082640537975,2.922653935256835,4.724181084492956,4.7168022795351,3.0147107161421234,-0.11964321878161444
184.0,4.267768216970099,-0.8208386451195167,-5.088606862089611,-1.6888225318789154,4.696320992059762,-2.922462552792364,0.2937382869865549,-0.03384098995959839,-1.7477043475859126,-3.1829151847758363,-2.7472230639581436,-2.851097477222275
185.0,-5.181309077441383,-7.162956229482723,-1.981647152041385,6.126145535152527,-1.5765949360291436,-4.61603154262416,0.5481518794368866,0.5810042279397682,-0.3501592424655499,-7.753988416014274,-5.443483012459512,-3.357847290632
186.0,-5.359743883065487,6.044346195054212,11.404090078119788,-0.3117710224105059,-8.432410382235927,8.68207324776883,-0.8399263816820893,-2.024759922844856,-0.8474132846875525,-0.4560835214233663,-2.160644894757768,1.0361610944364286
187.0,0.46109252879231377,6.480763605206439,6.019671076414305,-3.4421608905440357,-2.7474553335719976,6.28801729218725,-4.203460067533362,0.6976363226353155,-4.020733591450577,0.22741543489365523,0.9868287211082882,1.9235682621421657
188.0,-2.4616660957864576,-0.21246940431963823,2.2491966914669264,1.2864616639931303,-2.4009447812361095,1.0579374142866191,-0.6755468855854705,-2.8841356459524037,-6.158480542102152,-5.407725172615244,-4.0207003798795595,-4.1329355047858
189.0,-3.777360379614102,3.6107959141370527,7.388156293750976,0.11224206723355806,-5.550046161872258,5.541724981229087,3.3073005489368654,-3.579352512092143,3.585425954790535,8.341052428423193,3.8524943174649757,5.7896042479042515
190.0,5.12027001506293,3.081135414053419,-2.0391346010098155,-4.069583780646546,3.532342668707688,0.48736419289029914,4.000577704838762,1.694810621867516,6.03060331985117,8.297959487669525,9.693684729865872,8.87330408264451
191.0,23.79992137620484,-1.5847650767669172,-25.384686452971984,-11.152056303811335,24.62305043917457,-13.51668788701528,-1.949559090299862,6.241883352248511,2.965075465950691,0.7419036379395867,0.36895029909227084,-3.2627509752850257
192.0,-7.038324568039499,-15.663580593256395,-8.62525602521684,11.310217596516988,0.8253246639899139,-12.177085106153491,-0.6798284796198436,1.7181951103342712,0.3177544972352133,-3.6658677890996367,-2.9946852862057485,-3.752854287114915
193.0,-19.711703143476008,-14.28545557491116,5.426247568565189,17.040565135072026,-12.534126619908047,-4.38684959606081,4.776893656646988,-1.4019314266468577,1.5491361681614648,-4.178535089211195,-6.132068986498939,-2.3254970120250738
194.0,4.682558180495268,10.820761686488257,6.138203505993568,-7.7058924828813735,-0.7677184447671204,8.43838752077731,-6.948133564137309,-0.8489297566982971,-2.7539799363902207,-8.320160990420563,-3.515951637121671,-2.6386900195134104
195.0,-4.20938283274183,3.7467986768375647,7.956181509579869,0.20127256130154048,-6.11895022570234,5.88374402015611,1.1463603724207503,-5.748579821844547,-10.723551691413087,-6.260870933211538,-5.220871777047546,-4.94101179705524
196.0,0.15836129386731645,7.823388991211973,7.665027697344734,-4.019574540696962,-3.787022515950448,7.772063349070274,0.29724403113870246,-2.3469699720217525,0.5682812310903387,6.716335208233529,5.341318149227645,2.0921274922790207
197.0,5.546822473272214,13.334939872623012,7.788117399350475,-9.391889198519726,-1.0745808744901009,10.586523929340025,-2.3736603749875087,4.2661291777371995,5.690081396730371,11.81572274985428,8.329527464329546,3.1787244865103395
198.0,4.971968108715593,10.353166395481304,5.381198286765198,-7.6960178541884705,-0.15864072560545095,7.81180636146559,-2.002801283056079,1.569902694059891,2.4055166033577002,6.564532068951519,4.8387884742312215,6.021147527804299
199.0,3.072586901918818,-8.957465870345779,-12.030052772265009,2.9031430342432176,7.517826993932423,-10.471435193982296,2.333507386076569,0.026276575970893612,-1.9020719578146514,-4.662980317405016,-5.3195731885125355,-2.175726579680591
