Time(ms),I,II,III,aVR,aVL,aVF,V1,V2,V3,V4,V5,V6
-200.0,-0.44759327305777896,1.7326282953591592,2.1802215684169153,-0.6302407248549657,-1.355484877427166,1.914178953183721,0.9473596033229867,0.06826138345399813,-0.7230953552543707,-1.4481772784940359,2.0559887920389177,2.822167546832488
-199.0,-2.4867962286955794,-3.928096398172244,-1.441300169476698,3.2153744988023663,-0.5673608164668604,-2.735464162122789,2.6078943144084556,3.3591100794677953,0.591907623368372,-3.4273236711152384,-1.5791869118183328,5.025904624662163
-198.0,-2.0307545883632416,-0.5076630610502746,1.5230915273129306,1.27965351589142,-1.7456993961226253,0.528157656620968,-2.1274259101314104,-3.798698627987541,-1.6340370625064602,0.9669010100316104,-0.9907022750222719,1.6971959014056404
-197.0,3.3788642217112184,3.1336235266451715,-0.24524069506607643,-3.236784492185898,1.842300491965199,1.4594194642593312,-2.2438610169204116,0.4375397086875801,1.0523860716580506,4.694111781218683,-2.922946474090745,-3.969982055269618
-196.0,-0.38389959796348083,-2.9663637587574003,-2.5824641607939327,1.7073929244909045,1.1315523218810994,-2.7609538289753495,1.4216887755206988,-0.4137765806352697,-3.298615186588053,0.7225190979286606,1.8181043977233897,-4.219486837071572
-195.0,-3.0488135026409524,-4.666540421241701,-1.6177269186007392,3.823595942507654,-0.757305884045287,-3.126548781538818,2.0988131207782277,-0.058946495121175974,-0.380137302918248,-4.53732857007039,0.7763851258018936,-4.119607716426884
-194.0,-0.17352082775463873,1.408596347592241,1.582117175346903,-0.6436771257416647,-0.8349978690191391,1.4376998825972975,-0.20927769163922394,3.472415058759608,4.849470695637412,4.270502554021798,2.3964603847547736,0.17635184355264277
-193.0,4.814055044729633,3.6271749366432986,-1.1868801080863207,-4.245600496528079,2.969393036824406,1.2486989874341723,0.9471206022065057,-1.3033721838274586,0.09781979193387413,-1.0821197146761723,-1.6092918893092296,1.9023093185064641
-192.0,-0.009859039870169894,1.1192546631066684,1.1291137029768272,-0.5849362427212548,-0.5982539736690567,1.1600786852480023,-0.2372829171844102,-1.4956040685217844,-5.804284423119022,-8.57601064491819,-3.1822476557713637,1.645269048289962
-191.0,-0.2391922820879379,-0.8807840087686437,-0.6415917266807376,0.5997249095255883,0.17194067151122172,-0.7990333908621075,0.9460029582573094,2.2540977689106234,3.5086749749613433,2.995654129137581,2.700632637895165,6.024579058212254
-190.0,-5.503229588613902,0.0674446765875929,5.570674265201448,2.749475421657364,-5.489579236031482,2.860907292004467,-3.638558800373889,-3.0703418747882023,1.6629056507493785,0.27368445662849794,-2.9588912110178507,-0.5350021411632495
-189.0,0.33387854342096723,-3.371901516759891,-3.705780060180895,1.5467942046123424,1.9866352872112487,-3.579431932937156,-1.0173975313722727,-0.9287846239815306,-0.9350507040434665,4.762387055820353,0.5327965719096824,-6.130870211387963
-188.0,3.4137065039193173,1.7339144519373753,-1.6797920519819654,-2.622218633831709,2.5923713920890115,-0.020785079147884744,-2.434889963814742,-0.03717329513001777,-1.0387325038304869,1.4493484138179515,1.0137135762106841,2.79444796018075
-187.0,-0.7915618116263545,-0.9074001333751385,-0.11583832174879882,0.8885391703919825,-0.29000525021201806,-0.4889344125918935,3.3816842359060955,2.1302098015649835,0.9289050938342853,1.2312268966808584,4.407762988196953,-1.3125573351518427
-186.0,-0.46682210919273204,2.6827124580411112,3.1495345672338315,-1.1348146237031949,-1.8359348392777806,2.932947866337154,5.078101421856824,2.425275742049985,1.0755477653518777,0.6289741864473073,-1.0674841541591347,0.38922575471502796
-185.0,2.083654362277512,0.505653276204114,-1.5780010860734002,-1.3076283506774542,1.8049113946321913,-0.5201188394351314,-1.3498338346106373,-0.6220327024474832,-1.9294288994381792,-4.503603429600858,0.811648410043412,0.45331161241037454
-184.0,0.17469624689455054,2.6454266246115457,2.470730377717012,-1.4111245447014436,-1.1753600685879317,2.5793756273530724,-3.6401029434065664,-0.8312068172545986,-1.307457375707376,-1.2687498027417181,-2.786537240926901,2.3798457181663215
-183.0,1.505469350519355,-1.182482779435724,-2.687952129955046,-0.15497370927996218,2.0639695981038626,-1.9040750451727289,1.8514524438762028,-2.3004107309035917,0.5144150694414003,-1.8871489800105206,-2.1025768419265694,-2.6501863983938514
-182.0,-2.8032405901208115,-5.932276565885732,-3.129035975764887,4.376271354303089,0.20041310144091995,-4.567053880640663,-0.6726328438117849,-0.7823352871515796,-0.5588016266095112,-1.6958335865314431,-0.263259264297826,-3.470917701774829
-181.0,-2.8482801886024354,-2.4850081150578447,0.36327207354462554,2.6714488659061306,-1.5779168452418713,-1.0884418286125592,-0.40753164036191747,1.6916223690807348,3.2070740665521638,3.5064675077300054,-0.7964392036122065,0.4865782857226457
-180.0,-0.12540044051996757,-0.006537103119832466,0.11886333740013791,0.06228808220946469,-0.10305676580074419,0.03227671602680848,0.09051452489271067,2.4773851595784926,1.241695757696805,2.688600329844771,0.669849196659166,-0.09830092001084151
-179.0,1.612807456624003,5.150782198316369,3.5379747416923335,-3.3969909203716915,-0.9500509718605928,4.3182580643285045,1.4628779271018264,-1.5444767911866633,-2.60011029423907,0.29244943824392333,3.853389874366423,4.585226250050425
-178.0,2.297313685199778,5.685993202035744,3.388679516835911,-4.019158263869638,-0.6156956603190261,4.582966292145133,-2.6886672820294955,-2.331569826045261,-2.954596598931751,-1.8634509460571418,-0.4038287545105419,1.9525070507509168
-177.0,0.4379150191475698,-0.2163715438712206,-0.6542865630188475,-0.07040153295328544,0.5537114943968504,-0.39925312790365286,0.009531758661609269,1.8307621872167525,2.498131233221964,-0.8857717881265758,0.485955872143631,1.8769447028243351
-176.0,0.6393023304085773,-3.5330119063505103,-4.1723142367591155,1.4794142768072105,2.414667567601117,-3.826570000951939,2.5546036958566725,1.605188177201412,1.2334624287015452,2.762819956719474,-1.2233379254965495,-2.776491111101545
-175.0,-1.0472870399515044,-3.513820194912582,-2.466533154961068,2.2302089686941375,0.7217367739453067,-3.0519381799073453,-0.5249954742706102,-0.7122790685578176,-0.25112530682649004,-1.4850756871648179,-0.661771765679728,-3.8794940484994855
-174.0,-4.8057632090548825,0.4966727519970515,5.302435961051966,2.1819486696870203,-5.037248277805496,2.908764981674124,-2.176524937125583,-3.466964385116252,-0.3696327994221746,-1.4900284026293011,-0.9115246164169639,-5.299624106946481
-173.0,1.1722497759174373,-2.0146000245796185,-3.1868498004970354,0.44950436773130553,2.201891658961915,-2.597929728837055,3.9356780300621597,2.5576210149166188,-1.327106052557924,1.4356217792735102,0.6032402467355616,2.0547879846518726
-172.0,6.052849625798575,1.470811637385357,-4.582037988413217,-3.8106991206532426,5.26649284344468,-1.5577341152003974,-0.6519125714183863,1.8629926292179113,2.8775549276430867,1.2604603076372258,0.1929508206576274,5.226787674418927
-171.0,-0.8112389320457538,2.342175993216287,3.1534149252620276,-0.8129285946927065,-2.028422375217509,2.7427759528474374,-4.194425479772626,-1.656558654533174,-2.1864250054006202,-0.7302485319795837,1.4726819253002885,1.3736140241735404
-170.0,-5.169451055662279,1.784197339290184,6.95364839495243,1.7251892335339762,-6.024873954462956,4.363877694103525,3.5017743348740895,-0.769249294505768,-0.9643286603757217,-1.3926724140433866,-0.6921646368065472,0.1580693264562858
-169.0,-2.538664103671377,-2.861952672191678,-0.3232885685203368,2.7345245257949937,-1.0679313006224413,-1.5939520959036004,0.896053497655235,-0.3280443933293564,-0.8354913921408001,-1.3625711809486065,-3.330721039972457,-0.5673829550145655
-168.0,4.923645385487713,0.27864440741419394,-4.645000978073547,-2.564450180397396,4.825898692608105,-2.1766660729013463,-0.34938327849330264,1.639112528409216,2.0451729068529634,-0.4929844435130428,2.265075998756707,-0.23873882058919993
-167.0,3.974671664788524,3.1237454792022805,-0.8509261855862493,-3.5880312613578136,2.375595955655047,1.1543613858043933,-3.2208929978574306,0.07098870230171717,2.2424086438454833,2.4129465974333866,2.3320376671956,-0.8342287209256406
-166.0,-2.3328732931332103,-2.6359068230577005,-0.30303352992448884,2.448991293721237,-1.054408750506608,-1.4381068142191502,-1.25875133901497,-1.2246379469732944,-2.221940480153216,0.39122776798081804,-1.2694202538103505,-0.13705333886347626
-165.0,-2.0354934029358205,-1.845476073734937,0.1900173292008845,1.9867972941544378,-1.1563989718886156,-0.8621489349759303,1.5478709312829002,0.3394458394590366,2.897359891558596,0.6102534222748465,-0.360308580632902,-3.139191215636618
-164.0,2.49717770974832,3.0761017717645665,0.5789240620162369,-2.8168956392366846,0.9896144277816308,1.8031205846636558,1.6870605362038393,2.3337098032206156,0.3856219722903359,3.2299878514802782,0.026765212817001838,-1.537839555068951
-163.0,-0.3106973056585137,-0.7225793282319471,-0.4118820225734444,0.4879639618555274,0.07790260509824806,-0.5862846765908664,-0.37670262269837396,-3.032642897166636,-4.99211026711229,-2.3650654668714317,-1.0242240275798538,4.794816422553594
-162.0,-4.5583494006216245,0.0389137474861842,4.597263148107799,2.31126621135401,-4.550822360322924,2.377977145154926,0.32086791539462656,-3.920885953331812,-4.274316274193552,-4.445782322941477,0.15104228125416722,0.9284867024652246
-161.0,-3.872918356580139,-1.2311655940038255,2.6417527625762984,2.5265978613935856,-3.227739026878937,0.6823844166537497,1.5361510730227843,0.18640927220768289,0.3593796272697287,-1.9782407810975229,-0.04594912120859104,-0.09963618192671397
-160.0,3.160468159273389,-2.3943947146976297,-5.55486287397102,-0.32776643513088344,4.312726844355988,-4.003889973830833,1.3978601998390139,4.998778413950308,4.262708987833075,1.0272593504995549,0.3865122681486824,-2.435671534588589
-159.0,4.510528364595969,-3.4134189975363523,-7.923947362132324,-0.5704756637173429,6.176031507473353,-5.625428007961687,-1.501646709911025,4.642577340835481,3.759731176221162,2.9903897880571075,-1.4073392082252467,-1.0122161608328766
-158.0,4.164925279005025,2.1369407898487225,-2.027984489156313,-3.1725016884854096,3.1354337633509712,0.015151695940049947,-1.509664641713836,0.7950797926836441,2.9411484160492005,1.8108231022271424,0.5053578870227425,2.0471022543614943
-157.0,1.5897118094816518,4.363411824642295,2.7737000151606184,-2.9994150675963844,-0.6333939182338384,3.6080898034275126,-1.675664538502856,-3.3314217098276435,1.5442201755910148,3.457515022959746,2.074933119356533,-0.2017291837892806
-156.0,-3.322515271948711,6.553272823096895,9.875788095045568,-1.6408388175857151,-6.566008890969016,8.179706240018879,-2.4662831763332815,-2.1197836426671937,-4.866568878922804,-2.097378457499569,1.7354002609296348,1.7882918674275015
-155.0,-4.7226729238010785,4.127691484275815,8.850364408076853,0.3478036363165593,-6.758752600927076,6.540600425268456,1.7277637622346185,-1.4473970017916602,-0.6530768711041799,2.1160737892881647,4.124401892309892,3.2917427795440637
-154.0,-5.731151279425146,0.35836466834537223,6.089515947770479,2.7344156002979494,-5.96612594564524,3.205493489774418,4.436001705621773,-3.3561314431255815,-2.3830517184177724,-2.6942960309144075,-4.786660567620889,1.5463155474333463
-153.0,-1.1631309855348557,-9.55108874917514,-8.387957763640303,5.325372556765626,3.6325966175397713,-8.980867970173962,2.1520944049864608,1.4185600589959715,-5.526965916405518,-4.5305530522863044,-2.6717258833543838,-7.029929785221169
-152.0,8.734615450195182,-9.785369322114207,-18.519984772309375,0.49382135512415726,13.647484037124183,-14.160985987528258,-3.048873820635747,-0.9826628691647254,-1.2678857671662587,-7.386499300419991,-5.9613944248921165,-6.494807616152638
-151.0,5.069368562948224,-5.825441528651369,-10.894810091599535,0.34723605235283467,8.00484720434816,-8.370895142072314,-2.2713078668035083,2.160104317631334,5.859485228936204,4.808566352840118,2.0308168839550214,0.7308323602388458
-150.0,-2.4403918481275886,3.2238912300236358,5.664283078151295,-0.3433482517730173,-4.104240047291389,4.425299845021377,-0.7469594293200887,4.035455466636226,5.076147206505878,7.210166258584164,4.221124650259448,3.840275628646406
-149.0,-2.148473030532046,5.630934414826553,7.779407445358663,-1.693630469289167,-4.933019460802025,6.7527494952037035,-1.476376408411746,1.3680147306862138,1.2478819410680497,-0.07852381886780435,-0.5561428082600419,1.8084644357235695
-148.0,1.2926537570148557,9.628117015168076,8.335463258153256,-5.494423477929084,-3.56667451137315,9.014624850274949,0.8438735142369647,0.7392959202997849,-0.6191440583849126,1.7342174039923965,1.5341959317289213,2.121897149381552
-147.0,0.11146181954615708,5.465438397929609,5.35397657838344,-2.827822533255015,-2.587790772649313,5.349046547988089,2.2315901884834917,-5.043604364785878,-3.8054871467831513,-3.2753029452736784,0.3397672344821687,0.3466077826010634
-146.0,-9.401711902472508,-1.4147298514342155,7.986982051038237,5.440382272716608,-8.663902059315731,3.291879856909225,3.337738172481949,-1.7317182205953476,-2.3496383343930543,-1.9980170622564768,1.7467016538776696,3.7800596798166346
-145.0,-2.784812472755444,-7.098984352937274,-4.31417188018189,4.887894326255285,0.7105514023159825,-5.708480964448715,3.585755028661697,2.711541335139429,2.677715060591031,2.8778580684829187,1.529161141041269,-0.7944927045581264
-144.0,8.869510621591571,-2.6356918641232303,-11.50520248571484,-3.0973318829993293,10.204147612611706,-7.073504347874541,-3.4861257963896453,0.5862868448993029,1.3876256209660776,1.0039757214109668,-1.1489134513408137,-3.7662312434505743
-143.0,7.568134623868302,-3.3935681421678794,-10.961702766036163,-2.068306796902619,9.273149473567308,-7.174449063541172,-5.187732724562664,-1.3027067111247719,-2.1730242853101953,-4.723458562491508,-7.795082150079142,-5.042284483167119
-142.0,2.7663572498915014,3.9383819305137235,1.1720246806222825,-3.328298283041099,0.797681372693746,2.571485476246803,-4.788681640417674,0.8939307917700372,-0.8468248373783279,0.8357359864590752,2.452479548230694,0.35844241741588023
-141.0,-8.975983469301216,2.8971382983860923,11.873121767687373,3.073519904831663,-10.429303517709306,7.419120751848609,2.6787482701759857,-4.072364772341164,-0.25954245409605126,-0.5356723481750735,2.577486732913133,1.9597938475869112
-140.0,-4.349233293032872,1.7656366510389283,6.114869944071831,1.2595385168329032,-5.23827830310098,3.9141480082901206,5.0491996201490315,-1.174712490740413,-0.7189870542781127,4.518584327314029,2.0297594378533432,2.0290732298479446
-139.0,1.3600740537531903,-2.87168919132599,-4.231763245079173,0.7348722642256249,2.7927902508185944,-3.562487610090308,1.9069308115396808,3.7256885447818457,1.501753484683165,-1.73465764270192,-1.7604121285841605,1.1693013332903557
-138.0,1.0214689086640782,-7.212705706330688,-8.234174614994776,3.0819735117402374,4.632324970247409,-7.725829324404421,-1.3472807653300443,7.448374879898329,6.284826052057303,1.0506798088074272,-1.6521841290341293,0.5843433143103542
-137.0,1.0514851215128442,-0.6404632920976683,-1.691948413610515,-0.21729649704058807,1.387343028034004,-1.169163493545547,0.4716789832884309,1.1619916672896085,1.2148626698617675,-1.1092462666299565,0.12443082893006929,-0.6736105253658627
-136.0,-0.5257591611783436,1.6150848470932408,2.140844008271584,-0.5594991280453276,-1.305059191276699,1.8658287055373075,-0.8680384125967605,-3.026507736971325,-3.644112911057279,-0.888916957196116,1.2099458691813016,-4.173249945727781
-135.0,0.6457542469710418,4.3036614917340135,3.6579072447629795,-2.4168191101677867,-1.5450576957811257,3.953384189791043,-1.42504163241393,-4.45364957651292,-5.188927162379725,-2.08648000698633,-2.230250886759195,0.9349036408583444
-134.0,2.1150580828601777,5.046295792037316,2.931237709177141,-3.6082275778629214,-0.4391512662945344,4.022669302584751,-0.9197885056764598,-6.596504985578731,-5.416132783234904,-2.6614916510468247,-0.027072344926431784,-1.030626001505412
-133.0,0.27390930678795666,1.83093095852308,1.5570216517351223,-1.0069309829157909,-0.5913120342225066,1.712274151676889,-1.1339215556969056,-5.176284342599776,-1.8207581726252708,1.3675888203637272,2.1028773317046663,3.7258166128438086
-132.0,1.7349463436069565,2.286973535341417,0.552027191734463,-2.0485408876987465,0.5596162147040272,1.4269370297479578,-2.4893257504074606,4.6275537787748595,7.22715137336295,5.5232937187839575,1.513697753063155,4.877997533092778
-131.0,-3.3581263348843047,-4.783310128589411,-1.425183793705097,4.1082390952501955,-0.9279665787312398,-3.101896838083243,5.137686070284166,10.069612764994714,8.013429706850744,3.021323366943851,2.0473917067477116,-1.4630897997699877
-130.0,-3.2786693937447384,-5.134350249039265,-1.85568085529452,4.161111716420601,-0.763189982034725,-3.492786706727117,1.9659809790460288,5.047790691253984,0.8116973539034174,-0.015107138862421765,-0.5858444167022248,-4.485028020168789
-129.0,-3.4120549281256216,-9.791057033721088,-6.379002105595475,6.62942109433554,1.4988254421348643,-8.079878420205468,0.7413484426498964,-1.0029146057442073,-4.031070679066739,-4.027377931154209,-5.007458040247935,-6.280615524955763
-128.0,5.996558704062228,5.755390233684834,-0.24116847037739886,-5.933388396428242,3.125223415233963,2.6874931921284597,-0.3677930296447387,-3.4420460362956207,-0.8428574941433151,-2.4814145982413764,-0.10407160055691556,3.755132625493598
-127.0,2.630497597625332,5.901557507554864,3.2710599099295194,-4.250768465905772,-0.31782005957955684,4.599293983491698,-2.7242703397185113,-4.430588348943349,-2.289440039871958,-3.11644404156031,-0.042016156614026245,1.216497988221192
-126.0,-1.589473674127758,1.354464204754688,2.9439378788824477,0.1293417513883206,-2.261932682585258,2.1657915507836454,0.7991368505751535,-4.2881364603501,-2.4417982879171163,2.407297742065739,0.8309592434185991,6.015772478955542
-125.0,-5.052133960069215,-2.6147151036431384,2.437418856426074,3.8464212121319497,-3.732005576866535,-0.06813347524520674,-0.8031346576430066,2.2276276924201204,0.09517072009310201,1.831200029010116,2.946539416921452,-2.7250418044467466
-124.0,4.422475919734809,3.1156828764831377,-1.306793043251649,-3.7496994426509973,2.88903655181162,0.9297494804908689,-0.8121991680498652,2.584079120508265,2.2661333400263133,1.1528498067348862,0.8739130551344192,-1.0003296370683328
-123.0,4.544921661978528,5.19524120211244,0.6503195401339684,-4.840261057762088,1.9052598200119506,2.874958824480904,-2.953753970340413,2.0682945622315825,3.1739937776775373,4.879780328183098,2.2288775009333595,3.91238132861136
-122.0,1.4886787124525114,-0.571766525084733,-2.0604452375371776,-0.4956053630859968,1.7425632794534545,-1.27945592102002,-0.046048892347592185,-0.866402287333206,-0.5433722837292154,-2.733243045123083,-3.31406838482926,-2.978475028823496
-121.0,-3.8000591725636133,-8.526857337439052,-4.726798164875385,6.136102414992313,0.5158424589957361,-6.664268319396886,3.17728216024326,-3.216089304779409,-3.753297335338691,-5.367012721858733,-7.757296280398394,-8.544983131810554
-120.0,-5.773938418999857,-4.339497881115356,1.4344405378845178,5.034402885802449,-3.6297639212269655,-1.408729998039009,4.228251930146351,-0.691996058212007,0.1811354084573279,-2.3234064432974684,-1.3359741420593836,-0.993940246791194
-119.0,-1.0214780753357213,-0.6296751715616282,0.39180290377405785,0.8809561354517155,-0.7358972739552978,-0.15418409788038023,-1.0504926777819499,1.7720198014584456,-0.8249902321130694,1.0722155435755645,4.524737290097596,5.601124522496869
-118.0,2.521311019767035,2.195575571130953,-0.3257354486361528,-2.388618918770102,1.4664942747112422,0.8966981276934176,-1.2052757913153034,3.4662099778176985,2.3457577677054373,4.567588487639939,5.0410301298068525,5.5807620248364325
-117.0,0.9348178384559864,4.530057014493967,3.5952391760378997,-2.6946417316207896,-1.2947357813664284,4.09826479023057,-1.0846952166547232,1.7082748467335778,3.705339006849348,1.507485748602504,3.9172318982953778,1.3283709458994317
-116.0,-1.000737620210732,1.9020776989503592,2.9028153191610278,-0.5037100569954887,-2.001835608433003,2.4321889893728144,0.816075158094263,-2.148594223894264,-3.4045373052943035,-0.02687159148149809,1.9165631074530742,0.009532664543924874
-115.0,-0.30534038068877534,3.1347049577750288,3.440045338463783,-1.3994571259853728,-1.848808435503018,3.3110206700761213,0.22808081194500351,1.1707620372033265,-0.32827110858560116,-3.418785215235047,-2.2709615453827126,-1.8182986800747039
-114.0,1.8977110987671861,-1.2837524060532806,-3.1814635048204565,-0.2981804846398076,2.4827076205106624,-2.2937455550433774,-3.461082339221469,-4.529654952279182,0.7223759574649964,0.2912679091331323,-10.080771986250825,-2.1283396906048337
-113.0,2.3984534974594567,-7.509417483860734,-9.907870981320157,2.5632717073350944,6.176138837599983,-8.697004656622886,2.1721098996354886,-2.503624194439954,-0.8913434842857313,4.140636381669732,-6.6130777169048915,-8.33774171962314
-112.0,1.4976087913399152,1.6548295032147946,0.15722071187490805,-1.564176269177607,0.6970569130936766,0.9118287899178492,-0.39195174819139256,1.0863137626988382,-0.7764159202220662,-3.141388393266059,8.951785619265488,3.0037244511094228
-111.0,1.8188087461838434,6.413636319914836,4.594827573731012,-4.096296088936951,-1.355693378591428,5.50478004237007,-1.6539399127629801,2.169185157475317,1.5733652742628965,0.0053169327758435525,4.286501647237472,4.669987689215132
-110.0,-3.9229871219397476,0.5998375997372365,4.5228247216769795,1.6117187376986228,-4.264327474689567,2.558058065938777,-0.015519530566705797,1.0033359636227959,0.4544840977958397,-0.1100672078448956,3.42786835518157,4.394401337119593
-109.0,-2.855169692090238,-4.336752962279718,-1.4815832701895055,3.6323678054959387,-0.6471344945738373,-2.913751291983111,1.5376167724947987,0.7651629522392971,-0.7467350766293583,0.5708941235353837,-1.3644789893462952,2.603404822080853
-108.0,2.761062107057716,-2.308800650170641,-5.069862757228387,-0.26402839926938815,3.87445942894551,-3.6917576832086625,1.5858426428209373,-1.0740013972102627,-1.2032048372075754,-3.0557457511069965,-3.4817482096839156,-5.224465892418499
-107.0,-2.3558734896937468,-3.84463469195975,-1.4887612022660486,3.0635754735366993,-0.48074679409562726,-2.6630722235380797,0.32116577381642797,4.056892484162278,0.01636081367335121,-1.0541029306813556,-3.3410755780438635,-7.245502789273599
-106.0,-4.527676349501089,0.08090687357901494,4.608583223080058,2.2646282148899184,-4.545257133916378,2.357867084405084,0.925242624623238,-2.7287908537934094,-1.4473091778211018,0.2411500213414955,-2.6737025678845594,-2.614979310982771
-105.0,-0.2495802927062276,-0.12607293569319666,0.12350735701298765,0.22802146817280566,-0.17180612019410957,0.02333226008056921,1.1112163387846161,-1.535721555580941,3.277892078734541,2.463119038527518,3.322690690293749,7.2920108677472495
-104.0,3.43899313086197,6.8454881128438405,3.406494981981831,-5.180509731251654,0.02652934395706552,5.083147005155946,-3.4506143211218285,-2.0868752043666206,-0.1567513823498552,4.172962987062868,0.8305404910867624,2.522533655412251
-103.0,5.516130309809489,2.171459329250119,-3.3446709805593926,-3.8010822504456145,4.441773231544269,-0.5419443604153127,-2.1313471239745834,0.46890799115288084,0.5559903441597054,0.9118664028017631,3.253282602147012,1.7080720499407573
-102.0,1.4121564332365315,3.6227225016078792,2.2105660683713597,-2.54978193954724,-0.38141097575986294,2.88712021106938,-0.24270351496412967,2.9226786225323,-1.9370906654889206,-1.2451207929575083,1.1761530710932904,0.2139769729125347
-101.0,-2.349162031793589,-1.22661998522229,1.1225420465713458,1.7594651499225162,-1.7085734054575763,-0.08150056806990885,2.4514864531293754,0.6216544571072156,3.3396647688796826,-1.945394042160865,2.201418162010022,-3.8753409900374325
-100.0,-1.5531861214905178,-7.095818823847604,-5.542632702357032,4.377527437548219,1.9524434057370077,-6.351899222765592,1.026606811583156,-1.2112476469934228,-1.6543984067252435,-3.3797657256627294,-3.9131635718656383,0.5735045069997287
-99.0,-2.0620703948910326,-2.0459150120893614,0.016155382801695595,2.0286514662235606,-1.0754790545335906,-0.9730129075468108,-1.5734983780452187,-0.8875802461805746,-2.953431222459827,-1.6067561762295959,-3.1779521364778276,-1.3436786311067022
-98.0,0.9830150505181998,2.5650030622515527,1.581988011733338,-1.8016946325380006,-0.33453749785058007,2.1124520340224464,1.6267170268139184,-1.6947620025640424,-0.838271815829297,1.7253000218288101,-2.389381160321606,-1.790797049739559
-97.0,2.850324688913873,-0.48511924318850563,-3.3354439321024185,-1.136204986659378,3.13411581361963,-1.871661482507132,-0.9392807461298657,0.35281960504954146,1.3575407541105458,1.8889413771275114,0.7511499183644137,1.5143305531686606
-96.0,-0.7309309391470168,0.7346034066549731,1.465534345801948,-0.04006155499151076,-1.0608564446792303,1.061989878632665,-1.62309862192193,2.6017526948499548,2.2563071063584674,1.550605157534705,4.101302523272564,2.780178073971076
-95.0,-4.196719518602398,-1.9673774340909733,2.2293420845113925,3.1170154183424534,-3.2569107112469076,0.09610104537940978,-1.0060996269101676,-0.5130944469118861,0.3378958450006555,-0.34915971165444604,1.3189966799979453,-1.1795941272480537
-94.0,-2.2072269242373426,1.8661184666078765,4.0733453908452075,0.12303582515128952,-3.1047589918339984,2.937818673680102,4.032748386183525,3.29614470332846,1.9384356749233145,1.1057505883723588,-0.91399382517325,1.1508050333402349
-93.0,2.8973568470653577,0.6980017137664054,-2.199355133298966,-1.7673065953732658,2.587853429710056,-0.7018282383898109,1.5484724645946166,-1.0085097241586563,-2.0532665533220475,-1.163554038599452,-0.29823665823245005,-1.033724856704823
-92.0,1.6046094534336517,-2.4681547790945246,-4.072764232528172,0.4644174965144081,2.805238196985399,-3.2991716551828265,-1.918145455281354,-2.1715422323400198,-2.4505755613412257,-2.1148276535299013,-2.5866271387775055,-0.6895824348882869
-91.0,0.8610279866460147,0.8101698269927932,-0.05085815965320384,-0.8769611902066461,0.4277532781329423,0.4307112658054928,0.11740090617039589,-3.984503985528147,-1.022575859993421,-3.1476971213667557,-0.9819219463998402,-1.898066609908496
-90.0,3.0048929944967755,7.823526541405001,4.818633546908262,-5.370958407906367,-0.93257449569999,6.294842505302138,-3.019463201640848,-0.19779816779318282,-0.40817452374125857,3.801807601743514,2.8826695677362775,0.4381829970009238
-89.0,-0.7302462082707146,2.0762592377657487,2.8065054460365233,-0.7030296810251386,-1.7168337985948645,2.4171908762780143,-2.572992345960955,1.828922022474271,2.768835079597527,4.101056539906301,1.5828690834235852,1.6541576034051484
-88.0,-2.44263856456643,-6.8797459549038384,-4.437107390337348,4.635199628510977,0.9646658034307416,-5.601675021477371,1.6100932020629493,3.5586210374780882,2.2295817130706532,-0.08178850584141117,0.4643201442696867,1.1275208704380832
-87.0,-2.332783638253788,-4.822642130205976,-2.4898584919521523,3.5540699531972972,0.11679359338022768,-3.6767860804067927,4.499590574123979,0.20589559286865944,-1.0196372810079675,-5.381925319155567,-0.45833103511811235,1.134215983204243
-86.0,1.6552805347697492,-5.302421853865642,-6.957702388635416,1.8798246273688124,4.2574618386294425,-6.150821305298851,3.069040218009416,0.20027164161955585,0.026374182745622532,-1.2382674901679194,-4.090773818823749,-1.347078684681878
-85.0,-3.413713715662369,1.7269335267831685,5.140647242445491,0.8214919972465851,-4.254586469881833,3.410501490536608,-0.7299577931167425,0.6267850137386741,-2.392212511917083,1.2992764308796692,-0.9210502503909768,-1.3711586157343936
-84.0,3.684793113141091,4.243744050394119,0.5589509372529708,-3.9071579365887774,1.581328520720514,2.4519602567677317,-6.063465134514926,-1.8244285011392483,0.917890658776108,2.794840201014826,3.9330547001943366,-0.9352701835544319
-83.0,-1.4037605152999002,8.075007261123169,9.47876777642303,-3.3578458152121877,-5.42345472588792,8.742183045485055,-0.05676272514682834,-3.813810578162815,0.7344048592780759,1.071594031977389,0.8187135388879054,1.9332108562512085
-82.0,2.1994724223704543,1.4050848434718586,-0.7943875788985912,-1.8268555757003087,1.4386360189243856,0.3420959647023234,-0.09696340917324942,0.805728662314936,0.9790916483739037,-0.4464891445299519,1.066806496475166,-1.7687404306190118
-81.0,3.2277020191058656,0.08013231263651144,-3.147569706469283,-1.6833160468005133,3.2128356918073697,-1.582682420594265,-1.5486655823318518,1.6558875107457913,-1.2398868193046761,-0.25886634983924617,-2.5243709717578255,-0.3746896257131091
-80.0,-1.09755839703346,-4.861158553611095,-3.7636001565775614,3.0215653615184532,1.3634894906485726,-4.288350340323633,2.7922483989029434,1.2637858635424513,-1.1112322191925625,-0.13323098916361664,-0.8494946210080717,2.826778130117831
-79.0,-4.550285593668932,-5.191890470886029,-0.6416048772170537,4.826247478294017,-1.9983926969392187,-2.8968092982608953,3.208557590088335,1.144471291955709,-0.1385038912960717,-3.137320229472786,-1.2295407715966482,1.6915270321207112
-78.0,-2.08253833419163,-3.2825432375025656,-1.2000049033109763,2.708862057967809,-0.40452572968965067,-2.223764500376541,1.3176617402771142,-1.0936193166036197,-1.1386186676847168,-0.9955754909180082,0.7750049463267392,-4.599797779624303
-77.0,-0.5180396993602716,0.6205836829702083,1.1386233823303928,-0.029922744696889936,-0.8708818832942031,0.8172551991346781,-1.2904541067710005,-2.500358324953228,1.13087102878307,-0.5694178793012212,0.21140077385477807,3.1199124741324797
-76.0,3.7603813411090248,5.6669497120694485,1.906568370960339,-4.693358727114558,0.9604715562098978,3.8029724354403385,-2.6774073749340026,-1.118230462791898,0.9726667353644431,3.463623435180238,1.0881528005989751,-2.905882217466674
-75.0,1.710424994515029,2.979714916063873,1.269289921548816,-2.400248210697475,0.17189660647066962,2.1412291791400517,-0.9181539215450245,2.7200631173359398,1.1907831302191307,2.5087636627766274,2.6047468821698443,1.4173813911950432
-74.0,0.8217907943024667,0.02321080256556529,-0.7985799917368508,-0.3918759817566748,0.8374857398755833,-0.36971457707738087,-0.45334910970189735,0.9963666669934516,1.5494931183507867,0.425755492919218,-0.4055629589580205,0.21760495650517853
-73.0,0.5017625871804452,-0.16636453068624601,-0.6681271178665962,-0.20612122943501132,0.6114509679187776,-0.47589266118988494,1.0375421510289518,3.500665063279986,1.6325513427117604,0.28075786489392635,-1.3884306442364294,-1.0902077914818253
-72.0,-0.6401815674986782,-2.9550227689273534,-2.3148412014285906,1.8488341419158576,0.8655179812966441,-2.6117172387358853,-0.9190498592914317,-3.253355524531485,-4.896687797721576,-2.683023860322839,-1.380039056205157,1.1757389750705014
-71.0,-0.9071338054916065,-1.5978616400973984,-0.6907278346057275,1.2355708314264457,-0.1550481945133475,-1.1171847033666256,0.7775353876535314,-2.0919963055547073,-2.7747941207593514,-5.04042724473826,-1.8559664100806308,0.11654179158367833
-70.0,-5.473327759535502,-1.5918987193160068,3.8814290402195404,3.5246017596611527,-4.7195867700435095,1.1759629344737261,2.3606436028725897,-0.05772528379968778,0.22181763534871246,2.532408623308026,-0.922865170401532,-1.6082781649594395
-69.0,-0.47254462275969855,3.1469973374948856,3.619541960254609,-1.3389837772648556,-2.0052843535968767,3.3391395549951604,0.790261114620979,-1.093898187802757,2.1238227252804647,0.7852572281979904,3.3502632335549665,3.0144368495932925
-68.0,5.902253882345789,5.100937343457699,-0.8013165388881134,-5.500183820798215,3.395134642925088,2.1077059111173777,-2.017707288207161,-0.04531729871297238,2.4756721332922447,2.49227249129418,1.3748816461831255,-1.097766601063246
-67.0,2.084835413213058,-3.916354761828208,-6.001190175041305,0.9174513342100412,4.007704712463925,-4.9216616707615035,-1.0649615664238767,3.129257487467432,1.481676402727391,0.575378483498123,0.6524697164255479,-1.0085817537824604
-66.0,-1.7396475255946262,-2.1586392417678124,-0.41899171617321507,1.9489302059469256,-0.6984213291170596,-1.2522010539441346,-0.8337861570245514,0.4613998077388206,-1.6134314658780868,-0.27137713465115254,-0.3830558551126979,0.8095188621769942
-65.0,-3.6082740337463397,3.218583485233796,6.826857518980139,0.19150987894245652,-5.182322446086426,4.980337166316196,-0.4502304873509442,1.2841660557528287,-2.6980066551242294,0.36863906575505095,-0.1950674400878496,0.22165288347799775
-64.0,2.180083815217363,-2.9856008885238845,-5.165684703741223,0.395992074091438,3.7009879768659983,-4.116605263814337,4.912589648089836,-2.5834827419185684,0.3046106702482805,-1.6274615648460553,-1.941420740222216,-0.032981413533022946
-63.0,0.19205090727901614,-2.4083785853144484,-2.6004294925934497,1.0981849236689307,1.3381200005573,-2.462437603735591,0.4141881694615943,-1.0578232257591977,1.161791656795844,-3.369767757549612,-1.904673382901561,-1.831917876116048
-62.0,0.8101572830078879,2.828863035236721,2.0187057522288376,-1.753798920669896,-0.5898766427422154,2.4728797084621927,-4.973130171442577,-1.6666312666110334,-0.8069843053001966,-0.45172199037863847,-0.4900255844869478,-2.090810342151918
-61.0,-0.07357840514095926,-0.0328216357470974,0.04075676939387951,0.036644604537386716,-0.04639096730228165,-0.016670308848217186,-1.7588041543431858,1.3329443880633713,-0.12345997687965665,1.0348142447156943,0.1002335988328314,-0.07831280700619658
-60.0,-1.8302969278037198,0.7891093455101658,2.6194062733139125,0.49931811230753975,-2.21431943273066,1.6923505832349848,2.269598827117737,3.3111461991197317,1.5855166698086147,4.0927741470923715,4.127585284775101,4.531729942437578
-59.0,-1.766241867637482,1.0531336813771344,2.81937554901464,0.32909628102774047,-2.279232258476279,1.9302035866889375,1.5465081535662624,0.25875120768504867,0.44322607213369836,1.8233581901335583,2.0650039797665283,1.4868011693289696
-58.0,1.7166960724412017,1.3998873873297801,-0.31680868511139404,-1.59270787049112,1.0358009942202646,0.5364315658395833,1.0248510163030635,-3.200310205150914,-0.23471323400171107,-0.8811934551190337,-0.9418800638916183,1.2608272518933665
-57.0,2.3220274565209804,0.5999657634082725,-1.7220616931127042,-1.4228715565179582,1.9690411853125154,-0.5708256854874897,-0.2447384335744709,-1.2082773122770396,-0.9503407979970117,-0.8403848986039213,-0.48238911968875375,-0.8034713041075344
-56.0,0.6385756910035679,-5.32023277765521,-5.958808468658798,2.3751590615262117,3.2526113409369692,-5.658660383945765,-0.613397522989956,4.365352795337589,-1.112236449119966,-1.5149232919866202,-3.9772536238122167,-2.6272217490602943
-55.0,-0.11159918239535704,-0.7841414934544759,-0.6725423110591398,0.4817371902473564,0.3197553735280876,-0.6805599946517846,1.2073564162697363,-1.4171807718524807,1.147135686914258,-2.642642782321967,-1.2879448578799269,-4.687422240863295
-54.0,-3.014806695386063,1.2007387432748466,4.215545438660886,0.8646836358941652,-3.5698668208555926,2.665634410227412,-4.039615902299077,-1.8277279531329063,-0.7858513345102347,-0.627094235846275,1.9472428067322383,0.48985851620286036
-53.0,0.7027877987662707,3.784055736254076,3.08126793748776,-2.2816594099259206,-1.2177724766463907,3.460005504480584,-0.04728390941086813,-2.975112436936681,-0.12583438526352023,1.2305993604475476,1.4709675291184245,2.830602497516335
-52.0,1.4806323806714343,-0.05807128090250546,-1.5387036615739857,-0.6669165075707396,1.5626025649132296,-0.7760931339512069,1.8316698136147522,4.129752459039763,1.7101176558733096,2.89976787971797,2.383161756330028,1.0937464639667227
-51.0,-5.4147568739391625,-4.566137900307493,0.8486189736316254,4.958110438431922,-3.158339567704985,-1.837869457787289,1.4657561187442631,2.2768276130265614,-0.19402446346055924,-0.20443810861467782,-2.6588871652587818,-0.09160394256670057
-50.0,1.8090414181445036,1.8451700314507058,0.03612861330617359,-1.781205103017877,0.8545303885850241,0.883729816118764,0.932703026848972,0.012036995262235672,-0.5570315402091462,-0.9366508557980106,-1.1982583565446303,2.8857427428844327
-49.0,4.620960183269779,3.023590652980465,-1.5973695302893247,-3.85800322065428,3.067944302555206,0.7365844788084758,-2.116626739594044,-1.4211301551530204,1.7818084987774752,2.519445239841539,1.3578653320084788,-1.1449462226674636
-48.0,2.84238945383068,-0.5148808283527759,-3.357270282183436,-1.2036950040484302,3.126092632231369,-1.9901911553147336,0.3512997216397985,-2.19880214237801,-1.933828059423722,-0.43106681782971784,0.47303140354166445,-2.8557236501720333
-47.0,-4.131587055069179,-5.292242980091379,-1.160655925022155,4.746643762011026,-1.4692474104514706,-3.201450396074749,-0.9457537055605932,-0.6995463676207709,-2.30905827068933,-4.714130637492579,-1.2200447438777067,-1.988772736623929
-46.0,-3.614227215228271,1.1147641560351533,4.7289913712634775,1.2818010021827582,-4.16099971421823,2.946864898849637,0.9618948460854773,1.3412551051357848,2.862953312741821,1.0205400400058284,1.3614686358249481,2.772234876989571
-45.0,0.9665767781083665,3.2133259227338717,2.246749144625546,-2.0585777935635408,-0.6286431705577906,2.755266901293595,-0.938729821165059,1.1939288399615224,-2.274220159424207,1.5239086512459465,-0.13927084786294647,3.1275013579738573
-44.0,2.391360110522394,2.790514689004826,0.39915457848244906,-2.6374357974827385,1.014857381756933,1.5421325982577565,0.0649142634911149,-1.752193809827377,1.722082479325542,1.7412306442131469,-0.08320371139853408,-1.3310817911062063
-43.0,-1.2063769922386096,-0.13044402930285637,1.0759329629357326,0.623361889556902,-1.189294532548956,0.4999809684163966,0.1328471700268632,0.8883414620459573,1.5185574145568392,-0.11861878900971601,0.25685994209270074,-2.4616810752060894
-42.0,1.5268995695831962,-5.8236191054402955,-7.350518675023542,2.183040251828841,4.48251851963221,-6.558871935932176,2.489195981174792,0.9326536549698536,0.12800951885133427,-1.8673347391330004,-1.7510695153166358,-0.7099987322253658
-41.0,1.3015039858148014,2.375827368778401,1.0743233829635586,-1.804112942530912,0.08981706496964148,1.6746373472887868,-0.7017524063947125,-0.4161001654996701,0.2277570496544128,-0.15778453859993358,0.32552927428493417,1.0456661411916266
-40.0,-2.813456824490624,-3.306607761201138,-0.49315093671055543,3.014519329725588,-1.1772578864235468,-1.8725119581363505,0.021810057766057794,0.9639921089551244,-1.7840194051200322,-0.3959432929051039,1.3583406515614294,-0.32397786514492977
-39.0,2.322241039573742,1.1364248600623608,-1.1858161795114155,-1.6981956627005028,1.7382300589318618,-0.07763290509483925,-4.156293714643827,-0.31522380731852406,-1.2519574947469292,1.9927896603111304,-0.23885641306497551,0.24717766960775872
-38.0,-1.5524781700745598,1.8032828196269723,3.3557609897014986,-0.17518889261287351,-2.473169492562324,2.6041951846387934,0.31663914992157327,-2.114141405837213,-1.6248925295820311,-3.1973970917301227,-2.2319348484595705,-0.11945924149180259
-37.0,-4.068896945162464,0.013360964556855981,4.082257909719303,2.0552334557142515,-4.021804297717441,2.0728992347122763,2.8861748466894515,-0.8829961601258423,-0.31376784739732705,1.0480487443449444,0.43880027302049474,1.2316492407273543
-36.0,1.780917742204299,4.343439044853531,2.5625213026492486,-3.035065032265363,-0.34360335428345845,3.480691708321619,2.2446504275044936,0.7839525737221278,3.3511091605019416,2.2073976689222445,1.428023173734533,0.32890978477979277
-35.0,1.3106898476550806,-1.690243883675151,-3.0009337313301754,0.21765016721492692,2.1184482944176244,-2.3920388931200414,-2.8378675149667503,2.1646870077955818,2.5090930308611985,-0.8712562641487279,1.0493703704483694,2.1816517143651826
-34.0,2.7835973120364725,-0.9993997579319129,-3.7829970699683226,-0.9415903910117416,3.24145404239835,-2.353421185740647,-0.2895027600033957,0.7643613190291915,-1.0728956692859815,0.44308154418791185,-0.6758641777993295,-2.145216864060945
-33.0,0.9638620228980026,-3.309852690734221,-4.273714713632159,1.1248913574542776,2.6525406585483617,-3.827870556956478,3.635516370369837,0.973326630941739,1.118027186613491,0.8148196492932965,1.36038872163979,0.01654343445104378
-32.0,0.7360174073906407,-1.7518290460168318,-2.4878464534074576,0.5394946593359273,1.5648995795932106,-2.152966132203093,-2.6747692977066677,-3.2312304630425883,-1.4032840446760753,1.6514045106083424,2.621459335502546,-1.5154152174114741
-31.0,-2.677390741980298,3.8849716470608016,6.562362389041075,-0.5719385023955194,-4.589310649497343,5.269503628777054,-1.9556115351211092,-0.36152931256803456,-2.8662167291460543,-2.3370334223350158,-4.037733168079684,-2.04571388021647
-30.0,-4.560233998011719,0.2187074060365919,4.7789414040482505,2.2019744809063195,-4.639629362365463,2.5419451046100257,-1.2626178626925006,-1.7030632404709083,0.1380087984574827,-4.136790169144771,-5.903421600064011,0.06400827676472454
-29.0,-0.07726045359337474,1.3428931273601634,1.4201535809534804,-0.6822353380367694,-0.719320698679899,1.3406490843715149,1.103827179592208,-0.6798080316217838,-1.3513067338614289,0.8214547231836962,2.08495321650532,2.2385261813578605
-28.0,1.8710381551074253,1.5328987976085118,-0.3381393574989544,-1.6760121407121056,1.0541929152025684,0.5496826015557504,1.7016304120134222,3.7980773922857507,3.307420418788997,2.989225456150559,5.960306475739196,5.141334586879845
-27.0,3.146894825256177,-6.355529590103416,-9.502424415359583,1.5468726929551597,6.272707479599164,-7.904905310062392,3.7112953696804434,2.406753026081077,0.35315059002778315,-1.078975643271747,-2.498584536586845,-6.82083543768613
-26.0,1.4609515501906258,-1.7727611994154682,-3.2337127496060436,0.17221405122705769,2.3727387398431086,-2.4847027558086365,-0.7241735986251936,2.807876482012781,0.3547130903982425,-0.8403777898275041,-1.4988396758141205,-2.447629306687908
-25.0,-0.4279636683364858,5.209179089676837,5.6371427580133915,-2.378183373677501,-3.007064577172764,5.438892536800212,-3.5348007703843427,-5.093911746090693,-0.3127699980226222,0.515444022293288,0.47165823553138736,4.508388707756872
-24.0,-3.5779950762495076,2.0283579282229454,5.606353004472492,0.7858614478338823,-4.563801190294195,3.8335540160782675,-1.7560106463834708,-1.776406448830468,-2.38589657325666,3.5714011825995473,2.8281121452846527,3.168271000269521
-23.0,-4.050743679975526,-1.377594256753351,2.67314942322216,2.7269864709958758,-3.4059814670171376,0.5886221926028425,1.7581575454872598,0.9197185629022093,-2.541154799604279,-4.099333850889289,-0.21892195638816958,0.16543430151203187
-22.0,1.263361716373908,-0.6127623387852205,-1.8761240551591771,-0.30801330550008843,1.6138670857818598,-1.219488998433007,2.6267365693754363,0.6504562885821894,1.1456662072868655,0.554496506602498,-3.2572964306622954,-4.235149729990283
-21.0,8.02823672468344,1.5026012337323316,-6.525635490951162,-4.82115596135117,7.253451959483662,-2.4804031239490265,-0.34126605101608076,-1.1431280687150809,6.879590608282833,5.237471748888069,5.060020590671174,3.6782066926721795
-20.0,3.38232204971131,-0.864226416286958,-4.246548465998313,-1.2308754739909122,3.802010735532682,-2.597044243734313,-4.251455262047042,-4.754942864779653,-0.3953074026810901,-1.6619213898937424,-1.4745358520820193,-2.323479568127853
-19.0,-0.41852416431768713,-1.782851855294001,-1.3643276909762996,1.1320036940869047,0.4697292321064641,-1.6100484908139328,-1.110073771199108,0.7358963489822327,-5.552376833548634,-4.117352719709247,-3.140905815232487,-5.574527536610616
-18.0,-7.716075866374223,0.6460956525976332,8.36217151897188,3.488259467636951,-8.036061369679246,4.550581252045379,3.458560522076913,1.9777610175491014,1.178763358192914,2.684610266647596,0.3497308569471742,2.8618940954422643
-17.0,-8.692611138103866,0.4228280880794737,9.115439226183366,4.087317998969421,-8.898288820951029,4.818548509108971,-0.6659234466012907,-0.7664899432167152,-0.5522437686517825,-0.059477911785928456,4.311565155136176,7.832263067202702
-16.0,2.1589482572324954,-2.170190537442139,-4.329138794674628,0.036369249485943556,3.2489153877430983,-3.277455306048696,-1.344897622488374,5.442606310970399,3.356742935856463,-1.7114271876371498,-3.219127058263608,-3.1732063837604247
-15.0,5.825661647574162,0.9444002928551769,-4.881261354718969,-3.35207809613258,5.354308095512421,-1.996358813748665,2.4502938777693615,6.254274995622893,0.3712468087243543,-3.879352252460312,-4.810438308898368,-4.49970227077357
-14.0,4.413222434765764,-1.26087901898839,-5.674101453754097,-1.536967866532613,5.037873216816532,-3.4972284255462243,2.6372821152957275,0.975471540914263,-2.0140322191143714,-2.0447336353559344,-3.209524493520959,-6.453334355309991
-13.0,-0.348358368014134,-0.6572316925738727,-0.30887332455967087,0.47339194505906645,-0.0341432550463443,-0.43701076403066774,3.3591359311778035,-6.112185550665625,-2.82658769154294,2.790481980301983,3.958044824167666,4.720592237765804
-12.0,1.564770717047634,-0.22282220895016236,-1.7875929259977161,-0.6881123884301596,1.7306583023870339,-1.041125056679801,-1.9604484189506342,-0.18967997082707377,4.891027645403448,9.421235739730594,4.8630445459751455,3.9677224972163314
-11.0,2.1589383659051236,5.500013867410532,3.341075501505438,-3.8349839811113626,-0.6256126112998275,4.460875569456611,-5.577342379324663,-0.024696869919079933,1.041221143392061,1.4818197184442887,6.004975753819534,4.4301777820185455
-10.0,-6.510195715114094,1.3751227990281274,7.885318514142193,2.5702012399434486,-7.241883423728611,4.669347965622316,-1.1501089151760433,-8.156380300343272,-4.0580768830067555,-2.336314523232793,1.7381951260312054,4.7831047427230216
-9.0,-5.411220329036123,7.682887481848995,13.094107810885047,-1.1305428681944132,-9.225653233046922,10.349113899141217,-3.9385892878710327,-6.512456633533391,0.3107310056318815,0.8105224791365842,-1.3360576342205313,-0.5631299459713364
-8.0,-0.8941135688369886,-3.5694864780602695,-2.675372909223377,2.233289592669188,0.9132364160993642,-3.1601853027071316,4.937851566206541,9.554780277577793,-1.07677885404904,-4.240086736186086,-3.744089338634585,-7.1590118043879505
-7.0,-2.2073562352783194,-11.429501173773021,-9.22214493849479,6.810151388193829,3.529616610949597,-10.360502465225196,7.161656679823578,3.4026489313502335,-10.190791847548052,-13.655401406304001,-12.156236467443916,-10.260129458252843
-6.0,5.589271007887719,-9.471590997217929,-15.060862005105632,1.9187954063344366,10.27224666637721,-12.217469021568641,1.6370780032479555,13.00123566884691,6.448233627427085,-9.067588684847326,-7.9854472252730035,-4.607530597074728
-5.0,7.73619990335974,-0.3275810764254081,-8.063780979784989,-3.6638880288019156,7.933003858360209,-4.140778700018513,-5.064139440355042,-8.376442771020157,2.049237493585924,11.250386505108143,6.415774647332302,5.628944160128766
-4.0,14.062091967372208,9.343572287126376,-4.718519680245647,-11.677520518196946,9.353705115324884,2.295341101119,-12.224092360535252,-16.622104774787758,6.469663907030483,13.486449886895555,9.965263424880604,8.322888238326966
-3.0,-0.03126740064077804,9.580210876553371,9.611478277194303,-4.839641100243494,-4.769679214452581,9.584089360911026,-3.627041278283403,-0.40756757140669997,11.130885767760828,16.73061147308495,10.164118183037049,7.759070725593419
-2.0,-13.259328643249793,8.145754111716979,21.405082754966916,2.56393519887116,-17.350972748032117,14.765905608426356,0.24695924267339764,-7.145273743730497,0.2127461364149097,7.43794377789361,6.601783646540413,2.4818274619314806
-1.0,-20.29645479591999,-7.632873098076727,12.663581697843325,13.971639859080577,-16.49312380989695,2.5036624198728257,15.918551960064459,10.12082251046407,-16.91801747638241,-15.33001747999482,-8.526842305843198,-5.116504457783827
0.0,-13.055082935459552,-7.956994490864822,5.098088444594863,10.518759390289695,-9.087464586804298,-1.4475498176529427,16.635707830202993,19.474546070478386,-13.440571911866854,-19.618301318508138,-11.002197227274706,-9.363495775618667
1.0,5.566839846056018,1.1098693518856448,-4.456970494170117,-3.315829320010825,4.999703452720304,-1.700587790468055,1.0784361678041465,11.368712404488265,14.843194781571988,-3.575018001193195,-1.4118978467421686,0.9108638166512169
2.0,15.136769439382997,-4.431906679210057,-19.568676118592876,-5.31918954823851,17.414878085167746,-11.957542233022103,-8.063726182913374,2.754713438425905,10.778771365871712,1.6372778539796813,-0.8208673820784083,-0.9908546989390112
3.0,20.20125868314806,-2.2438695106943056,-22.445128193842507,-9.016184887472381,21.299966077974055,-12.308516397139535,-15.728506473591308,-10.313869257244514,-12.56507624965435,-7.791659564536728,-4.35950172075009,-3.3243212797826125
4.0,18.06478956839377,9.262884799638766,-8.801904768755628,-13.69882332654312,13.402221715755942,0.2628568561900648,-17.876765260977283,-22.673502275693323,-10.788175522430235,5.377382002024648,4.694984650932995,4.283718412313803
5.0,-7.1203443835250555,10.024524811025046,17.14486919454942,-1.4909615429615242,-12.093105399350636,13.537250155563433,-2.6861058471464654,-23.171432208360233,-4.847937037386725,8.076178614335138,8.619680154340594,8.526546517773241
6.0,-14.549800933681626,-3.7190519357195333,10.830748997961358,9.165498157330859,-12.73678535077714,3.508264102780683,20.18727589262431,-6.3180778397953645,6.74315239820366,-1.0005280579550906,-2.0012258783906685,-0.9395197029434863
7.0,-17.921842004810372,-24.93756842309068,-7.015726418280512,21.450245653710574,-5.4261738011178124,-15.946390347969732,20.169743676068464,30.486938438446924,19.99348463200885,3.3142901138702694,-8.931780422455585,-11.249304811330745
8.0,-9.971609468572666,-9.545964773135932,0.42564469543726613,9.770657231195791,-5.174383672964578,-4.5325411427580775,0.8737110878419578,18.519325971524104,11.343324106908197,11.02768247728657,-0.48399110273450896,-3.1566202446064593
9.0,9.181813863608571,24.709816780343502,15.528002916735907,-16.938187786689713,-3.2271867258240228,20.0635075410528,-23.665406173469975,12.81079540513861,24.30754131166643,27.42671106366391,21.748118096784705,14.743198346997739
10.0,-1.6059070092754322,31.310320173024735,32.91622718230144,-14.843689810170954,-17.233241098693043,32.13168409042851,-14.32624928594322,3.001732213936883,-2.471844370840874,3.9642323014766183,13.418755974181607,14.877654706925988
11.0,4.36346437837194,-7.091549728431003,-11.455014106802109,1.3774267348219933,7.942007494838822,-9.259158071466674,14.904300871301139,1.6984158748482163,-33.81366783214681,-36.99678181139595,-19.387168267626258,-11.654354945434442
12.0,10.229010252049534,-29.822890370923115,-40.05190062297275,9.738149189786174,25.099683216599782,-34.92586588619421,22.022880940180436,-11.485298890269114,-59.37606429939063,-50.065896151612904,-34.6791826558548,-29.294132882020314
13.0,-2.1734947998404266,-8.56974305632416,-6.396248256484551,5.397542024293425,2.153169640875266,-7.472052705185497,11.869691065996939,-32.28540288324769,-19.189979089766336,-4.005737928713334,0.14094946997788682,2.716825335225833
14.0,0.05706812620092894,9.718708285580426,9.661640159378326,-4.9368460528403055,-4.8381086475162025,9.702082304715663,-15.53735641924376,-33.85004540718082,24.945099883685543,32.41837925770446,23.458984221033585,17.538603290674953
15.0,0.8260214546459688,12.821014540922578,11.994993086275738,-6.792264606176312,-5.622278985954345,12.342835229676817,-23.50320206439008,-15.994608185403308,41.67878800603812,41.98566270198241,20.46430204613879,17.417417030977383
16.0,-7.127258345744551,-4.370250703976613,2.7570076417675846,5.7796780445937745,-4.9056254813048525,-0.7913231213710255,-0.7992541311006445,23.105538008646107,9.250168635495221,4.382960921161821,1.2137961374283464,-1.160806454856866
17.0,-8.912275775451558,-10.458054047966725,-1.5457782725151379,9.714991236838035,-3.652230527961555,-5.984945773370239,7.0202869161938075,28.196983751833912,-24.12250648117631,-21.038463711877846,-9.610489792747433,-8.267909516947245
18.0,18.153640016149623,10.68199528313179,-7.471644733017564,-14.467595854617924,12.76007795625245,1.6242777635835735,-1.5103706704014046,43.05669317692576,39.30532837387648,-7.223904195738374,-7.069412360803815,-5.092689098968402
19.0,26.948124562977696,4.497148233388753,-22.450976329588578,-15.772194426464209,24.722908947400676,-9.033185014440381,-5.698857551849049,51.868653535007816,75.73733478658755,6.436419788119162,-12.193645884463185,-15.585958240093097
20.0,7.989045281723796,-11.191984101111984,-19.181029382835433,1.6325345890730074,13.608159910932638,-15.158809597108938,0.9516119751986363,21.77196800289452,29.75931127044435,-5.112600737438344,-14.150168525888995,-13.971836917933095
21.0,-29.651865184560346,-3.6337666438047993,26.01809854075563,16.67752189298768,-27.809770354815935,11.226885930551967,7.6166181344101265,-56.36612394224882,-67.55039903756636,-4.6634847412676335,9.681046945579732,11.52058959051476
22.0,-28.962708121825003,5.1231897879965596,34.085897909821455,11.959247508481102,-31.574275811724007,19.568405782309473,11.004419039554358,-76.17572488496764,-100.43747573445312,-9.732680110521036,12.103278469856185,17.68083499958405
23.0,-8.325911473421147,7.253942549306465,15.579854022727398,0.5012711114826658,-11.998752536855582,11.466522996923695,0.4084800242130653,-44.335489210228495,-53.44010322206819,2.4790214995834723,12.301475187724833,11.713194473258097
24.0,2.880116971722139,3.565058345213312,0.6849413734909264,-3.2546445597616263,1.134473106439777,2.0999565160629903,3.1679735933104354,-7.610521794425175,-10.095217231996687,8.552717850949819,9.043659656083557,4.782558163370849
25.0,7.98149775767879,-3.099407206248294,-11.080904963927322,-2.473543012195135,9.571701140763409,-7.115611640486958,4.906441937617716,29.187128836910787,26.531329290670453,2.073671043266705,-0.43991467748959057,-0.7842099228541817
26.0,11.268244898224669,-4.569933983008755,-15.838178881233524,-3.3066593137855147,13.51797071146575,-10.234759143889057,-2.923195750320061,41.54460071896874,51.81323386565647,-5.669974214876237,-15.222661105971115,-13.457733146925866
27.0,6.7875765968751836,-4.962085149436618,-11.74966174631172,-0.8765116696355273,9.314146508291635,-8.316722701160549,-15.852674761516836,36.516719025587925,53.320107769256644,1.0338200774888617,-14.556633359292697,-10.952740475190986
28.0,9.050763662434573,-3.865011329197806,-12.91577499163221,-2.6426814783002763,10.950550677887835,-8.361374272822857,-10.20763441511822,16.459608261889784,35.376155640860546,4.341371911716015,-1.7515827288102166,-3.901308193785839
29.0,4.35606000491041,-0.7995734274878278,-5.155633432398026,-1.7559177424754906,4.721749799589832,-3.0358194988813403,-2.332861623554469,-2.1164049378696053,9.29947900509639,8.397214780406324,6.151793945524236,-0.4852326810498693
30.0,1.2329223792721455,6.1388030219708245,4.905880642698836,-3.6679134059273197,-1.7949813928294307,5.538473237710477,7.068916643836413,-18.72658164258969,-21.547150659278334,2.9386276236687707,5.485117317260331,3.246808907482115
31.0,-8.707532632024636,10.540964090720152,19.248496722744875,-0.9784419434467999,-14.019536964639684,14.911732133844792,6.783815045985368,-23.581836664551158,-35.960480185060405,0.20238354525259306,6.468327025187984,6.971769826633657
32.0,-7.28182556324427,3.781901913288047,11.063727476532277,1.7701248676766794,-9.1399411662727,7.445433489753553,4.191588908415582,-8.287065079287572,-27.684306147336144,-6.611020341769239,1.832377312266062,7.43022089299488
33.0,1.5504577446294654,-4.8024901692824224,-6.352947913912024,1.6531472710524469,3.9809436495143,-5.546908663543588,2.647359804468807,0.11177833774677737,-14.7741215285238,-11.04253439888964,-8.396846093791268,-2.4128754934242007
34.0,0.057433484473175866,-1.8332990396896274,-1.890732524162991,0.9246013489497571,0.9222857374680484,-1.9022745851234202,-6.333057162320254,-0.8944097833718043,-4.813211754419651,-6.257066350553922,-0.9423126342262269,-0.9378546965020522
35.0,-4.040429915003659,-8.563473966380787,-4.523044051377326,6.2698270490655545,0.2672724219705655,-6.579140743814205,1.4997529958391582,-4.48572707185969,14.660875697913523,0.935881129114966,3.7909099420316115,-2.2171275258623355
36.0,-11.577969703440536,-7.31666206740754,4.26130763603279,9.423078786420886,-7.893728004315972,-1.5638501160935432,3.6852888340606698,6.064729204325161,16.228205899742363,4.606709715075932,-1.0591480442864865,-1.731642680980055
37.0,-1.102993115836993,2.6953126753894354,3.79830579122628,-0.8166093458898511,-2.5030402160914123,3.2849595049518534,-1.5579485493601242,5.194022113265373,5.627454747116033,6.953302473188581,2.5908294164462324,2.5653843989867697
38.0,5.109737626854589,4.5483731382290085,-0.5613644886255269,-4.771989580738985,2.8626616528933915,2.0250958697642734,-0.5669217123706423,12.08705928384024,4.944007731113379,6.985464586069155,-1.7047517938013705,-1.196795003648365
39.0,6.882992325423775,6.35263219214378,-0.5303601332798129,-6.645328252072844,3.656226714592215,2.9365095912882797,-1.2029354977489988,2.1066353767584935,-1.2422249362928346,0.012181157467126447,-2.816276737804753,-0.6821948056456754
40.0,4.202812566047716,1.5792677348951552,-2.6235448311523175,-2.927414961946363,3.443388756728993,-0.5794341207982536,4.056443280130159,2.5630772714311734,-1.3523456019851912,-6.254768434632486,-2.0315982691978194,-3.0406283701667904
41.0,11.002192710389771,-3.0775164746570676,-14.079709185046607,-3.929648161677247,12.573798569022639,-8.557877066048494,-3.9504572735847536,-9.375436297826463,-1.5101726480612392,-7.319488618869135,-4.445262075089951,-2.30569332457652
42.0,6.470172063680336,-3.3966097281268763,-9.86678179180707,-1.5124330497311185,8.204078575493826,-6.608685266410008,-3.9776385659217786,-2.9199634815033173,2.0341114808801777,1.0744333740922398,5.495695509947954,0.8240595174248702
43.0,0.5352511257776671,3.139923124978826,2.6046719992011065,-1.818685725153285,-1.0761480055590202,2.8207734545052854,-6.568229904066277,-7.000767143389533,1.7938914173183078,6.464798488561096,6.375612488670995,3.0858405505519135
44.0,-13.068074061283529,12.18748489803208,25.25555895931535,0.37854467473968967,-19.203719878853803,18.75341075150076,-5.238401161613818,-1.6704904660793725,-0.6675204643810222,11.429889700194035,8.120172328620253,10.48960487100781
45.0,-11.69208957127747,1.2517678157621137,12.943857387039252,5.238638709336409,-12.284121369792686,7.133329571703109,5.789147978554759,-1.4606525071133352,-7.3988029810207205,0.6849486086755836,1.0967669583265978,1.128105517752028
46.0,-12.557867015580356,-11.24780135010299,1.310065665477122,11.925472660319759,-6.983535760435541,-5.010534735633104,14.050301039976887,9.031367777458211,-10.773858265284902,-14.255992859490398,-13.01182125705789,-7.7360190573790915
47.0,-0.9326982680966025,-7.905354394052326,-6.97265612595576,4.368796563825675,3.04463915528967,-7.481384930491848,6.375114180565267,6.930547173150868,-3.2284022889333532,-9.498517996135993,-9.154567833517671,-1.5951082666545728
48.0,10.78388905555452,-9.776634365665014,-20.56052342121935,-0.4685841413960794,15.694508708809183,-15.134499322154273,2.670946678410821,0.37001850367121936,6.764772898615097,-5.119713571568463,-0.8394117606083817,-5.728800090623469
49.0,10.063944816741973,-5.124565171623518,-15.188509988365166,-2.4285910030068534,12.649590305193398,-10.12498433859925,-4.013484925218642,-3.3623038510507124,10.510610161011687,4.291866097085755,3.5049020780201006,-3.7828356978246
50.0,5.04865375759133,6.668179025449583,1.6195252678585135,-5.891468505049702,1.7423428724725056,4.095284640016869,-6.533293733421631,-6.358643988059531,2.8014952294482676,8.659997041244502,3.2282386758425803,-1.9635805937677284
51.0,0.8999584755004264,15.082591269996408,14.182632794496103,-8.021806872218885,-6.68578192939124,14.663384809601823,-7.7164773871677115,-3.3273306170446864,0.22945237620069658,10.26571423134038,6.870175476818324,11.111542054873375
52.0,-3.0168842184818456,9.428392608505767,12.445276826987588,-3.235894731257461,-7.768585786820386,10.969995926041253,-3.5892569847713904,3.3554022273153894,-1.640923561875037,3.343226390440776,-0.44501873233656486,1.1223703790456314
53.0,-1.6858457295983005,6.190997804857917,7.876843534456131,-2.2052482404223652,-4.812835183058569,6.991426049511821,-5.526610227869648,2.713890850506347,-0.844703195634533,-2.2219091879549233,2.848894142170246,6.7191436295951
54.0,0.3856262719674346,-0.39974912659570566,-0.7853753985632403,0.05201371468649407,0.6372318832517214,-0.5540593965038707,2.529294642969553,4.135556625337963,-0.868834379263042,-6.589737742061858,-2.636947608306551,-0.6878998544883999
55.0,-1.9128008935182357,-14.793112516324673,-12.880311622806525,8.315985568616478,5.53827869379511,-13.87684565868942,11.833329761573413,1.955222277498117,-0.3232454557539435,-5.706813625594155,-1.4884942146338518,-4.404691445928162
56.0,-4.740921615972214,-12.42904792698429,-7.68812631101213,8.622751090304387,1.450359871226758,-10.10111954533166,5.898298209367809,-2.22155710316959,-1.3437265122866733,-1.2349265883076965,-1.3138002071572221,-5.022598325298068
57.0,-2.2485333906031406,-1.0422620168652124,1.2062713737379456,1.599578694732581,-1.751807827001619,0.11405245598531799,0.31618145503902806,-6.56011376024388,-4.0640938409366125,-0.04087048877388799,-3.448136645934765,-3.852504782768027
58.0,-0.7847641818135003,2.328002781532503,3.112766963346055,-0.8224874343787105,-1.9768272839012433,2.7479933472810076,0.14768966144419682,-1.2138229533110105,-1.7154052742227544,2.9655434084526378,-0.8228846732925161,2.7057143985608794
59.0,4.192754540201761,9.701921439703737,5.509166899502065,-6.923327817538674,-0.6136450897372137,7.629982423152982,-5.697755939994866,2.2211905014006827,0.3085515906871974,3.379490212302368,2.1457564027809606,3.450194936469171
60.0,5.099122172433326,4.960191139050985,-0.13893103338227997,-5.006611003491306,2.576836788270245,2.3553316013362826,-6.729663322124319,3.3447329212890504,5.229057709640508,0.07866732177720515,1.5124178989344046,0.8811682729870927
61.0,2.1911125698869816,-0.19503481711628723,-2.3861473870032386,-0.9718892643218338,2.316398755169043,-1.2659288407670326,-1.143434606499734,-1.9280670001712745,1.1579073097575634,-3.8349880262468075,-0.6273576162261638,-1.3201838813914968
62.0,0.0028568456447943813,-5.495585468314597,-5.498442313959396,2.7794627949312685,2.770136208669568,-5.4696838421608165,4.694166225731061,-1.0354127262259947,2.7488239889986,1.3478925332946867,3.7374619854845927,2.5587120183387806
63.0,-4.118519282578452,-3.1310070626362263,0.9875122199422375,3.588116665756419,-2.540036032579335,-1.120121412005514,4.030079054794555,-0.8483116056922295,-1.5550074263890707,-1.5477285337318336,-1.808738771551106,-5.652596706840536
64.0,-0.9855801769802603,-2.33478715419095,-1.3492069772106614,1.6318389708343424,0.11242832273238945,-1.8091169547777397,0.72621006378689,-0.2767629344351155,-1.9779185971445918,2.2567709833885825,-4.301219174251977,-1.463852599583885
65.0,-4.719542518569317,4.617366777416974,9.336909295986306,0.02763369077533029,-7.0186651770643556,6.932865521448993,-2.283166149402855,3.9166739302462923,-0.41087612666204154,6.2376652683471026,2.202627737670469,3.284863850960134
66.0,-2.4634683680946354,4.251875163829026,6.715343531923641,-0.8391815222799535,-4.5752878639717025,5.519097191275969,-3.17713273126304,4.591394801263105,-0.5324400012580444,-2.5821808480284236,2.607260935280754,5.389947479114242
67.0,3.3227493452953896,0.9297828821423715,-2.3929664631530914,-2.1557911875006037,2.8807272996008395,-0.7736376220972558,-2.058777139138375,-0.951643981913006,-3.1475154128245144,-3.8328373429355467,0.9576135509589311,0.7995319819619666
68.0,5.702337664022404,-1.8613997203369246,-7.563737384359408,-1.8815444733951272,6.6676515327411785,-4.673642348044425,2.3024378979166125,-4.391538832340495,2.041888741389866,-3.82358070584364,-3.149519412687484,-1.7925238777377008
69.0,3.9346301753682424,-1.4011371634046927,-5.335767338772969,-1.3192630585854168,4.603630601018138,-3.325978257598679,2.6201854767336448,-1.6385559385192834,2.2418912070403065,-1.5818229301834448,0.6118101565185654,-3.1778538282689657
70.0,1.1714579077007472,-3.4770645726896507,-4.648522480390382,1.1667324456512362,2.8892482068615806,-4.0945782988640556,2.8460265201822077,-3.381831286764037,1.6813848459082854,2.9606404752452966,-0.6623969611561527,-3.5464898212979747
71.0,-4.780461188666599,-2.7683059040159836,2.012155284650656,3.779273734064856,-3.4100785885473597,-0.40532260525894803,0.3264854700419584,-1.325366044927546,-1.7392720235812678,4.7830119659636585,-0.8579548766396339,-0.6395299756235546
72.0,-7.891074760780309,-3.3396441870396734,4.551430573740701,5.616782792323799,-6.232889719772447,0.5822769452767753,-1.0962522169891828,2.282645312986971,-0.2364298241450825,1.3696486404477843,-0.9894770596550827,-0.45131355237334886
73.0,0.1639627631303222,8.317929564286565,8.153966801156265,-4.236321769565354,-3.930248918514718,8.293200256742715,-4.703682607627174,5.655340971011067,-1.9564381727524611,-0.44042207529863964,2.571322853798755,5.982311565854072
74.0,6.845014757160202,7.823903152632,0.9788883954717642,-7.320453471064677,2.9136323793636683,4.380358548020485,-4.285822638813045,1.4501952633330961,-1.186414792235849,-1.9317152397929995,0.39530344325460964,2.7479927362137397
75.0,4.004886494779157,-0.4402713909879781,-4.445157885767195,-1.7547242575059765,4.199103269996519,-2.464767677445678,-0.51497671390124,1.2327113777073193,3.068383979622484,-3.6193537433624314,1.445649278363417,-0.18539670426416732
76.0,-4.716280133665164,-6.321669726231808,-1.6053895925666928,5.4826986647533005,-1.5867972243167667,-3.9090188575821654,6.682421830804881,-1.348121048264398,0.9368643825832105,0.19131128944056286,0.14575679634506755,-2.4294430383886843
77.0,-2.659456836005013,-1.9498514416053783,0.7096053943995981,2.281712397328959,-1.6398404824594333,-0.647409346247513,4.44039880402395,-4.1059364380613,1.6095487430189261,0.18455600742134715,-1.8587989619323815,-4.140217685773554
78.0,-0.9826406155992764,-2.502067277770398,-1.5194266621711352,1.729184833384559,0.3138241737605998,-2.04163427920318,3.23761024325121,-3.2055673702461744,0.13671006334007219,1.1498092332813388,-2.2661514679036867,0.3708759280234861
79.0,0.4725562278736498,-1.1949781673175528,-1.667534395191201,0.353486594368852,1.040403831461591,-1.3871887520539965,-4.343657355261566,1.3241209155010818,-4.717621590784337,2.2276372073548534,-0.444234467327828,0.6470205202103249
80.0,2.331739871686896,4.567709504843979,2.2359696331570817,-3.377326543811066,0.023279237955204146,3.363596071310999,-5.032929024041057,-0.6529833999941289,-3.3380514766238365,2.668649918806163,2.406394914283646,4.425041604809539
81.0,-1.4126730093332323,1.265309158699758,2.6779821680330036,0.06535651532718179,-2.0655972862300427,2.00924373894287,-2.4587685391032945,4.593972328772306,2.534814560410461,-3.5560383109870726,-1.3665278398059542,-1.147035890119319
82.0,2.121591770706073,-3.9025351270180906,-6.024126897724135,0.8775849655787886,4.133158306776819,-5.006471007221849,0.973669067217998,0.8528560934842395,1.9390807133299486,-3.335602964484652,0.9897501701078475,-3.254048132363183
83.0,5.257462357950185,0.43681657301200927,-4.820645784938144,-2.8664525974613517,5.018886530813131,-2.157377428356418,1.9318029074275977,-0.48561317627261613,2.768191637871789,0.7974008061220239,1.4602191321063074,-2.8340626980427785
84.0,-2.09307261282321,5.148845868161885,7.241918480985139,-1.5546217697081781,-4.692840466734303,6.229465151205481,1.767609011838449,-2.223601814527025,-0.3056109341457578,1.7030384795592282,2.8956370488040037,4.90689983429044
85.0,-2.0430724146808243,2.3075610239517355,4.350633438632579,-0.08752812087371648,-3.2296794234595083,3.284147825788658,1.2033532028597616,-0.8990636520158235,0.9032273805781547,1.0100290922341433,-3.1620918682958723,2.417155908627376
86.0,-2.2264587033855903,0.09317050165391566,2.3196292050395186,1.0266104906515139,-2.2350274858516563,1.1609987031277065,0.376235558487918,-1.2797585182951767,-1.951181768596077,2.014632771337333,-1.4333106021730257,-0.13451902900535595
87.0,-3.4683555007909392,-3.3135734103359114,0.15478209045500757,3.4257902858624685,-1.7799410595376257,-1.5467167452019877,-2.4939165248151904,2.9949534675264555,-1.8418478185385045,0.08605206064257731,-0.525715603928758,-2.1549646514274317
88.0,0.3254509282441074,-4.051822292770262,-4.377273221014416,1.896291174301645,2.3794635687972616,-4.182564435492709,-2.473291249544142,1.1957263874650743,-2.737429510877437,-4.999543749505745,-0.10432010830351879,-0.7310938059062837
89.0,1.2045240919299438,-5.455432780751722,-6.659956872681684,2.079499782087608,3.8813683580897234,-6.026217897852238,3.4119933230535233,1.395117728509547,2.6542321688237536,2.8188947846213175,-0.32851460136481636,0.9681951705317511
90.0,2.4067182706110084,2.3283721011832044,-0.07834616942777872,-2.3348792968003496,1.1944357149702367,1.0775385110912716,0.5729263709284753,-3.228867021341412,0.273838929877676,-3.6020437094330795,-1.2686453622989364,-3.7088780822146616
91.0,1.6521366960480104,3.6538376824849497,2.00170098643702,-2.7000841967683367,-0.13904304130643275,2.7805281548574237,-1.1003925750988042,-2.5450827333645165,3.0139529527613043,1.30535418240337,2.2083048811050072,-2.508428110575586
92.0,1.8749022346981188,5.680408116047472,3.8055058813494447,-3.748196671774906,-0.9230357697371508,4.7754429988433,-0.3137338330169726,0.4809696478228518,-0.6750417710161416,1.7411785776152082,3.6632311083670945,7.342067960944592
93.0,-1.4253473187912171,-0.5819551165400658,0.8433922022512119,0.9516900054511757,-1.1639514076700963,0.16535049277937075,1.9479483274111684,2.8692520928520016,-0.9691849213897222,-0.6327394962941904,3.950653140037063,3.6269200784371467
94.0,-1.54844921789126,-0.3851453674644234,1.163303850426844,0.9918703619183284,-1.3794844867696143,0.3484821365577011,-1.173210097871656,1.6129411741880957,-2.2448705714352784,2.378557194421299,-5.595220727051441,-4.6920847488867485
95.0,2.041607831058035,-1.2237660413736613,-3.265373872431765,-0.38316742585350116,2.712268420265636,-2.201894314923819,-2.0608862085351323,-0.03117435206041963,2.633632850825384,4.543987008514127,-7.941773841555954,-4.900768908714055
96.0,-4.341974019769745,-2.652814867664949,1.68915915210469,3.526878227104219,-3.035425725446076,-0.5134359857166013,-0.18500952717794505,-2.292182981725947,-1.3570758701273267,-5.1349800438291116,4.300107161377868,4.6767695885181695
97.0,-2.6863527399805163,-6.408975881508481,-3.7226231415280426,4.504584287691556,0.4943397866824376,-5.015720794425869,1.5153077874281475,-3.019327005262487,-2.247054493989112,-5.791620958219947,1.1886108441028802,-1.370506322012861
98.0,1.6078854248681658,6.019783156688934,4.411897731820756,-3.7712093934844613,-1.4333032050325056,5.187276065362479,0.8585271211181935,3.299585751878717,3.164487698782617,0.892915011850504,2.8158434830434955,1.474839282458295
99.0,3.4399486639822507,3.7701522015736044,0.3302035375914093,-3.6355256062709143,1.592813110936872,2.0184478343119086,-0.1432603895177873,0.03585979301506492,1.2533566135173744,2.834592860699532,-2.5259966349602063,-0.8706930876974379
100.0,4.036959856793526,0.26146406394434374,-3.775495792849095,-2.1768960954904877,3.934916694026517,-1.79433405462057,0.45282395009708765,-1.0348479832860042,-1.5962528164452237,1.1104385705331956,1.5816411199010751,0.4807752391822019
101.0,-3.3229888865751014,-0.24409530825091352,3.0788935783242675,1.755412190260447,-3.257655173346838,1.45281104061784,-0.4991521119687068,1.9748012113754339,-0.10423327380599251,1.192965446339648,3.1034441394440884,1.7967886842423986
102.0,-1.7017967391518263,-4.070029180363018,-2.3682324412111435,2.9337325019457734,0.352914958088026,-3.1878296723656625,0.31156486426770336,0.42422438472131907,-0.7979177885426765,1.3647378372696766,-4.892546342410673,-2.7080980912174852
103.0,-0.26777262296936266,-2.130043968492929,-1.8622713455235735,1.243227531007911,0.8194992729806752,-1.9654199906843646,-1.6187226894199434,-1.2210642401689542,0.20432497483634648,-2.4338751320311847,-1.3581880060828302,-0.06669110992293148
104.0,-1.6708631032769996,-1.7578045157526465,-0.08694141247568876,1.6774078867318556,-0.7630262556506543,-0.9671864316131518,1.136284169730958,-0.4871374610472492,1.127100022880416,-2.094657540641455,1.9794786937048932,-1.0838673016710114
105.0,2.6916380454384186,4.417723786799165,1.726085741360692,-3.59190583549237,0.4418871319811928,3.1116004657637286,0.2505800367439096,-0.1800680288466907,-1.3813757517196956,1.1301689646886792,-1.4083277787784576,-0.6747517174400899
106.0,1.322316638850622,6.418430818793751,5.096114179943074,-3.826530503004583,-1.9190506251959265,5.7245979688313,-1.7265289892591609,-3.3500846209991955,-0.3028363545460756,0.7717612804370824,1.7846489322045664,-0.28449037656599796
107.0,-2.7402069689109734,-0.9156457620745568,1.8245612068363808,1.7975632758821842,-2.2294645542271807,0.4270482895307697,0.2623918544615372,2.8923218880339734,0.6201948319502403,2.3466456676149874,2.7872325302820604,6.386928587655006
108.0,-0.26565840650201344,-2.278146980019478,-2.0124885735174742,1.3259394078440203,0.8500670242766408,-2.1694093292198557,1.6082467549581096,1.7938634982497454,2.142351621188267,-3.237943288107127,-0.7391089255611574,1.707940001305247
109.0,4.354819739329249,-1.2763395567709162,-5.631159296100147,-1.5587871507837876,4.96794620552351,-3.397538443896267,-0.8494995601476552,1.074876633209438,-0.40964477491154927,-1.081175843379392,-2.144273497311661,-3.2255381810272836
110.0,1.6777679434347479,-3.7049712342567735,-5.382739177691502,0.9971539294363418,3.5787957416993366,-4.565877634153795,-1.3387744569774367,0.9282808074799038,-0.41996150525405507,1.0943456691691904,0.5653342441477902,-1.0657342398995453
111.0,-5.5327763590807875,-1.6581893631341857,3.8745869959466197,3.5790630249582494,-4.741044522780371,1.1650016770720155,0.9132253573748278,-2.020317979343375,-2.3068270681508785,0.17353848963813506,-3.890040016367776,-4.757965645707589
112.0,-1.1023973640777478,-0.9104679771618818,0.19192938691588135,0.9869302499403059,-0.6130874479122035,-0.38154521115437945,0.836710834999078,-4.259768475964248,0.2552208844632775,0.6099138080988372,-0.37377295499800955,-0.8235315004896857
113.0,-0.26493431719256744,3.082779235009658,3.3477135522022454,-1.3549761471637174,-1.8567291027208843,3.1918117982229193,3.085903794014243,0.25008779919038737,0.8901904848459561,3.3725330673088796,3.311260146274905,-0.08757965758516056
114.0,0.5789018616032832,7.376577977666666,6.797676116063397,-4.008685563781523,-3.0839751108877174,7.061308046264255,-2.0407272200229887,2.9243416591590545,-0.2709490641510641,-1.7775144043202706,3.733218322738916,5.0359048277405085
115.0,1.1017357280811542,2.48642395115965,1.3846882230785047,-1.7519875542020094,-0.11581264508807843,1.9850318093607364,-1.6820132085240438,1.311688521237769,1.1781166732810588,-3.3511987728442643,-0.2995997276243789,3.03551159819561
116.0,-1.505768358267185,-6.413762309259619,-4.907993950992448,3.9185559716195963,1.7296877232657417,-5.693765925815369,-0.9587340046574249,-1.4253296147676895,-0.28464673239052896,-3.7036171838326215,-4.461014987282808,-1.0990876033627632
117.0,3.082731819384093,-7.649988772746706,-10.732720592130836,2.317854902495411,6.861969130372048,-9.226570780905444,2.1536455224679574,2.2049767178915785,-0.5953224511669706,4.905510266454147,1.598318756883946,-1.0607080005270155
118.0,5.010585360317088,1.7424967940311458,-3.268088566285991,-3.423551838896634,4.098307566773039,-0.7189012225689249,-1.8650776501061985,0.2604427678052272,1.4566498983396685,3.897869178443041,0.3007316901574757,-0.5260999701270364
119.0,-1.9869580279968833,6.1279725778444565,8.114930605841295,-2.041026164461111,-5.0088576795016735,7.169084707411551,-0.205742956504019,-2.3504722257040402,-0.0048626116430807165,-0.15694702189823695,0.7089273512344461,-1.7112228491762163
120.0,-5.39182894169269,0.0645463203392338,5.4563752620319015,2.690610398024641,-5.456715289802235,2.7359966061409327,1.2979161477458216,-1.2763167103147457,-2.481780057473684,-3.1068803156511193,-5.206088887685917,-1.946526055062711
121.0,-3.406603121941752,0.22520661432374767,3.631809736265489,1.536028835048407,-3.4688663296990176,1.9120881289639222,0.17795649646271372,-1.485919510433105,-1.6976096498670574,-2.23180912017581,4.867990983070783,4.048941601188298
122.0,2.521944152183551,0.49317949729855254,-2.0287646548849847,-1.4863513545784974,2.251627160674221,-0.7767433225657603,-0.19008773947421242,0.857013290328645,2.732940441966952,-0.7537964423724444,1.3696693859395286,-0.19991618860379834
123.0,0.4508424921329003,-1.702598069870542,-2.153440562003423,0.6451530927090734,1.2832601006621138,-1.9316864732000054,0.5664504238255075,4.187180799778771,1.93075561230214,4.958217921367325,-2.9663093897019936,-0.7818423059030927
124.0,1.406845003714569,-1.863287524041012,-3.2701325277555604,0.16896100471773703,2.4022307783205896,-2.5679762623409017,0.2898956710841999,1.0156508750147866,1.3581310418865233,-0.4359059152471283,2.9317224363322216,0.598794062431393
125.0,1.7995628784500521,-4.443249145756543,-6.242812024206588,1.3447526544061228,4.007386768958406,-5.344482170024544,2.352022552569681,-2.4149860576334583,-1.072551233672372,-1.6484303566367922,-3.2016533466990698,-3.644685360704016
126.0,3.5252364549044426,0.6088372729967784,-2.9163991819076687,-2.037177527938368,3.203978737094186,-1.1570967756627408,-2.4136371130714984,-0.6213202839360406,-4.580964863384857,-1.7642896076772494,-3.917268856613001,-1.2112393027448503
127.0,-2.3812007362368046,7.554241779820664,9.935442516057462,-2.5470138377772855,-6.18304742581085,8.738862337290795,-3.6995497388228546,-2.72708339632979,-2.03632307918971,0.4141730018291949,3.5574682048142683,3.141625834099008
128.0,-0.18808592774182742,6.93877633235162,7.126862260093452,-3.4041931667734375,-3.6939311050004333,7.102391370709269,-2.4347024934444175,-0.029897345671685338,3.6399890430194644,1.19028725095699,3.936624076280009,3.2454732511189435
129.0,-4.584911329027946,-4.3072262123175395,0.2776851167104235,4.425942369613432,-2.402002786883325,-2.028227510459832,3.486775561258966,0.23416865473176748,1.1351771636036727,-0.5256724025981501,0.5092438020743539,2.7914872102221353
130.0,-2.269791259738674,-3.8441833873334805,-1.5743921275947894,3.0420148637933098,-0.32932773902039014,-2.729080581038161,3.3394656241153218,1.409783814413311,1.2107785661815458,0.19031286007648152,-1.0953385265897546,-3.405380266648704
131.0,1.4776225359041941,-6.113037519190848,-7.590660055095042,2.3037748930549586,4.546506217737074,-6.8806099508834615,1.9527258599328898,4.7266465460627325,3.10082227041006,3.6902962302832227,0.22027755363831358,-2.225845985757794
132.0,2.418909133374369,-5.194090989619021,-7.613000122993411,1.3715520690875953,5.02847191734598,-6.44329804254129,0.43377737554690066,1.0700460807758254,-2.4781882462305465,-1.1653224773101976,-5.016900050626004,-2.588850692977873
133.0,2.5676227056818095,5.798342138817016,3.2307194331351745,-4.123631254038877,-0.3135004474194396,4.542489703515296,-3.0108745644624033,-3.136986233144734,-3.7882657636548487,-3.4037010901004012,-0.8416074913491425,2.7807689188549816
134.0,-0.04921758759857919,6.344428048937456,6.393645636536004,-3.169828421837275,-3.273602308875014,6.388607843897412,-2.2520393914790837,-2.0213485142660708,0.5450525077026347,1.0078936037832886,2.379473953911895,-1.1797022904576373
135.0,-0.7948617884216506,3.868135171791738,4.662996960213377,-1.4816185873642778,-2.693743451073706,4.281653901378041,-1.2134320868302495,-2.539338609834375,0.04780434999197414,-0.8363147444534196,2.8973923896716935,1.1952366171716682
136.0,-1.0683637093389828,-1.8914587795653257,-0.823095070226342,1.4554559268480713,-0.1598071533614338,-1.3390042383412823,1.6654150558931509,0.21413290805337315,-0.4819087104617174,1.4334353530069999,0.6012326751298143,1.4359180428815415
137.0,-1.2081422753232338,-1.922360693192919,-0.7142184178696765,1.539456971505558,-0.280811295060893,-1.2932364640424368,1.8137177472437667,0.8306849513660918,1.3566424529168175,0.21142711854863272,-0.5023741481856262,-0.5231184075271327
138.0,-1.8761507906235595,-4.319612645818608,-2.4434618551950424,3.068760312585621,0.3294896650165182,-3.4262167241249486,-0.3011721376555676,0.8588547997806116,0.6215591684759432,-0.3311865206598902,-0.8010877898507708,-0.48892545841414736
139.0,4.483442601253655,-2.962268464144155,-7.445711065397805,-0.7167659861727085,5.931776615420857,-5.239918102405325,-0.31374852057319913,2.2455175434259553,0.8753000786227654,-3.3369072707787435,-4.588021678034947,-1.068119350562051
140.0,1.2396194615030764,4.016531036596492,2.776911575093421,-2.6705236294265475,-0.721969116151373,3.3677182065458102,-0.7103349378409958,2.518627960063407,1.7128190797854765,3.374428406105067,1.6807193495834545,-0.03425326345451296
141.0,0.08412386178197562,3.890584463918057,3.8064606021360747,-1.9584492112107093,-1.812754704677562,3.9031783818468386,0.0011658307328966354,-2.419393008584132,-2.6426559067252837,1.584410053686962,1.3226225037423642,-0.11342957048062172
142.0,-0.1383097481477954,1.1724647896428249,1.3107745377906035,-0.493153119248953,-0.7529967675574979,1.2211803640517251,-1.2525053392801289,-0.7914012212271526,0.015080757539217116,0.759787915665094,2.4996081133093084,3.282121956018185
143.0,-3.396676007428952,-1.1102369050686,2.286439102360345,2.198071530005098,-2.8695228345019457,0.6496298435970684,2.6533328420312907,-2.853428370595262,-1.6585883901691751,-1.9590179295706167,0.8406427275399673,-1.7342072296991322
144.0,-6.157501148255298,-5.947108972450544,0.21039217580476055,6.080596984290075,-3.2139551843625145,-2.8826812736948573,-1.0779827490271496,-1.6420025058963457,-2.0680357108649408,-2.5241037827756108,-1.196930504840542,0.12281533068175132
145.0,2.4522920646531166,-3.7382657113960387,-6.190557776049125,0.6814106705221297,4.286962575572899,-4.97689208493441,2.6978354154316264,3.0717753343346272,2.384079164769043,0.2757265235223132,-1.5357076360037647,0.32362655510915445
146.0,5.730458647126997,5.617125202263089,-0.1133334448638692,-5.700466378544695,2.960782556474552,2.7390968755858003,-2.614299679191859,2.041432657700707,1.8741839937445426,0.5580113610290428,-2.0390784227492533,-1.7654278581665506
147.0,2.226197857212261,0.6386569139647507,-1.5875409432474936,-1.4446794981220212,1.9414396951245416,-0.4904305761560622,-0.41884852797329475,-1.010074081939786,0.7849158284578146,0.4289595648097625,0.9876603063857049,-1.5185788729651712
148.0,-1.8191967395468676,2.3818931028398973,4.20108984238676,-0.2815604398156062,-2.9773251559691025,3.2696840690064923,0.5321638150307488,3.318455058041586,-0.1536523391733569,2.370955459911394,-0.04564519684642018,2.140989581229551
149.0,-1.5277699004919,0.7878564278299618,2.315626328321849,0.37660694534671363,-1.9666524794184752,1.601453275472088,-0.4280311455749234,-2.0103052518002613,-0.8750918933058931,-1.1879200368196432,-0.10345342661291657,-0.20925009189675015
150.0,0.1738715748220505,3.515035540716038,3.341163965893983,-1.837910564214028,-1.5472555984162237,3.39211514186435,-0.11367168011843501,-1.4994623331622847,-1.1368753628943864,0.7981991133558414,3.4692568483609687,0.9235014780952034
151.0,0.984298611564566,-2.523918139070094,-3.50821675063466,0.7689016357776932,2.2064658126215466,-2.978511168571972,0.31724769024625754,-2.626447419155171,0.8250662885371058,-0.38075561769684696,1.1578427502805133,0.9984246010686866
152.0,-1.9247699920822032,-4.973453064235685,-3.0486830721534695,3.434599564869525,0.5235022895779726,-3.9763241843088353,-0.09698101569355344,0.4488356381863703,0.04132316997700686,0.1341556626026047,-0.8253374409513009,0.8072412372238615
153.0,-1.0953869062761514,-3.015605478340084,-1.9202185720639258,2.023808293424443,0.45271133013651227,-2.5125742870197074,0.20048081662427136,2.1722830077086988,2.373352712683875,1.1862040104386447,-3.3191425140274875,-2.1673024510033243
154.0,3.814676871386222,-2.241010212455265,-6.055687083841494,-0.7571061146683318,4.896370458231127,-4.19230900016373,-0.5862562412800534,0.05208909753934532,-2.8303726019023623,-4.315468966117022,-3.281437837326824,-3.1679160391331793
155.0,-2.421893992597402,1.3527223573918543,3.7746163499892433,0.5501902263800136,-3.057584847244031,2.5996833512082045,0.7031456951517421,1.37646369237651,-3.330464205905622,-2.1207846519105056,-0.696929771475943,-0.8601313061240277
156.0,1.0806377015241506,8.567285033929345,7.486647332405187,-4.816864255882379,-3.1594746336492032,8.064220929458179,-1.2273089377512667,-1.2422757831800422,0.3888288251239267,-0.4743065619043776,4.683759551172777,2.642907793002236
157.0,-2.0785370057295522,1.9647654382896094,4.043302444019163,0.06192113994047643,-3.091149836323238,2.9636957288400017,3.0196990160209314,-0.27209891758611493,2.445930205147432,4.566094586988312,3.9573287563096624,5.982220736774543
158.0,0.21308645061562795,-2.1648494194027346,-2.3779358700183515,0.9845148658389622,1.271285665318369,-2.310499235739982,0.07799179756113228,-0.33827736663739183,2.4722875687714456,3.6130529743479434,0.2469036070754953,-0.14510599227327337
159.0,0.3168828890312677,-0.9277498854090341,-1.244632774440294,0.24265243927143204,0.7617514464292807,-1.0451060314428677,0.34369245492577205,1.4925780626943421,1.2513676379828549,1.0770036830350436,-1.0822776248265122,-3.830268909036694
160.0,0.6694204078185217,-3.634720092613218,-4.304140500431738,1.507346350762759,2.5491171651593234,-3.9269147379519103,-2.4134859077999606,-0.16250569401600545,-2.173420908301467,-1.3945666070141933,-5.4450925754618416,-2.123199413055201
161.0,-1.4481250102658951,-2.99566877687791,-1.5475437666120255,2.2545601406788522,0.03197243427071794,-2.307204203762484,-2.4567201537829026,-0.5470472561660524,-0.40830560404868876,-3.8918426716522725,-2.8192586933314594,-3.638567739945596
162.0,0.6399695495405957,3.5788713364285614,2.9389017868879517,-2.1499044089212074,-1.1727498626611694,3.3007123494855115,0.9531977364157505,-2.3903248188856665,-1.5919048117940324,-2.5971462962941567,1.8880337277830677,1.2249068749643803
163.0,3.415908872553957,2.0704237951616116,-1.3454850773923606,-2.7025693783791516,2.3485465873616493,0.3212981612968854,0.07089099718944791,-1.1135601069442835,-0.5077098927110446,-0.541173682563673,1.8736028594339136,2.4159833296906985
164.0,1.3637304663034793,2.1942113348801016,0.8304808685766102,-1.8182320051831828,0.30304396582915677,1.4639970344586948,0.9447479002361178,2.9984737499920153,0.8250493945488374,3.4607698255051282,6.945719555093397,5.39472654081141
165.0,0.9110692142813243,1.349067113064872,0.4379978987835442,-1.0945669693925877,0.2640557316861146,0.9151636244293002,-0.4855965499678425,1.1094163527813157,1.6668704718398617,2.6486333945737277,0.7956326452655906,0.9568288478597498
166.0,-5.729027366278483,-7.318994502697439,-1.5899671364189554,6.475071465060996,-2.1259806065403266,-4.4407995879563025,3.079331321552422,1.763062723820261,0.8185849138981356,-0.5756655101560426,-3.5210738424219277,-3.433607895276592
167.0,-5.593687442214504,-3.5526514531767477,2.0410359890377587,4.597135177903087,-3.795184474993953,-0.7466778603774462,2.520921404103255,-0.7870906740810103,-0.38997139035524253,0.11340696566819808,-5.041075835623028,-2.1463285300606456
168.0,2.686661889639839,1.2352510852073912,-1.4514108044324558,-1.941429988865805,2.0961186912735688,-0.09846304350570836,-3.5857568988805246,-1.809764257329987,-3.6038404685176064,-3.1497315531529706,-4.362397841662934,-2.2821136955242203
169.0,6.531087758167609,5.429956098067014,-1.1011316601006131,-5.962820989027975,3.8515029782760233,2.1794969600173375,-1.9639264089549677,-1.3003023378282474,1.374744645403625,0.20034739908650012,3.032171366647789,0.3712591508484353
170.0,1.0685195612676623,4.776665153595897,3.708145592328206,-2.9822106154377166,-1.3541162955564867,4.266139746886822,-1.544024818290831,-1.0799713014224217,1.150095113943551,-0.9921955415120841,3.726096227480905,2.7894811479914883
171.0,-3.871090536492522,-0.6475602747624971,3.2235302617299944,2.283207749641667,-3.57453172310863,1.2419603499257155,1.2677570472023705,0.8984018830204966,0.6125403590878931,0.8551106305877572,1.9850839809431085,0.5066120752083836
172.0,-1.7822764197691126,-3.928390516526558,-2.1461140967574655,2.8868677139671597,0.15810753755473295,-3.076694280173827,3.0918436439260413,0.28748046601572347,-1.0237693025848456,2.5721735694744985,0.08864426684925797,-3.159875222079388
173.0,-1.0212140994949668,-3.1973594605503797,-2.1761453610554193,2.0718195443443004,0.5532736645320255,-2.644898221149003,-1.2372613509004555,2.6702029393089304,0.7895981379168864,2.176322368147802,1.727103544559632,4.716597038993827
174.0,4.30380613775205,-0.5558352264853896,-4.859641364237435,-1.90074259462158,4.633308427703634,-2.7461683488213238,0.20157736745629098,0.6726551274059649,-1.7052115334439177,-2.2216723396399525,-2.1469820749746242,0.4874308776713989
175.0,-0.33982499795552834,2.7592590252972844,3.0990840232528245,-1.147487400705522,-1.671840740621081,2.9651796319531676,-1.0962101866814487,-0.5353876094896154,2.3086820101628325,0.23823441320062444,-4.404283142400236,-4.252967984980816
176.0,2.3826732104649455,4.071991685380013,1.6893184749150825,-3.235764637708836,0.31159215144680247,2.911520109501352,-2.274262780874816,-2.2712421565930776,-0.5989388368916223,-3.7670684307808364,-0.5399049091271215,0.9746459586051468
177.0,-1.280855680208185,-0.8674531297894208,0.41340255041877727,1.0699485702552383,-0.8073663124322686,-0.27906564600978867,1.0803403247196168,-1.4254097925433213,-0.04577268014090551,-0.49551688056204424,1.7697226408196507,-0.2670988212119414
178.0,-2.5345613491160104,-3.3840494237459615,-0.8494880746299402,2.954139555822178,-0.8860148475976183,-2.0920624983386684,1.9709675809147587,-0.037602673815784304,-1.0332890415434646,0.6221119920830247,1.0763776368430666,-0.29180142886991844
179.0,-2.548029728064651,-5.196899300618503,-2.648869572553841,3.8607710424351307,0.0013409865732890713,-3.8976996217120097,2.5793390745466898,0.6811733693222041,-0.7833497665295,1.5734952201458152,2.568710485831251,0.8801793511010512
180.0,-0.9124877693398171,-0.5206677120184173,0.391820057321406,0.693764334868225,-0.6289457186590134,-0.11542584028658798,-1.1785394143352699,2.354380657269671,-0.08796327237874568,1.8118686642713506,-0.262253510024669,1.316958921165427
181.0,3.074469288673299,5.700244547333018,2.625775258659719,-4.344792681404369,0.24134092368931734,4.19454684088107,0.23675416540680916,0.5719955987979275,1.068025513353636,3.375042536282965,-1.2409684404772865,-1.2826016326649687
182.0,3.079794620003506,6.614617877150002,3.5348232571464844,-4.895805241977213,-0.21499764565801188,5.031483689984615,-2.6863736136277994,0.462316011849719,1.887770551223363,-3.156601798502987,-2.7618047513832615,-1.419896079595074
183.0,0.2851931116483182,-1.9209307477100066,-2.206123859358343,0.839769409587543,1.2565985889834144,-2.0248759297498182,-1.725027333595623,-0.7676050806438981,1.3575663718835758,-1.9271034699336793,1.2455394525253198,2.3851241464437933
184.0,-1.8714440680152524,-2.281067974226453,-0.4096239062112199,2.096264178187352,-0.7182822190747131,-1.3052883722213295,0.1436676860533519,-1.8070161845133217,-3.3379252188548114,-2.614036417096783,0.4461825280817945,-0.11559562735506784
185.0,-1.1656873887410866,-1.0939831421868178,0.07170424655425567,1.1547132815985293,-0.6803353934127533,-0.5507589932633159,-1.514599344102883,-3.4879559494955648,-2.78619384776093,-0.5385363258175391,-0.7182939525568994,-0.7943938412900743
186.0,0.14140531740165518,-0.23095342517116046,-0.372358742572819,0.000900013286155632,0.28027485555114756,-0.34457648493782256,5.441548123884859,0.68153106851084,0.41077645662482154,4.111019774481715,3.887640167340153,0.899237462283867
187.0,0.07113873481471134,-2.9426488953901755,-3.0137876302048814,1.4825234463376695,1.5728069139447456,-2.94730635613301,1.2821944071558664,4.167208844803891,4.389751755159523,1.3472275720888636,-0.8980939986460303,0.5013308529189212
188.0,0.732749719991076,-5.442486271885157,-6.175235991876224,2.3328575238974056,3.412222293820577,-5.782962802607161,0.18472780654770182,3.0997034104444463,1.2403938479910637,0.0009549940899800102,-3.4695409416780407,-3.8682493754078946
189.0,-3.645744775043861,2.7243535324414596,6.370098307485326,0.4435998505606027,-4.96530165370826,4.491151030190881,-2.5154332284640306,-0.9296560886276954,-1.5678257835546021,-0.9484603249519621,-0.057379247169685677,-1.407284417311129
190.0,1.4567585538075303,8.289433351418309,6.832674797610785,-4.891711845919683,-2.7197495025437597,7.583912235887564,-1.2725676317895112,-3.2177793624031965,-0.8239312745953822,-1.2976770850909642,1.690492069975515,4.741316075996536
191.0,5.000185393143569,4.0159365017538695,-0.984248891389683,-4.533786641106715,2.9635071044073675,1.54300473174596,-1.1922039783004248,-1.4050227003751037,0.3024613111284301,2.2001639605567034,1.0020399013827619,2.5010526658587597
192.0,1.2526235938643286,-1.942808250347813,-3.1954318442121235,0.3881342292080676,2.276131110440819,-2.5340912784999574,-1.4440450899997668,-0.14369491737534146,-0.25438057972464523,-0.45375977940881645,1.1518807246207556,1.7133493852669088
193.0,-2.9216055916918213,-5.21815816157123,-2.2965525698794,4.103615364891888,-0.33795030892307953,-3.791339023472317,2.6786982486414757,-1.4800135936989844,-3.7298266669673,-2.830347606419545,-2.038366012286575,-7.585840177139481
194.0,-3.5707539010085787,-2.2512144705425627,1.3195394304660097,2.860429761771859,-2.3915217292888027,-0.49040122139542763,1.8999180807205218,2.813672089724781,-1.1055003625032531,-1.5918338747855678,-2.728718341096496,-0.47857016890654647
195.0,-0.2010877896802381,-2.5895418667766377,-2.388454077096416,1.4233826781050918,1.0676453763610838,-2.5062689461948464,-0.02351232541394177,1.227012462730974,1.9057910463877787,-0.33192751514806534,-0.3744087758814898,0.9479502710761835
196.0,-1.100353774708942,0.9426953237514621,2.043049098460386,0.11193724959326201,-1.600005890885014,1.4799454022818206,0.42221243038315176,1.3351416838739383,3.4559414057648805,1.1621577855135938,0.513759806720543,-0.15176406575413082
197.0,1.8115571023607682,2.741661537431081,0.9301044350703096,-2.3139592065750523,0.4092148754854524,1.90331688057756,-0.42086791489094133,0.001915781785810755,2.9063055544656295,2.9645015411882287,3.0218896543245743,1.5238691737031023
198.0,1.5231744952687323,3.5150117751191394,1.9918372798504282,-2.547781800535721,-0.19015821158677348,2.7418176310465223,-2.318935760146674,-1.6200508069040132,1.872240833587162,3.7687585475508416,2.1456490272512143,1.5018781947561686
199.0,1.6286950608624255,1.9723840617321577,0.34368900086977683,-1.7443548843465646,0.6063642195249379,1.1451631758037477,-1.8879015460965007,0.581959513914226,-3.9128811368493968,0.20839623585135802,1.9245752160944816,4.5313782345040226
