Time(ms),I,II,III,aVR,aVL,aVF,V1,V2,V3,V4,V5,V6
-200.0,6.633968169222888,14.552705734036984,7.918737564814224,-10.562392451955082,-0.6107982444104638,11.261081512906141,-4.824499638734654,0.7660546418438363,1.3794503204823167,2.9318795979109913,1.5173461545621287,4.401898079245909
-199.0,16.384034473811873,8.736869892205767,-7.647164581606029,-12.531801506194142,12.042777150697475,0.5704298203264972,-10.807239446789952,-4.023605670266499,-10.48324667598742,-2.3850985278344923,-6.283875616115756,2.238781392566042
-198.0,4.207826411067235,1.0004423054249765,-3.2073841056421597,-2.575176012431718,3.654393226394025,-1.1531024062979607,2.1035413450107274,0.6988345356072052,1.000899018144474,3.9012065371007707,9.332730517660984,10.29715433856729
-197.0,-17.472407105351472,-4.719349313965602,12.753057791385997,11.128141383711629,-15.085505170647497,4.05305598162611,4.754881713681396,0.9636602208144545,7.318959273727704,6.615843241458631,11.60565418458523,7.917871594236408
-196.0,-4.666140735650587,-1.8836259927507992,2.782514742899899,3.2334524689107864,-3.6927295422988164,0.416396719168284,5.120901185301703,-2.000825563280528,-0.026133286006715384,0.06431561847174638,-1.3026141047596234,-5.467049877529026
-195.0,4.804761354818199,-2.7744937313816145,-7.579255086199817,-1.0518969060731473,6.150252713099333,-5.121512496998803,0.42766534505814846,-1.5882931884435352,-1.2537360697447966,-4.042102946513568,-5.978786116393344,-7.9777668334652585
-194.0,0.47469933578854084,-14.661534603033093,-15.136233938821691,7.0590146499617585,7.846751928574196,-14.9152768805477,-4.582036562934466,4.7922506677185615,-1.1110002880319432,-7.092744636211422,-8.082618191555625,-7.684751496133412
-193.0,6.440311223620784,15.477277299567254,9.036966075946317,-10.915303513108812,-1.3344766513019137,12.242517019832595,-3.761781093586671,-1.4092399174676862,-0.6669463287875,3.1974639079422538,1.906800760982656,5.872566449658423
-192.0,-0.2967921408281802,10.775983054473533,11.072775195301606,-5.199961508361088,-5.7235212638231845,10.904993465688644,-0.21960291003959465,0.6620043131971949,1.0078720698281844,10.472638325477032,4.759414348151809,9.972486384022854
-191.0,3.665783758184568,6.79128975142368,3.125505993239095,-5.273571923585138,0.304010528988496,4.928083169218679,3.182427377236718,2.404168220369927,2.8162288468365855,3.681402150241208,8.205351026131305,5.1632141540524925
-190.0,-12.561415701131851,-17.34694839629377,-4.785532695161793,14.981084105395777,-3.862269843492401,-11.032704026362296,6.252721117107415,1.7065788433017908,-1.914125458173833,-10.209163427019591,-8.606192867193176,-8.764199341708688
-189.0,-12.208186428153498,-17.305512433107015,-5.097326004953334,14.77716640210182,-3.5378722590854084,-11.183506633170019,5.140391741402092,-3.4124915775791047,-0.7925645041339293,-8.943121541326375,-2.9653294399731394,-6.4026245931869665
-188.0,7.937336402716524,5.836722664366757,-2.100613738349601,-6.950783996087381,4.951987357085857,1.8728821052765232,-6.319972193405103,-6.978693348171914,-1.7004197837851345,0.7581936323555598,-0.6741548767118044,-4.634020339943953
-187.0,11.269806275069037,5.466191309123807,-5.803614965945085,-8.356075880660502,8.546835190736429,-0.17207909876238503,-10.120030599245121,0.43331943416176344,-4.459634623893624,-3.1786155928749444,-6.52141824679054,-6.019174912616278
-186.0,7.176580792393604,13.82893448216646,6.652353689772904,-10.490814357585347,0.2757868309857221,10.234926637604929,-0.5770489036907804,3.1601792255436143,3.478450426658375,7.7990995184619045,3.139997399366594,4.288635943655648
-185.0,0.4072751599714337,-0.7500382402725982,-1.1573134002440617,0.18686537797448022,0.8045375542609463,-0.9563171157713715,3.9561415709749603,1.9081720401042974,-0.38370509929183094,2.4505192810508616,-1.1814899157311594,8.177673415630306
-184.0,-4.185949780017944,2.7495085715977927,6.935458351615659,0.7404690881224983,-5.5263963247974965,4.846934531759018,1.057768050975763,4.786905430514121,8.917184720561636,9.921177274236365,16.12671438117486,17.27667451226502
-183.0,-10.84832619638154,-10.326070833876896,0.5222553625045614,10.539580197209084,-5.716755276682408,-4.88821199760342,6.470889830530519,0.29174191526560445,-0.7337823095741194,-4.174878621186005,-2.118029951331919,-6.823745820993139
-182.0,-3.127930038407798,-8.680767273359233,-5.552837234951468,5.9448202287461624,1.1920712818949757,-7.17225388009056,2.8009221632919235,-0.7721975479977861,-4.651445754798835,-6.099920212144824,-3.1784748377388317,-7.065853359026482
-181.0,8.662919284741358,5.630143676031,-3.0327756087103244,-7.176744047937036,5.834638488694836,1.3305959608318645,-5.535494813017397,-6.739591017976566,-1.5474878119876956,-0.2437566789036678,1.4118106829610428,-0.8407713227402587
-180.0,-4.595399121789297,8.395007846822688,12.990406968612035,-1.924530846862374,-8.803365930953579,10.731508343771091,-2.9329495069153277,-3.5008316156414088,-2.1566543992150162,1.302234038540679,-0.4278881889147663,3.571224818786056
-179.0,2.796619008655441,1.6704731960260255,-1.1261458126293569,-2.177191573104455,1.9502109761630078,0.23724414884155243,0.048418312668265795,4.8139263944785124,3.3857909541457567,0.6751412100080563,-4.738433935972829,-7.697827560609434
-178.0,4.550463377433178,-11.876894088707713,-16.427357466140847,3.640201446755611,10.554088839446482,-14.18350172854476,-5.513885595808534,2.303057480273033,2.662519601894691,-1.2226739380736722,-5.367455151170741,-3.7275752995747102
-177.0,-0.45310081350284026,-4.569529257132769,-4.116428443629882,2.485573402639318,1.815539751349256,-4.292810593485848,-0.15427048647988406,-0.3446111650304151,-7.005860846837258,-2.8057354185281773,0.37204337087887573,4.483563523296918
-176.0,-10.498468235393018,7.252982498574559,17.75145073396765,1.67214038482029,-14.143266448547234,12.476532363045784,10.77620873219337,-1.0623399122446544,0.6457733528411453,-2.0551968785074903,2.351231473072566,0.8715537897031016
-175.0,10.561005879684203,13.087418469198866,2.526412589514768,-11.856745266787318,4.0752454081816065,7.784852931942057,2.9335076942930014,1.7221060532290466,4.230586566135106,2.1602390748753066,2.234440873740387,-1.2365176222320953
-174.0,0.21258570869498072,-4.38497928243695,-4.597564991131859,2.051979793949058,2.3800791152082574,-4.430187781091517,-1.1300266647520125,1.9833398411420748,3.1454256481165688,1.4128892795088084,0.3034569840174246,1.5183002245677355
-173.0,0.194472878825387,-4.526435323535752,-4.720908202361089,2.2108062552375483,2.425639507532352,-4.636843553304768,-7.243226190310292,-1.1196707154080174,-0.4580668410741344,3.8015070156554955,1.9291491769089633,3.631037588783597
-172.0,-3.89578965033574,-1.0610641974009964,2.834725452934733,2.52516603039322,-3.4072269551798238,0.876997038692743,-3.852736289747187,-7.298324367536537,-6.291884940249544,2.097737488163047,2.1940819870313204,2.4482738297820617
-171.0,-2.1475928125862715,-7.74424954324546,-5.596656730659273,4.916292822434531,1.7500757314104014,-6.679460108830962,-0.3708635408577199,0.6354020044348134,-3.8456901256408154,-3.852953373431809,-2.6245838266972275,-2.143960791256888
-170.0,4.333897623547433,1.8520779928289786,-2.4818196307185443,-3.1212820313751397,3.4235129346798523,-0.32643370971061825,3.0697667194470517,5.078396516945591,2.9736335836522705,-4.336541474408992,-6.00885273677054,-8.405899364260975
-169.0,-4.5626356674660435,1.9357610803809258,6.498396747846845,1.2842370418642346,-5.520700247464685,4.1995987335911495,5.625940433082093,1.5975186115854738,3.6033333069290885,0.3874982230811366,2.6206996710090578,2.6922694208491613
-168.0,-3.265645659994108,1.5047123705653211,4.770358030559331,0.9265476790157925,-4.008425027826242,3.190470223279163,2.8411955894261935,-2.4087203661503747,3.071103906911992,2.7614026897202697,4.3408418705675755,3.847158755262303
-167.0,1.7159459164059707,1.0655201938861205,-0.6504257225198944,-1.4288111943595605,1.1977989079590878,0.17253276890788083,0.9961052412415394,3.5990261776194625,4.781208843701341,0.660672183742596,2.2287529344245876,0.16571322913141884
-166.0,9.921070839731698,10.702609569431292,0.7815387296996132,-10.277342693448977,4.592592800646344,5.777452206956812,-5.120913668852369,-1.3039236158728562,-2.7870633775755715,1.6186386728588862,-2.380255348719365,-0.9121320567125203
-165.0,3.0528505787857725,1.3890587020829823,-1.663791876702712,-2.192250022464333,2.310793032266482,-0.18678703915481265,-5.233930738838767,-1.9924971344580884,-3.8156606715297974,-0.792147435768672,-2.869863116424109,4.770807386387778
-164.0,-2.0897336793589,-7.575072415984262,-5.485338736625165,4.777617347864667,1.6562217217132789,-6.503639856331379,-4.439675346293535,-1.3501543991277813,-9.074459803826738,-2.802557620042884,-4.703246775764457,-5.103411303529743
-163.0,-8.44190099495967,-8.569082164036942,-0.12718116907713517,8.525832592117439,-4.11789338024534,-4.320683576162033,3.9129988124165136,-0.3327995523113476,1.4269470698931581,1.7831462735271897,4.1353090319817465,0.2132417496168455
-162.0,-5.724645802017226,-4.8843762701732,0.8402695318440394,5.32197466564969,-3.3225126562078158,-2.069086868063154,3.7516531252328744,-0.7804247906011957,2.377944818192496,3.1291895963215377,5.797194670218907,-0.8293217987976848
-161.0,-1.5130553978793673,-2.4196831262344727,-0.9066277283552666,1.9812463980113413,-0.26645815582137855,-1.6245546967336946,2.9689296514852304,1.1436627032669442,5.07174876923459,-3.0852121927943656,-1.401473345475202,-3.058668137497832
-160.0,9.910940637514592,6.25617048460586,-3.654770152908891,-8.14987221475468,6.8187437921692515,1.2689611644501582,-5.257617014727706,0.6668500778795556,0.3188377074931248,-4.8483152461207,-5.922576360091132,-1.7911643698198854
-159.0,-0.49374721565061996,12.95250873041996,13.446255946070469,-6.218835479900358,-7.011067820142278,13.176344435251222,4.624772625799988,-1.228709704141911,4.722464800727844,5.6197743995013925,5.256572921060392,10.282890708607233
-158.0,1.5534688107882346,2.4222886593267017,0.8688198485385064,-1.9777691086595128,0.3848406261237929,1.708967381455058,6.732747141874022,8.40070359180471,-5.060613582128726,-4.030684665075659,-4.305857512710898,-1.8526456332648733
-157.0,9.60064568399835,10.605904056300252,1.005258372302037,-10.091230678793412,4.268493178515213,5.795650981170161,-2.5819940413785334,-1.6327032767579381,3.3588005044647455,8.654599474135331,6.484989159604744,3.650257661062262
-156.0,-2.219974065080919,-3.9403038038303713,-1.7203297387493424,3.096802472865167,-0.2713974463662414,-2.838279756500591,-8.925713088800373,-6.422605972958817,-2.3799227011589736,0.05156848425293159,1.6059391727478456,-1.4264155980321347
-155.0,-11.599057525463635,-31.239706502731806,-19.640648977268057,21.44266456326973,4.005626091238852,-25.450284594356248,-7.827667570019657,-2.2013462221846414,-10.39392159625478,-15.053613501577775,-17.479018764355196,-16.41872902557118
-154.0,-17.313544378099103,-18.99818550589463,-1.6846411277955244,18.107446002873246,-7.747247249745058,-10.357612177819364,5.9426883852865915,-2.7973854920970913,-1.4985030731604834,-2.50264051944249,-2.2036949793481417,-0.938662518658556
-153.0,8.553462464273645,12.708795701628738,4.155333237354999,-10.595167211086428,2.1873255444032815,8.406950193673763,6.690657349322777,7.302251568542788,9.304818332442736,7.402097347288796,11.16688453413401,9.992323899073439
-152.0,17.930075013856637,30.810559744026417,12.880484730169686,-24.410223420748153,2.5087479094509533,21.88921718712198,-1.7167083550263342,0.5910632737106369,4.630396700881471,10.379978379467431,8.309845917550852,6.47191172443838
-151.0,-0.11911929013367839,11.866759691003526,11.985878981137123,-5.913852707580677,-6.076332061200693,11.960904515984083,2.796932526674107,0.3324429602632595,2.494987671467854,6.43177186762389,4.154463847872325,1.2538607168691307
-150.0,1.9754343196594197,0.33931166021897496,-1.6361226594405087,-1.1209739501038802,1.772267120570541,-0.6995515214880346,0.8883926365742899,1.4697835824528531,-2.016579757662596,-1.0573790503104457,1.2870159021605398,4.144550421763339
-149.0,-4.995407101994527,-14.227845011119424,-9.232437909124942,9.644852981412185,2.154314980857663,-11.70694704525452,-0.30635505807536284,-0.9611435938914342,-3.8976989405491347,-5.641463915605371,-2.2079176181298186,0.27209235582842356
-148.0,0.6322552556242469,-13.22888377579408,-13.861139031418327,6.328606191525778,7.275180804318377,-13.523943320762896,-8.184243310815935,-1.3055250999525145,-3.147090204353682,-14.992642905359611,-15.255016575698317,-12.694384749736352
-147.0,-7.650778044547818,-3.764574564469994,3.8862034800778735,5.656878058128695,-5.744365848871782,0.0026699837477970334,-1.2561026245123466,0.7934237462424647,0.2991284703059143,0.21746503521144955,-1.0168561526910285,-2.8671902278833583
-146.0,-6.290736442120924,-3.991279250403787,2.2994571917172326,5.166917291265756,-4.272864625180745,-0.8246186002863971,5.385328939224243,-6.594667982653046,-2.32568741338327,-0.47743592343468577,-2.948346421344376,-2.9252935545573564
-145.0,0.12966312846612693,4.518791211675898,4.389128083209888,-2.3792617250688357,-2.186986382313874,4.4769347401493045,3.982873340976126,-2.4931623887977414,1.7249475079126944,3.677218220800571,1.7568134109655094,3.7816480752357515
-144.0,6.935385913128607,8.122091105067852,1.1867051919393514,-7.507446857756853,2.816389589170901,4.6014745782309845,-2.6481272888704006,1.479125299193544,1.0265407223393805,7.451509388351516,3.974920751953855,-0.01218964766000985
-143.0,12.528449343812657,13.076351668098148,0.5479023242855485,-12.783252624805492,6.010327682998933,6.842186444268462,-4.492277713814592,6.542710144585669,4.187882556698907,4.360548447516822,9.693645154499073,6.086097685509675
-142.0,-2.850109727659804,1.9851950027737564,4.835304730433528,0.45069109929506723,-3.8224279328627704,3.4457943733270056,5.238443876851572,8.082670485655683,0.7756924602335986,3.511327118796248,6.174703134638851,5.231031148049203
-141.0,-10.649204175450537,-18.641507559562747,-7.99230338411232,14.586190054752116,-1.3055909315064325,-13.354105414451132,-0.7688523332597093,-3.226930799528249,-3.161667585453955,-5.891674058260703,-5.01113609586976,-1.7862950615661957
-140.0,-2.024347322579991,-6.02418351632278,-3.9998361937429396,4.048196099185835,1.0162442265038703,-4.965203374416415,1.1362365977354691,-2.469019555021049,2.043082641808353,-3.791498595301117,-5.512555111644499,-2.54715412851631
-139.0,13.877985890882348,13.871635476286407,-0.006350414596075105,-13.843452444296283,6.899957844947162,6.9038372684832945,-4.497694176620401,-3.0286907841354664,2.109999581033586,-1.7807675958103353,-0.3380480038233822,1.825409482690873
-138.0,-2.182481141655437,2.1170112362667113,4.299492377922073,-0.0049385107917574445,-3.195974180792528,3.1796319355985165,-0.5365947990151672,-2.914648147514748,-3.654753369357734,-0.39658267183382856,-4.062938916755938,-3.018685040850086
-137.0,-8.323456711028447,-0.5966367672163062,7.7268199438121945,4.511481868338773,-8.052489490103845,3.5338813326613714,1.4814284380770224,-1.2252799816259503,-3.5793914838752685,3.2297521084971823,0.913320529603026,-2.1184294537964714
-136.0,-2.0464513912640006,-6.792406545042741,-4.7459551537785725,4.400974520304993,1.3246988719430317,-5.725818248033157,2.4473120019388968,-0.4211533507783306,-0.9051555188933316,-2.511427426659697,-0.2172506680937346,-3.410294740102281
-135.0,-1.7697317634076022,-5.7672920064605915,-3.997560243052793,3.7554840832144665,1.0864791198325854,-4.843149794913244,3.8696269081896473,5.5844466152323085,-0.7039575102817428,-2.6736800268908194,-0.5252485783985177,-2.209440529491423
-134.0,-3.6265561859226656,2.3506123627544926,5.977168548677307,0.6259794081169832,-4.7565027740750025,4.121846231230665,-0.27386739380834535,0.23691945965154293,5.602730602233702,1.5373656372463738,3.757793369722801,6.569501828112207
-133.0,12.14521993789859,3.2913389563587896,-8.853880981539806,-7.733105794675994,10.458975371326321,-2.7449743474135806,-4.860285145331821,1.1711260542286837,-0.2627150912954672,-0.23992879104716036,-0.6979179510561977,0.9407284841392891
-132.0,1.2210350214110326,-1.2053969114164156,-2.426431932827602,-0.027426759420845048,1.8560678706599925,-1.8568225028257845,-2.653569328738752,-3.563282344069763,0.6388972614327708,2.6201169506610986,-2.3342659818361566,-4.788625686178129
-131.0,8.246141712908953,11.10975241903315,2.863610706124012,-9.622939734250632,2.720821996046982,7.027278988994357,-4.89179612890642,-1.0894456900832576,-0.07708303036063613,5.166126600062658,4.114504886903698,6.853678377028924
-130.0,-7.039658636032398,4.63349066109937,11.673149297131642,1.1780127427907177,-9.326354018413133,8.11832398448091,4.790565982953435,1.0635829726266295,1.2237474114559732,5.577652026947824,5.452184906595696,7.597388696976554
-129.0,-8.479770085437712,-9.38702783867645,-0.9072577532387607,8.989296799901204,-3.832399350556677,-5.179077370752205,2.6118199929798345,5.838155648954231,-2.2795295231140518,-5.395202267898863,-1.8576366005953788,-5.7753122687503815
-128.0,-0.3916305110278069,-6.415428407957062,-6.02379789692923,3.3853854094121596,2.7727090047835143,-6.169910882951447,2.3781692203579783,-3.3882170924663324,-3.356570194425398,-8.06620342835982,-3.7728762302918004,-6.6452541822581495
-127.0,-2.7631216565771397,-0.08835268897044912,2.6747689676067274,1.4123593028156094,-2.682093170329647,1.2670101718620455,3.1818787904809276,-0.6566796906888377,3.151522820087358,-0.25515086430625367,-2.754926445512792,0.6079630222164538
-126.0,3.9560223210276946,-1.1669816412670706,-5.123003962294733,-1.405827100798942,4.497292903806478,-3.089605196773866,-2.2833158839193386,-2.195786729275849,0.7215005032261239,-1.4639430135635272,-4.334751354242645,-2.8008436696054737
-125.0,7.759636048909493,0.4789520175072183,-7.2806840314022265,-4.133109453735921,7.555067565960324,-3.4216807103541806,-2.5561456744651077,0.32194176183844836,0.020717520320468252,0.5557369896972051,-1.3024507841743567,-1.1783357561682253
-124.0,-3.384092212995153,-1.1151240530856374,2.268968159909561,2.228489628982286,-2.793542578526495,0.5579346561218548,3.8473667649010674,2.376072246613985,-0.28135750729595904,-0.4404131095344215,2.391072082061167,-0.2236279568064764
-123.0,-0.8392629665022071,8.604084325772554,9.443347292274822,-3.835330150930209,-5.188424903286383,9.005602807269145,-3.1119636835034856,-0.7777328020673726,-0.8945945115548013,7.385356817203205,8.233724934216754,8.64502039608992
-122.0,1.3548152837016116,5.5638427618957405,4.209027478194189,-3.5021001849076816,-1.3959742847762797,4.868487052461244,-3.8318308826711505,-2.010365752521346,1.4027997874546063,3.262332966831382,3.3448041770790877,6.769738561989249
-121.0,0.38420452258752197,-5.188455719673767,-5.572660242261292,2.4292749141481234,3.0096325968361777,-5.319645035018997,-5.1338278729014615,-2.2398492491465887,-3.900227997921711,-6.064748264049292,-6.320550236268481,-9.70835490849756
-120.0,-9.306930677232533,-9.483995814825882,-0.1770651375934429,9.417978147245488,-4.612401441987395,-4.847636505586455,2.016689190250347,2.6865045747244602,-2.2079931752337045,-1.5104356124936507,-3.564245786818226,-5.3169141600046785
-119.0,4.32043086676282,5.517006428510265,1.196575561747339,-4.896256624204835,1.5141934505354073,3.3412569835476122,4.302370210470373,3.9071903805055475,5.2916129261273275,4.960153710333748,6.137747397085825,4.412676542288886
-118.0,4.387797204303879,3.8771427042036652,-0.5106545001002925,-4.185386793209638,2.479734878531912,1.6696091397287396,2.4144146334442818,-1.9801189198242326,4.356822214167581,2.3117474364465718,2.374602808870259,6.92639137524956
-117.0,-2.8497132300318713,-5.178904531244201,-2.329191301212301,4.04483183732506,-0.23006216433916427,-3.687923362810511,5.083122594245846,0.10003656512969039,0.38673648719765175,-3.609598282678107,-4.7985670042557,-2.9768100130490684
-116.0,3.5557348644120577,-1.7531853268651258,-5.308920191277113,-0.9456495154662754,4.462754719821003,-3.5451064174232374,-3.1991746671517585,0.2534785861630916,-6.607996778023609,-8.948227813537216,-8.395754446554253,-8.060493327241804
-115.0,0.6066484297975796,4.189752523874214,3.5831040940766963,-2.3622301964619137,-1.535884359263023,3.867306283543711,2.9285153969760254,1.0319280447455323,0.9187301254480493,2.1288025155006647,5.198561276026041,5.153548800853681
-114.0,-4.289127695595072,-4.924746711246259,-0.6356190156511508,4.563194030456728,-1.7950650446144425,-2.80807929559227,-1.414332603013461,-1.343766113520602,0.9863911800398737,3.071465799109392,1.8657991530982652,-0.33460949627151515
-113.0,0.4301233579740056,0.85304903589881,0.42292567792479274,-0.6093800810651555,-0.043470813053744006,0.5991723969610048,-4.235588018226279,-2.21479631898132,-2.3143409219538715,-0.7091178608270101,0.2606563387724541,-2.8734720108057985
-112.0,-0.6510940041405952,5.140291475790817,5.7913854799314,-2.215735839503579,-3.1903042857481396,5.4956715508743414,-8.813889355188424,-2.2623059662744973,-0.8556847507921537,4.314951049502449,-0.19520518748634852,1.206064922380689
-111.0,-0.7620903400302173,3.724509782909157,4.4866001229394,-1.5336807900073326,-2.673199188283519,4.129437929423412,2.535070079056596,2.2725344795301075,2.0503201504092425,1.325163386247456,1.152580017565332,1.7132896929637143
-110.0,0.0565077973499902,-3.289781067930523,-3.346288865280477,1.6419359882920737,1.7307582076781651,-3.29363435518672,4.32890256778111,0.6330690458577517,2.4474514588108884,-0.22919984472250887,1.0534941416588142,0.1401740628338486
-109.0,2.7865632957120448,1.4269353841557035,-1.359627911556342,-2.080684197550525,2.1030911563086443,0.06528232887785856,2.384469647664534,0.997433640238863,2.1316281055872235,2.498752181866094,3.842282852166806,5.637403089473476
-108.0,2.1583567824861047,-4.811379684068473,-6.969736466554646,1.2757607550519496,4.595946491953425,-5.92572478369447,3.1739047105736486,2.982511420129789,-3.0184639315457997,-6.377193919591793,-5.5726432702327875,-4.370873933521723
-107.0,-0.09891668720149083,-0.9643453911386533,-0.8654287039372757,0.5616378572353382,0.33902923287864617,-0.9367660864364242,0.4086416362846581,-1.7687218347427442,-1.4215130104333191,-4.4263584346372475,-2.671425957864062,-2.217947461971914
-106.0,1.680540363809131,1.865067035935971,0.1845266721268355,-1.741955642516249,0.7062943814375223,1.014073469402727,-1.391220401240457,0.5165533354912379,1.5219427170942266,2.310284966716974,0.5812774914258467,0.6606902548781166
-105.0,-7.02021864119172,-2.4751757936577636,4.5450428475340265,4.698563883253894,-5.7437611880219075,1.0308920544678513,-1.3147222634426339,-4.276364148517371,-3.1145998009608316,2.8394313716198774,0.3938019695334988,-2.22103515618981
-104.0,-2.65435370886409,-1.5376222849567425,1.1167314239074648,2.122190957126257,-1.924294491781331,-0.21294693891820238,-2.2346149913376254,0.9868851546048386,0.12348086042183914,1.0183718476210262,0.8511789228930773,-0.6821649449757342
-103.0,4.9425238637179065,2.1667576359766323,-2.775766227741211,-3.6118466167578003,3.899982054881887,-0.30980683167401035,-2.647532509938651,-0.0016400374912766413,1.5992510889106917,0.03452350217638367,3.49601114141651,3.626606508611154
-102.0,-1.5061649258469294,5.739418687565387,7.24558361341231,-2.099188520762791,-4.334003212387583,6.560374312187804,-1.666040211116552,0.01431173400722402,3.5472390859916985,2.648831521214712,3.0519015104304343,4.921022522922217
-101.0,1.8139814218131338,-5.3688239710564245,-7.182805392869608,1.793274065594418,4.463014841035034,-6.293461044334727,3.9183292350505723,4.7195266009501475,-2.3428669369367103,-4.110853114539967,-7.058533646604685,-2.6301465098362953
-100.0,-1.9513005383072815,0.5759533394991785,2.5272538778063502,0.7056314512804288,-2.2726467307092326,1.5271491316248602,2.967007951939413,-2.521648112636859,-0.1458843186433409,-0.1196228861597377,-0.03576840857971719,-1.5709984755545776
-99.0,4.800521415294642,5.893239679453795,1.0927182641589834,-5.323505783433939,1.8230004764222905,3.4623928431406,1.5140444488095808,-3.264630839898395,0.05763185916345509,-0.02980518125184517,-0.2723371089545842,-1.523143657449591
-98.0,-4.411798424753774,-5.638564518575583,-1.2267660938219205,5.055305111909105,-1.541866947103454,-3.38951117098088,0.7992013863845073,2.285715382168074,-0.7947601536345457,-0.5292268998485256,-1.037574819898138,-7.225211936651424
-97.0,0.6161751940955176,-2.5482588729956372,-3.1644340670911446,0.9227404542113808,1.9436841740961959,-2.8955684631780807,-2.079606109731696,-0.4898426818139707,-4.29676874250521,-5.2900290635749485,-5.252060072260044,-4.947338703048057
-96.0,7.75799635921267,6.752965539575913,-1.0050308196366649,-7.297027183953532,4.357979084942937,2.9112541420076194,-4.303703156482326,-1.2706456703443876,2.085704187971693,6.2796805011104695,5.504566667112014,7.827748146850357
-95.0,-4.242030127165793,6.298176151106209,10.540206278272127,-1.0717451981025343,-7.4147347260245215,8.455272476482891,-2.4192495899735396,3.5303724532943423,4.319077458054817,9.493963514563726,11.913472443278554,19.15071173133895
-94.0,-3.2188231863066417,-6.583937402903981,-3.365114216597261,4.932296240023906,0.0468819132256999,-5.017974222268948,2.6881104460509,0.6946589127482652,3.015908460680098,-4.677810514643325,1.7407640166086331,1.671173008749827
-93.0,-1.8383442732990116,-7.840500632244721,-6.00215635894573,4.867292144616028,2.050673339386746,-6.965700549389161,2.482886873439364,-0.8507049382179336,-2.9421590883630806,-6.693423436951487,-9.255605942811703,-14.502582269288567
-92.0,-3.2919874314440816,-8.338103098492354,-5.046115667048357,5.843848348460402,0.9184339391968238,-6.659014242477796,3.418838322380272,-0.18269761737775247,-0.8905135479906048,0.21196590816551986,-3.034450047107774,-4.471079210891896
-91.0,5.3341910413693,2.1125181108236233,-3.221672930545724,-3.6885297005061384,4.3134692846876295,-0.5229094308634599,0.7715889788269326,-1.7532199356968876,-2.680823516261639,-1.2358855667763962,-5.567531182478474,-4.987159352565908
-90.0,5.399353410629518,12.560005628374777,7.160652217745233,-9.013718537180221,-0.8495079382710409,9.81210219358102,-3.215306359640328,-1.4413498130429947,0.6470118694284115,2.145190411629904,2.2105103685866774,0.9677440805540072
-89.0,-9.826129812814344,4.529156338344608,14.355286151158904,2.6251743665842566,-12.140908934793861,9.47218967807743,-4.136021512770711,-0.70171572243741,-0.60136876040862,1.377817083509199,1.2700576724460215,4.697934901279902
-88.0,0.10314397830519417,2.895587620527306,2.792443642222074,-1.5146721737013267,-1.3958894763500607,2.8739878453797463,-2.6031779241782678,-1.5788717953947766,-1.4015412590373515,0.21952460807901208,1.9030553241646664,3.7594027066953686
-87.0,7.840669808747507,-1.5177107508890542,-9.358380559636558,-3.1742801257161903,8.627075584863814,-5.486617724138565,3.9353929800831495,6.0840699003935494,3.8833998607320668,-0.03943472609871734,3.320402661616305,0.4374191815982096
-86.0,-1.2107916653055377,-10.160556075796672,-8.94976441049106,5.747476809272444,3.897698356541802,-9.525025336191055,0.942058395351022,-2.2824704318457743,-2.2478977888710023,-1.2656659106236,1.3075483983998093,-0.2193207340674408
-85.0,-1.5098200725510864,-1.4230373572504629,0.08678271530071857,1.4393806305927308,-0.7692631306282194,-0.7172696041117748,1.5329155896468976,3.2074575473421745,3.8641979470342283,2.517207286525739,0.0766452099573448,0.6528548021304993
-84.0,3.5758977464918957,3.442129465598898,-0.13376828089292414,-3.549840607769587,1.8055987878374307,1.6829448760471037,2.724284010388024,1.1665967374837096,0.027799668621450335,0.406482320048698,-0.3237224467335892,-1.4460478000782373
-83.0,12.052133344202282,7.695561948562369,-4.356571395639904,-9.850128404111004,8.233555432320045,1.6976219562698691,-4.225698126490113,-3.2220018275259363,-0.22401856591929512,-2.910345392583239,-3.271893434811541,-0.4545252125932553
-82.0,-18.658365940179735,-8.479695632753788,10.178670307425865,13.581514764133976,-14.469264246870623,0.7990737661888909,0.8687185219347175,-2.680165845706613,-4.760263704899215,-3.353469006529648,-5.358339001628834,-5.331508450898
-81.0,-16.846552081064214,-9.089889797266649,7.756662283797457,12.975056592193479,-12.275262667229313,-0.6367260725786656,1.39171315525283,-4.117199036471348,-2.309499179375123,1.6077717683113797,0.08158981235252227,2.8528060494868317
-80.0,8.365486950492613,8.195903393088452,-0.16958355740426878,-8.272790405953824,4.292601207499507,4.046118934897117,1.2386904771119696,3.393941285653926,4.354717555850531,6.47133023471604,8.64113416839234,6.211413068122039
-79.0,6.327858652206476,-0.5561892888445472,-6.884047941051053,-2.870739020003265,6.552243934886113,-3.761472601937332,-1.190426616468502,8.764478660196279,5.676587134589112,-0.13043277946540321,3.049827150063294,0.2797938278069534
-78.0,11.869948417944725,-0.5855840257179357,-12.455532443662628,-5.69453210895627,12.18942086087783,-6.556500595618728,-7.537531899046373,-2.5485423760085313,-2.699930258209188,-4.894989441543444,-7.049106382329963,-7.094815377279508
-77.0,5.060110122887101,0.6763253896419887,-4.383784733245034,-2.8291235589715757,4.751499560200596,-1.8050755941252565,1.1641020727355222,-3.1740892824847107,-2.4123907940398595,-2.442912718270871,-2.9362691814421353,-3.952969110086013
-76.0,-7.81311541681955,7.522317419467161,15.335432836286813,0.11716323276271434,-11.541957278110363,11.404345553791938,3.6042158486494644,-1.7369542435200866,-3.1942757544017653,1.0744327249022174,-0.7756116520662608,2.7464747780453322
-75.0,5.964936478813277,11.058631722091222,5.093695243278014,-8.531894640473316,0.39001302991158404,8.134705019989706,-1.1949013824922292,-2.9516300221725285,-2.3561125359438058,1.827853214034454,5.220153783664321,4.217364975963455
-74.0,-3.7818585724439844,2.2263557589837695,6.008214331427755,0.8401151929003841,-4.943280436884731,4.099031419148993,1.1783895930034525,2.468226911062687,8.42902746402275,5.214594371735567,5.589701302535378,8.66242669707109
-73.0,-16.985578576876314,-24.382999539579302,-7.397420962702981,20.667046145906998,-4.770079800555214,-15.90974810213023,6.810883017892443,1.5249127202565167,-2.301210754967177,-3.919842335961238,-5.00456950061578,-6.6296015599048355
-72.0,-7.087029024905324,-11.043259864674187,-3.9562308397688413,9.043094171037488,-1.5507229967513105,-7.523861300445057,2.3960293463460145,2.301103282503293,-0.5136219466128816,1.1233135825957998,-0.3085371562385877,-2.7503519006913413
-71.0,6.538436961245675,13.099768652597652,6.5613316913520245,-9.848641815576258,-0.006670071258186638,9.799672466596736,-8.049036866863311,-3.783233867027727,-0.6096565501541417,-0.17126754956556672,-0.32352559793450775,0.8141983750650774
-70.0,13.070869526116937,3.9076997925944683,-9.163169733522443,-8.448608072406865,11.114039883088582,-2.5867584407853297,-3.9205318881281377,3.3375473288470547,0.8653912066891754,-4.103066447373332,-2.3638829508819517,-3.5734957425077227
-69.0,7.223332379679161,-5.579476697006374,-12.80280907668553,-0.7892266409679305,10.006866188106773,-9.155013660586661,-1.0353499603577871,1.8316867090753846,-0.11679840677081516,-5.555509651089283,-5.09885380720206,-4.857738110339847
-68.0,1.5637241862938192,7.445509662035805,5.881785475741983,-4.556898463908571,-2.162535639946146,6.619543000837875,6.485866933887596,-1.0730166743959693,2.142208179986943,6.689995439357065,5.587682687642139,7.293588196400215
-67.0,-7.529766170284699,-0.9929603973634755,6.5368057729212,4.283917070863199,-7.028208642975641,2.8082327191104968,-0.6674104203550502,-2.3543976075516224,-1.445977225432629,5.5912128366295875,4.03782537828778,3.9244108955089034
-66.0,-7.487068591175454,-1.8357773507028994,5.651291240472555,4.682425812821393,-6.551237735096837,1.9471657023362319,-3.0866087356157648,-3.541745168929758,-4.77567405286447,-2.4498183327269154,-3.0231128277735686,-2.092818480382019
-65.0,2.194147088298624,6.680594167096398,4.486447078797811,-4.494551394672749,-1.1139345731092192,5.546260386851285,1.8393529392641232,1.8047670261547186,2.6185027970740475,1.8835675373291672,4.048449512981802,2.425239674606185
-64.0,-0.36335108019366924,3.9726718709268356,4.336022951120569,-1.7807136096266172,-2.3839417662774824,4.116165418661001,1.7266479559534114,0.9982919511288014,0.7461229674373968,-2.059157572682813,-0.15518441078216083,-1.1572983958118204
-63.0,-0.8507781461542858,-6.621203646485851,-5.770425500331498,3.763865181087686,2.432989776424183,-6.238352679655476,-2.539074063365457,1.038872354485872,0.381482849583037,-5.333163007137735,-4.913202314442968,-5.575305278534273
-62.0,2.2590607998240437,-1.8242724972950883,-4.083333297119102,-0.2630563265742554,3.1455858189293475,-2.923903560084103,-0.02971962119579641,-5.073188899638566,2.99750976586436,2.676904039902325,-1.2341895107404928,0.06674660159694401
-61.0,2.2251002031219485,3.2886929983681976,1.0635927952462305,-2.7177031627127457,0.6295616611470707,2.2005170276967227,1.0242891190194705,5.303101293203899,-1.6430965568436564,4.70531926040884,2.46719326728876,5.1520484595489515
-60.0,1.935738546413712,-15.3804384316479,-17.316176978061666,6.689163277097857,9.588464807350256,-16.325985723975208,2.7983014951051324,5.434698934066068,-5.898246176466006,-11.81093777747546,-5.765585425618891,-6.0748338863576015
-59.0,3.1893113035399727,0.3629559851008657,-2.82635531843916,-1.724800387196311,3.0414559270900097,-1.2066107360685807,-3.5692274439342984,-3.8016052660166237,2.045654550609577,3.6113100255705737,2.5989487847459407,1.6604065271386514
-58.0,-6.485122521917937,11.310669768219284,17.79579229013717,-2.4359764343297305,-12.111678122189144,14.50658045446595,-2.063639332393633,-1.5802167885129366,5.093288357842669,7.817182745120112,7.799256496806972,4.018767958923946
-57.0,-7.920762236598529,-0.4408556109479429,7.47990662565054,4.159495773133283,-7.750580315492794,3.560726047930257,4.602619147431554,-1.4971523433559597,1.339690547703866,3.2840301477480063,1.3893188379362718,3.7743999913622366
-56.0,3.569622186177113,-1.6956560956495363,-5.265278281826687,-0.9590180209420107,4.450548450773775,-3.50952853928146,1.4863148041452714,-0.08853952591513914,-2.2022858737801316,-3.3428954475832504,-4.311709669146864,-4.149828201867107
-55.0,1.4343460399784234,3.897450324146679,2.463104284168237,-2.61219556702027,-0.5516622989748224,3.1570324336334328,-3.568928269498085,-1.3102326578707224,-2.13448574437812,-2.9157580992906174,-1.4785207709658224,-3.3215740795059854
-54.0,11.056100497198878,2.8966112312775816,-8.159489265921291,-7.0058945381846165,9.65932012719369,-2.652135616487455,-1.918337618109745,0.9594734537994274,-0.7953140338944378,-4.429122406630319,-3.3230654031536044,-0.900910152976699
-53.0,-9.308910643082157,-1.7631850085740537,7.545725634508134,5.580338386287519,-8.445268705650918,2.8707698158254136,2.7152505759852543,-0.4449997390578573,-4.161889889480678,-0.5397566404262193,-2.3867980479866384,-0.7799243750529206
-52.0,2.4409449726945334,4.264023135850954,1.8230781631564734,-3.391223315821329,0.297305619162076,3.101316610018845,-0.3658275186795582,1.1783387762449773,3.6461753600931273,4.793632991640541,4.151343501697458,6.853516837258679
-51.0,3.4382642335654943,-3.1325240051111334,-6.5707882386765535,-0.1942926625642286,4.995055192457169,-4.793772507026637,0.46622769020687305,4.892779407622471,1.6926248220881728,1.8297922536764781,5.313397950312336,-0.30597705952540455
-50.0,-10.879050113818781,-8.14922276054139,2.7298273532774644,9.551054499070139,-6.815813665248047,-2.729787343515492,-2.1223422801372878,-1.2232515494641198,2.680491518414131,2.8985819826706676,0.6830837249826223,-0.7492598191431576
-49.0,8.800303383886785,-0.9098274355559766,-9.710130819442707,-3.9063254697048695,9.239192695188983,-5.3297573057721435,-1.3927063805748623,-3.979998015178022,1.8606095158437366,-0.28743215327612126,1.4869524267759995,1.5897005286530632
-48.0,-0.0687925928549542,-5.578378987131504,-5.509586394276525,2.7874822751369703,2.777658000872268,-5.565325172919522,3.5697607128324083,0.03942104767672383,-0.7377608160924306,-6.688215081145541,-9.548862742670805,-5.927889321055535
-47.0,-3.2773827429262985,0.23397421338869107,3.5113569563149913,1.5684057508130378,-3.420415457401335,1.847344103897761,2.925222073419016,0.7888815858480795,-2.883234159012076,-5.465031042140667,-4.32435096779491,-4.813090605526389
-46.0,-4.490515425365974,1.0801607007736327,5.5706761261395945,1.6757970065061176,-4.980674545004973,3.294695880710778,-0.4734098156761284,-0.6151603308191071,-6.792268510997425,-3.3193685636921413,-3.478786116072264,-4.013544283445989
-45.0,6.236230332772369,20.484126752223577,14.247896419451195,-13.38954353380741,-4.035823218122155,17.409460621989822,-4.761030540471263,-3.5477093001730595,-0.9513317497668856,9.000346003297839,9.389913647456165,8.020920888068412
-44.0,0.722513959666867,4.780715619674485,4.0582016600075965,-2.7838307979965062,-1.6981949028312773,4.461550518512211,0.44017724405867886,6.409233085978479,4.87373836284668,8.858795219095182,9.794542649261356,9.4677998165453
-43.0,-3.5024380321471535,-8.608354335398753,-5.10591630325162,6.097165528635227,0.770901044332159,-6.890697053137597,0.9871096139521819,-0.25213459661456517,5.799539922736365,1.849819869432344,0.9732994776724571,1.7466977215667048
-42.0,-4.905293723820953,-11.880550343872168,-6.975256620051239,8.429657211406967,1.0816393961691424,-9.375927931526089,-3.5132386763790557,-2.69245063385943,-1.957411784548076,-3.8869960421410927,-5.0213167441369535,-1.8506728059407773
-41.0,9.980958588868976,1.4912482160503222,-8.489710372818692,-5.781866523032196,9.279662765309176,-3.518185231376223,0.7187604062551004,-0.9585030131643292,1.5107173229542712,-2.960483803719198,-1.2750149561362334,0.12764287426206344
-40.0,4.441622709863406,-2.3156232699776247,-6.757245979841084,-1.0316419844369116,5.561489024189842,-4.550084663539892,5.810284003013092,2.2737273225252825,-0.49001055443815533,-4.8067179970519245,-5.331519360510716,-9.700242573883193
-39.0,-2.4061527058700136,3.9194066759325126,6.32555938180247,-0.7248480137189187,-4.408516218377182,5.108665821690286,3.7649417212555,2.655272374091106,-1.4336918949084523,0.3780869067159016,0.07631949426536311,-1.7587935305585018
-38.0,-6.859750454972487,2.350670527415219,9.210420982387676,2.2093681207397595,-8.004716623292218,5.760064556149712,-3.1219084233568375,-2.023540743505814,-2.1221721911755536,1.707024684160407,1.4236914733010515,2.0195169964214315
-37.0,-7.735488606853039,-7.079753942827914,0.6557346640251325,7.364906463082552,-4.17153816772585,-3.244153395628104,-3.581503760520869,-1.7037214243215253,-5.206513584017552,-3.377022431060737,-3.041127418085526,-3.400169197137839
-36.0,1.1213931653969897,-0.4504471698898071,-1.5718403352867703,-0.29664386850448077,1.364488908973383,-0.9776218317753502,-4.486828668159176,-3.618725828665224,-0.6752092992900496,0.04657254327723426,-1.393523912524549,1.6922020365671566
-35.0,10.3439550849256,1.6259481229957493,-8.718006961929824,-6.021640619771366,9.464888165802492,-3.5226896246326382,0.5760503942385689,2.849268800906275,4.912765121335749,-3.467605442205164,0.5094606393511403,0.14371908067109507
-34.0,6.926179032533756,9.315095969076804,2.3889169365430787,-8.074803603142097,2.2781624803166842,5.871488773090499,1.8362805012500936,2.52203739800267,5.9013002365394085,8.447634918948793,8.482414427240434,8.286213775352508
-33.0,-4.72569199181447,7.645848129658141,12.371540121472641,-1.4103503526764687,-8.538948188036846,10.031916794600406,2.5104376336787793,-0.5736165321017812,2.747363978380512,7.801046323861463,4.64178228990532,6.372782501967553
-32.0,1.0484979120723306,-1.222898281147351,-2.2713961932196596,0.061085805261777315,1.6738860948386303,-1.7925699880425645,0.3653430602686283,1.9572443093236156,-4.472380071951619,-1.2004167686346006,-2.2747681380632985,-3.199546771001986
-31.0,-9.628941763633264,-11.419366464315216,-1.7904247006819523,10.498610401076975,-3.8968143399266824,-6.637037118795502,2.7047528306892867,-2.0002907549250795,-1.9475517982153943,-4.7441802157446045,-1.1934727577818973,-4.525219142333148
-30.0,-3.538252999058843,-8.229155494202129,-4.690902495143319,5.855632724949652,0.5317881808279316,-6.401014172421405,0.3388060272100092,0.8061846843991327,-2.4381589269350847,-1.0273670543181703,-3.935037538029971,-3.9143795288691465
-29.0,2.9767080910833332,-3.1964660052205094,-6.173174096303889,0.07666953057450243,4.622232890714135,-4.696761886503969,-4.163355668054843,-6.702846255541183,-5.114622988340294,-8.410611207262727,-9.618393388311494,-7.806133149892739
-28.0,-0.1992558312959667,5.20740119709973,5.406657028395644,-2.4645683444911253,-2.8225048308486462,5.295826760304982,0.824613008926276,3.852088246426038,5.449365204676392,4.480975299759069,4.528250714368967,7.057739701789521
-27.0,6.748444242406604,12.555354287968767,5.8069100455621045,-9.617159976435063,0.4596378702854458,9.163119132643107,-0.2454010231067547,5.345697928771677,6.3123211159776345,2.6446509041141426,4.287307884031065,3.2428489436954724
-26.0,10.797063762155227,6.162585017585613,-4.634478744569665,-8.446997856583005,7.708058947330239,0.7332810727163377,-3.9918598497812594,-3.4590971529675274,-4.564803895428441,-3.3747975028025587,1.6273821847094063,-0.5113448187621485
-25.0,-4.741406084840017,-9.148990471244328,-4.4075843864043485,6.9005092270285,-0.1765287909846982,-6.745799346771399,3.9093024254545083,1.265565692272228,2.124505789276125,0.268864744467475,-0.6568790471559947,-0.8825801531363973
-24.0,-13.249415806009988,-12.898828735561002,0.3505870704489724,13.03281028349791,-6.816032433833806,-6.256070378214342,1.6062084250570225,-3.273913517060472,-4.871373052117817,0.532441239889063,-2.8813188617670207,-2.3464306983912566
-23.0,-5.784888496569131,2.174513995158061,7.959402491727196,1.8463815675336823,-6.818845599481325,5.074725785167484,-5.217967790278713,-3.3587259603922566,-4.027604096796706,-0.7396319369213491,-0.4682423529828573,-3.3874155044195784
-22.0,3.347031475991873,2.3026529933846147,-1.0443784826072169,-2.7812912437553283,2.2382035272966085,0.632267874834372,3.800851858229942,4.5713162986842395,3.7555555927966098,6.347532987028736,3.335085081154949,7.573337161647162
-21.0,10.450289935459748,10.969526960614726,0.5192370251550238,-10.745239707338886,4.918517485801404,5.74814854418371,2.3509851147912815,0.452999229312939,8.620237742411511,4.98363685538502,5.133718140541738,6.721445819198875
-20.0,7.254847092298967,1.6693188492105353,-5.5855282430884206,-4.4998914922988025,6.363756511803011,-1.9502069278429497,-1.1878130394190611,3.369825958330382,2.585242563015541,-0.5698782711294367,-0.6078323868333513,0.09097917398873023
-19.0,1.557128837163039,-0.3602926653604104,-1.9174215025234909,-0.63950228295789,1.7528630723762335,-1.2043638190208261,-0.3032120795983137,0.49675407018634476,-2.5907047569593598,-8.874314763088588,-3.617784237237667,-5.064736079550797
-18.0,-8.598398407241945,-5.535518302712446,3.062880104529431,7.103014334616488,-5.817751414675609,-1.2183939743834302,-2.145031544510154,-5.126286449739506,-8.949053977565194,-5.771001263538099,-5.49235731828376,-7.534240247072424
-17.0,-6.590733240130348,-4.657241907685717,1.933491332444559,5.6623345585544085,-4.247077549010745,-1.3408811912206529,-1.6647956419051955,-0.6288907879109309,-8.366258477020331,-2.9298055143171795,-3.4609729676428405,-3.204074893222286
-16.0,-10.189269777873253,-4.832869945766256,5.356399832106954,7.5563019692629085,-7.751146451018117,0.2842066018057572,1.8626511874593101,-2.7237604146353784,0.9942325948529396,3.1308946544763296,1.6405870264213127,-0.5160488161033965
-15.0,8.222880798695659,8.667326367018283,0.4444455683225892,-8.468703433739957,3.920316942054958,4.499986454273447,1.2090405273395086,5.226007314623118,13.35541995092284,11.383448881991441,8.295687822822721,8.1342254871571
-14.0,8.71314889847224,1.7174790500328716,-6.995669848439406,-5.22939213021043,7.816212107924763,-2.616163360963624,-1.4961674386715724,2.548016781642213,3.202126400890264,1.7786635783841724,1.7345774919288584,2.090939002876363
-13.0,-2.507547418830871,-2.9255283970786454,-0.41798097824781255,2.707656145277709,-1.0761386107656001,-1.648629770472024,5.24638330566,0.6188131439000413,3.305697870602414,1.626899131059202,0.3067378611471683,2.932071330081058
-12.0,0.7297407563120242,-2.644366661363402,-3.374107417675442,0.9465900261964213,2.0233067709771717,-2.985865573345832,-2.200968165869095,1.0570312401757676,1.0184135462792518,-5.029338221401479,-1.513537974477566,-2.6714481495527456
-11.0,2.253800962499193,-5.844375617030757,-8.09817657952993,1.7754889719467655,5.225000220753108,-7.026845071446625,1.1447065524544051,-3.0656004028230464,-10.422741897037811,-9.928723273328746,-9.218318068177053,-5.285919594980093
-10.0,10.254480038938494,17.024995089934478,6.77051505099603,-13.673201430493181,1.7089909954011515,11.919742011966816,-3.561845307468718,-8.256640677335943,-8.880653621023836,0.7637588042744117,3.87100263578105,4.593314745059267
-9.0,-20.146603678172248,-0.6714823875308173,19.475121290641482,10.440734852584665,-19.768200480360395,9.42143914306452,-0.41124298845233187,-10.270650434905503,-5.474958961581778,5.030772023663564,3.9648640144920293,3.3556958075285026
-8.0,-14.943861487925979,-7.403727312581696,7.540134175344337,11.196934484656522,-11.279306428795211,0.0060792089423378215,0.5415702783166941,0.6887632781040045,4.201732789512494,3.284602898066802,1.1323793959306232,-1.8900827384823855
-7.0,16.60634066928037,0.003341057388323243,-16.602999611892013,-8.28186140188377,16.64707260930226,-8.28560420848636,-4.474588115322489,21.167395912326132,12.55104966982389,1.4148047431821684,-0.7744806707147363,-6.548126251086481
-6.0,17.44450551597314,1.2862133948498096,-16.15829212112334,-9.333776624474705,16.84563332285743,-7.422188018735261,-2.089378338768244,18.703418596185315,11.571828589496,-3.522635716264014,-2.885372796390178,-4.225367110771183
-5.0,8.447859286052399,0.7998710512908124,-7.647988234761619,-4.656464702514414,8.013774020190237,-3.407627327897804,3.133527903880237,2.990315222841927,5.075384268205908,-1.8625250431125924,-2.5606209454475275,1.830915258470181
-4.0,-11.033603143926392,-7.198936974039116,3.8346661698871856,9.099245210478966,-7.471528558150885,-1.6603649991514262,10.448304376917811,-14.206199319346675,-10.169061677279771,-4.552895301928357,-5.823552129960367,1.1445540642055456
-3.0,-9.976599077785583,-8.19013573527578,1.7864633425097223,9.07756900240641,-5.926418328373718,-3.1733745984872845,1.2824681841057264,-22.46891335517396,-18.03344315499611,-2.2378439458695167,1.3770923840323468,0.8386992964479281
-2.0,-9.799528452455107,9.293657809185962,19.0931862616409,0.25004748713761105,-14.422688178032589,14.149164508002302,-4.43583204583218,-19.724303830971063,-11.783114917817098,6.950940514915661,9.715502389663989,7.804974118469742
-1.0,-16.442380954502053,7.602597091518868,24.0449780460208,4.410212472244124,-20.229566562182953,15.783335738878156,-2.7981142300883124,-4.490981670030226,0.02985531614412551,8.2166081823878,8.139703140795055,6.161100691631056
0.0,2.030403027999292,4.378132936630315,2.3477299086309644,-3.228960752327721,-0.1496895472296602,3.323829522381751,-0.779445942956452,19.350820667870064,12.95171655338767,3.1144979898585134,-0.5854498854328329,0.9790353504676752
1.0,20.666604792359312,8.961867802577485,-11.704736989781638,-14.779683414094311,16.196475901977195,-1.331668206955378,-0.07514009938189625,26.428850348061562,21.210437963481354,1.5410882092281994,-1.54337257960845,-2.4273556589254013
2.0,24.611077841568576,-1.694567026184254,-26.30564486775235,-11.442959931486513,25.478054998982564,-13.959554295810612,-4.981166412195866,14.57295623479682,9.111873289817305,-6.674219049417249,-4.535032000521406,-7.53294644289597
3.0,3.1273323627409564,-15.723626843189143,-18.85095920592949,6.298766383264749,11.022135321714874,-17.243906307218058,2.483599920921548,5.673100108132049,-0.2534145380720809,-5.100270252735532,-4.6485127032147595,-9.670027938917375
4.0,-5.517788594598984,-20.65248691071169,-15.134698316112294,13.078476816338998,4.775859999856978,-17.924026411898986,-2.165079851358998,-25.85317118297098,-21.90370500898743,-14.392860194502369,-13.535638131984264,-10.542700532390874
5.0,-14.34797096789988,-1.3335989243867763,13.01437204351292,7.834989102809094,-13.70546758146261,5.815714157204468,0.7827773676566159,-13.635864737448129,-12.878416429993958,-3.049453842259687,-1.394218583914531,4.328811670987919
6.0,-9.145912310340153,14.693095770308766,23.839008080648128,-2.7716555218727654,-16.516401372606765,19.24615686870029,2.7892678010499385,-5.403653509804196,-4.381624948023454,8.17908680205795,8.843120801255965,11.377337903545005
7.0,-7.974400087402884,13.151185850000562,21.125585937402523,-2.574662181553451,-14.58171328405138,17.120825714090195,7.951578210625589,4.303981993752974,17.264760532725834,17.175562177816634,16.210197515872483,15.995528994505232
8.0,-3.0557004516750514,2.2221723461702023,5.2778727978446565,0.44284449305988005,-4.13292437387668,3.8105448963585093,0.04782118263528434,4.650813992581754,2.904896277394096,0.8705931232323287,1.567836542761821,0.5835998133457707
9.0,2.0269219300903245,0.8536011183449181,-1.1733208117454912,-1.4832351386850728,1.6199743785348144,-0.18140309683844658,0.39591726232210056,-0.06970603835221567,-6.186432296667556,-3.009118047991585,-5.366175625566752,-3.8788318716663404
10.0,5.410019884667846,-5.248898009704884,-10.658917894372411,-0.11846558825427955,8.044032939972675,-7.980472511031717,-0.9990574627779529,4.275754428814459,-3.1356589410955107,-3.9094031495413164,-7.474560139734224,-10.588653625795581
11.0,3.8039096474756233,-1.3230127901712807,-5.126922437646504,-1.199369675682655,4.471325400414534,-3.178387072461925,-0.4562281998079789,4.4414650903083,7.162206625142641,3.277079481518503,4.133823680572232,-5.758205687744732
12.0,10.02140022730087,5.850442141164409,-4.170958086136192,-7.976792030607825,7.1054247528884735,0.8023494037558994,-10.329637759909936,-0.34696082145604645,10.172575065474232,4.2771343002263205,4.414027610262119,4.93494873150864
13.0,6.316090046386602,-0.2658852131159608,-6.581975259502459,-2.9916505711822747,6.466512502748546,-3.3868114908155604,-8.308445376139352,-12.587253031241067,-8.25170488337878,-3.822701256443054,-3.096041397598576,-0.3143415623433256
14.0,5.280307354120847,-2.5115782956361503,-7.791885649756907,-1.35465228112104,6.48441474140013,-5.1964276038142465,0.3006100319179912,0.794034410906117,-2.9766907551312296,-8.355029009211018,-5.255282720825251,4.651799529300424
15.0,6.368812264563951,0.9811955263643715,-5.3876167381994815,-3.6475607467577054,5.912699122849786,-2.1711727172197315,0.5295987828667279,12.142662530720546,6.287695943438258,-1.6395116453802077,5.1706172774950385,7.3118351056424125
16.0,-3.4128900734063308,-19.134750529950153,-15.721860456543395,11.221190318661273,6.113324050189683,-17.39747267360572,7.474629371813006,12.364821154026158,2.116004706227156,-8.529917216615644,-10.332869425721952,-10.113962926588256
17.0,-22.317994216357683,-14.619849335056976,7.698144881301225,18.493385059634274,-15.050458486502013,-3.5092541247171196,12.123675255336071,-2.3800017104621727,-11.306110830278897,-6.198440566566145,-10.47741988137729,-15.450798447601152
18.0,-25.054272701624107,-1.2157881665135029,23.838484535111007,13.077646841131633,-24.413680482085425,11.26342354793977,12.824124030974767,-12.477756818323186,-9.219499041354814,7.484947270710002,1.2858282023292293,-2.5382178336771704
19.0,-20.08581425191871,18.709774438633357,38.79558869055222,0.7046782706606554,-29.411345941822976,28.785453577922247,2.522472976137711,-17.58223097943357,-6.387597484254344,15.47792655629679,15.037353493634313,13.284800683969674
20.0,14.607485673602048,33.22590677813861,18.618421104536317,-23.905390323155665,-1.9769229049490722,25.958716769421482,-19.200659321382616,-11.036558814880864,0.1144605759359138,17.408286979159637,19.29687300054483,16.813018931042766
21.0,30.986208741873188,10.741025072573033,-20.24518366930056,-20.856602626353794,25.64661628543594,-4.710213968879809,-10.285693182430832,11.441420174599276,16.37559576789403,-1.684607421753058,-1.7789275360864067,5.817071536367024
22.0,44.53759990549748,-0.895173671397619,-45.4327735768957,-21.815709844462294,44.94191998694778,-23.19517230469431,-9.756653424311484,24.42890948234253,24.737537815019564,-5.580358057316992,-1.356622862286696,1.157828228812812
23.0,2.543491281375708,-28.562131098848106,-31.105622380224197,13.017163778077975,16.786187994258807,-29.86061322464616,6.736522534950121,9.940101471495634,2.3432283345228306,-18.694883413423675,-15.598207783213528,-19.944591808149752
24.0,-29.53757684543249,-26.62572282433419,2.9118540210981187,28.095781074227858,-16.259438886456586,-11.881666126158226,6.420927331451969,-3.1266260448285594,-10.83045094182593,-8.823951918857242,-6.305964641987369,-8.256557105029325
25.0,-21.801723000414583,4.590418206345703,26.392141206760275,8.550455553519118,-24.051091063425815,15.465854212382244,3.229017737374825,-11.527049675604779,-8.532272160484286,8.5198332392664,4.722504604469508,5.218747926738976
26.0,-16.9215306819241,6.277414590593216,23.198945272517545,5.3567725762794876,-20.0139541358039,14.788876033049704,3.93116666728858,-11.055817799058628,-14.797971172010477,3.66703057435356,-1.2830164267513853,-0.41300853963291806
27.0,-0.4538065508372213,11.716312888028863,12.170119438866468,-5.664005437698055,-6.344348522735126,11.990539208778864,0.9276772571404228,-7.922592588692718,-9.94544875979932,1.062267641689619,-1.0579482225703511,1.2712704681475633
28.0,4.360762881160716,-2.439345039358921,-6.800107920519274,-0.9048866432899851,5.548765006729629,-4.654378977028227,-1.3875373871518029,6.089166172497015,3.0623368882898214,-3.47445406336125,-3.1058498493850433,-2.734139747700042
29.0,20.82308887717015,6.477606933100327,-14.345481944069498,-13.66626345085554,17.63333087787565,-3.971462473485569,-5.255651765836408,8.081184495639977,11.648301433722846,2.1254937023216014,2.99219870422653,6.024879390143113
30.0,24.073620445871057,7.3630154703250135,-16.710604975545973,-15.730935022211268,20.365692930714868,-4.635467369947644,-2.7435731471860874,9.784011245689712,14.382980782278302,6.791664369122982,10.220490989206656,7.984981719008104
31.0,0.24738832014156387,0.9062601761799369,0.6588718560383189,-0.590036229669483,-0.22808278481237032,0.8174407009745073,1.4580103212124707,1.6620673803334167,3.0096730868316666,2.2119411668276374,5.3778665707475835,2.1753943905799193
32.0,-16.316586345013704,-8.755597586166775,7.560988758846816,12.51909862602092,-11.878559554217613,-0.6453464256329007,6.807964668650431,-11.068696216823994,-9.723433383519339,-7.685847273364427,-5.6489252169768935,-11.519589083787626
33.0,-26.148429672534483,-10.578646987103483,15.5697826854308,18.419813843478103,-20.875433250529525,2.4432528205101653,3.655328777832794,-7.76637093186045,-6.562837516648238,-0.13149151873291398,-5.3258320194292175,-2.4099494258150638
34.0,-5.63510154699904,-2.2728008144905654,3.3623007325083396,3.9261683504789557,-4.5157254444298776,0.5682001408765867,-3.0776213049479084,-1.793582091804406,-3.504890055224192,0.06316082746988516,-4.066378888100854,0.01137449917638933
35.0,13.032479967788799,5.911395744617347,-7.121084223171526,-9.50313244155485,10.055526659715428,-0.5814339264047963,-5.082633175611368,4.249986837296722,3.3395578037395115,1.7907870124869287,2.387887031145905,1.945853371427939
36.0,-0.475708077735602,-6.9494022197822165,-6.473694142046472,3.759663183972295,3.0491617249572567,-6.684214004101717,-2.1296474842629616,5.0057140421374715,-0.079206946916337,-7.062481172655123,-3.4320838176343016,-0.39536158901608043
37.0,9.918580102698405,-1.2316554355863092,-11.150235538284502,-4.372538710305662,10.49707415797651,-6.1560901221074635,0.9007958027092537,2.8528714021729518,2.354491562628964,-3.5337590875094227,-3.079680321698837,-3.2501205757641527
38.0,9.139218985275527,14.498270556485476,5.359051571210135,-11.764566717173464,1.845173293768677,9.894066077043735,1.2588450965465245,2.724843579189064,7.719326155034057,10.679628496077413,10.93732719170124,7.738921734585879
39.0,7.429838760603994,12.056532866169528,4.626694105565677,-9.763230107641922,1.4317955181301614,8.315550486875498,0.36858047333734456,2.540967297010616,1.8470968057514294,7.769948175296647,6.256626312502011,4.896530544652639
40.0,-6.814736652074712,-0.9957614716353689,5.818975180439466,3.887675676107089,-6.28437943131916,2.3911469031218697,1.0154397910747965,-6.073632781827245,-3.3977172767306896,-0.8977074164924175,-1.557601932989276,-0.8675876897720965
41.0,-11.539834042041441,-8.08558017401707,3.4542538680244683,9.794154694792732,-7.456388054024993,-2.3343694705972218,-5.790508897054707,-9.365095662361703,-7.165182690329595,-2.3236352776177664,-1.840156375698161,-0.2141441766500065
42.0,-2.6754019948588734,1.661600788098763,4.337002782957677,0.4838395427583766,-3.5323582237769644,3.057727721566442,-0.44844300198417864,0.7655612035254986,-2.419835280010086,-5.231549452529263,-6.046144113849344,-5.701054577041195
43.0,-2.7897328510465673,-14.223078226442457,-11.433345375395938,8.55535326400798,4.307511235991219,-12.852162837317525,7.941884931116299,7.559237794057411,2.450648473569669,-5.427352543987246,-3.505496282997058,-3.8897314119607187
44.0,2.17451221324242,-9.868437063917268,-12.042949277159808,3.810312788245735,7.102030289908278,-10.90505849543026,4.033102618630567,6.156844383044241,1.565130841446651,-5.460654007437922,-3.282317041378796,-4.118420959724275
45.0,5.858445955389176,2.664642216502112,-3.193803738887193,-4.224321476944354,4.519730107505288,-0.2963820547538294,-2.378375872229167,-4.275841128600417,-1.392376628157171,-1.9183510316144818,-3.3206956686540665,-4.0212627376320675
46.0,-3.9740213032808955,9.712658232776281,13.686679536057152,-2.833764173867138,-8.844485737547739,11.665079753379832,-1.499927446619186,-7.7956138494548926,-1.1881407194555027,10.66847378044632,8.860109112173427,6.1361235205880345
47.0,-0.9446431409094262,9.058389941138548,10.003033082048015,-4.0984725925129855,-5.5019796832615935,9.572989692442759,-0.20433749549669988,-0.6685345755075525,3.5796430615375123,10.137479962693584,8.434949303751267,11.58830091648325
48.0,5.0203523055371075,4.84237790879441,-0.17797439674265458,-4.96905926547915,2.633180404921089,2.294596754207263,-5.4035084360632295,2.440667186222811,1.9686111832518873,1.6752762444662324,2.314962405311873,4.252814781910838
49.0,5.278749961239951,1.910292489199386,-3.3684574720406153,-3.548726125846947,4.342723708426784,-0.688499970587499,-1.954386345290783,3.4876792568574086,-1.6799050142098453,-3.649292801316868,-3.5041297700710574,0.9085213520156026
50.0,-1.808287527286491,-3.5990576154244884,-1.7907700881380966,2.674805628979274,0.0005863446832052865,-2.733260352921239,1.7524314161904961,3.9231003521671663,3.2972263868337457,-2.4972806436432924,-0.590836340402979,-5.895724364926122
51.0,-6.141956726602067,-12.922002592332943,-6.780045865730919,9.584154765691403,0.32528715505269323,-9.810646475138892,1.471397527465744,0.23408110589091735,1.882185812369938,-4.6511900873448155,-4.954514411764293,-5.993225199066574
52.0,-3.753346378313321,-9.32610011605592,-5.572753737742561,6.513065070231993,0.9189452123270279,-7.487958556705828,7.376125514216468,1.5005526494221009,-5.3111998891321495,-7.062479592849117,-4.841937524247918,-9.261784842760834
53.0,-0.49354618002436945,1.6616956511583112,2.1552418311827903,-0.6130644486680383,-1.386977058264184,1.9480868142659347,-0.6329684356874519,-5.699608827855105,-4.657113364590504,-1.1438967611347954,-2.6978396907103557,-1.09027049696782
54.0,9.420963794156261,13.852930679101998,4.431966884945867,-11.669716781863123,2.5186769363284824,9.102027093753767,-5.57390033391776,-4.150534179348691,-1.9792485521888414,5.3517579771954935,2.0297570759276438,5.791219581065059
55.0,-1.0237145378796608,12.070912086463956,13.094626624343707,-5.481730040342409,-7.028471138535305,12.619015440445335,-2.3487100536595404,-2.3924750776666857,2.49269124586996,4.817114210022637,7.034833344437195,8.686390226098016
56.0,-1.8812198402253208,-1.3444320577359887,0.5367877824893812,1.6510545530269014,-1.2537013351349438,-0.449112100288489,0.09636452154311681,-1.022125010265457,2.4803926999748467,3.338153081220229,1.656013954159567,5.428732212119028
57.0,-1.9781602178725903,-6.48135971094532,-4.503199493072742,4.264777154620961,1.296249462000745,-5.462059712862598,3.993332895389154,5.562804338394098,4.329548515565988,-0.5262865991481784,2.188185633368633,-3.0758094924489123
58.0,2.974796571689942,-12.582139320214017,-15.55693589190398,4.756276001426108,9.217442321821423,-14.04269777047502,-0.0976975062316563,5.278020346035816,-0.9203445428564956,-5.022328532744274,-5.143562436068586,-7.767904711647553
59.0,-0.08888739126988787,-7.602138235606205,-7.513250844336337,3.792936489718297,3.737354363177291,-7.612846383774548,-0.5494874960837761,4.0343668400466495,-0.005103383654094323,-2.693725078558674,-0.7412376839146311,-2.5801741291090514
60.0,-4.678758348504363,0.051020681599699635,4.729779030104071,2.332969438227262,-4.6844975668324995,2.411091484692482,2.104775106230038,-2.542715799153469,-1.0485091748966684,3.464848617566998,-1.1796099269722558,-0.5653156547030913
61.0,-2.2253551142062094,12.906000530622734,15.131355644828986,-5.329352036350968,-8.663109343971094,14.036925172703254,1.515251285500946,-4.77376261272113,0.5732546245704451,5.462698854299211,4.692378996382592,6.652351118051645
62.0,2.106068210357594,12.665522864485476,10.559454654127952,-7.382127985713647,-4.214609267805948,11.628855645611424,-6.542442227851616,-3.928297802699294,-1.7050278790420752,-2.6455996242611897,-1.4616363101495293,3.8723281104263823
63.0,3.7853699310596665,5.54489817925308,1.7595282481934973,-4.665710732300569,0.9444452800925331,3.588660798782662,-4.268414916183718,-1.7891154408420111,-1.0785906726267773,-1.8033237209888564,1.7885751479544676,3.2505161568115417
64.0,5.404565785529799,-9.440018760341866,-14.844584545871589,2.017678608856889,10.134254809574324,-12.127327214427694,3.905758221483411,4.966667077682341,-4.851329694079828,-5.964998261401232,-5.3749985946544445,-8.34310110224753
65.0,-1.3477652212058593,-6.826778384276489,-5.4790131630705705,4.093035536708029,2.0759131856999096,-6.136952198099962,7.637195212932905,1.9193843480976889,5.722019412143848,1.0998510884196002,-0.16931193601561034,-5.854758309849034
66.0,-4.794607647559963,-8.639878119810298,-3.845270472250281,6.7331262556056855,-0.46251951115275824,-6.224428519140851,0.03881983141084122,-1.1290202186472365,1.6398863610277306,0.5333943533986185,0.40559487988743936,-1.0728818983074797
67.0,-7.675919998345064,-8.632832505856902,-0.9569125075117957,8.182470024475853,-3.3444325155084282,-4.773645368666024,-2.2061787294476702,-0.027489567636166945,-1.3635546475469411,1.6938552187828624,-4.303405402416395,-1.0852786288276344
68.0,1.597040592187577,11.543608447439425,9.946567855251867,-6.609398764530517,-4.156330523802245,10.690825901981146,-3.556056664056741,-1.2402964688506082,-1.2111643602405349,3.993314456643234,7.852133009880264,8.701303725851918
69.0,9.428282764624658,15.510262736130452,6.08197997150579,-12.499617781240717,1.6156957888310197,10.823311090770643,-5.780179902700688,-0.7924722818833145,0.6814111924568346,4.778233478404644,5.744211582058842,7.2927416867925166
70.0,0.4734987222128133,-3.583181726447412,-4.056680448660241,1.5294499150113419,2.2878897455505265,-3.869774541578341,1.5053516737079407,1.3738200056347414,1.4363422708609568,-2.117606895780608,-3.6175294267938436,-2.075613029204442
71.0,-0.007625687797003788,-8.810377019281608,-8.80275133148462,4.464106717907319,4.420195713308241,-8.77691325814464,8.81436462468456,3.293323134266336,3.527083027694445,-7.053090172209306,-4.992430136843983,-7.095437893470622
72.0,1.6122578108640777,3.4500288614885597,1.8377710506244718,-2.5547050368584534,-0.1702445196230431,2.6736132982328353,2.6142511992615662,2.7529865816357235,-0.7177033512893742,-2.350296970120287,-0.6276910107299782,-0.7603349770081094
73.0,-7.8267079812584885,0.4547271506734074,8.281435131931886,3.7412127990616613,-8.034208273639615,4.397481616373878,-4.795164359102152,-5.772148073689052,-4.410767040360459,2.759654995944914,0.1170802137082323,0.5497747049502832
74.0,-6.271420507616124,-0.903777662616763,5.367642844999351,3.5649756623695836,-5.7996126666048395,2.182122553331052,0.8166455598993949,-3.451429403670385,-3.780999729542404,3.1818426721681936,4.025956806852714,2.278087870870845
75.0,-0.8688565850364212,-4.490342689555398,-3.6214861045189917,2.658684280689908,1.3989621972078767,-4.106053858267278,-3.8172845396498833,-2.625418464313958,-3.638442256107798,-1.240772664507295,-4.353452488475899,-4.596038914183938
76.0,12.062390772740532,4.895441402095662,-7.166949370644897,-8.498169143068251,9.564417822884474,-1.1068943277770587,-2.497929843408186,3.2656528753957845,5.236237048157669,-0.5636497191148231,3.1369543107872175,3.4040918451217075
77.0,2.3963769706101257,3.3255855142813147,0.9292085436711499,-2.8010344875955004,0.7704972133317778,2.157537073037237,-0.7897127897951479,5.404536748715136,5.921188482336645,1.7465032673028291,1.558090384751281,4.268942996519416
78.0,-2.797952531537347,-7.182158261503201,-4.384205729965883,4.969508585925174,0.7607852141311207,-5.750668982746056,5.273627846558578,0.5720972762821468,0.5361688754690954,-1.9384791314479717,-1.1356472686104084,-4.808178247055567
79.0,1.4652875223276673,-3.259917274792367,-4.725204797120019,0.8724603892416183,3.1501572926066177,-4.035930210834203,2.943242211257721,-1.3743701203359069,1.4914073034378386,-2.1893458115705196,-5.211635763101702,-3.071502051688243
80.0,1.0296331475532503,4.282841774328306,3.2532086267751117,-2.6874711750051246,-1.1302351216735003,3.805689488044154,-0.0024426265485553156,0.6200579906157909,-2.1640826730076204,2.228992101103735,0.9751344917987483,0.976700186122037
81.0,-4.273652845516977,4.180447727158701,8.454100572675747,0.08696979205454197,-6.38152835352517,6.27691553784989,-1.2560030447550545,-1.5643632201483477,-3.621146896435335,0.046820377042576355,2.336512955434986,3.840364578643873
82.0,-3.552176609971154,0.7740853786803363,4.326261988651546,1.4231967340845453,-3.960907248896557,2.5087656520501134,-1.070887588136441,-2.5633221566796953,-2.831371907301544,1.6185439008455886,1.5416093193608997,0.5021592468351113
83.0,-4.325940360552183,-5.484374590966183,-1.1584342304139934,4.856791609851337,-1.6130591553628804,-3.28607219239429,-1.8246939777086468,-0.42670946956482836,0.4128814393189597,2.526868356587503,2.4098368695831116,1.0845183723286127
84.0,-0.25493869521178536,-1.7060400179267496,-1.4511013227150145,1.0103961901892071,0.638691090280394,-1.5446348862104133,-1.6133999841774256,0.9046483523754256,-0.10793732526314948,-1.256948179725602,0.6039360960237675,1.2721542400680235
85.0,9.480757547794378,8.786792767024664,-0.6939647807697997,-9.179881160571375,5.120517356952335,4.002442911840377,-1.7729149788668284,2.428234761160696,3.9723669587302224,-2.890992382901559,-1.8246828416884968,-2.7869255975816305
86.0,4.666919259772657,-1.9676470622598323,-6.634566322032557,-1.3120406055714815,5.679700132074949,-4.262335660335213,3.3123150427357624,-4.040256238094258,-0.4693429046659605,-1.7328148808486992,-6.57740565265045,-3.811925185542063
87.0,-2.8989249823298313,-3.4343965141530592,-0.5354715318232555,3.209687298429924,-1.2318286715419648,-2.0180804117227567,4.524775121581796,3.688666780205291,2.18180495603525,-0.920547200424207,0.6551579593702836,-2.8457055296448956
88.0,-3.952608079219982,0.8331504936709595,4.785758572890957,1.527877168911999,-4.416215991009982,2.863140892460831,-0.20991384187326156,-2.5960896326689156,-4.017003713626767,0.16563931368588986,1.3685583740406002,0.8020005914111275
89.0,1.0843383464339214,4.421065034862271,3.3367266884283895,-2.783925114075163,-1.089237480763646,3.860699286564461,-4.268223049535032,2.965594471827819,-0.9601339511257994,2.6556301488512037,0.5419884044814716,2.8121793724599
90.0,3.700414432648911,0.11618737826322167,-3.5842270543856127,-1.9428156937949013,3.6852064673442833,-1.7491126751421144,-1.332797325897998,-1.184413008525512,2.220568188666538,2.7011097261392325,3.5105592338193836,5.80546807042958
91.0,-4.803063360723051,-9.923206819032224,-5.120143458309073,7.400770213040836,0.1278095520160329,-7.53911796231049,0.5903547686763972,3.082107813722595,4.77789919079542,0.028511880332482642,3.732713533927172,2.1936197349534496
92.0,-4.676783184049912,-7.914342968958359,-3.2375597849083513,6.324903442809846,-0.747273001929431,-5.601321030495056,0.5892649290255472,-1.6246942808405362,-1.6385433820922901,-3.361218564631349,-2.105651568171572,-2.8456979063583754
93.0,-2.1948040177408115,1.8334632164099327,4.028267234150812,0.2019961695364001,-3.0602352593829725,2.9723454809258,1.5294141834278776,0.2854648607948971,-3.2420438585942684,1.2573822777667645,-3.1334511912246708,-2.12089315322193
94.0,3.6363310729519265,9.055620374882823,5.419289301930913,-6.409393566726717,-0.9216593104933652,7.265943292530172,3.448557106576545,-1.1898931456328454,1.0876109986868099,2.6589920860596465,-0.7529954546034605,-2.925279171233398
95.0,7.816657205893648,11.418500470455236,3.601843264561553,-9.605022117436661,2.072252470808192,7.449154089593884,0.30911743050857,-2.583687780411643,-5.09322913987506,-2.0128852701500652,-2.498415626868846,-3.386974681293184
96.0,3.101038018705508,8.0849691641689,4.9839311454633055,-5.579441445720166,-0.903744667563078,6.546520985921977,-3.6610029553075543,-1.3513446267868283,1.9253499527986173,-2.5548617857736455,1.2062131857483394,1.9503404680795695
97.0,-3.5554944064387186,-6.087952361110169,-2.5324579546715427,4.8399610054154945,-0.47904688093965386,-4.297108702487451,-2.1696145325327523,3.66270795592584,4.4011479999496865,1.54805197410432,3.49435157521711,5.717504386683032
98.0,-13.315655928219256,-23.186703503161123,-9.871047574941946,18.198196414462274,-1.7717531961867092,-16.50829157386759,-0.2916651062128617,-2.3505122585957534,-4.038198901271844,-4.994532863942052,-4.53782333486944,-4.206216557093186
99.0,15.247814956477757,8.988302723314563,-6.259512233163196,-12.083387329017055,10.782722599630922,1.3967805853050157,-3.4230612374706144,0.7186212908234983,0.3693995142768786,4.471349304306322,2.8966594527300384,3.205172264649773
100.0,6.6282661934697575,5.617946204081708,-1.0103199893879906,-6.080095237820525,3.7724552052994853,2.2700192071932115,1.2089075413247734,3.475819909957099,2.876345634218816,1.563977241433072,2.197943525961205,0.27101747044772195
101.0,-18.83596976305693,-9.68247032818855,9.153499434868476,14.229253240453023,-13.957452740415011,-0.28877262189656716,4.198689968483458,-2.0838902702539746,0.055339691845595285,-2.1464402012680925,-3.6517576001363627,-3.0597118231847764
102.0,-7.250974311973628,1.083157339724857,8.33413165169859,3.0556657461703285,-7.748635321682466,4.68797931470644,4.9462365965908575,-1.0732527207955405,-0.2434906846636672,1.7460329966254091,-0.7385705428852372,0.15484541039389965
103.0,7.355531083908073,2.504819475547026,-4.850711608360976,-4.961140879259385,6.074546861449589,-1.1179646094705906,-1.5462936560887974,4.12390131134558,-0.7643754504234732,0.3121389053064091,3.3360621788036124,0.9705302504647435
104.0,9.94556269293756,6.886700730450382,-3.05886196248719,-8.374610680814788,6.478013227531201,1.8817387970775092,-0.26300095910637933,1.0106673085960338,1.4527324353385103,2.9330182135938925,4.874032001940359,3.4427972645406983
105.0,3.267676571714561,3.5468475440069773,0.2791709722923341,-3.373616719298738,1.4717835656190967,1.8703145883964811,-3.4542978125720243,-4.862474760946453,-1.3571865385739095,-0.1880717224832963,1.0610543437081272,1.7200741235973913
106.0,0.2695037235886457,-4.198707247143121,-4.4682109707318665,1.9123218497361107,2.345743957411039,-4.306089688586474,0.2746240218750571,0.012795573193014054,-0.1689415093824529,-2.604678700079636,-5.278480244102211,-4.098065479398591
107.0,-3.7855074905199095,-8.519615901315671,-4.734108410795816,6.174582171367925,0.5279500725414725,-6.6030947497720325,-0.787588659606022,0.05582191148908355,-2.0018602454379804,-8.104141570403796,-11.636892633297284,-8.492675472174458
108.0,-3.2752045490300663,3.9583158349894916,7.2335203840195685,-0.32000950049823773,-5.2029514028153026,5.622458779921593,-1.6641685318921182,-1.6275674964180677,0.03598299560525592,3.0736652560155115,1.1218000554861414,2.1868185440632937
109.0,-9.708150110075515,5.196289236446148,14.904439346521725,2.202447301604663,-12.335611847283039,10.08476249166567,-0.8573042783792778,-1.8689672679956986,-0.53269393397749,2.228788316067436,4.112462386147223,3.0338224137822696
110.0,5.7767804634454105,2.432519924972173,-3.344260538473166,-4.0723173398648544,4.529268887336792,-0.49070502769697466,1.1118620930320602,2.6007223351173354,2.975297350034069,4.373968907039622,8.877845653344982,6.188042274381904
111.0,3.7794723316838854,-3.7214549322612624,-7.500927263945096,0.011988588494077579,5.606462929218906,-5.638986851986323,0.7270252366099026,2.23511403217271,-1.9968440363215105,-0.8977277112370989,3.3440006196145307,0.35291254183818976
112.0,8.882141168465102,-3.2316551534231985,-12.11379632188828,-2.8549690789863567,10.539460768689716,-7.699045228227339,1.5096487410609791,3.8302155419449404,3.528487747588788,1.0476854443147365,-0.4497789794791083,0.9602587901979324
113.0,-3.1938400699469938,-1.6006308157935774,1.5932092541533924,2.372789562303754,-2.356680270558199,-0.0348830573185781,3.3136466532089126,1.0154093672408873,1.3443065534293588,0.7358959208542075,-3.3363628914581525,-1.607753615533548
114.0,-7.964698144942025,-8.102793557586399,-0.1380954126444105,8.010499243358174,-3.96062666877699,-4.082323006823395,2.1233882376678475,-5.06419614695019,-2.186337338882916,-4.483462445690596,-8.938683408723037,-8.356065537644497
115.0,-5.574072426099585,-2.4584733800171543,3.115599046082401,4.068719676163468,-4.318837142687514,0.3559189766770626,-1.354193026827841,-2.9424665436089135,-3.4704661764492064,-5.0015038795073075,-4.917853407954604,-4.6477386993057745
116.0,6.260760238473267,17.24292508483813,10.982164846364846,-11.784526613262848,-2.4177833864888534,14.131225141215303,-7.639241670087425,-0.6222031724408623,-0.0332951625059521,1.7169246173625816,4.319964293530022,5.303380820854692
117.0,-7.889251608576142,3.466426697382899,11.355678305959048,2.24940302246264,-9.602822643752706,7.425398185316827,1.2782988067887757,-0.9329819309850235,-0.23747615250686305,3.0719276780423153,5.244923670265735,4.1458267966557365
118.0,8.094459640001386,2.2095489195360742,-5.884910720465254,-5.2007431357951965,7.010446233374329,-1.901505595519977,-0.2538157789640101,3.019808517925889,0.33687792107625086,4.334677026877999,6.218862647392142,5.177990790606087
119.0,16.95637548787312,4.912494626096676,-12.043880861776342,-10.910832567976659,14.525095788974022,-3.546177571440202,2.4734147151262325,4.628604358818547,3.8919230699135445,5.1428362519705555,5.416869748223087,4.5495142742739585
120.0,2.3966449301177004,-10.64497557022502,-13.0416205003426,4.1437624587352335,7.75020310049206,-11.816953836455696,-0.5397638397042004,0.2547203088442398,2.668647417605264,-3.74682294275103,-3.9121566757977586,-3.0580384575823154
121.0,-21.742365879727636,-14.891263266884653,6.8511026128430474,18.334894417785307,-14.338384046018355,-4.065409189237853,4.8998135409534065,0.8791728397554197,0.8675793030489422,-4.543881324387133,-8.959523424152493,-8.281912064146416
122.0,-5.757115500543664,-3.803247088991281,1.9538684115524063,4.719983795112411,-3.8930688424585522,-0.8856464020007615,-4.344398847363694,-6.10412588863181,-6.050456349922277,-6.412517494074044,-8.100156241365902,-6.952057312702353
123.0,3.3190084144212526,8.19193944178457,4.872931027363315,-5.735168506516935,-0.8133422498699856,6.4957895447143645,-4.7313771003109535,-3.8805115190934423,-3.217696231742931,0.4717928942324061,2.671068819934754,0.879729746961214
124.0,-0.035856531097261723,6.785255282968608,6.8211118140658655,-3.3519067614405547,-3.38742517176784,6.845404237868539,-0.8047483337040111,0.2727683451691054,-2.606254854541316,1.2457072444069883,2.4555566845018495,4.46836903862957
125.0,4.913367436395332,5.275207597219351,0.3618401608240154,-5.147228700225099,2.3142553711647267,2.779463532721743,5.7079843485541915,2.175204367433545,2.1204156424193332,3.246985314391006,6.960972647949541,5.964127085465972
126.0,7.2253529086583566,6.376309552813963,-0.8490433558443711,-6.771424598129696,4.07319806488539,2.798967268850065,3.959400760142589,6.748974187472134,5.362298416662304,7.709862553518296,5.516645913731361,6.44883481389182
127.0,-0.4046032976591265,-11.091588361997239,-10.686985064338087,5.7817370082973545,5.0968649853061025,-10.93777693982074,1.4831709503513857,0.47426578707199285,2.771193329155603,-1.790310818645763,-2.7678585057833334,-6.393240348617424
128.0,-2.9000332149056156,-7.057339350844469,-4.15730613593881,4.938253050710319,0.583960276458118,-5.581777329452345,-1.8960221808275837,-1.1079391438328152,2.9284613309930303,-0.9796361384671537,-5.764771350960936,-6.541739592119716
129.0,-4.225638062337069,-5.701653678053161,-1.4760156157160602,5.0065580681810395,-1.3397729855080025,-3.5669119431267515,-2.8661115293698574,-2.173622806998429,-4.157160559414607,-5.609250545202366,-4.7247005564878775,-4.769246538195851
130.0,0.2776775665666582,15.5819193827704,15.304241816203756,-7.961798746436199,-7.554622997827128,15.462652307428264,-4.643687078753255,-3.499034891147868,-2.5093523896530447,1.7838370407140114,5.050080156118171,7.904385456882142
131.0,0.3896067862026691,1.3962157224039178,1.006608936201216,-0.9223590673412827,-0.26733178984738704,1.1408321978652296,-0.7348537414428131,-2.8113815871503878,-6.390202370455317,-4.040677708404588,0.2711699360181032,2.3791909381075227
132.0,0.7045835890607999,-4.037234773103567,-4.741818362164432,1.7167590847563692,2.769082077688215,-4.372332583228563,0.7052484223690156,3.5365713985743295,3.152442758309945,1.6726570001463588,1.0543152050594025,2.95591284549693
133.0,-0.43712205067644444,3.953094285553293,4.390216336229681,-1.7863213398370776,-2.441887298224038,4.18795599256958,4.512324594874003,2.9046796988783807,3.5102673624134555,5.016751630244759,3.2247735454091275,3.1231432844200255
134.0,1.3449320701804226,-6.647396005565575,-7.992328075746002,2.622184766679753,4.643668686170699,-7.304275492891542,0.9457741010513754,1.8953088621221623,0.8634430797519319,-0.29741420487006165,-3.991571148938795,-6.875390456952109
135.0,4.197298643109097,7.393314492198002,3.1960158490889636,-5.7467032733601195,0.476470281034441,5.231555330199867,-0.9279867129928168,-0.15782421860478757,1.9007731696225685,2.4818189400021065,-0.40769676124426657,-2.9505888293128533
136.0,-3.4020872120936363,-5.124085194785589,-1.7219979826918903,4.310112126428145,-0.7873994624392482,-3.405671521458996,1.3050732875644262,-3.4750494792124496,-2.938363009148927,-4.470726732139163,-1.7405255679568103,-4.29052893500735
137.0,-1.6491469777509657,-5.370579009322667,-3.7214320315716334,3.4756654110459424,1.00614003897424,-4.524394403363616,-1.9647480037561307,-3.543650769670213,-2.3112816418206323,-6.5679252955496485,-2.0911686150073803,-1.4547590982778502
138.0,-4.905897186724667,-3.9950068310455324,0.9108903556791763,4.412586100581674,-2.9427158219979015,-1.5134441289175489,0.7596134513512456,1.1967466224451195,0.2885296388627929,3.0573333909398204,2.5609633893389616,6.693697475766022
139.0,1.8977842110512773,7.559861370997283,5.662077159946011,-4.771171710726118,-1.8406994099340057,6.569897806603403,-1.60698692455444,4.156050010882121,3.8748716027246046,7.304623265368313,7.043954382640952,8.229290038798222
140.0,-0.7918624036950257,-3.2557217006650765,-2.4638592969700865,2.056141301226763,0.877104125165054,-2.8126017809583947,0.8430906966058254,1.9075963437716876,-0.5678912982938911,-1.2575744224515861,-3.0746050954340305,-4.081555995451012
141.0,8.759373390699292,4.496336537999108,-4.263036852700237,-6.597475888844968,6.476183987204086,0.09300641123334241,0.8292710882400668,-2.0472953055994223,-0.7670523359323616,-2.3456800722248987,-2.3742652072552555,-2.1834298783633352
142.0,-2.639175453440675,2.8468009818562425,5.485976435296861,-0.0721450971649098,-4.092777554331242,4.147361893534393,0.25153087909842914,2.4294561355187856,0.9653629701124329,-0.5961038289111413,-1.1634707106598112,-1.331063837774017
143.0,3.960221943148259,4.057190631374418,0.09696868822611404,-4.05126024791662,1.9856387032677199,2.058649393455047,-0.9573479569065875,-5.159815980181993,-2.9356420075947094,-1.3102847117976646,-1.1944308399901007,-2.231587976252105
144.0,-0.28143199467922486,2.2469412375408355,2.5283732322200247,-0.9401121780415718,-1.4253095573157233,2.366299484246979,-3.4195892743724254,-4.87202660007213,-2.120949535736615,-0.37454409511801046,-1.1810964558599089,-2.02017267594087
145.0,-11.943749154696985,-8.847678022919519,3.096071131777469,10.365905131359604,-7.538531212953492,-2.8235083762993542,0.7655361716893814,1.7649648078608382,-0.49162169303184333,0.7583812971472338,2.5181220767490737,4.013996235191164
146.0,2.023580759623262,-3.3387793596583695,-5.362360119281542,0.6320366095532632,3.672983867698051,-4.304064260865355,3.4967475603971785,7.572606109483823,5.7663235754640185,4.174143983813139,6.060434822865273,6.024228713092568
147.0,5.993683134438346,0.9778247442350096,-5.015858390203228,-3.5100937781903427,5.559370001120092,-2.056796459193158,-1.6824112332318681,1.8041767163477203,0.6722657688310707,-0.4241408198629679,-0.6709741613023854,-1.3432875307977912
148.0,-2.2659732983280527,-1.3656422532831947,0.9003310450449376,1.8686613918565498,-1.6131465310244029,-0.27549487369883474,-2.0961828286184723,-1.9086574963077911,-0.5938152426932516,0.22291038547172293,-4.445854200088451,-2.2057208906821124
149.0,0.12625466691383846,1.2718602887174297,1.1456056218035813,-0.7281428089602268,-0.5457671014409973,1.2398192844814706,2.291036431893676,-3.9932299903998763,-0.6824672665551776,-3.145990636519312,-3.430147320440053,-4.232944964604883
150.0,-0.40454053459510475,0.17954949945035725,0.5840900340453763,0.15873591870861437,-0.45684596765823804,0.4080468467927263,4.657984837605704,-0.2884344135552559,-0.8042860866528869,-3.489126101495903,0.12755644382638476,-2.645849043455368
151.0,-1.4489168816644047,0.20992262263883088,1.658839504303135,0.5843684490743839,-1.520279336527818,0.8769866199017757,1.6163332820321865,-0.2352360108786986,-3.9538713754898875,0.9991695946780537,2.2812106680936752,0.431283235996776
152.0,-1.3108685088253416,1.3496224886916108,2.6604909975168667,0.022839046876516944,-1.955130671944645,2.021953254678345,-1.9057293358610217,0.1051518381862927,2.010645244217474,2.761833645444738,2.8671810881352866,6.605453907724497
153.0,5.427163739340727,2.3569255544347856,-3.0702381849059814,-3.9288905947864787,4.197240003356876,-0.34308179101017,-5.657332752757094,1.3647435663331982,2.0280188163391824,1.483305369076991,2.774058831644103,1.550804720457708
154.0,-1.4577417803205854,-4.347459764049731,-2.8897179837291618,2.866196600418429,0.6602974228110123,-3.6064260763816547,-2.3290110738213885,1.8046102784305942,0.1331775807866118,-0.5834170951433737,-4.432231657499136,-1.8018195557342662
155.0,7.656877400063112,1.6956635801566184,-5.961213819906485,-4.633040379119841,6.827164023690293,-2.11955168927613,0.7031622032248412,3.3081934955677985,1.333316740496068,-0.5798372770779741,-3.199264077253285,-2.6990448746038624
156.0,-0.034693259908462615,6.626046478333501,6.66073973824202,-3.3301551270219414,-3.3338312401138537,6.581615930760701,1.6947463464510966,-2.430590014437871,0.7488203592248679,0.37342701301999925,1.9931510487365678,-0.9013076082114961
157.0,-4.650185204240906,-0.26283978203510683,4.38734542220587,2.501521756398817,-4.506438585575182,2.0855207101161857,-1.5955443953572557,-6.423991408724281,-4.228236313318164,-0.5819078498408026,-0.27483649690070716,0.05524068983274355
158.0,-12.040374850753778,-4.207019488677202,7.833355362076612,8.168380177387597,-9.921916762631819,1.8447673724084757,3.7749565665541085,0.6650995487238993,-3.1932635723997493,-1.3510991375022068,-0.17603471661630807,2.2062507169156156
159.0,-1.4294857096112787,-0.699074500065684,0.7304112095456194,1.0280012255633828,-1.0579846471929595,-0.022037016420773048,2.2340552515480114,0.4901647036428216,3.329903404644262,4.1130712746034686,4.37479955553517,2.3561874105710494
160.0,6.87452133245846,-1.3034999850080782,-8.178021317466529,-2.826151878051558,7.479580740628036,-4.690483324680876,-1.7973079795563267,0.8061211438604415,1.3232513188559323,1.3610055476182357,3.4924092584939808,1.9372875332256718
161.0,1.9832290687651053,-5.249335423421706,-7.232564492186829,1.5868049669027475,4.650721749072429,-6.261933372180986,0.7689778312257285,4.628103080683869,3.368905043514148,-0.9530060526697178,-3.966319815455165,-1.2031296781062795
162.0,5.398708744870087,2.649451572116239,-2.749257172753852,-3.9963115209494493,4.046851281313407,-0.06648516774741875,1.3892479519244896,3.504726225853506,1.1953686228525493,-3.4006804855380004,-2.0909065581594097,-0.6809686599704088
163.0,1.2399285751702571,-3.9275033170572633,-5.167431892227509,1.3702209531867449,3.1814123111051904,-4.563479478207562,-4.383307861260188,-4.565062821874877,-7.0691315019131755,-9.74703636951725,-7.899282696405865,-13.444993357546561
164.0,-1.7244958425363746,5.940390134753263,7.664885977289657,-2.0778496021980053,-4.716701179831216,6.783422296300147,2.3478352980387482,-3.9028613730721373,0.47639335399729976,1.4783574920850397,-0.2979443171531839,-0.11024613046647858
165.0,-4.743450748083083,7.265536021385082,12.008986769468171,-1.222686896966672,-8.3231791617778,9.690515578980824,-0.4175644809404074,0.5096737079502685,1.357771607348113,9.190501495797433,8.284046151027795,8.364460481170923
166.0,-0.7211758872438438,-2.4223221656680973,-1.7011462784243125,1.5416587581073766,0.4581094963176966,-2.016868870318789,-2.68592616771619,-1.6192656062952586,0.0884413004308639,4.568284885445896,3.0081830546757895,7.674275276944508
167.0,-6.703467525786739,-8.772488754486167,-2.069021228699557,7.716522329728375,-2.2773470920864893,-5.464162157776158,1.8260575301326147,4.3655592459671455,1.3709810265988864,0.24188253426010453,0.4159758804704805,-1.2741179745200943
168.0,10.22828315269009,2.357441723039976,-7.87084142965027,-6.3106036044271185,9.082852337601594,-2.8097288725562066,-3.2472016346523507,-1.0245331583055093,-2.8579258092031585,-5.408229881630043,-4.938115416312257,-1.371097353823242
169.0,0.704633373616542,3.4428145075502554,2.738181133933585,-2.0939805200264603,-1.0676484322933626,3.1077923550474957,4.7003718041789,3.829432847420919,3.7129351136211874,1.915113245501277,0.9443736757626167,-1.1692061491078014
170.0,9.221706193863904,17.35262622805714,8.130920034193217,-13.314937594286214,0.49080117294591563,12.753370941758286,-3.4934041388821933,1.0138931044962156,4.280912378883315,5.871090005498827,8.79483756504982,7.5551652547707056
171.0,-1.9582843436586206,-3.2615402714439057,-1.30325592778521,2.651603485760374,-0.3048435113374658,-2.2724104889271572,-1.544158603721867,-6.396474785610441,-4.7330697870947755,-9.37811043478873,-5.689897072637543,-5.454400446449423
172.0,-19.358765823865912,-24.664124867570372,-5.30535904370434,22.04589535891758,-7.00287448334516,-14.971702122352012,4.841670851796916,-4.210875122685824,-8.91038208400267,-8.85705551961992,-10.444606912112572,-11.570938131538838
173.0,2.8119272533405253,-3.041310862853466,-5.853238116193918,0.14679078121584155,4.36004514616397,-4.427117314447123,0.6832649243003579,2.80291411985147,5.134446601125759,7.485050297147927,5.158662380649156,0.39882009877334834
174.0,-9.983532077187936,-12.011957533716194,-2.028425456528281,10.95449985559377,-3.945127331004893,-7.069284110442098,6.124051018850639,2.0341945852533803,3.102635613338556,0.14324413003986392,-2.7283256738804917,-0.6503083645472308
175.0,9.349587850382022,10.93280971807145,1.5832218676893068,-10.176480754507317,3.841180168056939,6.297340814876179,-2.3615227755863897,4.093497725840454,1.8390380916932252,2.636813803136656,4.01999176113093,6.020396790407931
176.0,18.200748655044514,29.451910512083327,11.251161857038637,-23.77295686063878,3.4344280115570998,20.319957422361792,-10.315527138998501,-1.0832147881021066,-0.36539402700257084,6.476920918470147,3.5627023488712615,7.458992215158516
177.0,6.243262938675596,10.293264128218674,4.0500011895429155,-8.284859963352055,1.1328312266710021,7.1449537694838785,-0.31632506482431655,0.7720294499499337,-0.1794748364484467,-1.4800256707538804,-0.09959421761004794,2.7168257349515654
178.0,-3.749004321108733,-7.166222116682715,-3.4172177955740466,5.446077473174306,-0.21405936364647618,-5.237685856662431,6.010497603284307,-0.6686991309898922,-1.6400618608525783,-3.115541464654123,1.1933117735998175,-2.79361526498915
179.0,-21.532802681284732,-24.691750907385444,-3.158948226100704,23.100627585216323,-9.163545975765988,-13.950059302302156,0.83384234283066,-2.88215567487829,-2.535209356230266,-4.837284275796324,-3.854180677989299,-6.3564012285775
180.0,-0.945329218056246,-7.125489158604218,-6.180159940547977,4.018450604100792,2.634588797700978,-6.678024169757756,-2.200467014633876,-2.965580498960331,0.4653503306861184,1.3309533941901028,1.200885982265639,0.6137751533975573
181.0,5.9687971425833775,4.279334532362322,-1.689462610221108,-5.071533413857992,3.8433901336439282,1.348823603541371,-3.831435684353091,0.24098823577821138,1.920956161334308,2.5926726013190957,1.1454343620433332,-0.4220257532830658
182.0,4.124393104896062,-0.6641188858460582,-4.788511990742145,-1.7675749759638526,4.472264151137289,-2.749375316999748,-0.1181701282954169,4.591778017100563,0.21920685523014316,-4.185102317712796,-8.242668541388506,-4.414271148142808
183.0,-2.4257503757636165,8.22595036075288,10.65170073651652,-2.8698755150858375,-6.595953405542118,9.418680199259365,7.469900428878553,3.019201572148895,3.234471820658944,2.6067675973923645,4.4387983422644215,2.495884086742008
184.0,4.3432936395969035,7.745950700900794,3.402657061303967,-6.023637841035615,0.5001471381433056,5.635648000948187,-0.2223830361984227,-3.128116278407376,-3.483281258989316,0.8749510073443512,2.101512549919546,3.1977186473751082
185.0,-1.9794890049102998,1.612706985353828,3.592195990264225,0.11935532695341333,-2.7473187096559797,2.585845461558965,0.9979890922379075,-1.116022379339774,0.49030639752047644,0.9552074262994302,2.117133451279207,1.7545875896597654
186.0,0.7596751803531894,-4.718741366583372,-5.478416546936508,1.991466959199178,3.085837410838518,-5.1177984137125545,-0.5209687732743437,-1.9466622320010551,-3.5397061192668047,-2.3384982852954583,-0.9199846846088857,0.2779134227147464
187.0,0.7260072242705486,3.4474201100767554,2.7214128858061715,-2.074135922241548,-1.0267395143810494,3.058809890993669,-3.017587098812343,0.11295029982073979,2.535566217822232,6.020452520604188,0.6867618252124512,1.0712471564584796
188.0,-6.153990221379746,-4.342955549883659,1.8110346714960155,5.264421145960415,-4.010035165880492,-1.300507952285629,-4.874265613391406,-0.7001141396958872,-0.9003707837291122,0.2029484842707341,-1.5540118936437364,-0.9094753467791857
189.0,3.3512037284934895,-10.650988058693697,-14.002191787187222,3.67058862125414,8.728224564879913,-12.291322291946287,-1.5306272156732956,4.748166270323009,1.9846406615314678,-6.066477934642403,-5.537519777005488,-5.704148119836546
190.0,3.2205756832876804,-1.6668392731115929,-4.887414956399221,-0.8306040687567817,4.027844991032852,-3.2478376702045364,3.4888299881175207,0.7357765378512435,1.6088094065212313,-5.416739192818291,-0.6387726743017368,-2.783298872435471
191.0,-6.895872645491709,1.9840647860917793,8.879937431583604,2.482995295022966,-7.8319352246233205,5.460392900948015,6.049213547636487,-1.2019978018243873,-1.7857926436122769,1.7737876805867483,4.952317146067224,1.6902843508333922
192.0,2.5066927187001666,3.044238261258685,0.5375455425585915,-2.7497652303457407,0.9677205355442564,1.7451520500058786,2.5673889481484835,0.28591172455858915,-1.6004412782129278,-0.2599159311002328,1.275420248326675,3.200003742979695
193.0,5.352749694207139,14.458046381255599,9.105296687048495,-9.963459466321327,-1.885856378070367,11.823463537375538,-2.6145881390424464,-3.2292548689702243,2.080065719457714,9.628108571953224,5.802544130453936,8.21437036258742
194.0,-3.6733861406057486,0.6246213351540044,4.29800747575974,1.5375810143396897,-3.9889126287597594,2.434801141253738,-0.9366206611959838,-0.726227729865053,1.4353297817362918,4.781972916815954,0.9193839165384472,1.8539472805613881
195.0,3.78645513548076,-3.443300758749184,-7.229755894229971,-0.16609191893090475,5.507928380297869,-5.353560461437841,-5.63112654514229,-0.11183674418163592,-1.8703546181984798,-3.7606211049448297,-6.5639576030096585,-6.667698090799378
196.0,-4.524676139906026,-5.784668418177281,-1.2599922782713278,5.154984088213027,-1.634509108993703,-3.532662446361093,-6.096444891105716,1.3805283168070122,-3.576832350419666,-8.26506232364583,-5.681066535901596,-5.905902502677061
197.0,0.6730543555048465,-4.508957438712439,-5.182011794217372,1.9180251522676341,2.918017812374077,-4.85245124896621,6.124423458524708,2.1725352314391753,0.19241839354065027,-4.587357518837965,-2.2371905338734637,-4.82587816521541
198.0,-1.6982065471478058,-1.9175662239534628,-0.21935967680571,1.8138258473543334,-0.7604019960454724,-1.0748761905244342,8.261480360674975,0.8406134657589015,3.453617716518829,3.719024526760531,3.7663924421868256,5.403872730909076
199.0,-0.6488197871491956,-1.29673498408984,-0.6479151969406578,0.990100450183929,0.044255015431583035,-0.9013200696815443,0.032706664892645954,-2.6687881699579674,2.5911439794527835,3.068881498029699,2.1320007680772757,1.4227647502903702
