Time(ms),I,II,III,aVR,aVL,aVF,V1,V2,V3,V4,V5,V6
0.0,0.003379303207411512,0.29756608272140506,0.2941867795139944,-0.1508485219413492,-0.14622479368690525,0.2964736506617709,-0.14062343014003323,-0.16667329896416594,-0.045202967748147305,-0.11431369995047014,-0.05005539180169004,0.06207555868133523
1.0,0.2633512974072466,0.17986175891549638,-0.08348953849174705,-0.22194358209387133,0.1726307083917936,0.047970857174086154,-0.10241326724743877,0.053491334313635786,0.0871279847253727,0.08583097117045359,0.04392535469187025,0.029368440319727754
2.0,0.14037444361369206,-0.25647485391040264,-0.3968492975240928,0.05830083514584528,0.268937822549219,-0.3274001951220623,0.07005649653755244,0.18097495038667932,0.0853081069577611,0.15120808419261023,0.0309405653681813,-0.13676641285116733
3.0,-0.07291948090983225,-0.35458898585544113,-0.2816695049456092,0.21406127997610408,0.10523370408945373,-0.31831089990166817,0.07966708059241497,0.04076634303661328,-0.0622479982974866,0.015827897228150048,-0.025692282601218374,-0.1330693208545083
4.0,-0.13290310942214761,0.0712924920208639,0.2041956014430102,0.03059758101471086,-0.1683824689158581,0.1382348115019471,-0.030900962953385746,-0.13631904962530794,-0.11514920350318993,-0.10599170219749883,0.0006371636041944812,0.13909188140349563
5.0,-0.08975826748905204,0.4129567863495643,0.5027150538386148,-0.16196472053283267,-0.29689880103495814,0.4581527157654086,-0.03220652045989053,-0.0919441093210738,0.009590681818278171,-0.07796742998009523,0.05579937808163175,0.28952940801882554
6.0,0.001739212896029157,0.1718504528577863,0.1701112399617565,-0.08670529933974766,-0.0847337450354188,0.17082252111848964,0.047040891628477785,0.07523476860588543,0.10283563724914706,0.0013632333740297364,0.0032071612102385527,0.00615144338951723
7.0,0.1280053667057414,-0.3052502466053228,-0.4332556133110635,0.0890110928974435,0.28088032934001084,-0.3694006473843368,0.01724743113621749,0.10359721869966304,0.02751173356019625,0.0296993907994712,-0.10442432583807898,-0.36084045632830986
8.0,0.1448809203029281,-0.3496345745214078,-0.4945154948243349,0.10245951733211457,0.3204124348121704,-0.42201871006710223,-0.08607860987383822,-0.02344892487545428,-0.06816943901054157,0.049468697098473596,-0.07091237937873528,-0.24250068111177928
9.0,-0.035943027595838964,0.07882338376753388,0.11476641136337469,-0.02172452759418143,-0.07502597895015042,0.09677493133932494,-0.06841588761030881,-0.09612861985246812,-0.033217454342538824,0.0795543492708544,0.10379468343072563,0.2516179343468274
10.0,-0.19340685147254727,0.37800241826852726,0.5714092697410738,-0.09246572431043303,-0.38287172778440737,0.47459109307182523,0.06829649636034865,-0.022564443192209432,0.04215415236019179,0.023302945428988236,0.1604617358889652,0.416880252741013
11.0,-0.08920110929664292,0.15731560208564743,0.24651671138228792,-0.033928651468343465,-0.16863716174591192,0.20192535472834872,0.1306525120410267,0.0690827713379516,0.02581775599161736,-0.11785572780441704,-0.02319614000772405,-0.007265966298206928
12.0,0.12686689328196665,-0.2561899664180557,-0.383056859700023,0.06477087748280079,0.25474865652532686,-0.3195604642533625,0.036566945501432156,0.06116544654203732,-0.025666984858882275,-0.14552620369489122,-0.19176037917224906,-0.41693181618653274
13.0,0.14490397410108555,-0.2960339775864183,-0.44093795168750133,0.07550492514947214,0.29357588450193894,-0.3684889293761896,-0.10124665338402124,-0.009076812571151517,-0.012084664456767778,0.03253296544275315,-0.083514900272158,-0.2280991480963516
14.0,-0.024311223917371196,0.06655324807912175,0.09086447199649444,-0.02111872998572631,-0.05675249487128153,0.07882600903598366,-0.14277269642720822,-0.05963773155853471,0.014105816735261793,0.18487004450667976,0.1396459549661477,0.26148164037141525
15.0,-0.11989118440123736,0.30130466268044476,0.4211958470816815,-0.09058729695119526,-0.27046773673278385,0.36146803985176873,-0.03991468370028538,-0.06346586984722585,-0.01883409231503037,0.0819985271038967,0.13585735194716522,0.3395579461077833
16.0,-0.04529196990036256,0.08598861354442346,0.1312805834447848,-0.02038930221709686,-0.08906547663882265,0.10848454007574697,0.12980578243736718,-0.01046811877780715,-0.03045479035341254,-0.11860027741305673,-0.06478642708408333,-0.06017365168356469
17.0,0.06543613001459879,-0.22844686066926934,-0.2938829906838692,0.08128096048062645,0.17888522674303187,-0.2616983837774326,0.18125896423476273,0.0843444249691702,0.049963033197101846,-0.1110461587850247,-0.12220667570984385,-0.3160077835602524
18.0,0.08390294799074144,-0.15988273384100288,-0.2437856818317444,0.03795721027670896,0.1638769019180086,-0.20195400780391745,0.011054951949320603,0.11432439246028965,0.09272976927972745,0.054934605846720205,0.036125594512327115,-0.08859060095128089
19.0,-0.002951419574392332,0.1584913053158632,0.16144272489025546,-0.0775052461076353,-0.08147081614864295,0.16059735825459942,-0.19667194825697876,-0.010552595832750943,-0.028875103107830462,0.07168632828383634,0.10801826265073995,0.22199271458906172
20.0,-0.1084138470762119,0.19842623400185033,0.3068400810780633,-0.04484994312880986,-0.2069743562594764,0.2531157770288565,-0.1568199704542393,-0.16335026509272718,-0.15996351754860644,-0.07648859943492049,-0.0435286884002596,0.15614804733225882
21.0,-0.08535494849297705,-0.10756340003036192,-0.022208451537384457,0.09626273478840841,-0.03156029820376392,-0.065310281010465,0.08837488695481614,-0.11302913755865986,-0.0648692745235503,-0.08085558334845185,-0.14472314595820238,-0.12669218754368244
22.0,0.09142325848405616,-0.25245179512571875,-0.3438750536097734,0.0802779084596181,0.21708302626902168,-0.29880681320216745,0.19199978841006332,0.10697681471551403,0.15665335295870678,0.12139991526533554,0.01372801716722855,-0.17274786270359763
23.0,0.1867198790777304,0.021216202461825685,-0.16550367661590445,-0.10390873734490653,0.1754765421251431,-0.07198053699562537,0.02542859168641021,0.18620744938596626,0.17015758995264407,0.18367963918981098,0.19635630770205983,0.0549588669272304
24.0,0.0007583029614066508,0.2944518905776846,0.2936935876162774,-0.147381072017755,-0.1466071361411832,0.2946893734871565,-0.13013677610689006,0.003341161851986775,-0.06377248652219762,-0.06514046569561091,0.09085441851292926,0.17900093473218257
25.0,-0.2380202157722999,0.13125072280633618,0.3692709385786349,0.053461512953724234,-0.30313041839313326,0.2502158315251794,-0.05410205257537388,-0.16268538993902296,-0.1992532712843967,-0.27535144260965844,-0.1762791638480738,0.015935862636640173
26.0,-0.14038434825514023,-0.23854463002014267,-0.09816028176500291,0.18933706931178793,-0.02045522458830403,-0.16901040631492667,0.07295336250616428,-0.07142661779032472,-0.04618726132184092,-0.10508152066268675,-0.2131002821481423,-0.17598890258333824
27.0,0.19301777481230759,-0.27740336248130726,-0.4704211372936138,0.042027798044619404,0.3318068126246502,-0.3739971467405889,0.022792960964845847,0.09765708726666868,0.13756790192748852,0.22308020460169004,0.04865224849217156,-0.11009645676781303
28.0,0.2505241363882053,0.05790173381208113,-0.19262240257612168,-0.15424294945610129,0.2210725530765632,-0.06654391424993214,-0.07957662313438667,0.06797375777977756,0.08620021605990769,0.2513792384451024,0.25084925837889455,0.12066602157593398
29.0,-0.07734131777239361,0.2915591096713895,0.3689004274437843,-0.10693388211600349,-0.22353190318739585,0.33072116471300744,-0.011983887723960992,-0.06897830489293545,-0.059515192884623334,-0.035372502046157335,0.12251881348288397,0.19446922515209045
30.0,-0.28081882476048664,0.13924312736046532,0.42006195212094993,0.07101631728370686,-0.3504029889084016,0.27889214626144404,0.11664604289003169,-0.049781735355221075,-0.04920065097523001,-0.23554145451888073,-0.15633023063556156,0.007433157482079191
31.0,-0.042805417210298076,-0.14227196687518054,-0.09946654966488523,0.09247945244219283,0.028471799088164315,-0.12193438607881413,0.05353264375039087,0.08028057075284584,0.04112876604692221,-0.13273693188265454,-0.22495386039953102,-0.19267017169610112
32.0,0.24373021121113356,-0.1946922989012034,-0.4384225101123365,-0.024928283834461707,0.3411166002694925,-0.31636508094773763,-0.1252489313604328,0.0678698297598179,0.004718907820479481,0.07661893101034886,-0.01827874731429846,-0.1424405957235091
33.0,0.12642242240890048,-0.037538214403855075,-0.16396063681275283,-0.04466339962125002,0.14544221577344424,-0.09945182562602088,-0.11546499297094356,-0.07573694453519207,-0.08168359346700427,0.14516633457633446,0.18958430360942574,0.084061345991888
34.0,-0.17683947686533477,0.07816708638327151,0.2550065632486086,0.049780001360295256,-0.21551010591053532,0.1672463429636758,0.08931460793056605,-0.09957810260635033,-0.013980352643441484,0.06987780915176071,0.16062273205278965,0.1822522027376246
35.0,-0.1709854511388943,0.07727982631635746,0.24826527745525157,0.04746161627317138,-0.2097586708946214,0.16192882772452294,0.15982202825599942,0.032545558979538695,0.12073917518076183,-0.025088301949005576,-0.04104239171353894,0.04283153678757942
36.0,0.10217052500125547,0.06261736014040353,-0.03955316486085401,-0.08259496670355457,0.07003191274858903,0.010366733459032757,-0.027347051181688876,0.09465478308456092,0.0731521737644754,-0.0784077008666437,-0.1764122433935675,-0.11231476516395975
37.0,0.1807930257246962,0.037511616039335366,-0.14328140968536204,-0.1100590107781109,0.16153764449893815,-0.05290030322184049,-0.17416242616407335,0.008614682874510983,-0.10811101196139734,-0.08149521408439162,-0.11591003080654458,-0.08179785745535596
38.0,-0.03449942895072991,-0.06979088462730655,-0.0352914556765767,0.05183118214055274,0.0010176414781513231,-0.051591131762014776,-0.04351253160033908,-0.05384353979692642,-0.13299149116371717,-0.024724688950380748,0.05599888485807066,0.029900968045562276
39.0,-0.16040127981703076,-0.15518727711994185,0.005214002697089257,0.1586675439357323,-0.08180134825847088,-0.07436326211200601,0.1544565459580817,-0.009619194898622414,0.041719570648275736,0.06333977851929368,0.16132920961030414,0.03388162256777538
40.0,-0.0059202649438351435,-0.04294819474750262,-0.037027929803667,0.025319984469185975,0.015679789512729823,-0.04027186946760497,0.1075426675034351,0.021581134316208266,0.14630554396152043,0.10342372513788824,0.10363941236934501,-0.023066610092752644
41.0,0.13471698797218026,0.15394719269252696,0.019230204720347904,-0.14473999650920988,0.056926500963779464,0.08596899205506617,-0.09780291296912741,-0.013820072550545707,0.04158798496598881,0.04798978174254276,-0.05425029540771505,0.008174399878238862
42.0,0.019107889075515496,0.13448466603489154,0.11537677695937686,-0.07797620963502853,-0.04886505371325899,0.1246761950979319,-0.1368103831903189,-0.017794372632487655,-0.09638548128081041,-0.05948288335006682,-0.1581584757859387,0.07122446837699473
43.0,-0.13433639522111773,-0.08096937268545606,0.053367022535660495,0.10733280143166381,-0.09380130960402629,-0.013582213354329966,0.025384211405205147,0.028537214848956778,-0.09049327583855923,-0.12097528226513603,-0.11031543145054935,0.012397152389274474
44.0,-0.042368718367652956,-0.13768603907349106,-0.09531732070584108,0.0909948806753392,0.02710513852868994,-0.11612450827678654,0.11342751307044807,0.02168175987387801,0.007529716887401764,-0.06647200926970115,0.0448687834807678,-0.09752392017168654
45.0,0.14864691976669472,0.05244273649030074,-0.09620418327639531,-0.09961048068686132,0.12305326105988659,-0.021723026762702685,0.01595848380185311,-0.03597185111689846,0.06876276598072333,0.06805061118475395,0.16741563751521965,-0.059525887275598884
46.0,0.1075067128641801,0.134654600453397,0.02714788758921975,-0.12139667799762303,0.04025491231435767,0.08067176882735136,-0.0667107885218503,-0.022983003907050565,0.0605397286152218,0.1408207726865392,0.13612596040357008,0.08017252577778924
47.0,-0.12354303687358593,-0.06862099740049643,0.0549220394730931,0.09498529913495932,-0.08991560894501469,-0.007184669788781022,-0.004031810276025859,0.052580190523845494,0.010241418709080121,0.05645268196252763,-0.044862235688498564,0.08078770028254612
48.0,-0.1864988563010031,-0.20841208367357292,-0.0219132273725715,0.19702475437358286,-0.0831008955160774,-0.1151149688880186,0.05548364356513008,0.04413472690712899,-0.05134351461350066,-0.08574509582754698,-0.20636788513483365,-0.06284820052542706
49.0,0.025739161772035835,0.009883298609019988,-0.015855863163020116,-0.01706587378201371,0.020954206656532345,-0.002593417919649784,-0.017064571036945805,-0.058405324848927756,-0.07532321651556924,-0.11244686116286122,-0.1493162379860191,-0.0878461247966675
50.0,0.20744296994902411,0.2868617780233383,0.07941880807431301,-0.24626329562690247,0.06511285158723781,0.1832461296096628,-0.09274936245938163,-0.08897597901054748,-0.0286152326990201,-0.026556984834781756,0.0944873619186271,0.06810487599423808
51.0,0.10580270337806671,0.17496092989312906,0.06915822651506569,-0.14049952467335503,0.018850848240121478,0.12165729865362845,-0.018422069834496957,0.013605044446195114,0.05126810771550701,0.03374898797110793,0.23481060373066784,0.1256454115059464
52.0,-0.12897454576141174,-0.2081481774038405,-0.07917363164242795,0.16768144274020505,-0.025823476775659066,-0.14391560767262768,0.1120244804683364,0.10514907940093089,0.09384213085478703,0.04868164424555203,0.08841597685886479,-0.05290270461912717
53.0,-0.18782346315320544,-0.34381594380356145,-0.1559924806503592,0.2653831081955115,-0.016953697460338882,-0.2495560748567438,0.10397014996191568,0.06688515172439159,0.05760506766395238,0.08720612109942444,-0.14856325895643221,-0.18644425900413503
54.0,-0.015280452293487581,-0.05564360754354384,-0.040363155250058916,0.03595090774057059,0.01302377214856918,-0.04763867229061634,-0.044339250163193976,-0.04288755804869769,-0.05328465726837451,0.07189036657555199,-0.17525081105289764,-0.02855183772373697
55.0,0.163642137260387,0.29098327588181344,0.12734113862142915,-0.22665461511140905,0.019441277244795177,0.2089122036793018,-0.14853257650382382,-0.1031641145685948,-0.15132501108336766,-0.09776631514451556,-0.0049283194200647916,0.19900575998327577
56.0,0.14263298404546088,0.30297096734429274,0.16033798329883592,-0.22277260947497476,-0.008774197171412734,0.2312492704840451,-0.08100621746101826,-0.06160081372513395,-0.08833329221071659,-0.22594505585632388,0.11508651311773882,0.14541484384566958
57.0,-0.04335877254117609,-0.002667036737495773,0.040691735803679775,0.022540375863754947,-0.04328983427607233,0.019186759709505702,0.08416214625739993,0.04675083885799545,0.12746254535149257,-0.04239436125816586,0.08485846991819432,-0.11242032214952807
58.0,-0.1768542350798561,-0.2914362760293883,-0.11458204094953739,0.23376979974482112,-0.031805387355553306,-0.20257366569366575,0.15554930511195936,0.11410311689421251,0.22187499150951615,0.2622502571563828,0.0055513581979202255,-0.20419057470934643
59.0,-0.1031695003915029,-0.2772155837591647,-0.174046083367664,0.19020776965264202,0.03631918904498096,-0.22573318775482779,0.04190019493832551,0.04759403092514288,0.01064206520505014,0.21939838966777958,-0.0507562986596073,-0.03156134626192534
60.0,0.09204263055153764,0.01666724236746371,-0.0753753881840709,-0.05401796745004343,0.08477731058244603,-0.02985029929044824,-0.11903788251162194,-0.08130611940033579,-0.24008553706614336,-0.1485226843729213,-0.07995366271407903,0.143139191841501
61.0,0.1798230409670861,0.2863165784312267,0.10649353746414465,-0.23266567356659304,0.0364725305773056,0.1963346570025739,-0.11952078551885222,-0.09117008620657437,-0.15588197300414303,-0.29498024946424484,-0.039093607541054426,0.1244973014708315
62.0,0.06159897360313288,0.25481935873769457,0.1932203851345618,-0.15814846290432294,-0.06679570371410644,0.22448854635036963,0.02805772315673099,0.029922878759168284,0.14051704355102518,-0.013742672093588636,0.07232348926932441,-0.0030289819876371865
63.0,-0.12105822993215774,-0.030459548111611508,0.0905986818205434,0.07528524036567005,-0.10627029932479645,0.030396120157615412,0.10485317461343215,0.07935329365201436,0.20353467894931168,0.23973142399496114,0.11251344274442392,-0.09040168759344422
64.0,-0.16885503547272315,-0.26087046647681816,-0.09201543100409712,0.2143492345091613,-0.03801598396877467,-0.17662849680768408,0.0221569270232903,-0.022808144490373636,-0.017187744967096925,0.11065237617418307,-0.007559675820837769,-0.09880444029926942
65.0,-0.04257021889128531,-0.2180305833151151,-0.17546036442383045,0.1304408358996662,0.06701568841758761,-0.19715816623717497,-0.05616131581199253,-0.08220020074545839,-0.14062757183467206,-0.12700789463912399,-0.1303545937571074,-0.03619071242482961
66.0,0.12725531798861625,0.019583033338457245,-0.10767228465015874,-0.07276389956644681,0.11771285031418817,-0.04432040370865314,-0.009939629728775615,0.02789457644669845,-0.030181202169615045,-0.10968372284351194,-0.06927947323582245,0.07318117575285112
67.0,0.17796381874708941,0.21195790979193868,0.03399409104485112,-0.19465789508166084,0.07187569064952917,0.12304436200810263,0.04374197472186919,0.1218454783757448,0.04325048713018452,0.04121035292337194,0.08581178973917505,0.1307115772935422
68.0,0.04747287283132218,0.20231464820054468,0.15484177536922522,-0.12529171935386088,-0.05411420160041779,0.17908635054612648,-0.01035694269074799,0.01754436015578572,-0.027503870003792764,0.047900607903724954,0.10910796845072976,0.048045746151338505
69.0,-0.15359701395729888,0.0182194936930449,0.17181650765034487,0.06720785128377234,-0.16321376510018776,0.09560378285029619,-0.06807098393094005,-0.13155677394038254,-0.013180443494087942,-0.024831839536979317,-0.008827717571875808,-0.09543884213984535
70.0,-0.20605550377383333,-0.17926693210217493,0.026788571671656575,0.1926866807700027,-0.11642791136703494,-0.07636759603868463,-0.005421377187421894,-0.08788812215860298,0.12799836950216292,0.012980812992231357,-0.08356956120593606,-0.1305671726516889
71.0,-0.020911280034650037,-0.2163304041419814,-0.19541912410733395,0.11893548242212276,0.08795558553607016,-0.20685953501606888,0.08300552367321777,0.07005384705948871,0.10215101892429145,0.07341281934731252,-0.041723455286171406,-0.031294152481447894
72.0,0.20033630056349458,-0.04750720021418169,-0.24784350077767678,-0.07630145356329217,0.2247522280988001,-0.1483977108864779,0.04416563503442494,0.09523846336231148,-0.15073953270786608,-0.01200894760220614,0.020646004772409472,0.07380078132640884
73.0,0.18432283430319216,0.17813480838309317,-0.006188025920097349,-0.18131680169568362,0.09497969697224977,0.08658260478897517,-0.06516662738671346,-0.010020074562357265,-0.24728503993760304,-0.1263545693463344,0.03588635643830478,0.10154503722052761
74.0,-0.04490953916255463,0.23399074917177884,0.278900288334336,-0.0945283438648867,-0.1628824556719062,0.2577829401330146,-0.07185937882567356,-0.0374739152313207,0.018741906791858533,-0.06191874659080772,0.022559257618419298,0.06994580358473479
75.0,-0.19197085723659912,0.04784947277641051,0.23982033001301084,0.07216124495800764,-0.21635864475884586,0.14423324262010925,0.029654759116942854,0.03619154672046853,0.2866898552048726,0.09500148260782368,-0.010102958513199183,-0.01479485280318174
76.0,-0.09725355441211912,-0.19620540723369378,-0.0989518528215753,0.14663076631802566,0.00153428039546369,-0.1486547237142794,0.07820040784918236,0.026379862950960564,0.17704806778124263,0.11486228143947848,-0.04413884402372898,-0.13836637179715228
77.0,0.07754325817005847,-0.23314427885794348,-0.31068753702800367,0.07749759364674882,0.19511685607839271,-0.27314384246124235,0.006057521599955338,-0.09197574863411877,-0.1274129799464537,0.016825724132209237,-0.006178485815315151,-0.16374136139811518
78.0,0.11431002414142123,-0.01281960892283928,-0.12712963306426248,-0.05084983921441142,0.1207658345130464,-0.06990004515817856,-0.06940020524316921,-0.11172925147870055,-0.2122448429627404,-0.026147218572616874,0.09252414751046775,0.029391678506955187
79.0,0.010868312619989426,0.21728798410593245,0.20641967148594298,-0.11373055029085925,-0.09876548157129551,0.2130201121891951,-0.03892490546543062,0.04199760931669487,-0.07070808213170533,-0.04128210305246912,0.074399719253972,0.2626208879597346
80.0,-0.07395918278025489,0.18670927197969026,0.26066845475994677,-0.05591587044220693,-0.16809521222697896,0.22449748111453224,0.04377661317747831,0.1624743931905317,0.007955521980158795,-0.1412314801082607,-0.13057941718219282,0.19122765626599744
81.0,-0.029560024627970482,-0.057037800248683324,-0.02747777562071111,0.04328488313091125,-0.0006161829575794663,-0.04261146379893681,0.06095583585664652,0.09337393111925908,0.010249975046614903,-0.16587809684956123,-0.24795575075823054,-0.17242649067856905
82.0,0.08612873623609905,-0.19780335750870948,-0.28393209374480904,0.05528098435385849,0.18611874487870594,-0.24172831256821165,-0.0001357198322214554,-0.045670545129019566,0.15467221058613634,0.10741665829810516,-0.00017420034755145211,-0.35646182604558313
83.0,0.09236299935793128,-0.07431158460455821,-0.16667458396249113,-0.009506978877076333,0.12987454131367876,-0.1208495798344351,-0.05330439645426965,-0.102781061012311,0.3173169559804571,0.42724675970088893,0.3772703180139042,-0.06365501714095835
84.0,-0.08890797189939802,0.10752334182632338,0.19643131372572034,-0.00912477682721099,-0.14346719626691762,0.1522318087876004,-0.042187526218809945,-0.11177738277981603,0.08651001336599112,0.26838366081305526,0.3397841962711396,0.34380315964795977
85.0,-0.24361398872697124,0.09696398377164338,0.34057797249861477,0.07399505718353992,-0.29296309379670166,0.21909879979487218,0.01117632210326792,-0.10420315752264828,-0.4509635347903091,-0.32577204263183185,-0.1832998333938538,0.3057821424776576
86.0,-0.08481650556990135,-0.04004103249947943,0.04477547307042194,0.0628253718907873,-0.06464425584959246,0.0025653910369580393,0.05612780704091082,0.02725918917568002,-0.5846577895141276,-0.6330707822349223,-0.5817207437801444,-0.1444698065841069
87.0,0.2835962717594171,-0.07451398626041641,-0.3581102580198333,-0.10486888043297972,0.3216897615256161,-0.21611186394643933,0.04540919161813175,0.25727664383880966,-0.00017258818167026316,-0.22447803361861876,-0.3297543238876912,-0.4137048558883119
88.0,0.3853124800874539,0.012814717572061367,-0.3724977625153911,-0.19974262881226787,0.37926985355108955,-0.17983554625275974,-0.03513840318339144,0.2878464800248761,0.6398744133760172,0.4292523736008357,0.32141477010635877,-0.15503240256157524
89.0,0.003942357713081776,0.058471665771317606,0.0545293080582365,-0.03148249096945824,-0.025743016892074182,0.05601717987955749,-0.0977261969760736,-0.032322405276262005,0.6173924296791631,0.6302898625659387,0.6593365851406306,0.29382190137479924
90.0,-0.4532342383243093,0.022287265421118457,0.4755215037454267,0.21589775934445013,-0.46485319300093614,0.2483593774263543,-0.01360343790101737,-0.38120681236546217,0.097957086422289,0.2946121315394831,0.34385011034693386,0.38530723912024384
91.0,-0.4422474853090121,0.0011451407321083548,0.44339262604112,0.22119453556570035,-0.4426809451981233,0.22245564101227658,0.14477437478462318,-0.37088763151160054,-0.4074134417548912,-0.2199746586029136,-0.29710743434579545,0.038561993508051895
92.0,0.04315905825919531,-0.009182251474388892,-0.05234130973358486,-0.016858976199591483,0.0481137204871662,-0.02998878654410605,0.10118023400368582,-0.05732589518149941,-0.7966305501610106,-0.6449828032927294,-0.6824983047912038,-0.333301924721671
93.0,0.4995282009727571,-0.0907569366368275,-0.5902851376095849,-0.2049144509047938,0.5448209757052017,-0.3402262014119566,-0.17055290117438737,0.27462274692519717,-0.835488041588375,-0.71482978404414,-0.4901754946660571,-0.35312817031722804
94.0,0.4984415069754707,-0.15650251399114742,-0.6549440209666179,-0.171505114963239,0.5763205923054218,-0.40626964535809906,-0.24474867432572314,0.5216515232053778,0.14106481211675395,-0.09380264635746169,0.14148191174343727,-0.04953222299465597
95.0,0.05997587929145322,-0.007279041818007967,-0.06725492110945927,-0.02623922180434568,0.06367081110862474,-0.03772640468265005,0.11537507292804268,0.535461773041062,1.7245788669159388,0.940326913087308,0.7153787960376414,0.2819732068196396
96.0,-0.46040359602211667,0.30857320491616225,0.7689768009382794,0.07647027724882287,-0.614172053929426,0.5390744064742132,0.40105017471945187,-0.06510499456186004,1.7799902813370136,1.2459990941113464,0.729772713787242,0.4037280312079967
97.0,-0.6622513333042216,0.41586718462979533,1.0781185179340154,0.1234464562872118,-0.8699910085287023,0.7473606741574368,0.0636460397085042,-1.1096594480858293,-0.6747273286080343,0.16551963825809338,0.11257425791250703,0.24164332908584205
98.0,-0.3234306325877237,0.014739100235478843,0.3381697328232012,0.1540558277202439,-0.3312943073493233,0.17611366797496222,-0.45783988221513744,-1.3247518616336171,-2.9201855166843056,-1.240704894390426,-0.6759021225011217,-0.1701947970632503
99.0,0.4181552216170509,-0.6711267467035977,-1.0892819683206456,0.12614288323970954,0.7532065457177721,-0.8806603298435018,-0.2923427388808594,0.21582290391134926,-1.696745224584572,-1.3703320772432295,-1.0140132542624272,-0.6210489749903625
100.0,0.9838876082738004,-0.8892379972596856,-1.8731256055334835,-0.04732250104834439,1.42866224065615,-1.3807780981051578,0.36393974010406416,2.1352964181520364,1.633465971663075,-0.2205920608281136,-0.5668448918143421,-0.6470715633412369
101.0,0.6862099178742075,-0.030424701970590003,-0.7166346198447979,-0.32771221382884425,0.7019707081248117,-0.3727141809740614,0.4231982370970986,1.82317001884496,2.6417995588916043,0.8416425278162135,0.49315460807947065,0.08553994755183279
102.0,-0.4826067983641235,1.3652361511190139,1.8478429494831399,-0.441208690420223,-1.1650018283589827,1.606466222227651,-0.24430781342755958,-0.9165759540133147,0.5660176370678689,1.1537926899975446,1.427538211043155,1.0853056198826252
103.0,-1.4363547121165656,1.6067276879733179,3.0430824000898804,-0.08512660903479999,-2.2399788132299774,2.323906534863906,-0.4533879307162935,-2.888322606439055,-0.879467971649449,1.0610338926411078,1.2519323430538076,1.1534098723712696
104.0,-0.9441192219057664,-0.22802655658160792,0.7160926653241609,0.5860875415639851,-0.8304174755277185,0.24348225095033485,0.24890317988365068,-1.5157012159918952,-0.2718815623853545,0.3646137436500055,-0.27616060474633614,-0.1886143342104183
105.0,0.7306093983833686,-2.431675340394153,-3.1622847387775233,0.8503538714331356,1.9464309005462894,-2.796361981385058,0.6020117258078339,1.5099193532134922,-0.697039446039334,-1.4181614960601607,-1.9215737867667815,-1.650979170128422
106.0,1.7520931474373918,-2.1322408468308227,-3.884333994268217,0.1898191122928404,2.8183900630743364,-3.007387444724312,-0.2421270355153472,2.5295822549327576,-2.8074240253009886,-2.916809807143836,-1.9412030141936152,-1.4555136756740568
107.0,0.8604633197233909,0.874086061134547,0.013622741411155513,-0.8672043773202247,0.4234633888498042,0.44395459248542674,-0.9697955866401107,0.882672922730661,-1.7748776489345326,-1.5238722983282473,-0.06034225340771992,0.3458579808133716
108.0,-0.927927820763076,3.271470240886127,4.19939806164921,-1.1713608702430054,-2.563821121420255,3.734813480457228,-0.1231849389177823,-0.9194853147818554,3.9926670713237327,2.543174520034097,2.113988370452168,1.8434656344749456
109.0,-1.5807037784993576,2.2099150499533287,3.790618828452688,-0.31441707810217234,-2.685671687633897,2.9997174557888497,1.1915860618665073,-1.3931388306221444,6.918058375148718,4.939510344399366,2.7333943060314057,1.6416497622036597
110.0,-0.5996697621590726,-1.1903236224208782,-0.5906538602618067,0.8946454848779695,-0.004158885231735506,-0.8905008908679855,0.8028329191812292,-1.3079552088162545,0.5675239496352481,2.0559883239396206,1.0895671717145285,0.10906161039169548
111.0,0.6804116424160972,-3.4580702646813397,-4.138481907097432,1.3884347141376978,2.409681466939213,-3.7978511225831357,-0.8548999003250105,-0.7289064492146701,-8.279892525127407,-3.8801383264632596,-2.147009766772114,-1.6879645926189157
112.0,1.0668072302277463,-2.634267521778391,-3.7010747520061416,0.7838853103768367,2.3835093133221954,-3.1672258728887015,-1.1801406085765713,1.300264287751625,-7.385560455187431,-6.528897434476502,-4.559415407357125,-2.6448470244580764
113.0,0.6250449881048058,0.5519770375074674,-0.07306795059733942,-0.5880710892629099,0.3483984612859529,0.23946459178662804,0.3135218772189776,3.1902326636248386,2.7898759370149913,-2.302948520117301,-2.7161813977328237,-1.3122641649147484
114.0,-0.10998870257141877,3.796284120540311,3.906272823111737,-1.8431535554655243,-2.008013823291994,3.8508205953147896,1.0321814957232838,1.3589416009279034,8.966030199860647,5.201488827863729,3.522411246009599,2.426917722339707
115.0,-0.790398217160707,4.217869183026418,5.0082674001871235,-1.714168574608609,-2.8984747762491376,4.612735282418143,-0.30750741232380957,-3.3802125959453817,4.032570520411475,7.968199202506807,7.670478654502558,4.922207954378359
116.0,-0.9382917926212047,0.2756894481654244,1.2139812407866308,0.3312406197293233,-1.0757189918915586,0.7451093457906611,-1.2156113940855586,-4.5850547392760355,-3.9195698898248983,1.8790575896067416,2.7979478058405682,1.7508475341246243
117.0,-0.16877176494706886,-5.22791020817103,-5.059138443223951,2.698868788846929,2.444609358992186,-5.143078458862889,0.4403191704893375,0.7364002149147332,-5.0058458200285765,-7.177375197790579,-7.23271895535916,-4.984660185601988
118.0,0.9114782177711238,-6.1435058192032,-7.054984036974323,2.616235590332172,3.982543331546104,-6.599381217156629,2.273024114821789,5.949276953432911,-0.913981739034717,-8.345382136051594,-9.403327197648274,-6.742193648402314
119.0,1.064575154399521,-0.11974413079349419,-1.1843192851930093,-0.4730721420651286,1.1245088592580426,-0.6525580045759459,0.7193924026454451,3.3401111727492365,1.0350862290843859,0.6002598509525662,0.8023899200482547,0.17038522074419163
120.0,0.020354130541032207,6.807284222644007,6.786930092102985,-3.41443786735322,-3.382816600276761,6.797097695059513,-2.7703536402909252,-4.071961385132477,0.16701206097779106,8.612323904784875,10.432320497879031,7.549763210614264
121.0,-1.132042009435295,6.7026930979347545,7.834735107370053,-2.784784943311999,-4.483204767518604,7.26933088390907,-3.0557870177746227,-6.2618121220829694,0.9157572891510785,5.387355612063376,6.16315803455135,5.58912142832469
122.0,-1.191279557216863,-0.15663132131439783,1.034648235902463,0.6750415872166106,-1.1130385252249206,0.4393085247801964,0.923639424851706,-0.5637936548266423,2.9798158293769417,-3.962128333479911,-5.6559389626949415,-2.9255494846617642
123.0,0.2020731447077312,-6.153297446927647,-6.355370591635384,2.9755904161447138,3.2787159987930976,-6.254843168581352,3.977767924952425,5.2645008127853545,1.6772806603301142,-6.270674889530776,-8.09169204616708,-6.6534461230151045
124.0,2.1162417589908644,-6.412608641439203,-8.528850400430054,2.1469381153859044,5.322508376291863,-7.4713209197268196,2.0747233064073316,4.765078430943355,-2.6853754649800843,0.19927489538977963,0.6701747889726481,-2.3098810501422675
125.0,2.0620700118099577,-2.3853955369720556,-4.447465548782018,0.16098781494697245,3.254529934152419,-3.416318351240609,-1.9089534187270056,-0.002336323212542985,-4.051836574468184,4.181788004497146,5.7122105403889405,2.3351737649022666
126.0,-1.5947484409806492,3.5326334882413666,5.127381929222019,-0.9680342082078864,-3.3612503879844167,4.330568286457495,-2.8724172404006625,-4.204025267634396,-0.5820630324114721,-0.0850550312735188,0.2019132118806099,2.35861882128998
127.0,-5.237834960685549,8.940342861092192,14.17817782177773,-1.8501340957339922,-9.70786919334361,11.55953483613872,-0.7529422905055716,-5.452680693450238,2.322990787574696,-4.139036610517589,-4.518972006370335,1.642233298192423
128.0,-2.200500365987265,7.605151153679224,9.805651519666494,-2.7026340890409397,-6.002764712352738,8.705215139586473,0.8325472355853601,-1.9767032435017122,1.539796139291035,0.13378356775362307,0.5259713880663881,2.2976383576450155
129.0,6.413630986956963,-3.962054673437863,-10.375685660394844,-1.2269139342353603,8.394872959822827,-7.1691468511078495,0.7767006281688608,5.54483132942208,0.7432262830398123,6.640448744922398,6.524881971356778,-0.058856903328982864
130.0,8.702776136267612,-14.780864429259998,-23.483640565527597,3.0388813728709385,16.093220730547163,-19.132367349064246,0.7582067702835197,8.974506719490456,1.6159878654968498,4.067897376722606,2.3002305972104233,-5.280139026951589
131.0,-1.9519090663536607,-8.810040189930097,-6.85813112357643,5.381875860773622,2.452830084922501,-7.834115506158236,0.956760001255372,0.7563925064064878,-0.2781020907397133,-6.214112161982903,-6.699459957553797,-4.961292955804123
132.0,-12.93785603279697,9.48341455196267,22.421270584759615,1.7276115922456488,-17.680096226030784,15.952326152214974,0.15095749267844416,-10.801722228999697,-5.000411320364863,-10.48840099414892,-7.446298969099435,2.824879183335471
133.0,-7.334543748376951,16.064494506947334,23.3990382553243,-4.365684323371999,-15.367043228383016,19.73191804055752,-1.0021923971129199,-8.568452082831529,-4.04805510377047,-1.3411248987103275,0.6141781369142495,7.029813420714577
134.0,9.543488077842722,2.0124921222112464,-7.530995955631483,-5.778546761289249,8.537835368611855,-2.758861665229595,-1.0456964525432677,6.464805535297827,4.6128797527914935,11.174862996364762,7.086774385648181,1.18571264073576
135.0,14.629580345205657,-11.749732911372792,-26.379313256578513,-1.43940394546953,20.505444002145754,-19.06431107725959,-0.6993120346381285,12.511156783294945,8.450642232365732,11.433101759297037,6.636715986774303,-4.706866914614027
136.0,0.3949999240042657,-7.055864486818344,-7.450864410822612,3.3311779497433203,3.923050695644327,-7.253832316297226,-0.7773469696031928,-0.0042773171820688375,-0.5620495931399564,-1.8802738684971452,1.8480940489604334,-1.335029264581639
137.0,-13.470010924255739,4.137906000915369,17.60791692517114,4.665889484650369,-15.540156332536313,10.87213568208707,0.441555126910691,-11.700678675545376,-9.746766346070107,-13.59249791486723,-4.866459908765215,3.302342486029006
138.0,-8.980098231450507,3.1300410695801313,12.110139301030626,2.9242710815465607,-10.546270611681823,7.620095100470458,3.2001007847812506,-4.674411384738665,-4.304249739866382,-10.398962746721477,-10.35842722958556,-0.9579344338243436
139.0,5.252803617665471,-3.5626730603654044,-8.815476678030874,-0.8453460078872261,7.034626159475091,-6.188081834324171,3.069844918162245,8.633572964693345,7.58186208221392,3.7214655669185057,-6.871109559525408,-6.294047050123498
140.0,9.682183267773295,0.47882051005575116,-9.203362757717548,-5.080077603651557,9.44447190755943,-4.361593381795851,-2.1735652529211618,6.770653384147156,7.281096202129743,13.33045036057869,7.1431709015512235,-0.2573368165446578
141.0,2.0645811368915177,8.89673711196271,6.832155975071193,-5.480173344266077,-2.383076699606382,7.863790571593191,-6.126366638414234,-5.474382588220108,-3.715879998185207,9.128602413055207,16.47526710811679,9.601260781874482
142.0,-4.3223637471164436,3.3709796820226607,7.693343429139092,0.47575327814517,-6.009202340359308,5.53108966264851,-2.0503929266261416,-7.1578861635541635,-7.263092563639048,-3.6656965439600167,6.010580745169563,5.980509163193799
143.0,-3.0096444190805234,-10.994934102195948,-7.985289683115413,7.001978024825638,2.4861821123729713,-9.490054445351415,5.253298617322934,2.991477765127232,0.7151791317484713,-12.113929285224746,-13.447918265906207,-7.73300012722598
144.0,0.0037568572963719263,-10.86117394293158,-10.864930800227944,5.4283630403845855,5.434722803804312,-10.862064580509278,5.259964985977317,6.675065715179632,5.391562784820623,-8.153833872112642,-15.633231126142356,-10.502481922415459
145.0,-0.01855278108419991,5.7644413781614885,5.782994159245692,-2.8729464577526613,-2.898913263134985,5.774084920356327,-1.8678628812344553,-1.3795462813154713,-0.05078535129602421,3.7016463353449165,2.4466008342348116,2.0669837587963364
146.0,-0.2992938414530659,14.01861798412984,14.317911825582906,-6.859300120956697,-7.30799340445563,14.16761535641073,-5.215540125898843,-6.090356233058927,-4.2370099524084015,10.5276512796932,14.200756872429265,9.960702264648603
147.0,1.3638143000109446,1.870180022228139,0.5063657222171905,-1.6168175060943528,0.4272507424790746,1.1878338546813383,-0.4261253715795099,0.3317745208822221,0.49007523053767865,5.369780617931056,4.096839785367357,1.661833370321597
148.0,2.2005122251283096,-11.075651366577368,-13.276163591705673,4.4372142126100185,7.737125644127604,-12.175499396688089,3.911613521825914,5.916256414268041,4.982943971400345,-4.149885747649506,-8.774338119236244,-7.540906049448557
149.0,0.32485194213942337,-5.974479107154725,-6.299331049294152,2.8245291445272045,3.312947076232509,-6.13659027547717,0.9500165166171229,1.0219966643389222,0.5647282673352356,-6.327188476609997,-3.4654741353856986,-2.2513551507600646
150.0,-1.771526174803614,6.524235252712619,8.295761427516235,-2.375901146822778,-5.032251798463687,7.409568586292184,-3.593900316093907,-5.657331147024736,-5.755412891026476,-1.2449164172709524,8.375974575951622,7.398701487123369
151.0,-1.6775343608362014,6.419717192706866,8.097251553543062,-2.370530944573312,-4.88768698002463,7.258197437517657,-1.8022391198915806,-3.0741681186614076,-3.6167370275716015,1.9019862575216164,4.118929419573648,3.979395960291204
152.0,-0.3618942493256995,-3.6801869852002738,-3.3182927358745666,2.0206081518170684,1.4769027189780686,-3.4986450276686956,3.3745230747096664,4.134303526837429,3.8569866509729254,0.4367803377651182,-10.238234472492364,-7.53913838141996
153.0,0.509161851119116,-6.281041006993241,-6.790202858112355,2.884956071580775,3.649573050096017,-6.535099814428499,3.6190518160169787,4.777514788532995,5.9622018130134276,0.20176395908250783,-10.209045102059132,-8.390675822266592
154.0,0.9741424045189669,1.5512897849239524,0.5771473804049869,-1.2626838159911287,0.19955702156108288,1.0635977915422383,-1.3519737222526764,-1.100754569158563,0.5799696134152581,2.6764044876968516,5.917987959101483,3.3537489157595566
155.0,1.231791396847987,6.229376360561923,4.9975849637139325,-3.7294045362342967,-1.8825592241528422,5.612566794424476,-4.253505620182563,-4.467206191009864,-4.690593976307666,2.079345735501908,14.427593899895015,10.59480576544605
156.0,0.5511390598092948,1.2434942178170085,0.6923551580077164,-0.8967044276273168,-0.0713814804949861,0.968238328883923,-1.684807681166125,-1.839350394190039,-4.156232383925236,-2.7653921899738956,3.8679157315042043,3.9421650447194114
157.0,-0.986691727683341,-4.615712460864458,-3.6290207331811213,2.8003472313607105,1.3207688832915228,-4.121211556866362,2.184221984356556,1.8964479392347935,0.2991080265873861,-4.729588710795554,-9.699539996061194,-6.364858628651773
158.0,-1.734524159829989,-3.358096886983844,-1.6235727271538516,2.5452931086138584,-0.05494960258631561,-2.490603048677729,2.8837199854737436,2.550105045141108,3.7406069085468543,-0.23973580253697443,-9.46699015614129,-7.673783876942261
159.0,-0.6791568346451188,1.4044942280858672,2.083651062730991,-0.36246576781662554,-1.381070349302605,1.7430627278719324,0.851698440282052,0.9816952805151495,3.430852040551298,4.383493345744121,0.22560470015143438,-1.020266361036314
160.0,0.9813154171744289,2.9459679718522427,1.9646525546778195,-1.9627837620516524,-0.49203654808859576,2.454625189682558,-1.2016581749457234,-0.7098434469824496,0.027474857402243254,2.924474804182244,5.9922048743415655,4.524213690492398
161.0,1.4311834170457938,1.0699347394313852,-0.36124867761440865,-1.250326887456813,0.8959880937443525,0.35489763110503464,-1.9146229318797636,-1.7773355250951337,-3.3214569624854047,-1.7051170298199152,4.450809848299008,4.558851111798734
162.0,0.46985909910514123,-0.7013311737612737,-1.1711902728664156,0.11538357232975653,0.8208044598021561,-0.9354736375314634,-1.2163874901293148,-1.6107798535931268,-3.335502963277551,-3.1465784430151693,0.7747065522594007,1.225490835587462
163.0,-0.6297100159791976,-1.1668497600017353,-0.5371397440225402,0.898168909316383,-0.04618098420707386,-0.8521042775979032,0.4531620494437325,0.15594177805489315,0.06122013106869077,-0.7639801093545802,-1.8133279450945383,-2.1139494924996836
164.0,-0.8510837568029878,-0.9814987973326778,-0.13041504052968875,0.9163656769152384,-0.36057436880306265,-0.5565531551355343,1.7927941681741681,2.0303720170663766,3.215769733883664,1.4787135329455452,-3.1123648745487533,-3.4116191971112366
165.0,-0.3171874941090313,-0.19251718435056686,0.12467030975846596,0.25452991090843763,-0.22086710725076258,-0.03401418500116112,1.3874622345467555,1.8242535372580457,2.794371003283136,1.5048385665631325,-2.3081821078441283,-1.9210850870335114
166.0,0.24876019591174567,0.9133622353983265,0.6646020394865824,-0.5814180990227085,-0.20762137734333122,0.7893632955376285,-0.4016356314573164,-0.32265451144274054,-0.38353928175495194,0.3666863621644914,0.5587363356737186,1.0758553354997682
167.0,0.37532820654924254,1.074717237834429,0.6993890312851846,-0.7245523335268793,-0.1622697421123789,0.8871549757175489,-1.5836373031526374,-1.9642882577928922,-2.680699983437031,-0.6890191264795308,2.6698383845541076,2.7758287774308803
168.0,0.1486607559416506,0.012180874769653235,-0.13647988117199766,-0.07950292979325473,0.1420436169170961,-0.06245096649305146,-1.0218019526778443,-1.486095749733315,-2.018729033553567,-1.155512803719416,1.870192667792557,1.7710135580843025
169.0,-0.05078832464128146,-0.8051504327574837,-0.754362108116201,0.42795815248324665,0.35208040836744353,-0.7798717626246822,0.33366773633861285,0.25395888033515596,0.33972949239515615,-0.6006115459123883,-0.2843645365095307,-0.4823855129490425
170.0,-0.01229970651605493,-0.4489094599677081,-0.4366097534516517,0.2294723524836941,0.21303505958422275,-0.44247102620334033,1.003485865270207,1.455268324791728,1.8958668691222302,0.6757136630373021,-1.2623810313876245,-1.778499524868515
171.0,0.09305450569615525,0.18173570246647627,0.08868119677032091,-0.13813479756040034,0.002107664337624119,0.1354072319360753,0.6941138073282266,1.2881881228243621,1.5247485254545357,1.253561032973751,-0.9697739521335417,-1.490068674176692
172.0,-0.01279732769807396,0.16175954404717585,0.17455687174524873,-0.07379501208563621,-0.09484664094820988,0.1679319359099772,0.031143878898244638,0.14283018030371894,-0.025161025694644467,0.3671182896175247,-0.5447237562373698,-0.3018246165073468
173.0,-0.2786961633867313,-0.05545990976700283,0.22323625361972824,0.1682252985691113,-0.2513818625594558,0.08361181022052326,-0.4885704854380476,-1.0237372524969934,-1.2742386369156793,-0.833983049869826,-0.0242313581304037,0.9657590806417138
174.0,-0.32809537839132885,0.14581030211129384,0.4739056805026231,0.0912387018463935,-0.3998458245581516,0.3099719952429326,-0.6706483652480154,-1.3044105167686892,-1.2885227724840942,-0.9139602452572072,0.8406360092117438,1.5405089942572878
175.0,0.03240773946562041,0.3518708289153052,0.31946308944968427,-0.1930526879342198,-0.1425280685678426,0.33596297296842736,-0.37101492281063686,-0.4635992460233167,-0.25505618636195587,-0.08766908128910177,1.1885544205301022,0.8530654832982235
176.0,0.4674210119817315,0.02287818025202155,-0.4445428317297119,-0.24576323703675457,0.4552690875758143,-0.21083976496069368,0.2816699470754056,0.7531054842551553,0.8399883292336136,0.4931610397192816,0.30508567373163803,-0.6476892682886355
177.0,0.4622045793560005,-0.4503032381773945,-0.9125078175333948,-0.005608167327166043,0.686010148816748,-0.6816895372666074,0.7096532987453096,1.2409999975415604,1.1046982936406673,0.47613775349266163,-0.878020166467821,-1.5371672252926647
178.0,-0.03020792801988271,-0.39989863841646484,-0.3696907103965788,0.21566855626560447,0.16972129643586306,-0.3848820230856254,0.453339652830066,0.6187091700057092,0.44311406197942976,0.27383063899020704,-1.0046293505579276,-0.9372273536185507
179.0,-0.49834823529894007,0.0906507522909841,0.5889989875899249,0.20390642188378277,-0.5424765181976645,0.3400867391356684,-0.2103223464412283,-0.457639411070587,-0.48737752677390306,0.018000513310663088,-0.17867092229005793,0.45171777029808974
180.0,-0.47228413873633285,0.43386882560222817,0.9061529643385595,0.01883181221293235,-0.6885528688678951,0.6702011057666456,-0.5851624234764135,-1.0340588965092445,-0.9097746665994856,-0.38990141308258275,0.49482452730441207,1.2461250127455603
181.0,-0.032675189630614304,0.3466750076584679,0.37935019728908076,-0.1571351145851055,-0.2066119037574398,0.3627942955095203,-0.3866809586597437,-0.7254305236803538,-0.5603958870350034,-0.6216647590263963,0.5298657791071634,0.874577332770385
182.0,0.36728625339733884,-0.016239298659013548,-0.38352555205635325,-0.17525539312457783,0.3745524913735269,-0.20018302978969124,0.06282216962868244,0.10621618251909022,0.1763180992391205,-0.2527883263955081,0.2519786338010597,-0.1320552358844758
183.0,0.4202280619408666,-0.36393230758718415,-0.7841603695280499,-0.027992784890171936,0.6021272239117298,-0.5738993212708156,0.3579062123368454,0.7797813976164932,0.6814920312382178,0.43929072695092924,-0.05289817227336116,-0.8984040005669788
184.0,0.17042425049444676,-0.41178195628642517,-0.5822062067808702,0.1203791627299069,0.3768566418548043,-0.49656902571868805,0.3697835005386578,0.8151198171493172,0.6250343459770247,0.7132118453157207,-0.31020842621569666,-0.8892970063953414
185.0,-0.16009553935527368,-0.05489299252393838,0.10520254683133702,0.10714673534412106,-0.13226992669217422,0.025136238019876245,0.1367554906212993,0.219046008036301,0.12462442484605364,0.3170884527981898,-0.3402217375209975,-0.16491306420329532
186.0,-0.3636660279812512,0.3938401202450097,0.7575061482262587,-0.01490389824201351,-0.5606592446945966,0.5751186881039254,-0.21675026783420398,-0.5386483453877382,-0.4429303395687862,-0.2926836036897587,-0.05907266064171325,0.6676963311063444
187.0,-0.315979779139291,0.44100369550270274,0.756983474641991,-0.061954696956657375,-0.5367280109072141,0.5987536491538287,-0.4110651587187695,-0.847795242953947,-0.6764670218049766,-0.5937494693419978,0.2253321868016279,0.889897931952128
188.0,-0.03328541325957797,0.027477851640683813,0.06076326490025976,0.0030957116476464062,-0.04716809549393745,0.04468611124796147,-0.21523126598826967,-0.4426808995134301,-0.37321690046001343,-0.4524313621140806,0.193266656879372,0.3201195819940163
189.0,0.2915027805496767,-0.3774458826367437,-0.6689486631864203,0.042521322043266294,0.4801942900531492,-0.5225953217511297,0.18885136368268926,0.32306880036517127,0.2542673264780152,-0.016958116795172593,-0.017273203858038877,-0.49029765403557624
190.0,0.40015960407627554,-0.3749225256554671,-0.7750821297317401,-0.01314633500059152,0.5876468434735961,-0.5752875276229452,0.3509159926457955,0.7663850121596925,0.6662389535890644,0.45884964817618024,-0.07042135971056993,-0.8003586321570625
191.0,0.18815698993024516,-0.04480008147845161,-0.2329570714086958,-0.07168025751634705,0.2106611684645776,-0.1396911109749413,0.1415954320071921,0.5322604331867165,0.49859849171850784,0.6520904752859676,0.048464634950466816,-0.3826560741641693
192.0,-0.18302099947810327,0.2796383295317645,0.4626593290098671,-0.04785589155280398,-0.3226907941538453,0.3709210450637756,-0.1113999897168725,-0.09169803032114968,-0.06844491356601132,0.32889980990817125,0.08100834111054768,0.3193151640207902
193.0,-0.41088156250333535,0.35225151053549447,0.7631330730388288,0.02972730214094936,-0.5869548440057564,0.5582878800966858,-0.15015181235009792,-0.5476174531763675,-0.5380349796053461,-0.35763815515451514,-0.07588748837832242,0.6550974553621743
194.0,-0.30898430288704937,0.1172955607648104,0.4262798636518588,0.09585208878432887,-0.3677395942200664,0.27236761086240985,-0.09137467706292596,-0.5503617129754669,-0.5667009454764939,-0.8287046434972551,-0.23003448503090895,0.3770793186905988
195.0,0.04172219151831728,-0.24127908797475842,-0.28300127949307546,0.09936857729519166,0.16221031076707998,-0.26219385875818896,-0.07845261355774885,-0.19005057388076524,-0.15622146971811188,-0.5596470205989589,-0.14797506668897417,-0.16831347197929308
196.0,0.3699551439584751,-0.36403655232606436,-0.7339916962845388,-0.0034028430623680604,0.551898489571146,-0.5494299536881402,-0.011976923182590662,0.2844703374665531,0.39321079055005076,0.2965736501610729,0.15040156281544906,-0.4517255977645514
197.0,0.415557658587026,-0.09742678095358005,-0.5129844395406054,-0.15901220859829743,0.4642708863947908,-0.3055104616118813,0.15816976617150552,0.5809025357198736,0.6288695868354409,0.915446006141623,0.35967939588910863,-0.31123492465372776
198.0,0.10755148986610205,0.243171162281732,0.13561967241563044,-0.17482931810678204,-0.013962111803498727,0.18928410042355825,0.21451344523157445,0.43996835172645116,0.3016203420198349,0.6409451403188129,0.20349625475571148,-0.0029330479644788534
199.0,-0.3374694853039993,0.26003138593353514,0.5975008712375349,0.03900815925468184,-0.46729027032261766,0.42885227318329516,0.017809297937351184,-0.10385696459826187,-0.2971994307118771,-0.24462006983998918,-0.19288931048586777,0.20517455055286823
200.0,-0.5091059200641261,0.014591720030043933,0.5236976400941704,0.24690648688891145,-0.5161807786796945,0.2695583981453875,-0.20016965517649962,-0.5893456130613137,-0.5768742264310933,-0.8244850305033474,-0.3929626499540674,0.26508551530611907
201.0,-0.1830647341950815,-0.130129771313192,0.052934962881890306,0.15621107215011804,-0.11805772350226897,-0.0380933587538333,-0.1697408678612563,-0.5332973232849517,-0.3135615166924994,-0.5874126306131543,-0.1888368611134628,0.1959775465322972
202.0,0.34449899820073854,-0.07906986714138159,-0.42356886534212124,-0.1325359567750537,0.38358004193122086,-0.25140758974120764,0.012148408549301909,0.005688650910655974,0.14605529251924487,0.10286173980166742,0.14994983146481036,-0.015844950552937605
203.0,0.5069511275653295,-0.03747109020434114,-0.5444222177696723,-0.23441505919786362,0.525272373610822,-0.291777524126109,0.08796321676977106,0.47685970345464285,0.3814142881597162,0.5689451001849477,0.27982896827885634,-0.26766370630470476
204.0,0.13858166048139994,-0.06345398784923854,-0.2020356483306393,-0.03769911154419411,0.17052753999982265,-0.13337522937342802,0.05345899442286509,0.47064852346001623,0.3164265013288803,0.5246270616686907,0.18659676513265977,-0.319288438536179
205.0,-0.3122457859578506,-0.0013362149354012348,0.31090957102245137,0.15651701264553058,-0.3108370583098542,0.15526925762741245,0.06428952782833164,0.10416754112742665,0.08733370682273889,0.13613911301646828,0.02767439067850791,-0.07344324323432631
206.0,-0.3594418111924676,0.148595553621929,0.508037364814399,0.10556300264424039,-0.433361329781241,0.3294157478339817,0.08600918154787131,-0.24667531490359518,-0.18748235087283618,-0.29646492221341636,-0.1459591964758753,0.24942497706266764
207.0,-0.056372387420486,0.16862993207961235,0.22500231950009833,-0.05587950162262918,-0.14120466174775514,0.19714841449394246,-0.027668562943386148,-0.3656986979150798,-0.36556428798125024,-0.5111707912133764,-0.28102651386717786,0.3364196041271889
208.0,0.18134913877667516,-0.016411535940322877,-0.19776067471700093,-0.08261319897207658,0.18878310178425886,-0.10796549766294028,-0.19113819806249394,-0.25278694179931216,-0.2710522955374054,-0.3461561068609997,-0.20006030204944814,0.11771250502886453
209.0,0.15335008783582013,-0.19978138277078858,-0.35313147060661165,0.023014465983963867,0.2531900373489737,-0.27746589169960606,-0.15796611989005635,0.015258011243073135,0.07643655057979665,0.10985032930726583,0.1220998039758919,-0.18414996169193926
210.0,0.025656161232005262,-0.17751282858844677,-0.20316898982045026,0.07614582021203548,0.11502402987780273,-0.19026172153053686,0.07382604425643345,0.2921745844795987,0.37154178271529115,0.48155891035347,0.3600032681602257,-0.29313204074104066
211.0,-0.018522738501515226,0.0115190987664331,0.030041837267952155,0.0037065389792125605,-0.023897275167164275,0.021840716038815076,0.22507176625933112,0.36058071699650346,0.32923160554433833,0.42485014944915206,0.2179225076395851,-0.13906268668125635
212.0,-0.008780011574543525,0.17322577892261692,0.18200579049716148,-0.08257708877190525,-0.09556717827882882,0.17840866654141918,0.13248428719116712,0.12710575557748488,0.007362151982808878,0.006914527850494747,-0.13276965097541835,0.09882884782781745
213.0,-0.028634593859700578,0.17435673396072024,0.20299132782041687,-0.07324596521200111,-0.11604594995940438,0.18824810447246182,-0.06671774655323157,-0.21539732086075167,-0.2820107401223213,-0.3592313065360869,-0.2829542993087348,0.2023044779393023
214.0,-0.053507397198614484,0.040769530744021336,0.09427692794263211,0.006731038667529408,-0.07391271131373293,0.06632043045283964,-0.17357734088904317,-0.3599936587683741,-0.31285897562588044,-0.37507912658930115,-0.13855811471816376,0.13897852290956864
215.0,-0.04895721314318558,-0.1096939370835002,-0.06073672394031394,0.07998203674026086,0.0057971337678030515,-0.0857529230088955,-0.13173620762290728,-0.20333278586583675,-0.10977285277755405,-0.12344344223862384,0.044296622675848385,0.0218629834720647
216.0,-0.045292126084645105,-0.1866994436583287,-0.14140731757367936,0.11590417690390523,0.047895961928992974,-0.16315104273958303,0.014396237224382566,0.0903067936390925,0.1492962241383396,0.13908475534759288,0.09612829940385455,-0.0862811536335334
217.0,-0.008965745962324427,-0.14628476865964093,-0.13731902269731422,0.07690582930818916,0.06435849353208918,-0.14051259873671196,0.15917788410718092,0.2882203244578118,0.2825105883084806,0.27850941840544047,0.10039305209040357,-0.17620858578533152
218.0,0.14067502177105534,0.0388884566441268,-0.10178656512693028,-0.09005718004498305,0.12164349225493566,-0.03151183186252898,0.15005472073079335,0.26445278614711804,0.19845752075278114,0.2768324296414429,0.12374555160386798,-0.15718126257775009
219.0,0.2608578917162656,0.27381441950759533,0.012956527791326012,-0.2669069220499767,0.12394040079462701,0.14195956615258556,-0.03410369366991851,0.043846457455948104,-0.039635125963538666,0.10204030077278997,0.06469513346368376,0.04344323231174523
220.0,0.0517667706288068,0.2776507508950301,0.22588398026622186,-0.16435391041004718,-0.08751276017888668,0.2509377210518373,-0.16989776937949286,-0.2108244879948746,-0.23460379838154852,-0.2112488709539859,-0.12524808624976122,0.2497465692969911
221.0,-0.3809828636419464,-0.08137864261743864,0.2996042210245099,0.23111633163316098,-0.34044455080197616,0.1100551788483074,-0.07302020846562181,-0.29115688893553016,-0.22420697077732993,-0.4247832925820612,-0.2637627897761859,0.18678777780006528
222.0,-0.43797849492298735,-0.423689901000515,0.01428859392247562,0.4308020813060095,-0.22578469160827286,-0.2033925981833046,0.09659030364298614,-0.12924154702319732,-0.0438936727750195,-0.2746375627695555,-0.14472554320227704,-0.09282412220269248
223.0,0.10928728596993374,-0.25354901421061093,-0.36283630018054525,0.07219044619073268,0.23621320725168435,-0.30840461640580624,0.07820657009592323,0.12151381297942096,0.13485747903800605,0.17085144416312736,0.15232850115167,-0.22894895991929073
224.0,0.5894255879191714,0.25490844007743196,-0.33451714784174214,-0.4225047298096062,0.4616551785576879,-0.04106126506307575,-0.05562399293066735,0.2505150462056859,0.1999781910552609,0.4956832493679113,0.31379304096948385,-0.07974997109026272
225.0,0.325789370377378,0.40268742480720576,0.0768980544298274,-0.36472810560583613,0.12432787900295507,0.23944406536478588,-0.044653355625136566,0.1879496689994557,0.14715578324946865,0.36379084703236214,0.16353480900297096,0.09068384624880765
226.0,-0.3144851578915642,0.01527547422288081,0.32976063211444695,0.14991350460804914,-0.3217234147166762,0.17343754425940117,0.07710771348862033,0.0019277334210573327,-0.006322168818343907,-0.11177932928052209,-0.12999910766974715,0.06856680658653805
227.0,-0.4625834381909908,-0.2849707984638175,0.17761263972717703,0.3747459764915218,-0.3198713855432197,-0.05306854207998758,0.049356991674437585,-0.19366110436801684,-0.2001168273120633,-0.48121812287327265,-0.2698612014775658,-0.004801543871324782
228.0,-0.053366491777397454,-0.10111088215309773,-0.04774439037569989,0.07740509926659621,-0.0032305471909765417,-0.0750034535331633,-0.10688307843320817,-0.25910998326898027,-0.2606279207447892,-0.4051479803975469,-0.1658678033009,0.03529399837820105
229.0,0.21831916779402236,0.13606688309205328,-0.08225228470197118,-0.17827887297383363,0.1498391611004605,0.026197961425409637,-0.09573672380910826,-0.09619183244909942,-0.05878303437343048,0.03209271893093175,0.0351811181093461,0.06974854933237455
230.0,0.09059952863136865,0.0008618112435339467,-0.08973771738783701,-0.04647095145296334,0.0903797688849541,-0.04415659543914616,0.10487367916152587,0.18409643484021468,0.24051930727593368,0.42109761429463527,0.17739747723447033,-0.036397199708880876
231.0,0.0032537191006519173,-0.1734993860943765,-0.17675310519502774,0.08592417457676504,0.09055167447201756,-0.17437492475395042,0.15570401846710774,0.289218518496057,0.29552516226643955,0.4124319670458705,0.20528716278051537,-0.13971322059074187
232.0,0.14845531032102044,0.03794937792899168,-0.11050593239202586,-0.09210823725148162,0.12964055374503797,-0.03624165292353824,-0.062409409337900956,0.08895806397275431,0.026953230854880373,0.03212004771454551,0.09359940147307344,-0.06480905044400911
233.0,0.12620802936131625,0.3122298658408921,0.18602183647957724,-0.21956787843256342,-0.030244735476405837,0.24845329513191627,-0.20791482528326585,-0.1786362299824296,-0.2444694390251203,-0.347103707825568,-0.12568094153463089,0.08004512811107393
234.0,-0.22553029990440013,0.12150335427531836,0.34703365417971627,0.05082546712991847,-0.28669832191826067,0.23393913856716117,-0.027476357059554674,-0.2070354001346965,-0.2096993899565935,-0.3653548308548794,-0.2654416843885906,0.09880101221528849
235.0,-0.4116424982857626,-0.3044303462108954,0.10721215207486598,0.3579279512632607,-0.2595513176175358,-0.09818560563201464,0.21562214563989324,-0.02421672558048045,0.03435058992672728,-0.04280926665043693,-0.1440130836403289,0.025918388712519363
236.0,-0.06464333840731018,-0.3189940277067027,-0.2543506892993924,0.19290762088583494,0.09515815266528771,-0.2862451869935496,0.14707641711033853,0.09656690768680966,0.1566244882473186,0.24751956854119864,0.12276222853017085,-0.0025950973818046202
237.0,0.41269711150587624,0.09007229236560614,-0.322624819140269,-0.25083503018370373,0.36817937995507055,-0.11643492328938278,-0.13707534691013287,0.05256392151511819,0.055991667340198684,0.2233312678729228,0.22700078142946853,-0.014414984375256524
238.0,0.41162028942018747,0.3230489204921504,-0.08857136892803645,-0.368088831361308,0.25024097624369823,0.11694210232245203,-0.2250049712571712,0.003044692503853841,-0.0495528810453538,0.01961984678064927,0.09725647638730847,-0.08236835649567889
239.0,-0.04298581645476813,0.12647254173094954,0.16945835818571625,-0.04261508728765875,-0.1067469140699498,0.148070900467374,-0.006518391793632138,0.04839091772471098,0.004050801147415383,-0.06132178294464898,-0.04332836911131733,-0.10599043676730886
240.0,-0.402230557861564,-0.1349956474547284,0.26723491040683545,0.2687613039063568,-0.33531919684083905,0.06627920650870799,0.19396523377828903,0.06362564004416017,0.07934475847043236,-0.013213441569327453,-0.07175813464713442,0.02206047855270367
241.0,-0.3186560557303465,-0.15008784971711742,0.16856820601322992,0.2351914219220363,-0.24347153664340518,0.00897237477493222,0.11726816602060514,-0.05246636758818398,-0.011143660688881377,-0.06500216603568201,-0.09619582394353586,0.16359150130823089
242.0,0.047057020011047564,-0.03325492995532241,-0.08031194996636962,-0.006396647938981118,0.0643410328348597,-0.0570447074670124,-0.08283939532008626,-0.16110028451689395,-0.16445705883754946,-0.19980570740762502,-0.13630907873777406,0.11333595096320369
243.0,0.3147059306332945,0.02666867967170787,-0.2880372509615881,-0.1709544498637277,0.30165148806885933,-0.13030439303276978,-0.12002718334758411,-0.08253669302396979,-0.12310654607306051,-0.1201383216974205,-0.03623237615183816,-0.06872580136534534
244.0,0.2602769304432366,0.03814694174609251,-0.22212998869714465,-0.14999765991219272,0.24085932676968577,-0.09142140415452267,0.0023991560909143272,0.10794666391274955,0.10616626694568466,0.2076243638023345,0.18503303424029685,-0.1489022149967555
245.0,-0.02692670525410103,0.0510994791492336,0.07802618440333642,-0.012611539858578082,-0.05285521339850876,0.06436225310878256,0.058325115538183,0.1705949886176379,0.22750169286202293,0.3721170558233613,0.24720984172892288,-0.06437093542699103
246.0,-0.24529990409038255,0.042492125080038044,0.28779202917042174,0.10188057754547901,-0.26654704657296646,0.16434333481494492,-0.014436312466807788,0.041211926905202076,0.08386714262684043,0.10277376255025157,0.03182035069662419,0.04550340718535265
247.0,-0.1873277014041378,0.0022577123749138576,0.18958541377905083,0.09361803142225676,-0.18828178739510468,0.09570912545289323,-0.04277673985555046,-0.09761340550278796,-0.1315969506831991,-0.29413405956177885,-0.20984551961884104,0.08129259457403963
248.0,0.03736507261170674,-0.04780103527253768,-0.08516610788424671,0.00543774793725352,0.06134020014852262,-0.0657568747097445,0.053348816923682346,-0.09392270284264878,-0.17806068579372264,-0.3565549849594775,-0.2222991945023069,0.05853217269336169
249.0,0.15817538230164713,-0.08542796137429792,-0.2436033436759456,-0.03750744050561277,0.20088425637505614,-0.16392760395701458,0.10387973940187857,-0.012967839776874789,-0.06617201679375315,-0.06880472776683969,-0.05429444875625745,0.00531482120466551
250.0,0.0824849303010857,-0.05284281030493679,-0.13532774060602118,-0.015723094239067707,0.10894171563389082,-0.09450088967421796,-0.019757545204347048,0.015456568846603597,0.055470216018547486,0.22087067613022338,0.11580133021555515,-0.04919660411435515
251.0,-0.03892559759212234,0.07376793380352004,0.11269353139564324,-0.016663982991220634,-0.07572865678373399,0.09247500446324029,-0.1530394917974298,0.002003814402872996,0.11976238810187494,0.2769329527904872,0.20132300970349334,-0.050931904763986395
252.0,-0.054048978815577735,0.14798411693162036,0.20203309574719722,-0.04565443904351771,-0.12803701030691922,0.1750702701209861,-0.07882179310663683,0.03397998317263197,0.11871233915626257,0.12566280389374523,0.15336079222234536,-0.00747866010731872
253.0,0.01047876812947946,0.018990431989976665,0.008511663860496486,-0.014909323529869447,0.0007775484811468241,0.014512164581568645,0.11101907465942776,0.08656110293732941,0.027005447718533488,-0.1006291081493094,-0.047274617107781934,-0.001106755435528598
254.0,0.029009903648536957,-0.15691893715892374,-0.18592884080746022,0.06255833105034032,0.1071681936253393,-0.17116156043317918,0.14206338473985305,0.04623577365471078,-0.11478055704948813,-0.24580718732388035,-0.24086239045135047,-0.026493086328623107
255.0,-0.037339119038010876,-0.0930925325694489,-0.055753413531437826,0.0647714612586023,0.009229900033831307,-0.07508770056745043,-0.016279271029617633,-0.0849771434790123,-0.1658322461715298,-0.18436523858324247,-0.1907882531141849,0.027768172590758314
256.0,-0.0835836425464567,0.12524064026942505,0.208824282815881,-0.019676995415682286,-0.14567243442595681,0.16645152245367686,-0.11850676569138088,-0.1482837556729758,-0.054619890968273105,0.034667514192438846,0.06494526343813062,0.13723631252628035
257.0,-0.008651518925160452,0.12450284576517823,0.13315436469033817,-0.056980152935497255,-0.07041139700429214,0.1292257215722295,-0.03908688206872675,-0.042673073556509476,0.1078335064650932,0.19769432501563866,0.21477504074826792,0.09411398573012048
258.0,0.1137933830046362,-0.11532070145955557,-0.22911408446419146,0.00014260707732874798,0.1711745604052405,-0.17143336860245884,0.06332736983167928,0.1192819651067662,0.1634389075200505,0.174132162599476,0.11246600525244793,-0.14287429018265532
259.0,0.11202208595020996,-0.17932754645758792,-0.291349632407797,0.03250796447407819,0.20081005247637865,-0.23529316475362635,0.03685577736401078,0.1496659003798031,0.07503121557311195,0.03749333086956312,-0.046806764914784756,-0.27356269668436095
260.0,-0.028663814577511514,0.08173046223659386,0.11039427681410481,-0.02654216963094703,-0.0699525624903276,0.09541364742009362,-0.0414948606230734,0.02218752048236961,-0.07534452611377364,-0.0929801293453934,-0.07659854849863179,-0.05816808817075488
261.0,-0.13111284777629098,0.2624711540052274,0.3935840017815186,-0.0647114404416661,-0.2617229629856971,0.3276509656239846,-0.035156889031007124,-0.11183985904317448,-0.1635706471011466,-0.1664602396102289,-0.045736709230809997,0.27669505505365827
262.0,-0.08616893886242123,0.053869687283742196,0.14003862614616444,0.016610500659577546,-0.11211409861209282,0.09715998954724837,0.035997394943017236,-0.11885948174156595,-0.09799694405936303,-0.13766891474704243,-0.05651683595129482,0.3010252395705065
263.0,0.018137922114079746,-0.25453643409565085,-0.27267435620972874,0.11761922051513378,0.14561042724848844,-0.2633593561570451,0.06020332833777612,-0.01715148548292509,0.07491071653853577,0.015066301168936164,-0.04419131844466822,-0.03187608208434772
264.0,0.07752105231056011,-0.2310055802534341,-0.30852663256399404,0.0761361300108306,0.19220140404773328,-0.2696740027453355,0.0054597476421943516,0.08133847111782873,0.1656215035517008,0.17701338337511782,0.051047348482547876,-0.31926102742014983
265.0,0.09346695366529742,0.07239507481845538,-0.021071878846843892,-0.08267491399992642,0.056338876380862254,0.025914397206390574,-0.061453060951905406,0.09458900784387775,0.0634530026496881,0.18123197818240117,0.12825291143544987,-0.23612472795511213
266.0,0.05946968457347381,0.2646099901553828,0.20514030558190852,-0.16145245236877062,-0.07285225384894829,0.23506350548079769,-0.06860256056774532,0.022762655301715444,-0.09276907920875758,0.026954797330410223,0.08421132047626977,0.08153630429453129
267.0,-0.05976902357874957,0.16229612155411108,0.22206514513286107,-0.05135491463918143,-0.14002447260960438,0.19166214740657905,-0.0034201780249372127,-0.06586063336271118,-0.10572141649154805,-0.13016564222887053,-0.033688460919045884,0.2594104910693145
268.0,-0.1669396175670947,-0.07674522095716116,0.09019439660993399,0.12121619028166818,-0.12777480129341015,0.005859734533529972,0.07733663263947195,-0.08284258965237451,0.0006348324923709094,-0.17720275954476727,-0.12145518267790217,0.14973651410368058
269.0,-0.086337483382551,-0.22002212788663772,-0.13368464450408618,0.15309416683182725,0.023512338532349266,-0.17677333403797063,0.08629079399690805,-0.005167523268530867,0.057416423087376454,-0.10225779006664142,-0.12512701338597046,-0.0584085241258995
270.0,0.1283573777888557,-0.16089591862743752,-0.2892532964162943,0.016988403095257724,0.20797180619532146,-0.22385917514654594,-0.0030669196353444376,0.07458849076342176,0.020260051398366473,0.05977833627802398,-0.027724194222340598,-0.1404228280091531
271.0,0.18835621326452193,0.04277982871229973,-0.14557638455222274,-0.11510833589175763,0.16645228815085655,-0.05061481801322053,-0.09925666992348367,0.04856103369391469,-0.01660797586672106,0.19776576989901318,0.11990062495105318,-0.0912147353921382
272.0,-0.0036912220605276234,0.20273077434880746,0.2064219964093358,-0.10012381858052427,-0.10481118058154872,0.20380420738745342,-0.08357182774002539,-0.046008515474223514,-0.005670443780947435,0.1595148623687009,0.17054727166008024,-0.029608460776092332
273.0,-0.17143703573790803,0.16065502467201376,0.3320920604099212,0.0044728511612992915,-0.25125586966199176,0.24509571993314724,0.03031538303419766,-0.06336685938596376,0.01590136768584004,-0.039764848493489525,0.04528172218718816,0.01773429280874211
274.0,-0.07923067994073912,-0.026648742978796807,0.05258193696194099,0.053020078344064386,-0.06567976129366422,0.01286530143128876,0.09892446452774965,0.026225360360398593,0.019684668960289538,-0.18058015474968883,-0.11596734321605652,0.09460807054490977
275.0,0.10613349874454013,-0.15668557028823712,-0.26281906903277696,0.026355004459089955,0.18448528187516564,-0.20876754320647042,0.04253813950042239,0.07699860356067877,0.0007795373103110749,-0.13222062432137868,-0.13389075795436906,0.1418487131343035
276.0,0.0956838429925146,-0.13441858381582686,-0.23010242680833884,0.02004306694673894,0.162861444672603,-0.18165815919329295,-0.047910356100439554,-0.00036955307337725,-0.041131728835051305,-0.009962728751762483,-0.042946547138261106,0.03919794854297592
277.0,-0.06733689005554819,-0.03002598503012345,0.03731090502542667,0.048009934628319324,-0.05261415222226622,0.003302221852308264,-0.055418550867259914,-0.08573495939171717,-0.061807292597443296,0.06439640835364438,0.01839656790111888,-0.1533775743845974
278.0,-0.10907842348225891,0.0798786501752,0.18895707365745695,0.013410543880682697,-0.14959324414883507,0.13400302076152826,0.0006126063211981711,-0.04050337353579386,0.0015200674490297482,0.12553525166643023,0.057942490231882325,-0.19300363862123668
279.0,0.02802292466195772,0.15587126103649301,0.1278483363745314,-0.0920910121629382,-0.050055019902995865,0.14195709154174346,0.028675375564973522,0.067338844249821,0.1041490892417644,0.16061091076040976,0.13348799413341783,0.0026900135731487067
280.0,0.12638039693290676,0.1174789786625519,-0.008901418270355075,-0.12082697318159653,0.06846021565641308,0.05433272086850092,0.00966778546041734,0.07336830959846076,0.09900778372634633,0.026671611493374322,0.12463294550872135,0.1850039270394491
281.0,0.053409328170801296,-0.06545501672060292,-0.11886434489140049,0.006896086990015174,0.08707534723509691,-0.09258582781199302,-0.01288556957589008,-0.025550501687993055,-0.05271292840996074,-0.2338757022028242,-0.08702718202619135,0.11560477003397743
282.0,-0.07476585560232576,-0.2171856419322285,-0.1424197863299008,0.14547893708309365,0.03355083862295005,-0.17996260392057117,-0.015488673431684741,-0.07728345377159208,-0.17176941711141858,-0.28452663167346026,-0.2850041200885574,-0.07218493733992462
283.0,-0.1119665844081519,-0.12710562810991125,-0.015139043701761437,0.118435736530373,-0.04969500057423246,-0.07037279854111922,0.005303051549062086,-0.012601906501560282,-0.07698203348153003,0.029122802845938767,-0.1417592476207148,-0.09062859630190571
284.0,-0.05432657001113623,0.11401019451913341,0.1683367645302669,-0.030030551948746115,-0.1119509746570072,0.1419499265415323,0.04036144821844096,0.06188429962998549,0.13774536155625053,0.34200678170525434,0.2210760218520474,0.03607142484858328
285.0,0.041261546265585446,0.1980992501966656,0.15683770393108012,-0.11887097065766732,-0.05699197133516508,0.17698768169561133,0.03538648730954462,0.03544096618429864,0.18764522916959,0.23518323982728426,0.3099352946261856,0.03743997401387467
286.0,0.12878903663242822,0.047334349645367035,-0.08145468698705917,-0.08752965418557304,0.10615462718421077,-0.018319239379908824,-0.04437699660865204,-0.04501442418039688,-0.013148519265887136,-0.14211891292763956,-0.005858746733250683,-0.10591757211014309
287.0,0.12634246212649788,-0.09414327811458079,-0.220485740241078,-0.016444291602716533,0.17342800233310124,-0.1575862807992112,-0.10257867863498872,-0.053528122313156255,-0.19878288763017474,-0.28442575224761707,-0.2653431406600383,-0.10315495746410469
288.0,-0.025431900343519085,-0.07120070502581714,-0.045768804682299144,0.04786990604115762,0.009496943360115896,-0.057389506780323174,-0.018261096438661834,0.024038812537425278,-0.1107934912305382,-0.06678801802884586,-0.12519942950051433,0.1250705610225529
289.0,-0.2040000644992967,-0.01996416727566593,0.1840358972236301,0.11206784161320782,-0.1943742348439746,0.08289574755742368,0.12401297622766899,0.06897734034451829,0.11856772371538332,0.13365926716054852,0.1251495129613706,0.23974397283106463
290.0,-0.17792985722020208,-0.046743443793791355,0.131186413426411,0.11251723269132415,-0.1544686677000748,0.04176015411669027,0.11138717140824073,0.009775344277620853,0.15672196562797736,0.06979333128181724,0.08577958078486277,0.009241015635105404
291.0,0.07120990837489435,-0.017742055833700695,-0.08895196420859444,-0.02688240952061395,0.08015827369271457,-0.0541899563692663,-0.05722830752943894,-0.06617002615989485,-0.025092474514946735,-0.0370384649540605,-0.09222918733157605,-0.2699416198338151
292.0,0.2571859808568856,0.13340025625128024,-0.12378572460560514,-0.19534119999143776,0.19052847089981875,0.0047746357259482956,-0.14139840493912498,-0.044250189884295785,-0.12561073669366732,0.04496696340239756,-0.02733478019582435,-0.190233871887821
293.0,0.14853434253325615,0.1747680029253163,0.02623366039206022,-0.16128902342838383,0.06138785267260435,0.10091829119336299,-0.0347213249171427,0.0404904257907384,-0.011473796579719612,0.13120340555835538,0.17801209930399142,0.1369415885833392
294.0,-0.11196840429016687,-0.05902897075650066,0.05293943353366687,0.08566527599330426,-0.08222078756166507,-0.003023430734488409,0.0795098995425933,0.058729066593561474,0.08452082832684159,-0.03461880204085082,0.10519356759065583,0.2441683658791943
295.0,-0.21352176591269098,-0.28671474694254406,-0.07319298102985285,0.2496347074136823,-0.07027545938877032,-0.18007048600503361,0.0516513944599093,-0.011387090354996215,-0.00856191774799895,-0.2619479483848076,-0.20720239694378317,0.018285625171320458
296.0,-0.09450499106463824,-0.13138003047619543,-0.036875039411557474,0.1125125337549258,-0.02914360430325569,-0.0838224890664227,-0.010316167095444131,-0.05547836661453002,-0.09568096156500869,-0.15684831994369486,-0.2597845069857347,-0.1606754741157522
297.0,0.055111433277353905,0.24984094384005465,0.19472951056269985,-0.15207895358282417,-0.07000858431018948,0.22251580831487622,0.012178125256070255,-0.006857442634700916,0.021131807854478345,0.20949120403926125,0.07689236986913936,-0.04937691639034577
298.0,0.12152844430261181,0.3052476285942962,0.18371918429168435,-0.21272905278568321,-0.031092159619914156,0.24398589188106495,0.025418651291353598,0.05303345472297518,0.1529190745543186,0.32827987234471245,0.308525828081093,0.09541102211071237
299.0,0.1345938543770418,-0.09022762097934801,-0.22482147535638777,-0.022324473801267595,0.1798600904023956,-0.15810922052633491,-0.05767351126497708,0.02692548596597986,0.03248194691304673,0.013943131729082752,0.10130526700249513,-0.0033474663313121074
300.0,0.06407004054625387,-0.3783871553184874,-0.4424571958647391,0.15642873633051624,0.2535701014643949,-0.41009960668949363,-0.10195403011055781,-0.049229439623503804,-0.1860368429731976,-0.29457281419358405,-0.20041860587247376,-0.15006533949347453
301.0,-0.12991053387543172,-0.11610314577084742,0.013807388104583353,0.12283925887607379,-0.07161409779221196,-0.05034922351364902,0.012699089185342415,-0.06110934593831191,-0.1394457189007455,-0.1908710381895101,-0.1623320899213115,-0.021897071016793248
302.0,-0.25557355955548317,0.33128354825776807,0.5868571078132488,-0.03724695895697389,-0.4213899094049998,0.459139804739511,0.1336958023774932,0.01777983641133377,0.13209928211807098,0.11681916730798045,0.07118141840890253,0.229174809745471
303.0,-0.07153076605822163,0.30281801492795296,0.37434878098617363,-0.11524698597041112,-0.22339327903486428,0.3379150508868024,0.07178285085755796,0.08495499233538567,0.21889917810279752,0.18507224722674984,0.10492605301814137,0.1760197139557649
304.0,0.25240594636902736,-0.16777588794511003,-0.42018183431413614,-0.04266713567207718,0.3361380150181683,-0.29432758517548896,-0.07344669245914581,0.04557393479927715,-0.006248086439049754,0.005987395958495368,-0.04173750285746101,-0.16685298555429845
305.0,0.2669646884276229,-0.39534979961793987,-0.6623144880455606,0.0637378495561799,0.4648694222406729,-0.5285194288902821,-0.09030466575165486,-0.056312358007750564,-0.1974567489875201,-0.08522068341132079,-0.059256783282306824,-0.31073320641365315
306.0,-0.07339174905930045,-0.0637595021830795,0.009632246876222016,0.068668335029133,-0.041380440768009674,-0.026746230633823104,-0.004495262246484835,-0.09245546261704393,-0.09999294259899442,0.0021594512595525684,0.06952595390477756,-0.03990610568693611
307.0,-0.2916500445783871,0.3293549348462015,0.6210049794245901,-0.018492415136398554,-0.4563403078913714,0.4751546348659263,0.022449599147490718,-0.021816061346299598,0.08771042994334684,0.040829806666282865,0.08222471159601953,0.2604194144891486
308.0,-0.10364750392786057,0.24204321089872963,0.3456907148265882,-0.0691350550842048,-0.2243915694276426,0.29380904657580664,0.0021335743024460865,0.06428138354072223,0.0998527485012672,-0.0480022067273102,-0.05580454508736693,0.20232731351521807
309.0,0.175977227771736,-0.14019165474072323,-0.31616888251246267,-0.018116087274055035,0.24637249735847042,-0.22817439393129138,0.04086991419928745,0.07820122456637783,0.009235878500455928,-0.06759887776263843,-0.10018666297945035,-0.0641803470755488
310.0,0.1611475351945302,-0.2581220713573432,-0.41926960655187495,0.04835990993258224,0.28971001343163116,-0.3388672813635286,0.07599869856342398,0.029481886434720137,-0.0018682250192114285,0.05054364471611205,0.013262023554610182,-0.1681277244805143
311.0,-0.05264600521295536,-0.02235541691153476,0.030290588301423473,0.03761414525474159,-0.04239868676432214,0.003764732880298533,-0.014407496780681362,-0.03890642972028115,0.006939311501181136,0.09276361309655169,0.06437284892216501,-0.06977610210353341
312.0,-0.13246827244798035,0.14745534691682666,0.2799236193648103,-0.00731265007895572,-0.20607521752983757,0.2138715816115361,-0.13101000778305205,-0.0965294610198104,-0.08200293148211538,-0.037932753445686446,-0.02590962861140908,0.014765597064800899
313.0,-0.017393276300714137,0.03938739268068098,0.056780668981394875,-0.010972355299558001,-0.03580289189362196,0.04848023161445025,-0.07653417934244756,-0.08014281725307752,-0.1289070235590448,-0.10838164196546476,-0.04776208768931809,0.02381314890631767
314.0,0.09041248374041035,-0.07043252903019495,-0.16084501277060956,-0.010196114338475521,0.12621835325179084,-0.1156500183805907,0.09477532480057604,0.05027044003897383,0.03852002225836797,0.03728530174842518,0.08248866753716867,0.054664242718959435
315.0,0.06408777356378999,0.0350150144244965,-0.029072759139296352,-0.049798553077568905,0.045535341485905934,0.0025380809843548505,0.13432373268987705,0.16869335580724606,0.23043305317053037,0.15943498155099903,0.12186200058665808,0.08836308248180605
316.0,-0.037445357518771934,0.12373291229595243,0.16117826981472666,-0.04307988075931571,-0.10037604891603835,0.14228643070858338,-0.007392903307738295,0.0862743723966066,0.12180371084239565,0.010105773824662673,-0.06815539386509568,0.02188137433205877
317.0,-0.09672910296896713,-0.04158352465236216,0.05514557831660861,0.06958647359263936,-0.07544026883243293,0.007138230566227806,-0.11103458921279136,-0.13334377597770986,-0.1874688031792231,-0.20941778767153585,-0.21575148774435213,-0.09147242333719367
318.0,-0.04773582925612801,-0.22095833309707485,-0.17322250384094606,0.13464035129790183,0.06383671937771916,-0.19681185740047544,-0.04428613847508446,-0.19088104480820775,-0.2576261584012328,-0.14092497362267395,-0.058864809323087824,-0.10040673696017917
319.0,0.06873102661336448,-0.07571633137849153,-0.1444473579918577,0.003161283731919842,0.1065167104981564,-0.11036049888321028,0.05505687554198222,0.005836003131060036,0.017782224990003502,0.14647438226480247,0.19451381248443936,-0.0094356007714903
320.0,0.11867498232404922,0.21273658575576712,0.09406160343171667,-0.16634344315919986,0.011386536857006925,0.15300685963854424,0.035004788736645885,0.1731404173482415,0.24088435815616877,0.25117580283326874,0.1782572254855209,0.05083300774915321
321.0,0.027643152302969057,0.19958149417992604,0.1719383418769575,-0.11371532147026671,-0.07228991339319746,0.1859268305853631,-0.03495667481397085,0.08802292990143931,0.12704605623556287,0.04169786356606258,-0.054971979893650824,0.05247463908856668
322.0,-0.09759880485974201,-0.08690705707908508,0.010691747780657776,0.09287734008140595,-0.05335416249186846,-0.037563085889599536,-0.016615152312866876,-0.07606631994960683,-0.100150111552209,-0.19422313926227597,-0.15530033797772377,0.05714054522430785
323.0,-0.10514502887088423,-0.20189357720492263,-0.09674854833403804,0.15408217710708522,-0.00385907590130995,-0.14921155672571887,0.052917126038943635,-0.07231595217252673,-0.1267986935113663,-0.1930283956279115,-0.04788949418275828,0.03829383636417606
324.0,-0.0055069674620457825,-0.024796050790303316,-0.019289083328257767,0.014969374065231146,0.006244168578074608,-0.022604868157039795,0.03653411741361844,0.02028094685540567,-0.012525177807532775,-0.010591014390738264,0.027303045678661972,-0.06112237192268883
325.0,0.07539589833384994,0.10731925963290839,0.03192336129905815,-0.09197855545279957,0.021154409382427138,0.06911411478422315,-0.05671068669165778,0.003656218934863698,0.024302145856970842,0.14778496847578668,-0.005334397279821492,-0.1435041982103991
326.0,0.07983696745674003,0.028533214131534326,-0.05130375332520586,-0.05450841017159327,0.06588979226499261,-0.011145133005929175,-0.07747150384177758,-0.057595779827644036,-0.0009826901332406798,0.1629994473775023,0.030732573921483992,-0.06019435690071775
327.0,0.03188314006715645,-0.037983914359778895,-0.06986705442693589,0.003238474825935987,0.05154550244012186,-0.0532207537186736,0.017430837387366387,0.009165571371541713,0.037980255423170434,0.040323927462919004,0.13893594511361593,0.1180001065642267
328.0,-0.045118866599983674,0.026473771712319013,0.07159263831230261,0.009728664845060693,-0.05823802216215886,0.04934269646788973,0.08964611813662197,0.11698390617707165,0.07973783233172735,-0.11706824186229833,0.07489726396096036,0.15881513089405538
329.0,-0.10088900695635364,0.041607346114020415,0.1424963530703754,0.02997718199503317,-0.12213029871047602,0.09162970183571209,0.03678450037732128,0.05720344135013604,0.004573851147332374,-0.1579766042539875,-0.1702054062106659,0.011261153688992805
330.0,-0.050748849202473995,-0.05091989658577847,-0.000171047383303271,0.050874712553976575,-0.025652374355425344,-0.02618093054608644,-0.05623547970385187,-0.10478924137729712,-0.09719899895106728,-0.03621029335181059,-0.23465243389988374,-0.12059066204710985
331.0,0.07687910530283636,-0.05597618490402735,-0.13285529020686437,-0.010883733199676856,0.1049013976318225,-0.0945974020709038,-0.06236153777367474,-0.11953108444610064,-0.07053976618608848,0.10030319105156742,0.03678073050789726,-0.0890091927870976
332.0,0.10660601022410417,0.0507437766340993,-0.05586223359000624,-0.07928396236370293,0.08148115022584339,-0.002170059789640764,0.004778222275461155,0.024014080516672476,0.026877217573102397,0.09395580564321875,0.26983741399063943,0.010674368947797792
333.0,-0.023239615203764472,0.039612854754912094,0.06285246995867608,-0.00821043786749107,-0.04284358791660124,0.051801848821244514,0.04661141914758535,0.09975792594652164,0.05117552448973034,0.003672362046165424,0.126720846368737,0.040484500253730106
334.0,-0.10864963671914603,-0.09174920103827408,0.016900435680872912,0.10097589549008426,-0.06271358001565674,-0.03716179324280445,0.030537368787702437,0.035455589660939174,0.03078533699989425,-0.011387293049143904,-0.15211827615622708,0.025519795205710627
335.0,0.00944816617118774,-0.05147439465162887,-0.06092256082281585,0.021662610574198483,0.035068528349063065,-0.05653383771153773,-0.006058886919456245,-0.020189975901673006,0.04536319619053808,0.021425699413744285,-0.15872330246732566,0.0419777727816245
336.0,0.1330334372978264,0.1624463779433796,0.029412940645553352,-0.1481418788373248,0.05155446087036728,0.09517977391944288,-0.033427436624035876,-0.00975846395463546,0.016695197906618157,-0.048166703049482174,0.029537522430708698,0.04577101369753118
337.0,0.0033390035106097495,0.15248941512163988,0.1491504116110302,-0.07886823689486878,-0.07304570739724255,0.15043026772753373,-0.03457601249934842,-0.029015425064442567,-0.10520167188729665,-0.15481053264102745,0.06611727836424364,-0.032976718735918294
338.0,-0.2061474435144707,-0.16102642485247232,0.04512101866199739,0.1833885848944665,-0.12541805314469465,-0.05733565567473354,0.003899887077110426,-0.06829806122537832,-0.13684904568344322,-0.05616054626842266,-0.034028944877498565,-0.11604949854520206
339.0,-0.10438878693620521,-0.28427472127556497,-0.1798859343393613,0.19510859684611614,0.03809021029464368,-0.23102484579122587,0.04923631667044905,-0.005606737299363708,0.04717010266862696,0.2063387900938875,0.0010147751825572682,-0.0664727589519959
340.0,0.23036606663497794,0.03892552567162535,-0.19144054096335383,-0.1340327639791386,0.21085893332995734,-0.07616629571031368,0.03906463881858376,0.11261661700610408,0.21029498128703403,0.24641494118205476,0.12422352189188292,0.08204207933750587
341.0,0.27616950798409945,0.3232299501065062,0.04706044212240724,-0.300021243896899,0.11414110779623678,0.1839860881466551,-0.02150836854478002,0.08938339459557325,0.08698870944726281,-0.06736740558956056,0.05104166947597892,0.14256757784287455
342.0,-0.10166873876964014,0.11507887529364512,0.21674761406328766,-0.007374724309565792,-0.15935073128006325,0.16502143010110315,-0.05646680118568666,-0.0748543839006004,-0.16006798232273028,-0.3169888210503027,-0.15818805977200798,0.03327894156492695
343.0,-0.36701533428064415,-0.24076719596592794,0.12624813831471704,0.30376505259588604,-0.24624290281304936,-0.056636103217683954,-0.030740308799444144,-0.1424682711557888,-0.1806833135939661,-0.14421559219769747,-0.15082469924327765,-0.11065269854379076
344.0,-0.1247817938134384,-0.1826096167597932,-0.0578278229463569,0.15412889073101269,-0.033166757651711835,-0.1189747856402388,0.018804096058440904,-0.014834521391757442,0.0221703044017515,0.18730640296111478,0.08507378792022857,-0.12072217662464466
345.0,0.26319713218693147,0.13648498859248306,-0.1267121435944508,-0.19944528678988102,0.1946788113974796,0.0050530921986270206,0.05575670250515305,0.117400851523497,0.15403749039468606,0.22208644377303188,0.17474373851128233,0.001336105119431551
346.0,0.25787268925580875,0.16133297753304232,-0.09653971172276647,-0.20964129199050202,0.1767928132870646,0.03145804802508196,0.05521213526661002,0.08369779935883795,0.09590253561519602,0.0021307938147985843,0.0008813117537824314,0.10890114411034933
347.0,-0.051816225971914404,-0.10152037191756452,-0.04970414594564787,0.07626203027906578,-0.0009607682700580431,-0.07625728661169372,-0.013002082419313735,-0.036254530464939386,-0.025423310205849037,-0.11206877127298559,-0.11674424746472725,0.08840767352894636
348.0,-0.18851461035355863,-0.14759626684534785,0.04091834350821179,0.16769732806967483,-0.11434113636072696,-0.05308067896676459,-0.10339106929380786,-0.08336355379048144,-0.10628284714105982,-0.05785947734122985,-0.003904660286549756,-0.024592248441103935
349.0,-0.05733711411734643,0.10943410420477544,0.16677121832212172,-0.025912692460878035,-0.11203271586787492,0.1385880369502491,-0.08096949604098208,-0.03663083040744194,-0.11183112530379033,-0.036262338188010515,0.08558696268632454,-0.09665445848958566
350.0,0.03313030361041503,0.1975112062119967,0.16438090260158156,-0.11477411372207062,-0.06587171814811282,0.18116000037683608,0.07323721281867519,0.02657962018982454,0.0029986207045414634,-0.04962378815642542,-0.037179261407611165,-0.05235895538243537
351.0,-0.019436843148562127,-0.07043701162438797,-0.051000168475826745,0.045221086126951436,0.015829683475162552,-0.060605945658385584,0.15714058369070455,0.05323516431493439,0.16135129984891855,0.05043813648059204,-0.14318453343578938,0.04086050948966695
352.0,0.00199827364107293,-0.2596077224580114,-0.2616059960990855,0.12843032960652734,0.13205662270954338,-0.2606715799425125,0.02595376573037719,0.03220195988016264,0.13793837585929677,0.17052298997574386,0.003722075099021406,0.06832015536061889
353.0,0.13767236479512915,-0.045793907388982626,-0.18346627218411207,-0.04648872954220218,0.16039702953405607,-0.11518141656227013,-0.14975503746542895,-0.018101352845130304,-0.09262858002632457,0.07896659970102442,0.20758544948288082,0.016769474958226088
354.0,0.1241826289608318,0.24582918648639,0.12164655752556008,-0.18505120652670184,0.0007353803887981844,0.18318155419479953,-0.12127033063358911,-0.04729989719939242,-0.21461769258900268,-0.1528593251557588,0.13478196076384616,-0.03153426319763626
355.0,-0.1119957367131138,0.1744809649762697,0.28647670168938477,-0.03081889952006898,-0.19922835515400614,0.23084070867635675,0.0580249435092598,-0.02380248825973823,-0.03583240590785222,-0.2059557180054096,-0.1489128121333994,-0.029601363627323372
356.0,-0.24576524489189253,-0.13156403162204244,0.11420121326984897,0.1890142815761322,-0.1791598559298069,-0.0076455975024829525,0.13397640389912202,0.01701662820312511,0.1773303165631238,-0.001159305931915952,-0.25947600179764496,-0.01009510234439658
357.0,-0.05255241976781155,-0.22406933981669902,-0.17151692004889094,0.13829275293061927,0.06005644350774193,-0.1974640649013203,0.04303935393712789,0.029139246418941996,0.1213460721697187,0.19202491883443124,-0.04334674553848691,-0.0018019072746363262
358.0,0.20947989841491374,-0.02248910307546689,-0.23196900149038052,-0.09376650405801182,0.22008285166262806,-0.12810629875734952,-0.05345191982078481,0.020706644367882845,-0.07069973745669537,0.15104599809232158,0.22588888985157102,0.013739041477000407
359.0,0.18430347129821745,0.15562260859336427,-0.028680862704849285,-0.17024505573602475,0.10532290852258008,0.06256817006710598,-0.06464079763024423,0.008580905715494002,-0.10457765089712573,-0.04232100569329251,0.2245946818776168,0.0390788356714449
360.0,-0.056227197105838476,0.12106085917855457,0.1772880562843962,-0.032483084096947785,-0.11690842713405299,0.14937328566775193,-0.044852445176344,-0.022565643684300554,-0.005737473280505012,-0.16590552876199782,-0.029750994975925992,0.02770640719843283
361.0,-0.1677964974517931,-0.009220443353210282,0.1585760540985797,0.08873623271542004,-0.1620493251797192,0.07554575067094943,-0.010661598007164026,-0.05429119482813161,0.02399074312002647,-0.1097139902393352,-0.23568935925196652,-0.03714054413213849
362.0,-0.05598575131746097,-0.09951042122992877,-0.043524669912473044,0.07804151786134432,-0.005206200609566619,-0.071115918510652,0.0669638417382159,-0.02166686517738989,-0.0057053023371775894,0.05085536383869785,-0.17134634802659612,-0.08032654072920266
363.0,0.06248155616258894,-0.12111706436320561,-0.18359862052579545,0.029356773877257596,0.12273686016179422,-0.15270132729385966,0.10785808159388559,0.06066527757606907,0.026005659180907758,0.14197905060027002,0.06998170695282639,-0.02194243462975203
364.0,0.04917527972825284,-0.032262574432910265,-0.08143785416115899,-0.008677066172299217,0.06409860270322416,-0.05733105775730343,0.007109988168893299,0.07447616344280486,0.0627945275437742,0.0691972796392299,0.20974648314529204,0.08852404705433375
365.0,0.0035585004267152547,0.14625788867614598,0.14269938824943448,-0.07511172436117501,-0.07030945544101175,0.14434826210400573,-0.13274941284878114,-0.015130279792689027,-0.000873027056299809,-0.06407766914024701,0.11308117303714153,0.1052700868170313
366.0,0.01661630537208075,0.1899415874974928,0.1733252821254114,-0.10327877490694105,-0.07788202793705143,0.1817988360785156,-0.10376917950010654,-0.08093389602970534,-0.07747665444073475,-0.08868742624975638,-0.07694207053388621,-0.019394240834493304
367.0,0.015380804833964267,-0.046554074075766796,-0.06193487890973448,0.01574293300694904,0.039808397751179336,-0.0540403111485367,0.06681182798762438,-0.03673108533626837,-0.04345651376828585,-0.00891870871612066,-0.14955214608273537,-0.14153384502907634
368.0,-0.05208736669744109,-0.2732727425079501,-0.22118537581051176,0.16282032694813398,0.08515995155471691,-0.24713000106462849,0.13433803908359182,0.02979687693465195,0.028815430062580222,0.029654255853618708,-0.07315901818503909,-0.09363506080546954
369.0,-0.07248338793676415,-0.11283994518549051,-0.040356557248726575,0.09262488950979882,-0.01670132887563146,-0.07662121959418389,0.019898135296657772,0.03128564572323943,0.026444524638622884,-0.003286331153255635,0.036570556668290545,0.08295586985325924
370.0,0.034260539876676724,0.24278112926219744,0.20852058938552298,-0.13869539152343952,-0.08835277320979545,0.22555469339729053,-0.08572390946455775,0.01993789510384314,0.007053129144386636,0.004356550155769318,0.09402666167409103,0.16495584903734217
371.0,0.11706465910232232,0.24111640409959334,0.12405174499727326,-0.17912752059306636,-0.003831462954740288,0.18250441588369146,-0.050854075770041154,0.03592215189117456,0.04309465389017851,0.062407176408809065,0.0825894607853683,0.03652082468450408
372.0,0.01274595078604114,-0.1373173957687356,-0.15006334655477524,0.062493499464417,0.08242208271024103,-0.14368743156036748,0.0212638214602392,0.0024348145477899345,0.04017210948890348,0.036943118550471124,0.0038960078763182284,-0.13794283281755262
373.0,-0.13625677595292754,-0.2946223308215411,-0.15836555486861367,0.21555343204592586,0.012119640474022544,-0.2264629743557055,0.02135713563463687,-0.09007691998567735,-0.06989048907732182,-0.08128456803556723,-0.09061793825311576,-0.12613284844204561
374.0,-0.07057895323217935,0.019239480562364186,0.08981843379454048,0.02542492927372125,-0.08049200545353184,0.05448212121353223,0.00092151350699162,-0.09032880053190076,-0.13084094742406463,-0.10331827440236105,-0.09297841077187376,0.04595563755653231
375.0,0.12775391930672406,0.2866744131845726,0.15892049387784665,-0.20747014840085912,-0.0167614223396394,0.22275574683812235,0.01623975108442511,0.05787916900092423,-0.0006063495216367469,0.040208322897508905,0.015582334832995403,0.13220990256898815
376.0,0.12620525620651313,0.0799592675859267,-0.0462459886205842,-0.10291004945998669,0.08582419902229023,0.017030481561131565,0.014246126660227452,0.1561504313274886,0.15832837203619995,0.13222408165261162,0.0924415538943786,0.028222747615021086
377.0,-0.08919714947827011,-0.24361423994032685,-0.1544170904620536,0.16677433171590225,0.03341831197812942,-0.19876307260221282,-0.027768523252549294,0.041822961206222746,0.10089594595718303,0.009133845577918442,0.03459089455271499,-0.08813815763288127
378.0,-0.15736208133843754,-0.15888413803092774,-0.0015220566924897456,0.15816426259480884,-0.07719513474125318,-0.08035245968899465,-0.02983298436802369,-0.13045569986987804,-0.09033354463307061,-0.13248957546379242,-0.04759325201231135,-0.04745889142030402
379.0,0.039921264621726175,0.1737428900201679,0.13382162539843878,-0.10710996987502913,-0.0472726119344358,0.1532563422278179,0.028602552919139917,-0.11633062266105743,-0.1245243092324852,-0.03901564325658375,-0.01704456384802608,0.05746686110856963
380.0,0.15880031336299047,0.2159359621279869,0.057135648764995106,-0.18759321315407088,0.05014276840001844,0.13642725975170927,0.03980050411588708,0.04221267670699327,0.016869231594537428,0.14526330463656262,0.04381284077082462,0.04736536154300283
381.0,-0.007174708440932554,-0.07519300965162862,-0.06801830121069523,0.041141829622502624,0.03041041863979161,-0.07096793079919257,-0.03755179401582049,0.10665872719353794,0.0683407028428582,0.08628990571899378,-0.009819452114577661,-0.049861753411210304
382.0,-0.15965040398446995,-0.23560188750048805,-0.07595148351601709,0.19776884850129542,-0.0413433964478391,-0.15533126318897902,-0.07038764656421309,0.02108250770893733,-0.03266119637031958,-0.1540215911907688,-0.08943003731257695,-0.06532877526650971
383.0,-0.021356371681661494,-0.044500483578251086,-0.023144111896589294,0.0333000381276662,0.0010551660004849525,-0.03437018275220849,0.030882412789628493,-0.04768166556473264,-0.041090174002569216,-0.17512789869575107,-0.01603988477474311,0.025649143736100975
384.0,0.17465526810422188,0.19641868075542923,0.021763412651208278,-0.18528220513366003,0.07610678625194238,0.10838367490676373,0.12118667402804627,-0.016748071717652916,0.10614467449473264,0.0923844167886222,0.11955260797279703,0.07901673595355517
385.0,0.08753092729909234,0.15858797151328807,0.0710570442141962,-0.12347470062318809,0.008005304069005213,0.11518216755651259,0.02766454667016532,0.01216214181596761,0.11938443600507691,0.24212068915906126,0.07633568377747776,0.02392602631295819
386.0,-0.15615945778176102,-0.08595627033782743,0.07020318744393252,0.12032647084570311,-0.1129814896566628,-0.006981309743488213,-0.140338531399093,-0.019106972434003985,-0.11216420559996673,0.047190444126950074,-0.0948809673476792,-0.04729041470419904
387.0,-0.1820647491365998,-0.2199819109361447,-0.03791716179954661,0.20111115410754588,-0.07179334432867777,-0.1290479256334328,-0.11955932893299631,-0.024226558152204185,-0.2372118023481574,-0.19237875998320703,-0.10871684890707062,-0.04801999507424024
388.0,0.045788913764934686,-0.07760004850111489,-0.12338896226604983,0.016873179216304202,0.08455198602968957,-0.10150827283619522,0.0847268631397166,0.034485975742232285,-0.006824109396838386,-0.15994652834836737,0.05024536051360757,-0.009502713356726946
389.0,0.21458026165965494,0.17792917519994744,-0.036651086459706037,-0.19585814157555834,0.12534930805259906,0.07035817738034134,0.17201481115983136,0.052743818210443764,0.25736514758916146,0.030128708046790433,0.09528676434067385,0.011296779411837612
390.0,0.12314940363492834,0.22680617944764014,0.10365677581271293,-0.17584163145304607,0.009615428947084627,0.16616576656347953,0.01245648539839709,-0.02068756280567233,0.1569418266159443,0.1265273599094894,-0.03740806151435308,0.021085733459846656
391.0,-0.10894573743720781,-0.024859653639210503,0.08408608379799741,0.06614114927952768,-0.09636148893419964,0.03028346324282327,-0.14214050817364873,-0.06910639191351192,-0.139365270584353,0.11136655518709188,-0.07716556372600038,0.03892324235730662
392.0,-0.2246906078080189,-0.26922133752967947,-0.04453072972166126,0.24753877641189445,-0.08985182640473559,-0.15745745914960932,-0.0699476496705293,-0.003753824817873672,-0.19645836166928973,0.046419317314911585,0.057549178294878205,0.0336990193402159
393.0,-0.08659105899953595,-0.16337729191793468,-0.07678623291839867,0.1259264217186428,-0.004895941897783692,-0.12089606989501842,0.07335097449386074,0.07285388388223785,-0.006247814160785211,-0.09469006323168479,0.09140656671733326,-0.025038653012312086
394.0,0.16965529673067106,0.1667373153233705,-0.0029179814073006212,-0.16848006541234328,0.08605426225303206,0.08207578985356023,0.05425578970017218,0.03309802348569762,0.0998157845905729,-0.2152935975643099,-0.07341747622759023,-0.08545824433115427
395.0,0.22935057445723994,0.2647453520622469,0.03539477760500653,-0.2480812153329504,0.09682349399362837,0.15072123697361506,-0.04185603191766606,-0.0627738753215404,0.04389056384406956,-0.08270387357555975,-0.1316520865525831,-0.05418064051000156
396.0,-0.009638138562547806,0.006581370384361365,0.016219508946909354,0.001470900652125718,-0.012742898999399645,0.011396553303171849,-0.01390151296013641,-0.0662850799919388,0.017911070121484476,0.23228725966708458,0.061872838733235354,0.059894333795121164
397.0,-0.22955649771967115,-0.22080652177608692,0.008749975943585299,0.22620085994538996,-0.1188532620797397,-0.10651165798372633,0.06570533223310118,0.02464976426618917,0.03745839960642638,0.28614926059921675,0.17424884510095076,0.11530404474245234
398.0,-0.11895370046897534,-0.11900054518680579,-4.684471782955659e-05,0.11944855553032512,-0.0595406341438785,-0.05944679005900388,0.009547708643389854,0.07742776702770834,-0.038856440137709024,-0.0754485228653741,-0.024207939124051153,0.02460711581929457
