Time(ms),I,II,III,aVR,aVL,aVF,V1,V2,V3,V4,V5,V6
0.0,0.2403777321217134,-0.20044411586039554,-0.44082184798211005,-0.02049385332347715,0.340502294843202,-0.31992260908963566,-0.08056193578820049,0.08299993089027119,-0.046776309799058474,-0.042413370008455194,-0.05433461871897861,-0.07890150680866898
1.0,0.24737507186551663,0.13052568052114616,-0.1168493913443741,-0.18893741192672836,0.1823411234826872,0.008598574462007427,-0.13739385726508146,0.05571137171729573,0.12240504961292628,0.1363639135067989,0.10511861595017008,0.10008769345570781
2.0,-0.1195822680300939,0.16707470212108083,0.28665697015117325,-0.022831556896162113,-0.2029574478559268,0.2272564825323813,-0.03735070022473559,-0.0937281424763145,0.05273960558422139,0.11588771914304286,0.1543528654134883,0.17805966383161365
3.0,-0.30903392109007066,-0.014796418331622523,0.2942375027584524,0.16268588753689403,-0.3016804136234745,0.13838363185502717,0.09048993900865353,-0.11633446391248291,-0.0872466513856937,-0.056206650302956906,0.03454876244763194,0.07589775700955008
4.0,-0.05702002434966928,-0.01058254012558356,0.046437484224091545,0.033217714382275276,-0.05171047236570276,0.016938358883396776,0.08435126451613321,0.03340532466664839,-0.03719914597287022,-0.1117294040361402,-0.10331758154921164,-0.08725285320724553
5.0,0.27413176417101087,0.15427973637751968,-0.11985202779349129,-0.21547210159498353,0.1971180774097322,0.01780013695563896,-0.030284183522821924,0.13934276314746924,0.1069504499016087,0.009962513533717148,-0.10064960100597777,-0.12569161248911515
6.0,0.23038704423213704,0.04127916034568225,-0.1891078838864616,-0.13595614220874483,0.20960206244951962,-0.07297011128996822,-0.06176740816838592,0.07890441684466815,0.0846358109294126,0.08636973832026999,-0.008031653416290897,-0.0397348701292399
7.0,-0.13084005915704033,-0.33846272949090406,-0.20762267033386958,0.23585512956394103,0.037958445672697204,-0.2730907414540094,0.03735126763383029,-0.03976399995759079,-0.07996498523592246,0.0002747792828341591,0.034084741781455916,0.02004793883262524
8.0,-0.31994542809107096,-0.3407971925719287,-0.020851764480855937,0.33104059522988355,-0.14956927713369164,-0.18138963846678413,0.062416625897729894,-0.10701209885007291,-0.14185732309680713,-0.08328342432842557,0.027782393429853586,0.023013941167413236
9.0,-0.06889199629286018,0.24796644433634762,0.31685844062921587,-0.0903908999982151,-0.19218263697055127,0.2823011123959733,-0.08285177806783614,-0.11781005340158704,-0.036195297201499485,-0.02529675309771164,0.04955784089142777,0.062332216271226634
10.0,0.27409868036789814,0.6277526158962903,0.3536539355283965,-0.45181401317207287,-0.039311947202400326,0.4908810495395884,-0.1478665337459188,-0.04013328726597969,0.07979367594269916,0.06658596884771421,0.05385276223607384,0.10134782689594724
11.0,0.21758987910501582,0.13143270695935697,-0.08615717214566224,-0.17394461885947843,0.15121455295727132,0.022609172700539176,0.06190853782475706,0.14470750172797647,0.11032075890183823,0.05627650278185506,-0.034937427696971946,0.004624525312327914
12.0,-0.13559418999789502,-0.6031939847285774,-0.4675997947306903,0.3703853681622413,0.1650437104843602,-0.5353632737812409,0.2621766942549852,0.2504643770086276,0.08249741807273762,-0.008445332061615149,-0.11861261846999595,-0.15587254454062108
13.0,-0.2399313996168103,-0.498253315933995,-0.25832191631718737,0.36872409368809966,0.009462376747943655,-0.3779550887819597,0.07845535728881518,0.05192798122227062,-0.00537557479159506,-0.03311946498511538,-0.051255613897615966,-0.13763811684845537
14.0,0.02497105038995621,0.29409902578064945,0.26912797539069727,-0.1606790890511406,-0.12085133023582582,0.2816627098155612,-0.2842643788340837,-0.2894300731708021,-0.14310352015291328,-0.031119068407182513,0.09244467552150779,0.06972536155840621
15.0,0.18642250055288923,0.6101863468344843,0.4237638462816018,-0.398230318330311,-0.11832434994599629,0.516386390092086,-0.268539945466829,-0.31400756154102494,-0.18324071748621676,-0.030721191772344555,0.11019975260472989,0.18409241940237248
16.0,-0.0036095462882259244,0.04977856530894652,0.05338811159717454,-0.021846774075599457,-0.029582448705556503,0.05114836971227947,0.15224591058463352,0.07273613647835551,-0.01248957417685862,-0.003467435791101616,-0.012469389753074704,0.05853167247476565
17.0,-0.17418257322261127,-0.5001385821106437,-0.32595600888803494,0.3375165205015522,0.07498026221001762,-0.4125404434792114,0.3719597319976703,0.3775736588525056,0.20550490129198482,0.039475831696173025,-0.09895527541533886,-0.11288223151021938
18.0,-0.010737776765702315,-0.27758087901669143,-0.26684310225099417,0.14306683496091405,0.1285762219637983,-0.2713489591812175,0.07041399585019537,0.2024071684487247,0.207354323601148,0.04416154749876073,-0.05580808895978311,-0.1155830867205248
19.0,0.2125208740950808,0.3038607952375882,0.09133992114250444,-0.25893888671341836,0.06170023829277865,0.19763173079698224,-0.3028166356554034,-0.17987929659767812,0.0007485319990599626,0.02614870740451928,0.03895443528895625,0.005949455046565749
20.0,0.11531276337289112,0.4003028651900661,0.28499010181717604,-0.2570998458371582,-0.08460004800367052,0.3417630912166313,-0.23807598616795422,-0.26688474612838325,-0.17421159721387777,0.01705645258731786,0.08256634046369703,0.08738622827748557
21.0,-0.17629744819619855,-0.0628328640035675,0.11346458419263664,0.12050176146083741,-0.14565094065742476,0.02460739838369136,0.10366311615676085,-0.05527104176190305,-0.18507620769687247,-0.040960313573158144,0.03881946498401791,0.06492112975146552
22.0,-0.24812351671335972,-0.4119761870677953,-0.16385267035443238,0.3298319361941996,-0.04294521347715633,-0.28763233049074177,0.23747181749781907,0.09189369344567741,-0.07782324516561752,-0.14128723091757436,-0.05888530454397768,-0.019363821239101905
23.0,0.0018956600040488244,-0.1997563656734533,-0.20165202567750326,0.09804780219241291,0.10175953479994077,-0.19977464305577736,0.07683165779255743,0.07825722775558752,0.09206745754580954,-0.09449793349621403,-0.10304494340874833,-0.08417344041132002
24.0,0.25384727628846354,0.25338044882829186,-0.0004668274601750493,-0.25388101706351635,0.12797011236652678,0.12703378722972955,-0.09054520699004182,0.08584369183429003,0.2438626981873938,0.15483716627639563,-0.010734778049442254,-0.05202942080195766
25.0,0.18920478254701395,0.35164437334391796,0.16243959079690187,-0.2698452616987454,0.014184742612924036,0.2566483693916366,-0.10739937124677226,0.09984174967701724,0.19665429717154223,0.28134363535228774,0.11701015306803947,0.05721923014855974
26.0,-0.11072657887858962,0.017174769925138837,0.12790134880372903,0.04741531165530916,-0.1195258979115855,0.07155324699357841,-0.05420776205817366,-0.05325428427956204,-0.10140283520458193,0.021433414404044105,0.08920654621576204,0.10223859655319352
27.0,-0.24969372675971674,-0.2703851288670462,-0.020691402107327478,0.2600120853381811,-0.11556747050156206,-0.14604700947045512,0.0018286220963576521,-0.24558563196977592,-0.3514031800810302,-0.31913079732777566,-0.07250362531027812,0.004857220091827738
28.0,-0.038421296856175916,-0.18557277449324822,-0.14715147763707065,0.11128151294824416,0.05382749306974092,-0.16578198783274914,0.06347516520179047,-0.14576075100274064,-0.21275958351242039,-0.24722466968610424,-0.12851933070623892,-0.10628889475277521
29.0,0.20456768950838083,0.05044313206163001,-0.15412455744675002,-0.12813064169359883,0.18002369441072158,-0.050836112912554916,0.0916456290076857,0.18921013754463278,0.19464120052790662,0.15405723720284065,0.008106936451544266,-0.07024436863432881
30.0,0.10257694156879386,0.11860227052940664,0.016025328960611655,-0.1102224303962764,0.04410006595266305,0.06754258424949024,0.04085851243000466,0.30048513785051884,0.3805393628628108,0.3261644211888845,0.12277519942919371,0.0600891248075395
31.0,-0.17320633489895707,0.06275501994227839,0.23596135484123273,0.05629108407892979,-0.20470176626630981,0.14863128877188275,-0.05015070926770801,0.014373511145482774,0.11455380266156112,0.06379622519598448,0.03982849528704181,0.09853875141092946
32.0,-0.15230453521341872,0.051268885162374746,0.2035734203757934,0.05078259032976054,-0.17844934598333553,0.12675569857256686,-0.1056982232104912,-0.27681965887507715,-0.26831836201451076,-0.22677801392544858,-0.10157699131900466,0.004187118731073267
33.0,0.1555487799577056,0.028255380313754824,-0.127293399643949,-0.09298005014297532,0.14145738557553145,-0.0494082182773379,-0.08377092426894882,-0.19362942158864058,-0.3033729050014812,-0.17150448519315498,-0.07875173989711101,-0.07734445271624757
34.0,0.25025801361637395,-0.08841009227442825,-0.3386681058908013,-0.08176144007620688,0.29462198699435865,-0.21310685786012531,0.021007637748271277,0.11020686484482266,0.01665381370404865,0.07392412865730552,0.06825884472070298,-0.04461281410461295
35.0,-0.044648846181427455,-0.1545536627292728,-0.10990481654784658,0.10036896042090385,0.03213108958201923,-0.1321118050341294,0.1437883636702413,0.23010944251997312,0.26791629587706733,0.14919033774224905,0.11606175699055887,0.030236562750141978
36.0,-0.29831498509795784,-0.04226891966504128,0.2560460654329158,0.171433798758978,-0.27763653121699844,0.10686889164539243,0.14417333944583738,0.07204923525681851,0.16692925017817756,0.01923650133608076,-0.0001901239005892781,0.04208782398446857
37.0,-0.15615432673079918,0.11315463487237512,0.26930896160317647,0.021095794876439564,-0.21194989824267088,0.19143406014785408,-0.029693276841507188,-0.11794175810030709,-0.09841826607371852,-0.07390977627200551,-0.11196433223298527,0.007351779144372045
38.0,0.1670603144763237,0.14112111209790923,-0.025939202378414072,-0.15535180416589173,0.09785073199055118,0.05766745134024358,-0.20515829729646753,-0.14608263247269967,-0.18908207451126463,-0.030626366910828776,-0.07679513917976062,-0.003708881649761
39.0,0.27293669359907,0.0661060572865982,-0.20683063631247506,-0.16943438483335618,0.23976036483930346,-0.0708588863599711,-0.16239523123286728,-0.04916402238741951,-0.061664353733792414,0.014856557679398912,0.03876718532550488,-0.004813818110988387
40.0,0.08764381559601245,-0.04289556945316121,-0.13053938504917625,-0.021041659163434714,0.1071743811337494,-0.08730951946469405,0.07075650070893642,0.0637821062252305,0.0792346252104957,-0.012587725453194136,0.08526276547035296,-0.04177275805551557
41.0,-0.1708209661188583,-0.16514299564475332,0.005677970474107736,0.16826591853397754,-0.08958810111985949,-0.07953159948007951,0.2332501207656893,0.13028358947100827,0.11249245335274072,-0.01156113750481162,0.0377238119627871,-0.05451046159931483
42.0,-0.2549422071715839,-0.17350868131223124,0.0814335258593582,0.21294239384777794,-0.1669428524318095,-0.045133196192272386,0.14098913268500002,0.0955311801189596,0.06535942582762162,0.062062551949720636,-0.011298366623792853,0.04160324929272146
43.0,-0.06466870121405936,0.054179642982752456,0.11884834419681214,0.004541821876456887,-0.0892722860535289,0.08701975179103281,-0.10498204583173301,-0.05223466295543368,-0.031035186069465738,0.07529363314652283,-0.01880865299595506,0.14482065278183612
44.0,0.21353235334477264,0.29141405392661324,0.07788170058183415,-0.25150474988148375,0.06834648192029837,0.18411641290442965,-0.23208402380491222,-0.176105839544678,-0.128590551397462,-0.04716232811652634,-0.036562800775645304,0.053295810467202484
45.0,0.22816482869322963,0.16356646287371154,-0.06459836581952227,-0.19494827032582582,0.14412839538259686,0.04858982924718152,-0.09477585026592716,-0.10309396552083748,-0.10789285404436824,-0.1504072534660657,-0.07429599578665246,-0.17826044006927763
46.0,-0.05786031785950169,-0.21467439547147749,-0.15681407761197327,0.13574445151569714,0.04730190733175066,-0.18595637212409222,0.14576268990346408,0.10406080019945933,0.054201130138517385,-0.06575889620184973,-0.041828793587764146,-0.21682055619965007
47.0,-0.23284740251993072,-0.2988514354387623,-0.06600403291882699,0.2650967523453504,-0.0827168116310571,-0.18186113554331002,0.19372104600348375,0.17796670098379225,0.16928816237973515,0.12450472354309995,0.0901443027458692,0.06381638830443022
48.0,-0.047961832223850046,0.04511349814263412,0.09307533036648508,0.001759509848165264,-0.0679591485838215,0.06967499160583937,-0.0012718295400128852,0.02842323626115146,0.08387855184505566,0.1900617672365712,0.17327856354156995,0.31578294629987963
49.0,0.16862974763741229,0.2925516877755314,0.12392194013811687,-0.23012762503673517,0.02336276035431376,0.20831377714564928,-0.1624254007582092,-0.11822996668666662,-0.08335313762653224,0.046266685369608776,0.05693236507126453,0.17190496992683743
50.0,0.06536787457712329,0.08142127308241948,0.016053398505295326,-0.07395581452647881,0.023029664858564294,0.04847257629153392,-0.07820010170733098,-0.07880469531102657,-0.13376576772607912,-0.16573827590426427,-0.1682411869410805,-0.21198793695536816
51.0,-0.13987156227155595,-0.22849261523050096,-0.08862105295894405,0.1836569063249543,-0.027397552461524914,-0.15888720091742348,0.09371845935805431,0.023020257613856652,-0.06470062719711549,-0.2335943129566062,-0.2375711373814696,-0.3496617272840661
52.0,-0.0719476945442255,-0.15189112733930019,-0.07994343279507475,0.11273794970045016,0.004341887460243851,-0.1162282785434295,0.09110540792137845,0.022686301336108727,0.024916461076302503,-0.05611566216588637,-0.035320922642768544,-0.06967962464245316
53.0,0.13957728857713092,0.17156420007445541,0.03198691149732252,-0.15454083442221492,0.05526405509713799,0.10173136496181936,-0.04973680670103475,-0.004497723486994209,0.11169209057924473,0.23261738249966254,0.23678074370966798,0.28875218054176094
54.0,0.1174459980673605,0.2310465433292902,0.11360054526192988,-0.1748230143996003,0.0022890222850713723,0.17284910437368814,-0.09405989494934448,0.04489432083640835,0.14546074010845816,0.30999972957759736,0.26329105917177253,0.3156843163646695
55.0,-0.10345017223789527,-0.07519587329757382,0.028254298940324087,0.087849766712382,-0.0666785977247364,-0.02279643597945307,0.00891199099881073,0.058731939768407175,0.009448907993099226,0.010685859415050862,-0.01698034283141913,-0.008193588480735505
56.0,-0.16766766939322167,-0.30874694338332653,-0.141079273990104,0.238027974899864,-0.013712122083067792,-0.22508251974663968,0.09219764146822228,-0.05069165178962193,-0.20984259391911375,-0.3579031378123919,-0.294255336807253,-0.31747210204732673
57.0,0.011108823728824753,-0.1193727465570366,-0.13048157028586463,0.05542362329803589,0.07127935367044153,-0.12598102551780918,0.05079842472163009,-0.10840693716398568,-0.19713856858471981,-0.3093386256661312,-0.22670096555662778,-0.26587623203797545
58.0,0.16644627584471045,0.2695500687535007,0.10310379290878775,-0.21714125773618823,0.03201424021475571,0.18581197476015676,-0.04817457125839216,0.01758879406174938,0.10269184702716616,0.14004227081752446,0.11091393214076177,0.08434356023785956
59.0,0.10129610897755617,0.3371267743694993,0.23583066539194608,-0.21972872538488034,-0.06766235213445884,0.2874286561527951,-0.09247047099026603,0.12169002066915786,0.2873658795591403,0.4118302222543535,0.28806528827758526,0.3176429259459357
60.0,-0.09116639235983508,-0.04686318794258278,0.04430320441725626,0.06813927000996411,-0.0682236688193392,-0.00011846487614490166,-0.034799003231814174,0.006766415492973468,0.08079501437680739,0.15425070637307417,0.09569727862715849,0.16752914971378835
61.0,-0.18091726085140633,-0.4000159238330109,-0.21909866298160546,0.2902344442111569,0.019214795160195742,-0.309969437871573,0.0712562287156895,-0.1295442487524903,-0.21421430017060145,-0.2575738514444834,-0.16708744923929703,-0.14678115741229394
62.0,-0.04396468554948358,-0.23960613029097735,-0.19564144474149683,0.14205043702076633,0.07645561894363587,-0.2191198652618933,0.09733732170717645,-0.030043911306970466,-0.18851552889956927,-0.2847451985260642,-0.15337557283746628,-0.2351289803535436
63.0,0.18059389703381748,0.23040808316899788,0.04981418613517832,-0.20511930346497403,0.06584643776567309,0.13974260657322138,-0.0063053216589555134,0.14278584746617415,0.05789919133011967,0.022127557191492966,0.032905166577699714,-0.05637933789603922
64.0,0.19080015843184397,0.3742911974423099,0.18349103901046676,-0.28214032365416175,0.0033697733824604244,0.2802520568733605,-0.0990594496296135,0.08039536132932536,0.15410133127970124,0.20155998731761895,0.07960589643712769,0.11226834314522126
65.0,-0.07817568012647615,0.031931152232918245,0.11010683235939632,0.023208659637274025,-0.09506986605796447,0.07213448080215715,-0.03864523579096914,-0.12121433771634187,0.04835926468334757,0.09169483319559123,-0.010887485974361845,0.11683939412534285
66.0,-0.2721611029995667,-0.27769658441331746,-0.005535481413749486,0.274335372665228,-0.1338403245307152,-0.14235891068731532,0.07262051542904718,-0.12918822596641252,-0.037322898525727524,-0.05543767344431434,-0.012834866580142977,0.045133986528093764
67.0,-0.0881140390963773,-0.16961818077815477,-0.08150414168177723,0.12815435552935148,-0.0025179601266654716,-0.12706856854586354,0.04164253607164921,0.05097723231596515,-0.038947343011204026,-0.05972815891746215,0.06407298987122823,-0.027554106859954613
68.0,0.22926286296979245,0.08825606880348115,-0.14100679416631193,-0.15855235715356336,0.18642861156846982,-0.02653060510998805,-0.07396972294657339,0.11668923535760702,-0.050914339560298505,-0.009454180456908295,0.026261618768988252,-0.09972513431626204
69.0,0.2201738032824752,0.1172356741069581,-0.10293812917551841,-0.16769698403596986,0.1615220755146159,0.008468230937565923,-0.05104013843878266,0.003761963724650987,-0.04632774602372785,0.004006338049311866,-0.08609732412016398,-0.09293303543847975
70.0,-0.08662186381451181,0.006736347017066471,0.09335821083157783,0.040382602801232154,-0.0914592678098045,0.05097921835518021,0.09548195566333402,-0.05504111110602126,0.04728235961863466,0.006629726948472188,-0.06295638445996501,0.048004201668628614
71.0,-0.23384274111818762,0.0008592886210142053,0.23470202973920104,0.11569706091582929,-0.23506644881709632,0.1171720226527728,0.10758657920994524,0.01577937319153587,0.11485081751549091,-0.0010521477574233365,0.05401970675714319,0.14944289120858448
72.0,-0.05150422083371772,0.03029150372741522,0.0817957245611323,0.009669544187043444,-0.06560444438883942,0.05486068413255168,-0.07176893897822695,0.033021353271943686,0.021488367218334414,-0.03134389667991271,0.0464549144097691,0.028782944578791585
73.0,0.13954528642211683,-0.046369138289001605,-0.18591442471111708,-0.046371461164468816,0.16392474151326522,-0.1163716946820765,-0.16886343992474748,-0.060814526681035506,-0.10523103748150298,-0.003132007768232403,-0.04227160901131045,-0.14516108674753092
74.0,0.09030292719709566,-0.09423503397925036,-0.18453796117634236,0.0029915079773595154,0.13693590243730117,-0.1385865405017839,-0.018289950003716342,-0.0845203370632109,-0.07090659562854447,0.09713975117747163,0.0019908030640455906,-0.0795440280026835
75.0,-0.035908626848141306,0.015176280133451566,0.05108490698159522,0.010786596497795484,-0.04467457245800819,0.033808883212819635,0.15714013216849287,0.034202101285398995,0.04079022219354476,0.08125663034497796,0.0998596183816059,0.12565060154212535
76.0,-0.03074084586998205,0.10034117589901066,0.13108202176898992,-0.035478008997309095,-0.08076573481971501,0.11558810916095377,0.10091879155869467,0.11846917946554802,0.039384356657898516,-0.11787779818199831,0.0042063093716509375,0.11709344920643895
77.0,0.016680830958618997,0.008984812684879535,-0.007696018273745669,-0.013648310583930538,0.013280128742378078,0.00014203019855015315,-0.07648194201562238,0.05035457458901137,-0.010205059390955529,-0.19979606466136493,-0.16894333335862122,-0.09770142492636207
78.0,-0.035099032719883204,-0.0728013688451388,-0.03770233612525777,0.05401414597634536,0.0013556054795063866,-0.055539831270114026,-0.10066096580768122,-0.04947714016902315,0.04423488976561828,0.040547696273689024,-0.08692089716719689,-0.15427288252048257
79.0,-0.0805962781942682,0.010353325323757833,0.09094960351803064,0.03590970011864485,-0.08687108342639382,0.05062926393608522,0.023495619203492107,-0.06005108138547359,0.07910046658415222,0.25918340885252983,0.15879343827706935,0.036252461645551515
80.0,0.01853243743248697,0.06935656024350453,0.050824122811023976,-0.04341373134193542,-0.016510196614018775,0.06023241288893164,0.05710897380638351,-0.04268719183238096,-0.07682935187006741,0.07468733179399466,0.15806478417691225,0.1539558774044033
81.0,0.13306457038628672,-0.03496093919091803,-0.16802550957720352,-0.04939779040326432,0.151549290250995,-0.10113133704728662,-0.05085213920559999,-0.05725224818170795,-0.20858012477145957,-0.22822347574036073,-0.07787411230481184,0.04183053121510562
82.0,0.06812557663920545,-0.08567532344215188,-0.15380090008136238,0.0079547482060962,0.11172703128761158,-0.11939650754566566,-0.08110137905950392,-0.0094377654667912,-0.013601700241071407,-0.13562642856241042,-0.13022048442171702,-0.07511766668931079
83.0,-0.08997908081038362,0.04485179378057767,0.13483087459095638,0.022255741226263847,-0.11301551792187448,0.08961393620330842,0.07083427042099752,0.14275377620807767,0.27915333560189326,0.17940731017514103,0.04319526504915283,-0.05360262985817876
84.0,-0.11728655751793417,0.08863127780424417,0.2059178353221784,0.014976230489636661,-0.16255308312789724,0.14657851680299522,0.1830925741071005,0.2030585381369967,0.17750332412676645,0.13739522705908763,0.04756077644123475,-0.03755918443093311
85.0,-0.015498732282993097,-0.08285889981196629,-0.06736016752897012,0.050030420773870196,0.025977720182650484,-0.07532274204416191,0.03520285170283774,-0.0055913286692194485,-0.21759293799408047,-0.1862423248811739,-0.13608521246881136,-0.06353811844729887
86.0,0.05153676347838863,-0.11656029430488128,-0.16809705778326772,0.03242742191740211,0.11053204691718375,-0.14166817880039362,-0.2179295575623441,-0.2923522416483831,-0.2878993150849535,-0.16171246992789387,-0.06183652242737925,0.048042416243561446
87.0,0.057754092494659875,0.15526538871592743,0.09751129622126725,-0.10750976966055692,-0.019567118018525783,0.12697019537395507,-0.2232082495577001,-0.27858094684644646,0.08254067160500708,0.22355164768986613,0.2684287206137498,0.23302910627643356
88.0,0.06609122157555317,0.2547430222350608,0.18865180065950746,-0.16101314439902956,-0.0614829528298679,0.22135664814548406,0.06455115398836343,0.07416488497903885,0.28338589811646897,0.26455285657331584,0.25038024616896215,0.1343049739766325
89.0,0.02422078308257057,-0.1346561447048406,-0.1588769277874102,0.05587524581468484,0.09135218701973197,-0.14741280607175178,0.28981466572981573,0.37353067233702864,0.009755295977185982,-0.1917544161266969,-0.23792644273517702,-0.2478644665100506
90.0,-0.09647413937114872,-0.4556522001634811,-0.3591780607923324,0.27709746103135124,0.13118042487711778,-0.40739370493677285,0.17478488024360406,0.29227385314563936,-0.22722834391080007,-0.38666460920875734,-0.466373882851625,-0.38604090789090323
91.0,-0.12916971445441272,-0.11445717775143803,0.014712536702972312,0.12182770295848473,-0.07223327119396947,-0.049434207597035824,-0.11863844020111107,-0.07012154467877671,-0.02559284691428846,0.04240379470930814,-0.03395084270149186,-0.01749528788902142
92.0,0.01641667885558836,0.46560899735527217,0.4491923184996826,-0.24197864837714764,-0.21633598288551636,0.45747247138872776,-0.24819065933765283,-0.3799621635182046,0.20328849781771627,0.3954723396155313,0.4328106256269013,0.4006664990246276
93.0,0.12256243386624759,0.460653252190683,0.33809081832443644,-0.2922433775811083,-0.10704728105029666,0.39921178403576096,-0.13395211891329395,-0.3881432744806235,0.02453550393527075,0.12673031933120843,0.3209099813081965,0.3674551441929227
94.0,0.026539788495931145,-0.09629617998717611,-0.12283596848310428,0.035274815137052114,0.07522153855945632,-0.10944222682193616,0.05523195607836207,-0.025608145905488093,-0.20791559362759982,-0.24184792440403632,-0.0687761839227617,-0.015209194379692892
95.0,-0.054350655820441594,-0.49867278070559884,-0.44432212488515577,0.27729180341250775,0.19434885907240368,-0.47143164912752,0.19034003022247198,0.49225203602481665,-0.03943392463309982,-0.13958924309686496,-0.25202403827462133,-0.3682994303569136
96.0,0.06572872640899545,-0.4131691538049273,-0.478897880213924,0.1740170850632282,0.27117539788207096,-0.44651549717466826,0.20586232010721223,0.6101697126464054,0.20004276944712301,0.06798301672374357,-0.29949359482535415,-0.4743620663385801
97.0,0.12296160063486948,0.0038784403726503797,-0.11908316026222106,-0.06371786997489572,0.12104014408537829,-0.05794388527999489,0.01482816208040404,-0.02895643115434412,0.02928866556430186,-0.050237453086831974,-0.24222818387868467,-0.16866940229369853
98.0,-0.1294908367469805,0.5232463335890217,0.652737170336001,-0.19741841476539543,-0.3898404844712277,0.588689759351845,-0.2745766762283646,-0.8224193455036309,-0.21404164477201837,-0.08871313263020517,0.2171537213237594,0.5053782922142083
99.0,-0.3470005609792118,0.6812008286215346,1.0282013896007471,-0.16752686535508393,-0.6868826414530212,0.8556497959671368,-0.2678018758666892,-0.6512419443811899,0.010133251617187566,0.25733655169997405,0.7338017860420101,0.8333008037476747
100.0,-0.07558551430736185,-0.02096753053892104,0.05461798376844183,0.048340201738722034,-0.06596464840099055,0.01639154474205297,0.15102857266014943,0.48365629148638933,0.3257431457252765,0.3310215623345266,0.33525911646999124,0.09668904388690074
101.0,0.41467444917874274,-0.9842541014011845,-1.3989285505799258,0.2854748563329853,0.9056881903087859,-1.193119146171741,0.40401731577774114,1.0566335159219027,0.036664328249432436,-0.2664685160245791,-0.7593417030722844,-0.9957463067611044
102.0,0.4378465109154747,-0.7114942121718126,-1.1493407230872874,0.1375317776015883,0.7938341761720769,-0.9308060942799902,-0.00849488542209148,0.09091737829797954,-0.48956551653333696,-0.5947852034372707,-0.8731553118918527,-0.8326003291673344
103.0,-0.06972561999887206,0.7926639830313243,0.8623896030301936,-0.3616054130656596,-0.464986246878004,0.8290990409984721,-0.5317323726658142,-1.109801627380955,-0.2785773912006723,0.10228893030161153,0.4215387184219289,0.57553597848872
104.0,-0.4776464365287083,1.2877292486129432,1.765375685141649,-0.4059919546825987,-1.1212540658900871,1.5279402439760186,-0.21481680599753908,-0.652135047390933,0.5073312644886039,0.7602094171840454,1.0984283211481332,1.161946197615299
105.0,-0.39707481345399176,-0.38503412411315446,0.012040689340840644,0.39033123868529124,-0.20533498468610964,-0.18734374777525595,0.6801417760557034,0.9551947269671841,0.6165326324376752,0.09178243226722346,-0.14860323987622476,-0.07648996905308907
106.0,-0.04054442356590558,-1.8194362639667834,-1.77889184040088,0.9302938335823187,0.8686346695694817,-1.8010772748669428,0.7739922779011708,1.284637405162649,-0.25933765550512805,-0.9608595339067114,-1.34130979013305,-1.2120005328297105
107.0,0.33252059216703855,-0.35676807089257745,-0.689288663059622,0.013111948463595677,0.5112817641016315,-0.5233404970766925,-0.3900773513967475,-0.36519070561791483,-0.8028733004690981,-0.45405919122138194,-0.19269963345537497,-0.2936294998615117
108.0,0.6112203064283774,2.2772582067079163,1.666037900279535,-1.443574624073356,-0.526809504163401,1.9732084882891532,-1.3961961313450173,-1.7360429858219233,-0.09108551991393392,1.1842456615284445,1.8070437481469084,1.3504520987353137
109.0,0.4547870981208529,1.8941541676302187,1.4393670695093708,-1.1747825016233773,-0.49223530059595416,1.6679367050417373,-0.7438645815690651,-0.8747042113662893,0.7913673604878384,1.3196642315856282,1.2782888927245804,0.9837334048216082
110.0,-0.40239987310759406,-1.7127559533646484,-1.310356080257046,1.0565640331364148,0.4536118511158354,-1.5121188516161255,1.0569992479877761,1.0960177503971311,0.3247822329632629,-0.8405969710380479,-1.6442044360985815,-1.190739968850598
111.0,-1.240853405343336,-3.692489193031132,-2.451635787687799,2.4659746056633858,0.6050770640969427,-3.0732588131217407,1.9648717431522051,1.8065487662724284,-0.8614775741462087,-2.44957571674647,-2.930959938213919,-2.070493923611299
112.0,-0.7527632373920468,-0.7660315675232408,-0.01326833013120299,0.7598187408969693,-0.36984619036147187,-0.38999412962091873,0.7580593421246116,0.800015758662205,-0.634552009379028,-0.7303433953246232,-0.26919714668964473,-0.11228256760596356
113.0,1.001770038948683,3.7856580885834408,2.783888049634755,-2.3925981357855655,-0.8909198605248092,3.2852548673657873,-1.57188768498328,-0.7337320697285862,1.1200407708855455,2.6714371407296986,3.3919464698863067,2.394108433746914
114.0,1.9428939369725249,4.04274335941342,2.0998494224409026,-2.992300782420327,-0.0780627571931202,3.0718176822392342,-2.663376079407167,-1.9714442120467766,1.551777424162606,3.1094098826398677,3.3190225658905437,2.2517561703552564
115.0,0.4633713843967301,-0.8553775562856517,-1.3187489406823754,0.19536022347630982,0.8914517838397028,-1.0867894667107159,-0.993503990701782,-2.1805559965327084,-0.9276877923110144,-0.8780834573421882,-1.0387583201043118,-0.6974783754994581
116.0,-1.9263784433089024,-5.235708795367659,-3.3093303520587596,3.5800977853964944,0.6912823158659329,-4.272496643352492,2.252255761777103,-0.04111479492170081,-3.0765862563396316,-4.598147031373446,-4.867700971903486,-3.288695056157265
117.0,-2.097554690104966,-3.5361628203172875,-1.4386081302123255,2.8166746322684513,-0.3302252785568936,-2.4877799032962082,3.6446507624344173,3.7071445465117714,-0.7483810360119524,-2.5608941633422284,-3.199236116246257,-2.3604037462616025
118.0,0.39496825374439454,2.72644444908734,2.3314761953429435,-1.560134354531404,-0.9686869386546729,2.528322288193493,1.0048441548153915,4.464957651162241,3.945584779327255,3.5739546412324237,2.8160704272134964,1.6108596175979415
119.0,2.4080624260201295,6.040686014187622,3.63262358816748,-4.223789751698102,-0.6117817348970457,4.836496008032087,-3.3189829742343173,-0.7644889484260122,3.96340824349776,5.724854127788116,6.0931504070272275,4.257844988346422
120.0,1.4846915124182487,1.813682160114651,0.3289906476963986,-1.649053373816125,0.5786888590743543,1.071978044945552,-4.3124836227852725,-6.754011266781331,-2.2837894534340086,0.0354361511798538,1.8652409328065187,1.913781616256313
121.0,-0.9107110166879092,-4.9903277359261144,-4.079616719238201,2.9502451417120064,1.5846147776689277,-4.534228535176136,-0.39007668115837535,-5.0315329215422535,-6.717324103287363,-6.479351897827117,-5.182059250701581,-3.167437620047246
122.0,-1.9294413888128927,-5.253919137712733,-3.3244777488998256,3.591225606765689,0.6969277929211233,-4.289197584203993,4.088494205689576,3.492053881063741,-2.266197633952684,-4.538536372814103,-5.80622591858044,-4.519678775668107
123.0,-1.1501974470544365,1.7612514908290926,2.911448937883531,-0.30584670972507927,-2.0313817948202173,2.3356754549210095,4.026288571432615,7.958030026756119,5.976252192744587,3.8912533600674113,1.1754297387870585,-0.0022675860734385584
124.0,0.19156641032365776,6.189197558302424,5.9976311479787485,-3.1902540359463436,-2.903071276761742,6.092799582560639,-0.18768948148739142,2.6492416745114977,6.886287648982799,7.317981440026601,6.351524476386007,4.373891170780183
125.0,1.6519411971567561,1.3903351879423853,-0.261606009214381,-1.5206206158060946,0.9570813818243145,0.5643161619676951,-3.7307087252253144,-4.760265021737136,-0.954820923387642,0.9280458284950056,2.8191916996138477,2.591031581886781
126.0,2.487188629298177,-5.398362921864259,-7.885551551162428,1.4559929658821469,5.1867584743114215,-6.641454894129083,-3.388149966066357,-5.108685880946491,-7.246742983140049,-6.3151436079266805,-3.765265454662997,-2.333917571561361
127.0,0.5634051786686002,-3.5579284610865893,-4.1213336397551785,1.4971572247976639,2.3426569012229885,-3.838937754857821,-0.21595173943507767,-0.6093038843392874,-4.59520519398555,-4.839048155501808,-4.083074827789692,-2.983793655642811
128.0,-3.631358979941444,3.920550935714641,7.551909915656089,-0.14506653142956047,-5.591769363245442,5.736525728304831,2.8367840322497355,1.4395091855830853,2.313422332629375,2.053386139780062,0.7431656751381367,0.7416970435050462
129.0,-4.457524862513919,4.8199072866896016,9.277432149203515,-0.1815985942281328,-6.868102290760259,7.048135110221068,3.4755691630587293,1.2025494426847898,5.1860120385728905,4.663443138691711,2.4487594418894747,2.0253634803990725
130.0,1.4698016898051474,-2.198370567038311,-3.6681722568434605,0.36421243362252137,2.568555282186728,-2.934247235434355,1.0179344998064452,2.943258899905547,3.0440964090635996,1.6126705772682475,-0.08632840780868165,-0.8652474771106796
131.0,7.285509282010775,-5.190809093320455,-12.47631837533124,-1.047018298011706,9.881343810689225,-8.833918700439227,-2.662902299982785,4.009551759468504,-0.061351097501567274,-0.7861059638114773,-0.43201099818948985,-1.786257754212231
132.0,3.500291990961267,0.7823837602512124,-2.7179082307100533,-2.140731401336033,3.1098971425230855,-0.9669945119995927,-3.810631037142139,-1.1695466552406364,-2.5911188326841823,-0.6701444287052092,2.2043085427746814,1.733411332123746
133.0,-6.457604033643023,5.121382960301485,11.57898699394451,0.6684789543763168,-9.018238307830456,8.351281888809702,-0.8699795682275764,-8.149838274970014,-4.592527248460954,-1.872991448970996,1.164994855560235,3.277231407997235
134.0,-8.456308900908844,0.08003078348406827,8.536339684392901,4.18769350305878,-8.49705592501296,4.308419293577493,2.8489535350879813,-6.025932850273191,-3.4164742241851918,-3.8155139362890247,-4.179838757560225,-1.213086067487547
135.0,1.5825332069721172,-5.591776422849268,-7.174309629821383,2.0036454376737454,4.377987622544158,-6.383901148657095,3.07769281892412,4.872922001257515,2.438065910933652,-0.9957367592966438,-4.9843974263574555,-5.227939290224067
136.0,9.921063595363666,-1.6111410686711194,-11.53220466403477,-4.155303073469592,10.727030282181294,-6.572736419246983,0.1649498212019622,10.672703665093675,7.476497166956816,5.584194497792582,2.225349814235111,-1.7225318945842931
137.0,4.655810682008988,6.039564184588847,1.383753502579853,-5.346856102076727,1.6365382818573266,3.7114188037880846,-2.0392968202427864,3.39048105631128,4.6173995575968805,6.783680446685875,7.900902491983305,4.974483347434819
138.0,-6.524311144334747,4.837310092811441,11.36162123714619,0.8444808871513695,-8.943037591536598,8.100290730862977,-1.7586377730399771,-7.402394138952573,-3.9658129996620155,-0.8064370035519207,3.478983442749586,5.3209834504321645
139.0,-8.100051637233832,-3.918235192605522,4.181816444628319,6.0090430491435125,-6.141294194562692,0.13292493590128257,-0.4660807779057617,-8.385304569541843,-8.225640684835282,-8.092105122446013,-5.443159386504326,-1.2504937290985405
140.0,0.6763523602438356,-7.523122919055504,-8.199475279299321,3.4224972212994356,4.43782028200599,-7.860989133762539,0.634848927662733,-0.15415184559832967,-3.3732457744656137,-5.936356427507014,-7.532216904889329,-6.076919291480276
141.0,6.702370211590289,-1.334055755264655,-8.036425966854944,-2.6846041612448914,7.369534148308278,-4.686134119464233,1.6079782313734785,6.122869553248806,4.2715556488385396,2.3962837464711693,-1.2529816039910633,-3.595108620079251
142.0,3.2669999767474263,5.873946921544928,2.6069469447974973,-4.570155695495542,0.33010840770409466,4.239262527930341,1.608760361593091,4.521499962562952,6.307619478990181,6.9366451882586855,5.23564727916135,2.4933170087554233
143.0,-2.5592264526671467,5.665044475474344,8.224270928141486,-1.5525519283136233,-5.391698434319888,6.944434983782652,-0.4386191704246757,-0.6571732263352414,2.129295505037306,4.098364517458096,5.6989454764564345,5.321684403216358
144.0,-3.1301795811955473,-0.1587094678928725,2.9714701133026735,1.6444713012726901,-3.050737206982451,1.4072720212668948,-2.70473236178437,-3.2883802525448083,-2.678421161787746,-1.4531434256297244,1.187346288750317,2.579646115878974
145.0,-0.3243391041128896,-4.691247422014112,-4.366908317901227,2.5078395498412935,2.021205461305551,-4.528089243000727,-1.8045340911430376,-2.2213261470463004,-3.944873846752973,-4.490175195291749,-3.685888862199224,-2.4139861969510714
146.0,0.7497652653201401,-4.358453322001258,-5.108218587321384,1.8044886356537428,2.928667912815432,-4.733161148499351,1.7788350436681781,0.15735915151287136,-1.937702916812894,-3.6600487078171424,-5.017304193865104,-4.650769085725283
147.0,0.16383665782217294,-0.434872038979261,-0.5987086968014297,0.1353487434941407,0.3811177940394303,-0.5173968535345413,3.286991578199026,1.5547276209043792,0.898225293673044,-0.2625490199436576,-1.7515507703429427,-2.0715708410500473
148.0,0.5622771757555616,3.5114186955097284,2.9491415197541655,-2.03730021604767,-1.1930415243320311,3.229506536712673,0.3964312944065151,1.1569364852856394,2.434299760150715,3.1384443591215008,3.0824672873706693,2.4252571387643385
149.0,1.3292762184062938,4.118073643119182,2.788797424712883,-2.7237793289342926,-0.7292086172998995,3.4530684075141282,-3.0094492846630363,-0.18825320363183404,1.880197523061016,3.7008379329787795,4.537541441810393,3.9490905735650497
150.0,0.2928134650060926,0.8545321992258609,0.5617187342197677,-0.5732440967097913,-0.13452833406361478,0.7084323577802151,-2.316352368955775,-0.7693970973139825,0.06585365088561845,0.8672073669247721,1.267000435280133,1.1759371627537987
151.0,-1.6028044796622256,-2.971214953613538,-1.3684104739513085,2.287363879797171,-0.11794662943013795,-2.169063725142736,1.2513448816599149,-0.0742375899131036,-1.3465260390668898,-2.442283386014423,-2.689737796437874,-2.278178885553719
152.0,-1.6008496308200353,-3.5209024025880042,-1.9200527717679678,2.560755837279767,0.15911575999493718,-2.7199819882658316,2.782980695617636,0.519712090713542,-1.4446014110951377,-2.974654559153827,-3.127174714931367,-2.657762159456233
153.0,0.29877076865699764,-0.7405896595049101,-1.0393604281619075,0.2206697233852087,0.6695274498764383,-0.8902009115587745,0.7432160424866681,-0.04522421561595338,-0.6105810035209406,-0.8038850600510585,-0.5906542190093533,-0.40744033521814454
154.0,1.4948984312678393,2.096545034381309,0.6016466031134691,-1.7957564275015487,0.4474529378468078,1.3485080129367937,-1.6546284411899814,-0.7981169273029607,0.38447488885693987,1.4426077545593157,1.5465529810709788,1.4540184865096653
155.0,0.8412493673773968,2.5506285863902627,1.7093792190128618,-1.696000045053806,-0.4339391703868701,2.129696653111522,-1.6184860537388384,-0.3917600452486266,1.0561185700953994,1.968218736707264,1.7057359276066324,1.4499219639388168
156.0,-0.2539377730332577,0.9790416232397704,1.2329793962730278,-0.36274094504993226,-0.7441011764033397,1.1060052876702535,-0.021169528447978876,0.6839798108860152,1.0262722464259033,0.9921355695998415,0.7205504534389121,0.4039024258759804
157.0,-0.5590348243590669,-1.0090751729986847,-0.45004034863961306,0.7841716994293617,-0.05499112377046299,-0.7295593717797372,0.9679266847245431,0.9194315090838491,0.1471610581823164,-0.48243054439507593,-0.4280768950722733,-0.5847655376243763
158.0,-0.44826417324659495,-2.082694556171904,-1.6344303829253097,1.2660058475722573,0.5932534281315502,-1.8583182063426305,0.8346845037469945,0.06681013675613978,-0.9269963524209957,-1.4872865121885064,-1.2359220284255161,-1.0366276046854959
159.0,-0.40470201084496316,-1.459560839816213,-1.0548588289712506,0.9323329175655245,0.3254593216034319,-1.2564261333007556,0.28057340502801037,-0.7081779634386818,-1.1001860172154785,-1.2260544824304203,-1.0578689129682817,-0.6623525142217422
160.0,-0.08138946387118254,0.5126736049052091,0.5940630687763868,-0.21622299547298626,-0.3376348670869737,0.5538864928275529,-0.3108286104803174,-0.6022451650520546,-0.17201881450443934,0.17527399278511163,0.1774024596311399,0.36127902260265976
161.0,0.5930036938299829,2.016065859399478,1.4230621655694942,-1.3051301865566358,-0.415093432298834,1.7186815535000814,-0.7740203541776146,-0.008886412402063506,0.781904294321212,1.3087182387763232,1.199750405763119,1.016464874450559
162.0,0.8294599494036266,1.4509890805103525,0.6215291311067275,-1.1399359825011588,0.10397707105180351,1.034629655252817,-0.6548006306598536,0.35875353550091754,0.7633468065002371,0.9746807154804283,0.8241920790580997,0.5261399351668696
163.0,0.17318101079441783,-0.4975228895342832,-0.6707039003286982,0.1628992270788001,0.42188984838146865,-0.5843067771735638,0.14662763665277437,0.33677729151093216,0.05045858239522769,-0.2449392416080205,-0.34158138825237877,-0.471107295568658
164.0,-0.6701998273867122,-1.6448671638105667,-0.9746673364238535,1.1576104675264363,0.1520606054305542,-1.30791141915838,0.8491057851595534,0.15150204249933483,-0.41495023018989147,-0.8520576629813498,-0.8175360012256492,-0.7546514018230667
165.0,-0.7786849445391971,-1.0336690725095063,-0.2549841279703116,0.9056047255216639,-0.26187846121339264,-0.6426980589787019,0.675398209085478,-0.04416982902959308,-0.3335053685153368,-0.4656932231855438,-0.3370528399092547,-0.1889439909802374
166.0,-0.16052507296230803,0.27594318574461374,0.4364682587069214,-0.057970943058972574,-0.2983648110533856,0.35542565914805624,-0.12542416836555942,-0.20775723448412606,-0.1143218649421357,0.06725190326543498,0.1772364056125598,0.3367002253177076
167.0,0.46689808708953173,0.9793103877062066,0.5124123006166729,-0.7227682972059474,-0.02278070789336232,0.7436930334294327,-0.6751349150045136,-0.2566119075350606,0.005689127667787115,0.22879971944774702,0.2539776708729772,0.3323617159575018
168.0,0.5896836616750082,0.8380143531866587,0.24833069151164872,-0.7135906038406019,0.17060538981645157,0.5424095761891223,-0.5540857478888552,-0.12190854361712314,0.15776649113611318,0.28558645385085024,0.235130856387511,0.1306095858934685
169.0,0.24674970636389604,0.20140923882879874,-0.04534046753509664,-0.22425174050284438,0.14635370780165027,0.07942645597196364,-0.04624063170533058,0.11559179839958401,0.28898329047839977,0.3247854359388749,0.23507553216138907,0.015683641355305995
170.0,-0.21442992608906905,-0.5659798162594005,-0.3515498901703274,0.3900177260576972,0.06890713813849658,-0.45720343151637094,0.40609452197552937,0.26468803314615885,0.14114750601378906,0.04009488829134827,-0.04777739532188688,-0.1485213516066932
171.0,-0.44091409985389657,-0.9314075782401653,-0.4904934783862664,0.686228670177974,0.024326521108203988,-0.7109868375213678,0.5382969218921143,0.19763645936821944,-0.18802139379859387,-0.4206047431982516,-0.46247815683709903,-0.3391653528681507
172.0,-0.29936598242910895,-0.45535602079276793,-0.1559900383636608,0.37744447831450867,-0.07261037201374715,-0.30682745752311036,0.25501570680035923,-0.03343203242679107,-0.2818703600252186,-0.4390648275528941,-0.3991690594448956,-0.2190647357459222
173.0,0.028247437497211716,0.47160059555659123,0.44335315805937686,-0.24992019914268881,-0.20745676311369998,0.4566866207501464,-0.2683119830555247,-0.2315313114938944,-0.06664158519845476,0.04772472837604997,0.17785412014512184,0.21841391107178587
174.0,0.25114371201201086,0.8768306798220461,0.625686967810034,-0.5638907731755697,-0.18597802480961334,0.7513820998636807,-0.5602120352305232,-0.21800329998896842,0.11138502190540951,0.3834526568242309,0.5427432923541397,0.46505636582117177
175.0,0.27556485137171116,0.4095248544465937,0.1339600030748837,-0.34249495903792204,0.07147220033696848,0.2723405704812162,-0.3036975716278924,-0.006909275300714405,0.10234762588206606,0.23095337798335663,0.2693816891702068,0.20756321525173568
176.0,0.17823453542633436,-0.3009217070254427,-0.4791562424517749,0.06105955507664011,0.3276523690722722,-0.3894735879498322,0.22185525904140024,0.1893627541275695,0.09227709327241171,-0.02614377424633677,-0.21872721256579655,-0.23935853495560153
177.0,-0.02006849257893234,-0.5828953227205007,-0.5628268301415678,0.3011734755607824,0.2701106390168294,-0.5726729716424689,0.4504617016742346,0.17769708070302032,0.10275138068267874,-0.08177932267223863,-0.3724229764662266,-0.4082831406846819
178.0,-0.2927744118255815,-0.40676909498380714,-0.11399468315822694,0.3500314807625347,-0.08907370713042301,-0.26080953441883603,0.22728505963653473,0.0006639958458277197,-0.05703800047517683,-0.1223946269625456,-0.19074171598788187,-0.21467350739780108
179.0,-0.40201156097450896,-0.04260597859278526,0.35940558238172116,0.2229229880150703,-0.3794232894189451,0.15763848768167818,-0.10229855133639941,-0.12616577553000807,-0.2731843024106172,-0.2303051170373614,0.04909886287541515,0.11992756847769963
180.0,-0.11296959653490869,0.3408405376071076,0.45381013414201415,-0.11385025544098046,-0.28303755099173283,0.39707995907706334,-0.23665708413458242,-0.0880264794743863,-0.168377235806224,-0.11546678085166082,0.22270342591314787,0.3489718272138142
181.0,0.3641897199431304,0.5411670210003923,0.17697730105726353,-0.4533189825268271,0.09276576774546298,0.3597437621585981,-0.20013204199502954,0.012005136460395607,0.21104553616460842,0.2561604294431913,0.2758203154360337,0.30089092038463794
182.0,0.4999394630233874,0.31041866965301934,-0.1895207933703643,-0.40569227636281757,0.3441257423183415,0.06125029300897837,-0.08835948742877206,0.0368164743673657,0.3353588445720616,0.4033392651263747,0.11045137163189019,-0.015659169813525914
183.0,0.11852030770394684,-0.2465075144057184,-0.3650278221096641,0.0642620805035682,0.24213100047562855,-0.30586679153729496,0.09362428290355047,0.002824372222506261,0.00917331765209171,0.05623980859518901,-0.19881207884164048,-0.3257873611749198
184.0,-0.350712497100811,-0.605721196806858,-0.2550086997060506,0.4788389479614064,-0.04732152884100897,-0.4311914882204416,0.25167136119794703,0.00318211723371931,-0.2962620752202454,-0.35924414259291243,-0.3458770688154382,-0.32801534306717994
185.0,-0.4286252907059516,-0.4023660976116447,0.026259193094302892,0.41569096928110405,-0.22751497294585396,-0.18849291825560033,0.1912416458334259,0.03642057917807021,-0.177772898237619,-0.3308908527162551,-0.15551235406651992,-0.0466900155216314
186.0,-0.13215714481840163,0.13871041058573455,0.2708675554041354,-0.003585248294646258,-0.2019151687584218,0.20518861987821557,-0.07080805015052649,0.028799480975980344,0.1218914657666192,0.03167994067147723,0.16989547280003542,0.2264006757375068
187.0,0.18931591334470746,0.5067094089352226,0.31739349559051805,-0.3483229769736339,-0.06414540059078197,0.41260233302368965,-0.24280651247434576,-0.02229580085723802,0.17889697586602704,0.2584608293426598,0.3059706210117017,0.2907149632071595
188.0,0.31561960050313126,0.44505964182428026,0.12944004132115103,-0.3803949835975278,0.09337614396775977,0.28732370948209235,-0.1488083461750482,-0.046270073494656026,0.019848795599708435,0.19210810469599773,0.1730849253271825,0.1600772387126864
189.0,0.2449154467536122,0.06643712651917215,-0.1784783202344409,-0.1556528398429161,0.21200512901473936,-0.05623763517528623,0.04172591418480059,-0.022044845193653205,-0.06592725030152367,0.03262866857813095,-0.0600976319866245,-0.07363219881965723
190.0,0.01884895960227028,-0.3552128476946196,-0.37406180729689187,0.168202918650481,0.19642600596533277,-0.3648344914034531,0.10804999030323022,0.0019206185001498025,-0.03380643823771104,-0.08368038467944047,-0.21752942864303826,-0.28408749931334404
191.0,-0.2750982690740143,-0.5325141472677004,-0.25741587819368583,0.404025612207042,-0.00924313057938061,-0.39520822407654754,0.0785574043465462,0.0054522215756918554,-0.031780643898464814,-0.1724091837814071,-0.23080349058214225,-0.29378323437054404
192.0,-0.40568886445703284,-0.2815004288462096,0.12418843561082488,0.34397945272797265,-0.2653232333511955,-0.07880726489341644,0.07426314189561234,0.02124238184168452,-0.04776383626059305,-0.17033110040575997,-0.08977403390828428,-0.033600366765775526
193.0,-0.16242908927473051,0.2672390402595978,0.42966812953432915,-0.05237782696545218,-0.29590193185721375,0.3488561737465845,0.05324997149391323,0.05287001248664888,0.032943278952018415,0.01907576691779819,0.15549003901604916,0.2945675196533791
194.0,0.3148998061167289,0.6307968792624767,0.3158970731457463,-0.47347771880666384,0.00014585856085323816,0.47407742072068354,-0.0760557856149523,0.04495948506361157,0.12975842459503428,0.24732953162324395,0.3249527199935854,0.3707492131223047
195.0,0.5388564275773051,0.39129969011399307,-0.14755673746331271,-0.46572366600744,0.3436037829909986,0.1218572640802202,-0.21030482622521676,-0.0342169122312212,0.05352823335339902,0.21177753839848112,0.20490316720490864,0.09526973968583913
196.0,0.1866522657027388,-0.27176259176318374,-0.4584148574659223,0.042821641881374134,0.322116142575034,-0.3661492351108685,-0.14474431625598877,-0.11757820916373214,-0.13827394929562764,-0.08963538006375814,-0.16274445414372765,-0.28484664795264497
197.0,-0.41552188684290486,-0.6553279672051603,-0.23980608036225648,0.5364428382855386,-0.08863474283783386,-0.4483367745498388,0.1108452694304635,-0.09052044830206334,-0.16410859793921512,-0.2726312600366138,-0.4015389388212867,-0.3981579872536708
198.0,-0.5614162339961222,-0.3199187596990011,0.2414974742971197,0.44118082682073667,-0.40164713489403764,-0.03847173633278835,0.2861851037954836,0.06087923225884712,0.052692699335610126,-0.09340800749510025,-0.20752689070675942,-0.11687931898933612
199.0,-0.0471800404921031,0.3229427109940941,0.37012275148619844,-0.13857103080082925,-0.20805673070045635,0.3479425278302236,0.16975201975822274,0.1833530632674842,0.2237795930906275,0.17743600023729325,0.21452885955935044,0.2764760689303325
200.0,0.4808765787784144,0.49413425434412167,0.013257675565707611,-0.48853750669988133,0.23445234619521976,0.2538879455380897,-0.12606522844205031,0.11187986699737015,0.09527399563223209,0.14989794041522164,0.36279405679958565,0.36236426895752843
201.0,0.3590015233729566,0.07221026604896012,-0.286791257323997,-0.21571378455572734,0.32290957057481096,-0.10862552987967501,-0.2903717891995448,-0.103475480178671,-0.17347289523381734,-0.09605276880849535,0.09610345134722317,0.06926893993867672
202.0,-0.16427514369177074,-0.2727931858986231,-0.10851804220685338,0.21936621159923614,-0.028403730089441432,-0.19180009924084335,-0.16431846673233685,-0.221590747367671,-0.22251930277568904,-0.14913320875457298,-0.19826693507232146,-0.2366158380651106
203.0,-0.32144927665957046,-0.0928024782415701,0.22864679841800092,0.20780205845605856,-0.27552966997150413,0.06839188361458941,0.10296881144278011,-0.0990216923763914,0.012438709248835462,0.07515127803460453,-0.17893672197788144,-0.22658792469185923
204.0,0.00709160286763309,0.1790419982731914,0.17195039540555898,-0.09322551955474066,-0.08242915554053248,0.176897078272636,0.24427494318511672,0.13172583226755658,0.22764345992972412,0.2003563776144411,0.006996020813361287,-0.006928224977656012
205.0,0.1879949161349432,-0.021223084714233,-0.20921800084917735,-0.0839542155090116,0.19902733053142463,-0.11464224155026145,0.152990247230526,0.22116960740649763,0.16494954753358898,-0.006280511387175536,0.046391484439743384,0.10794264299908392
206.0,-0.06310949402886501,-0.39044662194344065,-0.32733712791457764,0.22647567009048622,0.13248727243850747,-0.3596783503125665,-0.051650503339895855,0.07897833834556592,-0.08215068443239461,-0.2506786086080933,-0.03602051655481033,0.05389596598520453
207.0,-0.23016596492069769,-0.189621669758206,0.04054429516249237,0.20992105291277155,-0.13538559237639786,-0.07554612670900296,-0.17874680344543195,-0.14125487920083543,-0.22142990746640595,-0.15353517857497354,0.006642934471757467,0.017162790875283288
208.0,0.06186065703208521,0.47619290891683136,0.4143322518847484,-0.26889969558849963,-0.17649909281943657,0.44516531514066965,-0.13861969819312048,-0.20293518956873544,-0.10824136479269154,0.17085124314490743,0.1647256165098993,0.06581715879833572
209.0,0.3596017896605724,0.6378451598958492,0.2782433702352761,-0.498427448714623,0.040538679841251896,0.4586446758730339,0.0036717010409985516,-0.040903739684429834,0.11431906595169622,0.275627973533091,0.1505501571674836,0.05023890745801887
210.0,0.13823893798648543,-0.07814356038265825,-0.2163824983691456,-0.02958960341919494,0.17724223671970554,-0.14682257061417883,0.10666357776107904,0.14595958348409144,0.18818572550267051,0.023454705190322174,-0.11960494443028358,-0.09674861283876532
211.0,-0.3057314370048442,-0.7619879650743152,-0.4562565280694708,0.5338672750199135,0.07508233026827044,-0.6090709129766806,0.09698140938452776,0.13303235238572167,0.04071342437250905,-0.23412941349084798,-0.3134849122054781,-0.1885691479410061
212.0,-0.3323730802807745,-0.4930026262292502,-0.1606295459484737,0.4118435755245348,-0.08582444783652213,-0.32686745261355293,0.03295672146349505,-0.022313549534775674,-0.1226510961024532,-0.16693828375090053,-0.12428115992216686,-0.049886372203992585
213.0,0.04461517373659385,0.3316550906320817,0.2870399168954883,-0.1888978711674448,-0.1205641022024568,0.30916205083447246,-0.00552309796929912,-0.0802472674302179,-0.09477788389659894,0.08875172449210512,0.24763235423589702,0.17969502095713025
214.0,0.27200273026005245,0.6340494062725738,0.3620466760125195,-0.45242123953544916,-0.044450755768376114,0.4975733196931386,-0.03730539110970861,-0.006955098466007346,0.03656195468356667,0.16494123411777056,0.3174189695275381,0.19915195174874153
215.0,0.14381568511457088,0.19182593221501246,0.04801024710044221,-0.16640190171684588,0.04728107333871488,0.11960509774528573,-0.0977862848501695,0.005539066761687782,0.043920748931478515,0.001195825906352109,-0.00778562501649288,-0.024047815682274477
216.0,-0.033344761603144805,-0.2615045018403185,-0.2281597402371711,0.14761796261085852,0.09603693716960128,-0.24438480195899862,-0.1052196944759373,-0.06956819267790922,-0.05020980606862784,-0.10610423192038074,-0.2803216815754779,-0.18877970532065996
217.0,-0.05974472556557649,-0.2585210634533816,-0.19877633788780427,0.15763663411089515,0.06934952176228033,-0.2278193361395472,0.025482080702839086,-0.032110131720333474,-0.02105762907469022,0.005862226153023962,-0.15699408125821435,-0.09281628875217676
218.0,-0.0706296416168487,-0.08932502808228586,-0.018695386465441423,0.07889327028710928,-0.024341048184572747,-0.053857566770771526,0.17672868153670393,0.12645915234769703,0.12177462159172003,0.11251631628975262,0.11798694415631696,0.08231082399513275
219.0,-0.1338762288743212,-0.0560370749268797,0.07783915394743807,0.09585380282961463,-0.10458322384902502,0.010156727313767622,0.14265765498154864,0.13393320726053712,0.10378904583587027,-0.0057808036760383435,0.13678242392192932,0.07884770282827129
220.0,-0.0867137581311534,-0.0003758594869265847,0.08633789864422926,0.04505573504576814,-0.08753563419827114,0.042294131770558734,-0.05568650644366455,-0.07644570496031963,-0.11589302892827939,-0.16717916550022155,-0.039220229808974896,-0.03822193994816136
221.0,0.12327717117761218,0.20589982656915676,0.08262265539155027,-0.1645663996153322,0.018393956601351263,0.1443838164482295,-0.18124337564175547,-0.1902995287655548,-0.20418442041270157,-0.07405756023412573,-0.0620069633081048,-0.03648929524322229
222.0,0.26614833622869777,0.2948728582241726,0.02872452199547549,-0.2816908054761856,0.11863284359624855,0.1623931637785944,-0.113868126828635,-0.029671730470503664,0.0027026239243708406,0.1646317800596958,0.077002732899204,0.07095295278679947
223.0,0.1328159404724033,0.04837093807999838,-0.08444500239240936,-0.09121948324325947,0.11039155964181865,-0.017648034746654395,0.033938668542169155,0.14394899367446887,0.19668682032382778,0.1724986469982059,0.07720928025835655,0.07104599233550901
224.0,-0.17281912154378246,-0.28581463031914917,-0.11299550877537022,0.22964508425989702,-0.029003853701577566,-0.19939842316595147,0.1270260533536669,0.08379898339704618,0.09737067868087985,-0.07843777192432136,-0.09457843047484214,-0.060290921505847035
225.0,-0.3361948644234332,-0.3296746994736598,0.006520164949773879,0.33336515394026855,-0.17243123240470795,-0.16186049373984848,0.12383502486310774,-0.0567501219036501,-0.09908746367531607,-0.2010714125562587,-0.14476210198578435,-0.12321292564780592
226.0,-0.15746524099361714,-0.07145397022309607,0.08601127077052344,0.11480218414699285,-0.12284480372733081,0.00678936779328251,0.015651064983440724,-0.053524187886278225,-0.0867817477027184,-0.014340996737276486,0.017211726133314235,-0.03412946684999907
227.0,0.22163384165283748,0.20838300542633725,-0.013250836226499101,-0.21456602840651717,0.11792480672642702,0.09727255020044476,-0.13149301909419595,0.01639574385731246,0.04404898842600908,0.16952610024430742,0.1373703030402868,0.07441720605435498
228.0,0.39834143297103947,0.3029946201790724,-0.09534681279196673,-0.35084974331430846,0.24776723128732286,0.10422985484678036,-0.14136392785788918,0.00072987229618669,0.029378420114503583,0.06319410985302841,0.06701408331926736,0.09583168506123568
229.0,0.12649504634255,0.17977031293590112,0.05327526659335072,-0.15438008770338837,0.03635600436056797,0.11728305519103636,0.033535550302783705,-0.033072832124602096,-0.08267129075447383,-0.13954460207863698,-0.03975699434948038,0.0532201613761585
230.0,-0.3192400620833419,-0.09337775145298992,0.22586231063035048,0.20550241675585612,-0.273357396345954,0.0663258590698916,0.1523252946628293,0.013591829430538379,-0.05056709360627717,-0.10400135513792656,-0.05251902434683661,-0.024915498926166017
231.0,-0.3947285907109472,-0.3274751795220537,0.06725341118889155,0.36230191927569966,-0.23084139930087963,-0.13085688558463487,0.02998341009921942,0.051552320432025324,0.10857362312392184,0.10668428651455196,-0.03830696835114426,-0.11260854280036779
232.0,0.014020422529830472,-0.2791477440899347,-0.2931681666197649,0.13445167326121507,0.15444121826337887,-0.2866295529883326,-0.12261418295152672,0.00014160473103993758,0.14377738591045025,0.16131721637967167,-0.03625807883515097,-0.10743182904054667
233.0,0.3895258368212492,0.05655221525932201,-0.33297362156192395,-0.22320301292850597,0.3613718764686188,-0.13778187830783387,-0.033051087085005704,-0.03955515740416716,-0.017898730772950445,-0.01731003207707862,0.02155163065418295,0.036587149147941284
234.0,0.2563719827035318,0.3384310311363543,0.08205904843282474,-0.29958884764097515,0.0864021517879229,0.2107430372925481,0.14018972609677732,0.0033259581102078827,-0.1698496474774526,-0.17407773613734406,0.09558889485072161,0.15315194995563153
235.0,-0.17938792438377582,0.2627408337433828,0.44212875812715946,-0.042890422905546004,-0.31121267165423916,0.35220408595014324,0.06437731220691943,0.024277016829970768,-0.12735301069699823,-0.11190671090701786,0.04566470334733647,0.07154720701504408
236.0,-0.3368630381670314,-0.04730008596992423,0.28956295219710465,0.1934789599163891,-0.3128636067299515,0.12074243411769933,-0.16370257870758528,-0.029769587871872883,0.05553471982307554,0.08090723468026682,-0.08446099859390237,-0.08892453476222426
237.0,-0.054218742518509035,-0.23511559886893818,-0.18089685635043154,0.14669350217558888,0.06381525393169686,-0.20773628138665706,-0.15342476132095242,-0.03839358374275371,0.17520907540298886,0.18194270528113468,-0.08485589907348445,-0.0885242598880909
238.0,0.2515615737898746,-0.18257614383628867,-0.43413771762616415,-0.034483904151084224,0.34295645925514845,-0.3078690486616181,0.1044274579542123,0.04188449279609771,0.09860777030970477,0.07324817192179175,0.05254427587015904,0.036339674849803744
239.0,0.19746440366501603,-0.04800715702188182,-0.24547156068689702,-0.07651805572732306,0.22139606140030085,-0.14697668111475426,0.20710064266761002,0.0652747359621636,-0.08924006113511164,-0.13676916897325592,0.089694744796284,0.04386738817310319
240.0,-0.09359704292646005,0.06536280757447394,0.15895985050093528,0.012944192253893545,-0.1264700366771616,0.11141130998245141,0.013461697809414802,-0.02364566172309229,-0.15761872052336517,-0.18613565671141774,-0.04320557690420676,-0.07554375847781272
241.0,-0.23083197425149382,0.17547057722954054,0.40630255148103595,0.028430478939443723,-0.3189955390629308,0.29073518593763875,-0.14993510939235263,-0.06609586993883333,-0.016857805782251677,0.02778005769934919,-0.10689921372129012,-0.06907747418656951
242.0,-0.06854751852781915,0.2009462543705365,0.26949377289835674,-0.0647176603043953,-0.16921288064534545,0.23596874536882073,-0.06754221128493151,0.010895661597626014,0.1283090794490225,0.22430902347719678,0.029895500692309132,0.11797988131399223
243.0,0.16568311589531504,0.016113150785481704,-0.1495699651098348,-0.09054136040123184,0.15823265813492898,-0.06603902710702624,0.049593230037885114,0.04768401186357667,0.05675326054231796,0.07817613295699007,0.14201397772955854,0.19071615025915573
244.0,0.18651774140261343,-0.23990333790188806,-0.4264210793045034,0.025728186153384305,0.30722394658984287,-0.33339031050163326,0.00849067407751296,-0.0357173351405829,-0.11397552578256577,-0.22814437128637627,0.026642357860437227,-0.0272775051086581
245.0,-0.0204533408519027,-0.2472161732087719,-0.22676283235686842,0.13296247137042,0.1028210115620809,-0.23781595580111067,-0.03580491395850969,-0.06418072333804473,-0.08613653121968601,-0.18969118630973095,-0.1406149676140338,-0.2611959141692993
246.0,-0.20525321649201686,0.015621294554774534,0.2208745110467953,0.09500848600593358,-0.21420889218249414,0.11777660929703015,0.061288780493914397,0.06216220685723482,0.12947341540845117,0.20081912626838694,-0.09654938001354076,-0.16740764830955493
247.0,-0.14827398302599215,0.20619666984277848,0.35447065286877166,-0.028284563044455296,-0.25161982975238334,0.28065832278825226,0.12153828762848243,0.13554079406553474,0.18327840974733284,0.3316558453471465,0.07543344443022208,0.14593368841023613
248.0,0.09102589214741987,0.138949254264564,0.047923362117140975,-0.11476371415390839,0.0227087247335734,0.09414640053092922,-0.020522554092924545,-0.017613393533629215,-0.0683927686407826,-0.0761831737249381,0.10737574575026401,0.2703739819375761
249.0,0.23789672740518314,0.015726478435228945,-0.22217024896995677,-0.12699451538058554,0.2309303264526014,-0.10284618042041953,-0.17645346600346318,-0.1940971371757251,-0.28453527103107507,-0.4352072436089479,-0.006223022079941175,0.07450828760894987
250.0,0.10872020991949537,-0.004454570090496277,-0.11317478000999028,-0.05224098382171066,0.11023423318857233,-0.05910373554350398,-0.1030067847535275,-0.10480939129250445,-0.11864804193397668,-0.16176690018375545,-0.04995682391260332,-0.16098270561897554
251.0,-0.16593208971478116,-0.06325714083807188,0.10267494887671173,0.11449147733682889,-0.1355969385979177,0.019101453326096432,0.09636212448992602,0.14971487608425632,0.23856272230983164,0.3738804027136014,0.010758100339859715,-0.17683841480284695
252.0,-0.2611493137157549,-0.2103443634658997,0.05080495024985511,0.2355030945138252,-0.1560365016808636,-0.08005158535747625,0.15789195110891935,0.2101675318189044,0.3002851991133919,0.3840592630687411,0.007284729479717095,-0.03632055712044719
253.0,-0.03769612198115039,-0.17203228822450745,-0.1343361662433587,0.10488802448671342,0.049453595105124364,-0.15293191006539703,0.05346374863118115,-0.004316897004920352,-0.02139660993318551,-0.1319941462938032,-0.07460454194461338,0.07017085455332536
254.0,0.24545699800113358,0.16072398618755912,-0.0847330118135742,-0.20264458931083876,0.16581877253684524,0.038374118066129406,-0.0590172902678665,-0.19513536643899704,-0.2964623834214518,-0.4193778768873829,-0.05128197816005019,0.09519827856879376
255.0,0.22402826177775828,0.3871968642898368,0.16316860251208024,-0.30542001319792933,0.02995765506162171,0.2753140565050949,-0.1092077227737908,-0.1319457600725294,-0.19193585394722693,-0.12748306800985476,0.09800463545830908,0.08586587678345389
256.0,-0.07691105110771622,0.14683313775471407,0.2237441888624301,-0.035362310292642314,-0.15115902363969075,0.18527601097528548,-0.10194098890649929,0.06369772266538655,0.10459291357535379,0.2514998457548695,0.14211077106424846,0.03021593478090198
257.0,-0.25253164085553903,-0.2783398188798158,-0.02580817802427924,0.26517020064230673,-0.11353411329338274,-0.1520958434113886,0.0013986832170628234,0.15011374962841972,0.21660888738243472,0.22060027593608733,-0.021400128687700862,-0.08527374896852997
258.0,-0.0904495902111314,-0.3502248678972346,-0.2597752776861039,0.22064911457290567,0.08510936726082345,-0.3052163170694979,0.15907065957333907,0.07336996435740488,0.08384358021964246,-0.0486409270717245,-0.16960550549063255,-0.15471225674882297
259.0,0.1363453952483623,-0.04529505438376571,-0.18164044963212572,-0.04535747693422313,0.15933371646039118,-0.11386974160891493,0.16826615447621035,-0.049864969077238794,-0.06952649151548242,-0.14064488350391674,-0.09302035183110213,-0.06213216346432193
260.0,0.11979593915757886,0.20826106523327176,0.08846512607569458,-0.16441363062736597,0.015540655420768238,0.14827944020523218,-0.052529687679537,-0.10947210052497508,-0.10292560778367647,-0.030184121406150524,0.0885512346258683,0.11188130633666453
261.0,-0.02632688490774277,0.20174766589923532,0.22807455080697736,-0.08781168786998368,-0.1274023491153802,0.21540525728800586,-0.2430990198991085,-0.07023416782132152,-0.06459096222318841,0.038872953389215405,0.13140953394110835,0.15765491908489673
262.0,-0.03690928186406492,0.09176636001835427,0.12867564188241787,-0.026832129638021587,-0.08258852518858902,0.1107778622400174,-0.12276666592551379,0.03604902314119295,-0.012178313823696734,0.0023850257582039907,0.023553971479572014,0.030224320595017354
263.0,0.03494788225667563,-0.022762161873946002,-0.05771004413062174,-0.005853766943174688,0.04664285158474378,-0.04022214183450288,0.16818756893863526,0.1126979915393854,0.05506226077161141,-0.01971695080140774,-0.06234214597796892,-0.08892793158190485
264.0,-0.017831380648268183,-0.1838663899939268,-0.16603500934565724,0.10011239464391213,0.07376445116691742,-0.17545558830362365,0.2305512861984852,0.06839251861938449,0.0988777515996794,0.01047042347292932,-0.0564602770810461,-0.07543294551784392
265.0,-0.11643457398170358,-0.2579416521566372,-0.14150707817493285,0.18664994475262942,0.011714947059985072,-0.2003318395450198,-0.017700136639782205,-0.05867409823640794,0.049399532002486646,0.03289237252181393,-0.029212040064351456,-0.023165964659024166
266.0,-0.03309741712064355,-0.03099575243718401,0.0021016646834595048,0.03268407428369799,-0.017629812130970725,-0.014697593312298852,-0.21908400107120637,-0.11822626128414403,-0.06594347399245287,0.028204236604412253,-0.008661632294273821,-0.025249590568612902
267.0,0.14827172948306647,0.3158532331918247,0.1675815037087584,-0.2312716604349455,-0.008466306778004272,0.24224517770230736,-0.10342654717900292,-0.03775681430410617,-0.11838143316123957,0.006059993008965563,0.04111687875592,0.00102635483945645
268.0,0.13035132501323615,0.3088378406056571,0.17848651559242124,-0.21992327582016188,-0.023200202926493812,0.2447427492749182,0.13197109784676328,0.08073339620692005,-0.03644350304437002,-0.03949300919391291,0.08442522110065119,0.10891321667596113
269.0,-0.08413820974223149,-0.1011657453607294,-0.017027535618499314,0.09183636028746078,-0.03441662721668253,-0.05872707414338752,0.14834916026325692,0.10235768441656201,0.09483251333118778,-0.06777365821828735,0.036287705906432696,0.14035982170169173
270.0,-0.17726091945292252,-0.3799164633062603,-0.20265554385333934,0.2785932160702809,0.011178252252483046,-0.2924639951462787,-0.034922058748375305,0.018030344137979912,0.11957075631034325,-0.01650322109372364,-0.07468113130629678,-0.027343109331143575
271.0,-0.02278805610504664,-0.16891248038293216,-0.14612442427788447,0.09645497485056582,0.061626649086514225,-0.158940255984046,-0.12722883931297965,-0.08315352447077776,-0.011621776210777233,0.06248610887694346,-0.11407735644960133,-0.21078812989353357
272.0,0.1447607802348443,0.21362142016896815,0.06886063993412823,-0.1790570580394768,0.0393907208495272,0.14162458506897146,-0.03268115155918976,-0.1129392476390204,-0.15158646623700323,0.05631714139012127,-0.02767318699941456,-0.14983881373167096
273.0,0.10963396856235307,0.27983482160589784,0.17020085304354712,-0.19506268544558802,-0.029419161483019814,0.22684237869195165,0.06660654068715813,-0.025517713678949262,-0.09686211634782795,-0.00646142281807561,0.0923425609318744,0.0951177251487726
274.0,-0.056805721815881643,0.026414474801864093,0.08322019661774249,0.015155461137896446,-0.0707513240849847,0.05551307570308788,0.051793650525771485,0.1270608167720278,0.12679346885373433,-0.006600988842209736,0.12840981063858464,0.22087937916502315
275.0,-0.14883879565327357,-0.19046279720944811,-0.04162400155617933,0.1698484616623395,-0.0547077875848089,-0.11743328177126652,0.0021161108965918976,0.16669473653926592,0.21790424249144644,0.02284620955878839,0.04185346940884208,0.0986151107169728
276.0,-0.061205108889482975,-0.168973150108311,-0.10776804121882995,0.11495488643003828,0.02324092371213209,-0.13971154999550142,-0.017943593089192144,-0.019354773275557294,-0.011424959511773261,-0.04664890225795399,-0.1096674684720612,-0.10110033322947302
277.0,0.12055460251901993,0.0008716776124512473,-0.11968292490656544,-0.0609890092096594,0.12090444297502935,-0.05881253577999796,-0.040469930488743235,-0.23699262403069787,-0.2918461514960163,-0.1416695130126387,-0.18283866190561462,-0.17153175966697468
278.0,0.17170092628711836,0.14195559277804926,-0.029745333509064567,-0.15665383636977304,0.10118771741022874,0.057470540891690354,-0.04436596715254774,-0.16410540164348356,-0.19903011269275472,-0.04415199441929737,-0.054523245834954534,-0.08171387879975062
279.0,-0.017989254322534454,0.14432832059495238,0.16231757491748885,-0.06276317214317334,-0.09046431104305905,0.15335250031975148,0.027091107747864374,0.15953023400698435,0.2104579314770457,0.20074552832665485,0.18359163240689083,0.06449468152955107
280.0,-0.21296189198875407,0.012328885601342867,0.22529077759009442,0.10029085346962442,-0.2196386301416506,0.11773214631880281,0.09024944989615903,0.2990517970055075,0.38786960024209244,0.24655334219102096,0.2430463490046109,0.1445724314529529
281.0,-0.10582565008007715,-0.13513708431981056,-0.02931143423973857,0.1201128738992791,-0.0382523380150137,-0.08258649098760967,0.017001458212885654,0.03471615910730098,0.04605512594396139,-0.045423679857004594,-0.0023787782940545275,0.09149286424008468
282.0,0.16393267872064105,-0.15906365428323685,-0.3229963330038807,-0.0025636519385364414,0.24392039078665623,-0.2402711258516922,-0.09828597328403536,-0.2787844174988937,-0.3822396904968017,-0.32944309984872405,-0.2782547246718768,-0.05050776359598689
283.0,0.1661456327213819,-0.029098987945596667,-0.19524462066697543,-0.06839525001183117,0.18082022747706336,-0.11160481607232148,-0.05228556600372877,-0.2121117473664785,-0.315524988826058,-0.22358920070480456,-0.2256074558114945,-0.14046530724382483
284.0,-0.09581237134928659,0.14973494067866497,0.24554731202795715,-0.026907723740924722,-0.17120922773489092,0.19725814042722364,0.09144928723103571,0.1175567448288949,0.15382795146880093,0.15000848619735285,0.10536105430061299,-0.07890902713523687
285.0,-0.1551139089223058,0.20872401988731873,0.363837928809626,-0.02671264385979441,-0.25981474745193367,0.2856264474597465,0.0726833507730944,0.24994395972464065,0.3893508671973301,0.32938312443393875,0.3015285282797119,0.06555652308162319
286.0,0.09038382245655688,0.04574955325104621,-0.044634269205515394,-0.06779351749349923,0.0681546967448008,0.00043722608971329065,-0.09568812842689782,0.05575976340024275,0.11262241495551668,0.13089405522088574,0.13308239839987518,0.12334454349291972
287.0,0.1635287293198122,-0.21788981416030664,-0.38141854348012316,0.027157292278590584,0.2733004814433573,-0.2992298895046438,-0.10930203033856115,-0.14992333562192292,-0.2443104435307895,-0.16006117735146383,-0.1644493346524961,0.030900875060890662
288.0,-0.11814027699101173,-0.2733007957874323,-0.1551605187964192,0.19512690829968043,0.0180758060285333,-0.21369200012789116,0.09111032976470174,-0.12180296915713022,-0.2142665270742482,-0.22313406072964578,-0.2334833980558195,-0.08363502312485266
289.0,-0.24927913758580117,0.00869223593327235,0.25797137351907873,0.11992298811927667,-0.2549885364497157,0.13349425939572496,0.1720664904341123,0.024579975885151158,0.06216305534486922,-0.07901396921736979,-0.043941764817717034,-0.06913701006467325
290.0,0.07166905617108918,0.31492034642714956,0.24325129025606124,-0.19270041606380056,-0.08611602085176817,0.2785662258162596,-0.03401110362456445,0.07940264291282734,0.1510426123387009,0.06168544495202755,0.138757408357972,0.036971564395352256
291.0,0.3376292176978625,0.244818170648909,-0.0928110470489566,-0.29040079603714997,0.21660805036366804,0.07524424461170909,-0.21375040774003523,0.02786665841950837,-0.00036524610720925304,0.11449030534160493,0.13186297829288035,0.06442999652208291
292.0,0.0745334081199446,-0.11835859652685579,-0.19289200464680392,0.021716663205576067,0.13499182499829568,-0.15561386090061585,-0.07268147185666278,-0.019886169398202785,-0.08303418521631349,0.11904030732207814,0.014587598765156378,-0.024436648243843628
293.0,-0.314213846852315,-0.3040788916459007,0.01013495520641572,0.30816273954620926,-0.16276539084743505,-0.14604524447360803,0.1789607244769402,-0.013479769404641021,0.021341825795116322,0.06371453211698128,-0.05640741770333542,-0.06903104823116936
294.0,-0.21255015032225538,-0.12125860397118933,0.0912915463510698,0.16654142563153118,-0.15359536939122598,-0.014371444403380758,0.16274061277010496,0.011231810910760946,0.09871600611803973,-0.08048091956326602,-0.05699738156720151,0.021112789172704295
295.0,0.18199723935980014,0.1286651345373968,-0.05333210482240257,-0.15462011226596747,0.11706002326927759,0.03709367013192784,-0.0772629424369298,0.004530146089227092,0.004127968873459451,-0.20459509025327985,-0.05044514597920544,0.09479326575437833
296.0,0.2361720944640033,0.16429542733332858,-0.0718766671306771,-0.199518207180208,0.1551169078931258,0.04530456227519986,-0.17555897585104635,-0.034633768226098885,-0.11957123297731291,-0.13540387829346195,-0.033268727616418685,0.00655597973517743
297.0,-0.057800264757133034,0.06942734081784128,0.1272276055749715,-0.006003267440677582,-0.09119411083192794,0.09833432571427632,-0.020668467687429606,-0.04106146887141568,-0.0927243420088796,0.10909893391637908,0.043827913415045494,-0.11281485598758992
298.0,-0.16796914029120327,0.0005380850278147843,0.16850722531901927,0.08305504810178087,-0.16819004348345143,0.08524885402769125,0.12167026978997776,0.030793847755604634,0.04962471432150716,0.27254043219284535,0.1258048974280111,-0.056240052326771844
299.0,0.02443185670123768,-0.07285482540390865,-0.09728668210514282,0.023994692717993007,0.05980634906915048,-0.08469130917068081,0.05945192777154574,0.093999157231688,0.13563658747658577,0.14230364751853833,0.07626014262215532,0.09853919606826442
300.0,0.11232141742906582,-0.1526894746717213,-0.26501089210078593,0.02051152086662055,0.18781839695927044,-0.20911721584964582,-0.06297476066371988,0.022726479894641584,0.06970375935896173,-0.16856595436567398,-0.09723761583334817,0.10124125222882042
301.0,-0.046774815929930644,-0.08826231337147064,-0.041487497441542405,0.06778772247278401,-0.0024807946801253676,-0.06526687147300425,-0.050067606258628404,-0.11340850250619648,-0.07203363832674647,-0.30394743127940355,-0.1814388937370414,-0.05341710962356527
302.0,-0.12151088130375322,0.11802155283135686,0.2395324341351073,0.0016747059614064391,-0.17974333917013385,0.17861715993326127,0.04035677384125838,-0.09635493091652929,-0.12130004343708672,-0.07803436810909499,-0.03663066893982523,-0.11746853764941208
303.0,0.0411222691883289,0.1974919423585981,0.15636967317026892,-0.11938108849562225,-0.05710714220181073,0.17701654165219333,0.040759934108715166,0.08361393724114383,-0.018288676156488524,0.2490411133478087,0.1674021782996836,-0.001929136771948138
304.0,0.15174696866489537,0.027386011454398094,-0.12436095721049618,-0.08943502025506003,0.1379273694972284,-0.0481832963052009,-0.03813193746472821,0.1524045585987156,0.08578815781250684,0.25509238445732424,0.15653095994152713,0.09621868623119856
305.0,0.01880890714052799,-0.14027362282820968,-0.15908252996873723,0.06072012443368482,0.08846207103251698,-0.14937816509781066,-0.05318302573050273,-0.0214274301525975,0.036313931922065584,-0.07233375883858295,-0.05693333428912803,0.03844370007616379
306.0,-0.13412730977577467,-0.08513581991958682,0.04899148985618793,0.10924894360237658,-0.09193179262736621,-0.01817112452552348,0.01908457927977832,-0.1756076093687916,-0.06461560510476433,-0.277825134719433,-0.17907797153486416,-0.05159981807694416
307.0,-0.08262128516679415,0.036830957632865605,0.11945224279966107,0.022662557324358148,-0.10105959483409382,0.07768140349987865,0.06064496630012984,-0.0562343517110492,-0.014588812503644953,-0.07638810735936154,-0.05242929900617586,-0.035381721486776326
308.0,0.05400546934404972,0.009524961756259378,-0.044480507587787994,-0.03131276195939636,0.0495179172056474,-0.01774230125992686,0.018098380143458857,0.15798847132970184,0.11543301632012645,0.21854238408812474,0.12499558753877811,0.0183801653417638
309.0,0.08215719528566587,-0.054545985594937466,-0.13670318088060388,-0.013176768367271323,0.10977730147428685,-0.09538650618316935,-0.031855969170738525,0.1333117064720703,0.06565955744553771,0.16591011523672303,0.10399262842095089,0.002523713554560292
310.0,0.03427714268360049,0.04322566819335231,0.00894852550974729,-0.03891607150239979,0.012840527287945887,0.026517974929540503,-0.03159167190926291,-0.08736931168008068,-0.14546288095915386,-0.13818225787088442,-0.05628894732106857,-0.02480168603333336
311.0,0.003183532398349756,0.16864929171345278,0.16546575931510069,-0.08672115573499334,-0.08125326871887857,0.16725195449021885,-0.01484790647920293,-0.17111400216810438,-0.19177940189300727,-0.23277092757721346,-0.10982040706899743,0.022020105322893706
312.0,-0.049715379593231385,0.0535554698153474,0.10327084940858254,-0.002169484152092376,-0.07683823868619524,0.07822749694702569,-0.005667980029396472,-0.020202067367853228,0.039765826257777255,0.007899294047065878,-0.0015946946063769638,0.06247393874743926
313.0,-0.1182830643591686,-0.19940883906663665,-0.0811257747074621,0.15949869050973234,-0.018955774737949568,-0.14070979168196518,0.023199108087311314,0.1272592639242941,0.2419336244450004,0.23655884685752518,0.08865314056041751,-0.008153760468525315
314.0,-0.046955306737360265,-0.21332533140711085,-0.1663700246697487,0.13060041655163798,0.05961432317873503,-0.19015360003802703,0.05626205171622995,0.09740463933827503,0.14407037459146416,0.16431060136848694,0.04685821455507271,-0.0944021641794607
315.0,0.16231780656781908,0.0644346676777429,-0.09788313889007973,-0.11380133029329237,0.13053980383851113,-0.016461571889816864,0.02663702520836514,-0.018442416045123828,-0.11038507482769884,-0.0958555236860826,-0.037978344624804115,-0.03788533158784879
316.0,0.20284682564698583,0.25055691881699615,0.047710093170005755,-0.22715445093493644,0.07830100556118401,0.14977338674061283,-0.054101370918712886,-0.07965928312013154,-0.21113020803864024,-0.24412738299771525,-0.055994701899049024,0.09287051173341629
317.0,-0.07347222214937557,0.10536161745003307,0.1788338395994068,-0.015602378827935042,-0.12593623644213922,0.14228929300246856,-0.07883218092946884,-0.06773204351181675,-0.09018191353002279,-0.13444845838488528,-0.02167265518625256,0.08689941866104807
318.0,-0.3004043228360271,-0.12833709964505907,0.1720672231909699,0.21482813638872078,-0.2370453027499045,0.021286407560937182,-0.008250949564954433,-0.012920690181475226,0.0798784060016149,0.1192362734007152,0.009923043238710244,-0.05834362704992962
319.0,-0.10216833017499986,-0.13789987417268298,-0.0357315439976789,0.11972780189895615,-0.03428812317267027,-0.08736642949468285,0.0636369681521371,0.058247204636273406,0.14691044096304995,0.2551863927859389,0.034639799476492004,-0.11536029899356091
320.0,0.2609601521119981,0.00395498208927338,-0.25700517002272155,-0.1329885661666446,0.25904608643742066,-0.1262659720441961,0.05787371686594415,0.08308246407951879,0.09304323969380326,0.11415449463866224,0.04947229688681782,0.00731532195694836
321.0,0.24462316714806676,0.041350558986004135,-0.20327260816206352,-0.1428317145949911,0.2252235094139257,-0.08033931370190961,0.010555259860801467,0.01939528814823121,-0.020236310246203728,-0.15502516753834095,0.01821330975964939,0.1137711320010707
322.0,-0.11897891006794983,-0.021277912793011205,0.09770099727493313,0.07060415090329668,-0.10746810786668078,0.03823407949844754,-0.025442421610994487,-0.06278366948975819,-0.1065886069309769,-0.23441887783225704,-0.05056287087626785,0.03989831406016109
323.0,-0.2732841122142697,0.014608406254828099,0.2878925184690933,0.12930990377911422,-0.2812184687936313,0.15072453912488037,-0.056702894013118926,-0.06672842449101647,-0.10209940518306226,-0.03978497747479201,-0.07423855714456368,-0.08478636457763528
324.0,-0.022624654693219722,0.12936276437037866,0.1519874190636004,-0.05362681686834525,-0.08842588687997627,0.14052332168315687,-0.06700450030883912,-0.010351713103636547,-0.02344358563946703,0.16196941172459883,-0.010856042999625951,-0.06324342563642903
325.0,0.209807306968127,0.0797526297522066,-0.1300546772159136,-0.14459979740599146,0.16980113135792063,-0.024686944749488005,0.006206887745462046,0.028216615315754208,0.055109908184950276,0.1281661848488053,0.0626469009238204,0.0467657359962826
326.0,0.09993093990290103,-0.15297591680912537,-0.2529068567120236,0.0267450277032161,0.17701127860768892,-0.20269303157717405,0.12364150373711806,0.041214681253074925,0.09277195013350024,-0.0365101911284096,0.056602988460319,0.05617282848241697
327.0,-0.12324247416873438,-0.23766669937911966,-0.11442422521038899,0.17999193405730066,-0.0042452178024909824,-0.17649901529052375,0.11366009542080562,0.04956645722949329,0.08718662171993487,-0.0826301260668142,-0.002751202409426559,-0.025386887435815995
328.0,-0.12513301980717115,0.010521194595291281,0.13565421440245626,0.056679206114534156,-0.13052563103264223,0.07265823671974687,-0.07303605317262057,0.01347733530981072,0.013377071913863559,0.0046436636806698964,-0.030509174352970403,-0.036345476945875275
329.0,0.04389003889177471,0.2807877866420046,0.23689774775022895,-0.16200253586111132,-0.09606709984105204,0.25919847198642537,-0.20580132323140937,-0.07702842021558805,-0.11974987933394933,0.03790837938305498,-0.02040249095891573,0.028286781604662727
330.0,0.12465211427666363,0.18901383365778968,0.06436171938112978,-0.1557356816743531,0.03063990192857685,0.12731892090241892,-0.06525235404287343,-0.10471669749861483,-0.17283514813867598,-0.037033481944639006,-0.02393348925090414,0.027078437696113587
331.0,0.039212147261449525,-0.14244801066900115,-0.18166015793044674,0.052018615937989864,0.1097118648180473,-0.16214938817521815,0.19150908842178768,0.01716430372804716,-0.01946693035037452,-0.06904340063460984,-0.02646189186474238,-0.038602180491356976
332.0,-0.08395624826329384,-0.265955377620756,-0.18199912935745968,0.17402657927519102,0.047629783549683315,-0.2246647918089051,0.20195978408898654,0.15097384761383675,0.1973202561922945,0.022084740135949694,0.025836121767639705,-0.028672139967065562
333.0,-0.1117308303347013,-0.062404302866942776,0.04932652746775705,0.0859253605786119,-0.08048879324434681,-0.006767074785610371,-0.07112613220360124,0.08907297092599327,0.18121965891558672,0.10247206624245687,0.08266034265088137,0.04428615777840767
334.0,-0.01729679399922876,0.1545371422371606,0.17183393623638565,-0.06860851152181527,-0.0927709223139777,0.16370205818719902,-0.2500318544940186,-0.1140046464929839,-0.07256310591620826,0.04377944950772601,0.0322477771033083,0.025738853519300536
335.0,0.11174480119180069,0.15489166737263535,0.04314686618083206,-0.13225074803785797,0.03547634165662608,0.09944664231843381,-0.0812266037705829,-0.17226316834939417,-0.21199393970740782,-0.0665975548712548,-0.08421110799870216,-0.05995368612565291
336.0,0.13279381205416046,0.038129642275286806,-0.09466416977887179,-0.08461464782755153,0.11260851962536658,-0.028465944100014365,0.18748231229020568,0.015845265425422625,-0.05002604010055485,-0.06826857953455341,-0.08586735759555929,-0.025026928393406662
337.0,-0.003107272422429156,-0.059900616598276495,-0.05679334417584308,0.031318287363373803,0.02496481110991122,-0.058717464150445944,0.17504673579514957,0.18785899455195618,0.13726833859686816,0.01635405051417697,0.04842396393128685,0.09957807613776395
338.0,-0.15766554235770333,-0.1354524689731347,0.02221307338456989,0.14576962955600162,-0.09007656849366276,-0.056689572172544646,-0.07158081359700583,0.09136805816334721,0.06716043555106982,0.034143976762815775,0.1025898663434143,0.06254501840427781
339.0,-0.1433323443600486,-0.13186858118484487,0.01146376317520144,0.1370565242504516,-0.07586253278151729,-0.06012959989094056,-0.17573018326866827,-0.1325383681349064,-0.0888502852527949,-0.03189881054361128,-0.026472564582638594,-0.13272517277126142
340.0,0.0405868781947323,0.04741444096657384,0.0068275627718399675,-0.04401952245574902,0.01787114958296913,0.02720161557773034,-0.013857733968905573,-0.15748160591849525,-0.036289123312776034,-0.03579418061573017,-0.12209195251191196,-0.15239543705546696
341.0,0.18768207328110711,0.2481780801310747,0.06049600684996806,-0.2176167765996961,0.06298270439961094,0.15460988025161032,0.13018933015097636,0.037759491098601786,0.11135555795097356,0.06673076742445727,0.0054796238678808335,0.09778277121679398
342.0,0.1271082202214718,0.15628086956486492,0.029172649343393687,-0.14118290742838618,0.047992061645401596,0.09297235933624483,0.041500992493097785,0.15597852096597895,0.05624586628982199,0.11427571924578038,0.1672864769036093,0.23963369020131467
343.0,-0.07071675695620963,-0.18446469523630074,-0.11374793828009222,0.1281102170069391,0.021478077458549745,-0.14947415957835858,-0.10520182095072077,0.04563300639481659,-0.1249527865206131,-0.007384516982248911,0.0735173047713837,0.021461914103953258
344.0,-0.18257777102091893,-0.31340422333603835,-0.1308264523151202,0.24799226871879151,-0.025386180275526426,-0.2228482146781936,-0.06010959371660763,-0.09960769108649012,-0.1156444305825912,-0.1596022706322953,-0.17319844239436194,-0.2382080174359625
345.0,-0.09828934908219263,-0.013778523813717506,0.08451082526847613,0.05521864507943597,-0.091371994593884,0.03538923717464111,0.10021585330320283,-0.07714429322243253,0.07017128841094235,-0.1322244059753828,-0.1981166945242278,-0.15062056344936245
346.0,0.07102986088605354,0.3118653078853719,0.24083544699932002,-0.19239749221212618,-0.08515473045852956,0.2773523361550163,0.11304324980762849,0.03476627198551683,0.1263614612137154,0.05953891061541798,0.06654332798390744,0.12943864892952914
347.0,0.14944324994706887,0.20714162487128662,0.05769837492421779,-0.17825389477983428,0.04614368245691892,0.13304280604573923,-0.05338762358497765,0.05772693686745454,-0.001936306345057377,0.19213050630272838,0.25755216983070056,0.1892284565750295
348.0,0.08358178776280772,-0.17119912525965134,-0.25478091302246086,0.04495047118223581,0.16972399758541337,-0.21374933887703257,-0.15936508017831236,-0.0038682068744005428,-0.06965115726897407,0.11477924436380718,0.10863330797007516,0.0036958765680298114
349.0,-0.04491437683420451,-0.2922699106394144,-0.24735553380521189,0.1696297308889144,0.10098101113106112,-0.2709600346660567,-0.05381720889426439,-0.026136295207521008,-0.000725119272295149,-0.08110769717390905,-0.17327868293099208,-0.11934724429010156
350.0,-0.12028473649615265,-0.007955245122904749,0.11232949137324749,0.06393081801571651,-0.11728872418658705,0.052268628780646205,0.11976297813511044,0.008420573987833363,0.02459967492872414,-0.1785247600155694,-0.21579410123401283,-0.06313590573518711
351.0,-0.08244312633867924,0.2689223289041809,0.3513654552428618,-0.09442282287557033,-0.21722889094383668,0.31133164866330953,0.1398171542702092,0.015871186992638005,-0.042913113182454096,-0.08173446894642998,0.009460657420873242,0.019338964508525004
352.0,0.025237995124861155,0.15317776257320298,0.127939767448345,-0.09018799967713888,-0.05037027640021917,0.14119537308896687,0.0011948866318171006,-0.01818324380364406,-0.04373174354134989,0.07874598039624837,0.1842352195312189,0.03610817670681029
353.0,0.09242081702009639,-0.18977184037703718,-0.2821926573971327,0.04879499843649221,0.18831670653014387,-0.23672457976943234,-0.11256206659259374,-0.023060972571503795,0.05090514876357025,0.11638832571618235,0.09917857206347531,0.03233889818030937
354.0,0.06660932832366062,-0.2624903710727032,-0.32909969939636574,0.09906331412144025,0.19749486268904023,-0.2968364849981888,-0.09049782423132169,0.015574370960010428,0.07630615753302514,0.03277462202692369,-0.08474614122469527,0.016011478449391596
355.0,0.004014918422952239,0.07371386326723581,0.06969894484428034,-0.03771514135427539,-0.034049463631113476,0.0717966381130804,-0.002344697870151491,0.02675540316751712,-0.008843646813877198,-0.01930269548920506,-0.10427064352399985,-0.03114669341730217
356.0,-0.038669120728389565,0.34600386779999165,0.38467298852838056,-0.15368178671290023,-0.21213445903476785,0.3664064578876856,0.052946623257145685,-0.013286918434634528,-0.05609515704165931,-0.005285355693914015,0.025144378189949367,-0.04613419181727524
357.0,-0.07107748971285317,0.10517837678954829,0.1762558665024034,-0.018452445111572825,-0.12297566940618414,0.14124833057213648,0.07238888740825399,-0.02913475423257464,-0.012972862297740681,-0.041542906966787856,0.07367105324807723,0.014142781551138094
358.0,-0.07767650964393312,-0.3546676345941433,-0.2769911249502081,0.2148117610698205,0.10049698162741225,-0.3166403527932205,0.06767189338637723,0.020650758798837376,0.008650740206723668,-0.11508971711837328,-0.021569113827940554,0.058068855455008755
359.0,0.005639461079872342,-0.3365922970675745,-0.34223175814744716,0.16589330790498888,0.17409797745004846,-0.34045669751907787,-0.00679056096633617,0.051465328193002015,-0.02224293088000324,-0.04307174533569482,-0.07530599934631135,0.004433495709580409
360.0,0.13975869002699906,0.20490461430521606,0.06514592427821751,-0.1704770090490815,0.03685671807300432,0.13532090694239132,-0.12982326470998284,-0.014021115114994714,-0.0071296726209540435,0.16117524232442304,0.01450645902573804,-0.06343958654009133
361.0,0.14953904219942082,0.5060953136951539,0.356556271495733,-0.3268809320110179,-0.10417777696848858,0.4326710258442578,-0.13800085971902892,-0.08886048500274367,0.05750068695990613,0.1913428453544028,0.09455455375548312,-0.03182462796885128
362.0,-0.03965796308983106,0.10174951025249328,0.14140747334232226,-0.03226500853645418,-0.09094319001583322,0.12203252543693041,0.04969914883195703,-0.03433910065066137,0.0519541144566768,-0.06586160646137385,0.02444206856502125,0.05135817679735001
363.0,-0.23596852015236305,-0.4589348373866059,-0.22296631723424687,0.34580561980492625,-0.006105404276896714,-0.3421640895667536,0.2200121550375553,0.09729363477462816,-0.03587986461449169,-0.25725230195040866,-0.0859112958554421,0.05662612942870579
364.0,-0.1786067693858495,-0.40513190920365516,-0.226525139817807,0.2920071806259518,0.025002058882257188,-0.3170092486182776,0.11201884359990898,0.10511775870752581,-0.07127939971216014,-0.07837410447565904,-0.06238630901053256,-0.018823237172060737
365.0,0.12238038776223603,0.16586202373907044,0.043481635976837775,-0.1426840574882353,0.03991628466811843,0.10525220959334981,-0.1615460205146927,-0.04562740798564479,-0.006712172055036829,0.21080290835729318,0.05191552682181457,-0.05529334866696965
366.0,0.33332937250744576,0.4882192496173247,0.15488987710988283,-0.41020405043990427,0.08830550625801849,0.3230248336323909,-0.22136844954395837,-0.14004554889683102,0.040603151262397746,0.167911837740716,0.07462173197217971,-0.005576260605810356
367.0,0.1557911226151156,0.19579254793515977,0.04000142532004396,-0.17657250565814198,0.056651925916227995,0.11812573426143858,0.018192881210782184,-0.0361329649706476,0.0026557329689672784,-0.1280446424672054,-0.024939050252860567,0.03707532406676084
368.0,-0.257260887527129,-0.283168964622915,-0.02590807709578937,0.26957800362930656,-0.1155673593678727,-0.1557066742127853,0.20707321276896495,0.10976527972092323,-0.024555540063592375,-0.20227758153955724,-0.08237324713075463,0.001188367045399792
369.0,-0.39311363811973654,-0.37372435414427446,0.01938928397546082,0.38369222761259325,-0.20490140328968212,-0.17788629861072103,0.09301058386235508,0.08682419234340336,0.031181423193749648,0.053856509408992274,0.0011664383281850253,-0.040313807835017534
370.0,-0.029368592897203418,-0.04295815005737834,-0.013589557160173963,0.03650831914992871,-0.00712162394080222,-0.027689312588468462,-0.11383145304703586,-0.04882066279744987,0.06937292870406833,0.22009077589567194,0.09905949904854876,0.0025354647002944065
371.0,0.3868835487726217,0.2712879208509739,-0.11559562792164675,-0.3292192214305345,0.2504541011714434,0.07854848442288348,-0.11118585155624872,-0.08518201909835725,-0.012602373149383653,0.0340138530963719,0.050016898884487,0.06881729499247191
372.0,0.3033846557948416,0.23725916983725145,-0.06612548595758945,-0.270395739065546,0.1835902485697069,0.08539277181435574,0.03484343398962605,0.008067659982040678,-0.11594448906190788,-0.20204188071677565,-0.08745026861747617,0.03588273483139515
373.0,-0.14601415275173524,-0.03124510064206925,0.11476905210966654,0.0888473375329454,-0.1303603381736017,0.04133840951239439,0.0703411465286133,0.06330944911166271,-0.074350961759422,-0.13015685497511803,-0.11420279606810317,-0.06886592578812475
374.0,-0.34141884502694836,-0.1966032252097463,0.14481561981720156,0.2689771583779432,-0.24208436344204415,-0.025792616202121643,-0.014254746366305653,0.004825837564016945,0.07588907330276093,0.11047038071662842,0.013366654842803492,-0.09457162774099173
375.0,-0.09395478352050171,-0.12061186717232535,-0.026657083651825217,0.10694938388384814,-0.03316932859991976,-0.07341660875093514,-0.03747385815767862,-0.05133515088223309,0.13673803620614974,0.16165745867210862,0.12399073412853541,0.0019544864105259553
376.0,0.15789480959188285,0.038572434013269014,-0.11932237557861405,-0.09820823133853951,0.1379079697021455,-0.04058470426445522,0.023364181928561645,-0.014843680683367165,0.03554130588980385,0.009876175656481159,0.08131438675797614,0.09579718392739336
377.0,0.1112540865988083,0.09666306514714516,-0.014591021451661395,-0.10354465658741864,0.06221567236167517,0.040835145246439435,0.03510068567989243,0.04157491688607312,-0.09117040827551054,-0.08674579627597119,-0.04621944099351616,0.08147649015793214
378.0,-0.00057401129299256,0.054955225618676086,0.055529236911669146,-0.02713511548576429,-0.027629908617492815,0.055544181615249266,-0.018408503297212987,0.028775104526558033,-0.10483460642699344,-0.052918094202597805,-0.10766146280857834,-0.007011374458394329
379.0,0.049545864006762454,0.0060125177471546404,-0.04353334625960931,-0.02820302787910546,0.04737513033269274,-0.018455951956275116,-0.033547648691604315,-0.018244182909095366,-0.020367418831446542,-0.020404707411039835,-0.05648073944343254,-0.08363880621204489
380.0,0.0679765103711634,-0.02667774427848313,-0.09465425464964765,-0.02082738116422436,0.08113891387161906,-0.06096003296994687,-0.0011554357867850007,-0.027289572468216387,0.06264808541733961,-0.014644522305418978,0.03670879857083027,-0.09723014423408771
381.0,-0.12314168214261242,-0.05529520848015845,0.06784647366245508,0.08951568543288428,-0.0964296150952218,0.005843644606432855,0.006460799354803116,-0.006434254505293825,0.07935791862048645,0.044964338263171755,0.08627557350302358,-0.02182403735873468
382.0,-0.262716233143106,-0.042169112964123734,0.22054712017898465,0.15264944356278243,-0.24176187151560433,0.08936228576500403,0.0015544664008630385,0.003426807485048416,0.02936726864936504,0.10072749370530744,0.05719776290749104,0.10659496854820157
383.0,-0.05282856345180362,0.02831404757109213,0.08114261102289715,0.012170463368895337,-0.06608208574758954,0.0552116903855718,0.028938878992433883,0.0074561842851873185,-0.03906526464660968,0.025529224303723334,-0.02298148366627165,0.14544063476995864
384.0,0.2970711648278882,0.06859573250317459,-0.22847543232471504,-0.1828265525386217,0.26321668792857517,-0.07993510483110898,0.031161997383162925,0.019683713875836093,-0.061948371164398136,-0.10319196623458364,-0.07903900227512826,0.0007353045499763346
385.0,0.3196331923491289,0.008136388318806734,-0.3114968040303257,-0.16382227244903724,0.31490074855334965,-0.15205523830817813,-0.036702522899075225,0.016094581140764695,-0.0246850852852819,-0.0914553375131841,-0.0538798973877505,-0.17404056072696342
386.0,-0.04784490973139838,-0.06316619662492926,-0.015321286893533336,0.055175894678270346,-0.016851232556723255,-0.03931869841686986,-0.06820585516862358,-0.016068077721151913,0.0173356546967113,0.0361470487211671,0.019545019604348443,-0.1333657082466452
387.0,-0.3715261813300916,-0.01685168544052495,0.35467449588956923,0.19376495602102073,-0.3627851668828016,0.1690920110966609,0.013899714996644337,-0.03725254358370957,0.022185573678397647,0.07790994302650886,0.05910696008406408,0.0885924913174823
388.0,-0.2752589291749298,0.08059705324175603,0.35585598241669186,0.09767062897166676,-0.31509867945958947,0.21812668803827914,0.07747734648246135,-0.013145725169761917,0.019455804609809092,0.006018801094035209,0.0432741374472988,0.18840430875031844
389.0,0.12108631036424355,0.038946918732801886,-0.08213939163144011,-0.07910423767471558,0.1015441140592001,-0.021762116858757962,0.004919787733215879,0.02931469766537663,0.03191629874197956,-0.023452837992892567,0.007591175256391735,0.03135448633314259
390.0,0.365981436438908,-0.1193588829863007,-0.4853403194252134,-0.12313589720545337,0.42554492624738405,-0.3019726694976506,-0.0691771773289394,0.040432662356129946,0.014354745125416722,0.014875541548643461,-0.037853999259146245,-0.15061439308150734
391.0,0.19706669874974744,-0.12123300279345223,-0.3182997015432047,-0.03888376064796053,0.25778310052630377,-0.21925994833439855,0.000873530972447898,0.008933972698415605,-0.048406896157418174,0.004086482140546107,-0.07647243924954536,-0.10723195157033978
392.0,-0.168378185236093,0.1125264754725016,0.2809046607085951,0.027108067123278373,-0.22487363267370888,0.19635490493123867,0.079349528822808,-0.03535459126981129,-0.07184777112382519,-0.04317411885901675,-0.03247050984832035,0.07634665081438381
393.0,-0.30253011401143,0.23484412784745318,0.5373742418588868,0.03424046361966058,-0.4203866324225431,0.385149358169742,-0.005244483388117554,-0.04917496971616596,-0.004058938179503863,-0.017644055154053807,0.09058590751180237,0.13044035154834263
394.0,-0.08828378115850927,-0.015138471755642102,0.073145309402869,0.052645639936748874,-0.08036753163466721,0.02883858721410239,-0.11201236747214063,-0.007672838351107454,0.06678813920269278,0.03357073680364597,0.11466309176860073,-0.007636092283651792
395.0,0.16743928002095892,-0.2966166684986201,-0.46405594851957915,0.06487731738999215,0.3166698167400108,-0.3793516283357972,-0.0263612087502548,0.053933774640322084,0.05029620595182532,0.001586612586603126,-0.0491991502144328,-0.12700151398440024
396.0,0.1732594166655906,-0.13349097217132738,-0.30675038883691863,-0.0202696462577956,0.23992476253212827,-0.21926185648515056,0.12639788190555415,0.056153423665426895,-0.0033783127003952553,-0.029891305824171866,-0.16916869787456448,-0.05733997115111195
397.0,0.009077024901988901,0.26085949865024644,0.25178247374825696,-0.13539232853912084,-0.12263835254658721,0.256007719561063,0.08138984589848879,-0.014754027539250631,-0.015465640839349759,0.04949278048287349,-0.021361901707032487,0.0962465406997324
398.0,-0.08225553350287389,0.2510466251479659,0.33330215865083834,-0.08466296822406336,-0.20830426506385935,0.29113488963564765,-0.09242352500833119,-0.06367308956291451,-0.01915745272190351,0.09477576309180717,0.18676503569831648,0.11348288865617247
